Freq "Front Wall Bounce"
22.4 -24.418987341772144
23.0 -23.01898734177211
23.6 -21.618987341772133
24.0 -20.31898734177212
25.0 -19.01898734177211
25.8 -17.7189873417721
26.5 -16.418987341772116
27.2 -15.218987341772099
28.0 -13.918987341772116
29.0 -12.718987341772099
30.0 -11.418987341772116
30.7 -10.118987341772133
31.5 -8.718987341772099
32.5 -7.318987341772122
33.5 -5.818987341772122
34.5 -4.318987341772122
35.5 -2.8189873417721216
36.5 -1.2189873417721273
37.5 0.381012658227867
38.7 2.081012658227884
40.0 3.6810126582278784
41.2 5.381012658227867
42.5 6.98101265822789
43.7 8.581012658227884
45.0 10.281012658227873
46.2 11.881012658227867
47.5 13.381012658227867
48.7 14.98101265822789
50.0 16.48101265822789
51.5 17.98101265822789
53.0 19.381012658227867
54.5 20.68101265822788
56.0 22.081012658227884
58.0 23.381012658227867
60.0 24.68101265822788
61.5 25.98101265822789
63.0 27.18101265822788
65.0 28.48101265822789
67.0 29.68101265822788
69.0 30.881012658227867
71.0 32.081012658227884
73.0 33.28101265822787
75.0 34.48101265822789
77.5 35.581012658227884
80.0 36.68101265822788
82.5 37.78101265822787
85.0 38.78101265822787
87.5 39.78101265822787
90.0 40.78101265822787
92.5 41.68101265822788
95.0 42.581012658227884
97.5 43.48101265822789
100.0 44.28101265822787
103.0 45.081012658227884
106.0 45.88101265822788
109.0 46.581012658227884
112.0 47.28101265822787
115.0 47.98101265822789
118.0 48.68101265822788
122.0 49.28101265822787
125.0 49.88101265822788
128.0 50.48101265822789
132.0 51.081012658227884
136.0 51.68101265822788
140.0 52.19544012162533
145.0 52.75267541214678
150.0 53.25267541214678
155.0 53.724152053565696
160.0 54.16719716324737
165.0 54.596095800666724
170.0 54.996095800666716
175.0 55.3394185032685
180.0 55.69609580066672
185.0 55.996095800666716
190.0 56.29609580066673
195.0 56.52480341242518
200.0 56.79609580066671
206.0 56.99609580066673
212.0 57.224152053565696
218.0 57.38101265822788
224.0 57.55267541214679
230.0 57.68101265822788
236.0 57.78101265822787
240.0 57.9241520535657
250.0 58.02415205356571
258.0 58.09544012162535
265.0 58.18101265822788
272.0 58.224152053565696
280.0 58.295440121625326
290.0 58.35267541214679
300.0 58.39609580066672
307.0 58.42480341242517
315.0 58.4539845756049
325.0 58.4685019571483
335.0 58.496095800666716
345.0 58.496095800666716
355.0 58.52480341242518
365.0 58.52480341242518
375.0 58.52480341242518
387.0 58.55267541214679
400.0 58.56719716324739
412.0 58.56719716324739
425.0 58.56719716324739
437.0 58.6241520535657
450.0 58.6241520535657
462.0 58.63876933287319
475.0 58.63876933287319
487.0 58.69609580066672
500.0 58.66850195714829
515.0 58.66850195714829
530.0 58.683307425164806
545.0 58.656263884652454
560.0 58.656263884652454
580.0 58.656263884652454
600.0 58.62967223187582
615.0 58.62967223187582
630.0 58.62967223187582
650.0 58.62967223187582
670.0 58.62967223187582
690.0 58.62967223187582
710.0 58.62967223187582
730.0 58.62967223187582
750.0 58.600996892242314
775.0 58.600996892242314
800.0 58.62967223187582
825.0 58.659497439698036
850.0 58.659497439698036
875.0 58.659497439698036
900.0 58.67467855919569
925.0 58.70099689224231
950.0 58.7310189983986
975.0 58.75949743969806
1000.0 58.7746785591957
1030.0 58.80488251919001
1060.0 58.85949743969805
1090.0 58.87467855919571
1120.0 58.90488251919002
1150.0 58.95949743969805
1180.0 59.00488251919001
1220.0 59.00488251919001
1250.0 59.0202554154478
1280.0 59.079188109134925
1320.0 59.06948483750305
1360.0 59.06948483750305
1400.0 59.07586673571915
1450.0 59.091702321254196
1500.0 59.12320131511519
1550.0 59.099327830641336
1600.0 59.11544445028684
1650.0 59.11544445028684
1700.0 59.11544445028684
1750.0 59.131874792109734
1800.0 59.131874792109734
1850.0 59.163809109843235
1900.0 59.19207403837283
1950.0 59.19207403837283
2000.0 59.19207403837283
2060.0 59.131874792109734
2120.0 59.131874792109734
2180.0 59.10859286567692
2240.0 59.10859286567692
2300.0 59.057413228703616
2360.0 59.03479639297337
2400.0 58.98444864813636
2500.0 58.912966516670984
2580.0 58.88849275714379
2650.0 58.82001312876486
2720.0 58.7529596058038
2800.0 58.70629705277617
2900.0 58.66068826547714
3000.0 58.624309291572224
3070.0 58.59752065380727
3150.0 58.59752065380727
3250.0 58.56068826547713
3350.0 58.62524078644338
3450.0 58.6110993290769
3550.0 58.660850409529
3650.0 58.73467653602936
3750.0 58.78043559004987
3870.0 58.87968508519135
4000.0 58.941072026806985
4120.0 59.04880429367268
4250.0 59.15949743969805
4370.0 59.214682465318184
4500.0 59.288447187195466
4620.0 59.322337775573594
4750.0 59.312380609284325
4870.0 59.25717382617338
5000.0 59.20794277829311
5150.0 59.0610832083428
5300.0 58.90581779433398
5450.0 58.73590966382658
5600.0 58.61776495229845
5800.0 58.48974673797762
6000.0 58.344443523679395
6150.0 58.2818492623983
6300.0 58.258296872807755
6500.0 58.23049577660735
6700.0 58.26802064177303
6900.0 58.36327341769681
7100.0 58.470270699613856
7300.0 58.647974822559256
7500.0 58.86483122944629
7750.0 59.10652945312872
8000.0 59.3171765790182
8250.0 59.55670979544603
8500.0 59.75267541214678
8750.0 59.969146869619955
9000.0 60.1322176053225
9250.0 60.22634618255859
9500.0 60.244727621313395
9750.0 60.23688385124007
10000.0 60.12158967755057
10300.0 59.95973142569276
10600.0 59.70131907853253
10900.0 59.49062368591421
11200.0 59.247538228955655
11500.0 58.990064633932796
11800.0 58.76926355216121
12200.0 58.635549776318435
12500.0 58.50595177436052
12800.0 58.48602469680774
13200.0 58.4989257181604
13600.0 58.623177443896516
14000.0 58.69002242228799
14500.0 58.81982049917983
15000.0 58.957251478561126
15500.0 59.007461587380796
16000.0 59.00984245790327
16500.0 58.976138667511215
17000.0 58.82527446030267
17500.0 58.70588863475469
18000.0 58.46578001322708
18500.0 58.26231808681016
19000.0 58.0114342269922
19500.0 57.76264787548619
