Freq "Front Wall Bounce"
22.4 -21.800000000000004
23.0 -20.4
23.6 -18.999999999999993
24.0 -17.69999999999998
25.0 -16.39999999999997
25.8 -15.100000000000016
26.5 -13.800000000000004
27.2 -12.600000000000016
28.0 -11.300000000000004
29.0 -10.100000000000016
30.0 -8.800000000000004
30.7 -7.499999999999993
31.5 -6.100000000000016
32.5 -4.70000000000001
33.5 -3.20000000000001
34.5 -1.6999999999999815
35.5 -0.20000000000000995
36.5 1.3999999999999844
37.5 3.000000000000007
38.7 4.699999999999996
40.0 6.29999999999999
41.2 8.000000000000007
42.5 9.600000000000001
43.7 11.199999999999996
45.0 12.899999999999984
46.2 14.500000000000007
47.5 16.000000000000007
48.7 17.6
50.0 19.1
51.5 20.6
53.0 22.000000000000007
54.5 23.30000000000002
56.0 24.699999999999996
58.0 26.000000000000007
60.0 27.29999999999999
61.5 28.6
63.0 29.79999999999999
65.0 31.1
67.0 32.29999999999999
69.0 33.50000000000001
71.0 34.699999999999996
73.0 35.899999999999984
75.0 37.1
77.5 38.199999999999996
80.0 39.29999999999999
82.5 40.4
85.0 41.399999999999984
87.5 42.40000000000001
90.0 43.4
92.5 44.29999999999999
95.0 45.199999999999996
97.5 46.1
100.0 46.9
103.0 47.699999999999996
106.0 48.50000000000001
109.0 49.199999999999996
112.0 49.90000000000001
115.0 50.6
118.0 51.29999999999999
122.0 51.9
125.0 52.50000000000001
128.0 53.1
132.0 53.699999999999996
136.0 54.29999999999999
140.0 54.81442746339746
145.0 55.371662753918905
150.0 55.871662753918905
155.0 56.34313939533781
160.0 56.7861845050195
165.0 57.215083142438836
170.0 57.61508314243884
175.0 57.95840584504061
180.0 58.315083142438844
185.0 58.61508314243884
190.0 58.91508314243885
195.0 59.14379075419729
200.0 59.41508314243884
206.0 59.61508314243883
212.0 59.84313939533781
218.0 60.00000000000001
224.0 60.1716627539189
230.0 60.29999999999999
236.0 60.4
240.0 60.543139395337825
250.0 60.64313939533782
258.0 60.71442746339745
265.0 60.79999999999999
272.0 60.84313939533781
280.0 60.914427463397466
290.0 60.97166275391891
300.0 61.01508314243883
307.0 61.043790754197296
315.0 61.072971917377025
325.0 61.08748929892041
335.0 61.11508314243884
345.0 61.11508314243884
355.0 61.14379075419729
365.0 61.14379075419729
375.0 61.14379075419729
387.0 61.1716627539189
400.0 61.18618450501949
412.0 61.18618450501949
425.0 61.18618450501949
437.0 61.24313939533781
450.0 61.24313939533781
462.0 61.257756674645314
475.0 61.257756674645314
487.0 61.31508314243883
500.0 61.28748929892041
515.0 61.28748929892041
530.0 61.30229476693693
545.0 61.275251226424565
560.0 61.275251226424565
580.0 61.275251226424565
600.0 61.248659573647934
615.0 61.248659573647934
630.0 61.248659573647934
650.0 61.248659573647934
670.0 61.248659573647934
690.0 61.248659573647934
710.0 61.248659573647934
730.0 61.248659573647934
750.0 61.21998423401444
775.0 61.21998423401444
800.0 61.248659573647934
825.0 61.278484781470176
850.0 61.278484781470176
875.0 61.278484781470176
900.0 61.29366590096782
925.0 61.319984234014434
950.0 61.350006340170715
975.0 61.378484781470156
1000.0 61.39366590096781
1030.0 61.423869860962135
1060.0 61.47848478147018
1090.0 61.49366590096782
1120.0 61.52386986096213
1150.0 61.578484781470145
1180.0 61.623869860962124
1220.0 61.623869860962124
1250.0 61.63924275721991
1280.0 61.69817545090704
1320.0 61.68847217927516
1360.0 61.68847217927516
1400.0 61.69485407749125
1450.0 61.71068966302631
1500.0 61.7421886568873
1550.0 61.71831517241346
1600.0 61.73443179205896
1650.0 61.73443179205896
1700.0 61.73443179205896
1750.0 61.75086213388186
1800.0 61.75086213388186
1850.0 61.78279645161535
1900.0 61.811061380144956
1950.0 61.811061380144956
2000.0 61.811061380144956
2060.0 61.75086213388186
2120.0 61.75086213388186
2180.0 61.727580207449016
2240.0 61.727580207449016
2300.0 61.67640057047573
2360.0 61.65378373474548
2400.0 61.60343598990847
2500.0 61.531953858443096
2580.0 61.507480098915885
2650.0 61.43900047053699
2720.0 61.3719469475759
2800.0 61.32528439454827
2900.0 61.27967560724924
3000.0 61.243296633344336
3070.0 61.216507995579384
3150.0 61.216507995579384
3250.0 61.179675607249244
3350.0 61.244228128215504
3450.0 61.23008667084901
3550.0 61.27983775130112
3650.0 61.35366387780147
3750.0 61.39942293182198
3870.0 61.49867242696346
4000.0 61.56005936857911
4120.0 61.66779163544479
4250.0 61.77848478147016
4370.0 61.83366980709031
4500.0 61.90743452896758
4620.0 61.94132511734572
4750.0 61.93136795105645
4870.0 61.876161167945504
5000.0 61.82693012006525
5150.0 61.68007055011494
5300.0 61.52480513610609
5450.0 61.354897005598694
5600.0 61.23675229407058
5800.0 61.10873407974973
6000.0 60.96343086545151
6150.0 60.90083660417044
6300.0 60.87728421457988
6500.0 60.84948311837946
6700.0 60.887007983545125
6900.0 60.98226075946891
7100.0 61.08925804138597
7300.0 61.26696216433138
7500.0 61.483818571218414
7750.0 61.72551679490085
8000.0 61.936163920790314
8250.0 62.17569713721813
8500.0 62.37166275391892
8750.0 62.58813421139207
9000.0 62.75120494709463
9250.0 62.845333524330705
9500.0 62.863714963085506
9750.0 62.85587119301221
10000.0 62.74057701932268
10300.0 62.57871876746487
10600.0 62.32030642030464
10900.0 62.10961102768632
11200.0 61.86652557072778
11500.0 61.60905197570492
11800.0 61.388250893933325
12200.0 61.254537118090546
12500.0 61.124939116132644
12800.0 61.10501203857985
13200.0 61.117913059932526
13600.0 61.24216478566861
14000.0 61.309009764060114
14500.0 61.43880784095196
15000.0 61.57623882033324
15500.0 61.62644892915291
16000.0 61.62882979967538
16500.0 61.59512600928333
17000.0 61.444261802074784
17500.0 61.324875976526805
18000.0 61.08476735499921
18500.0 60.88130542858227
19000.0 60.630421568764326
19500.0 60.3816352172583
