Freq "Side Wall Bounce"
22.4 -21.800000000000026
23.0 -20.39999999999999
23.6 -19.000000000000014
24.0 -17.700000000000003
25.0 -16.39999999999999
25.8 -15.09999999999998
26.5 -13.799999999999997
27.2 -12.59999999999998
28.0 -11.299999999999997
29.0 -10.09999999999998
30.0 -8.799999999999997
30.7 -7.500000000000014
31.5 -6.09999999999998
32.5 -4.700000000000003
33.5 -3.200000000000003
34.5 -1.7000000000000028
35.5 -0.20000000000000284
36.5 1.3999999999999915
37.5 2.999999999999986
38.7 4.700000000000003
40.0 6.299999999999997
41.2 7.999999999999986
42.5 9.600000000000009
43.7 11.200000000000003
45.0 12.899999999999991
46.2 14.499999999999986
47.5 15.999999999999986
48.7 17.60000000000001
50.0 19.10000000000001
51.5 20.60000000000001
53.0 21.999999999999986
54.5 23.299999999999997
56.0 24.700000000000003
58.0 25.999999999999986
60.0 27.299999999999997
61.5 28.60000000000001
63.0 29.799999999999997
65.0 31.10000000000001
67.0 32.3
69.0 33.499999999999986
71.0 34.7
73.0 35.89999999999999
75.0 37.10000000000001
77.5 38.2
80.0 39.3
82.5 40.39999999999999
85.0 41.39999999999999
87.5 42.39999999999999
90.0 43.39999999999999
92.5 44.3
95.0 45.2
97.5 46.10000000000001
100.0 46.89999999999999
103.0 47.7
106.0 48.5
109.0 49.2
112.0 49.9201850554159
115.0 50.60000000000001
118.0 51.3
122.0 51.89999999999999
125.0 52.5
128.0 53.10000000000001
132.0 53.7
136.0 54.24027672897047
140.0 54.760275880709045
145.0 55.24027672897047
150.0 55.70046051294919
155.0 56.140732991061284
160.0 56.500920977072084
165.0 56.86119474234182
170.0 57.16258877740951
175.0 57.4630532742558
180.0 57.70416503127338
185.0 57.98436742920606
190.0 58.246301648501785
195.0 58.489000661841544
200.0 58.748580526078754
206.0 59.00920611180409
212.0 59.2693974704667
218.0 59.55161514086504
224.0 59.83319878012392
230.0 60.070149255874696
236.0 60.29094547755098
240.0 60.507637754464554
250.0 60.62560069192392
258.0 60.74343889922211
265.0 60.820643433080775
272.0 60.86027588070904
280.0 60.86213480580068
290.0 60.84448878654439
300.0 60.82816699501684
307.0 60.80801908994347
315.0 60.7701609555987
325.0 60.70561038485788
335.0 60.662134805800676
345.0 60.640743618199394
355.0 60.60412263968753
365.0 60.57202580530269
375.0 60.58271906735597
387.0 60.55598901658705
400.0 60.54423941034426
412.0 60.53323928685754
425.0 60.49414550467523
437.0 60.448163504855444
450.0 60.4260991932298
462.0 60.36253736683204
475.0 60.32046926697798
487.0 60.25373576501832
500.0 60.231342425474395
515.0 60.14603493117582
530.0 60.046034931175825
545.0 59.961145425673266
560.0 59.86156919463204
580.0 59.759782674797336
600.0 59.66108410096929
615.0 59.54326762942017
630.0 59.471488561891974
650.0 59.35490339951812
670.0 59.2677979952865
690.0 59.21701193220822
710.0 59.14798709748946
730.0 59.08058698034337
750.0 59.04743468472921
775.0 59.014790678393766
800.0 59.00486678033887
825.0 59.00014152904599
850.0 59.02492074384624
875.0 59.03819113813185
900.0 59.08798401948026
925.0 59.144143674408625
950.0 59.21766180479466
975.0 59.25766281516856
1000.0 59.33126350338631
1030.0 59.39477338495891
1060.0 59.45479967917748
1090.0 59.51158932626613
1120.0 59.55227969457678
1150.0 59.55227969457678
1180.0 59.55227969457678
1220.0 59.53874376016894
1250.0 59.478551949248484
1280.0 59.39190112113977
1320.0 59.25597638120679
1360.0 59.1072555299761
1400.0 58.93504777840917
1450.0 58.781873115623185
1500.0 58.6181511116519
1550.0 58.418921395116925
1600.0 58.26031653701504
1650.0 58.13026542739611
1700.0 57.99215140095497
1750.0 57.868529809943965
1800.0 57.718728996882774
1850.0 57.616876438303976
1900.0 57.55555066252211
1950.0 57.466700708017456
2000.0 57.36107404465464
2060.0 57.27422398122111
2120.0 57.20082892002691
2180.0 57.09238821614474
2240.0 56.962420388044904
2300.0 56.842041848785314
2360.0 56.6540986590028
2400.0 56.45409865900281
2500.0 56.19856048331353
2580.0 55.93665211417701
2650.0 55.63665211417701
2720.0 55.33232155989984
2800.0 55.098761351025416
2900.0 54.90220699067301
3000.0 54.824449325796834
3070.0 54.815552778025406
3150.0 55.0389928452109
3250.0 55.38133264523792
3350.0 55.82624810286751
3450.0 56.369833179442296
3550.0 56.906990689436
3650.0 57.406693568733616
3750.0 57.763045240661825
3870.0 57.98603774362279
4000.0 57.98384421692788
4120.0 57.74707971278612
4250.0 57.36141258253787
4370.0 56.82314129810187
4500.0 56.18664948533048
4620.0 55.6230549132124
4750.0 55.00602106434201
4870.0 54.399000153548
5000.0 53.92440220857905
5150.0 53.4843495446073
5300.0 53.24608886912661
5450.0 53.094275805333666
5600.0 53.12046456032532
5800.0 53.257895711226254
6000.0 53.49628682375268
6150.0 53.760615547421665
6300.0 53.9872558992532
6500.0 54.1872558992532
6700.0 54.32464091524402
6900.0 54.46880064875663
7100.0 54.6329476219767
7300.0 54.795920350089105
7500.0 55.069521292864906
7750.0 55.34588760078894
8000.0 55.61180606299466
8250.0 55.924543404233546
8500.0 56.23677461616586
8750.0 56.491679878732455
9000.0 56.69520111793268
9250.0 56.82956248404366
9500.0 56.869127732790545
9750.0 56.830007401519026
10000.0 56.6143132403446
10300.0 56.279215596268315
10600.0 55.84825563461571
10900.0 55.36381615376372
11200.0 54.78703312452055
11500.0 54.158316936279746
11800.0 53.54717521167005
12200.0 52.98178194655365
12500.0 52.44147166670355
12800.0 52.02384687812375
13200.0 51.62276534993117
13600.0 51.34951280539097
14000.0 51.08160737851118
14500.0 50.88901695749868
15000.0 50.71499199890057
15500.0 50.585467381619665
16000.0 50.38984877348675
16500.0 50.20945678767487
17000.0 50.01767321512446
17500.0 49.738031399074615
18000.0 49.5055880978055
18500.0 49.24369908647208
19000.0 48.948472157155564
19500.0 48.676343360319976
