Freq "Sound Power"
22.4 2.2783830293334546
23.0 4.64952836295511
23.6 7.010291438796983
24.0 9.3739168073284
25.0 11.72025720809252
25.8 14.053206075338508
26.5 16.359362643028263
27.2 18.661963839735094
28.0 20.92556937806519
29.0 23.225569378065174
30.0 25.484701357508513
30.7 27.78464518722585
31.5 30.080143382161268
32.5 32.41418578389154
33.5 34.717564531979875
34.5 37.0420438315583
35.5 39.305201168680455
36.5 41.553681152749604
37.5 43.74383398433345
38.7 45.893300206980044
40.0 47.94952836295512
41.2 49.896920588027015
42.5 51.779989597578165
43.7 53.591578831035676
45.0 55.35249014975746
46.2 57.027310551573564
47.5 58.696769251835434
48.7 60.27480635287017
50.0 61.83424837028453
51.5 63.375506907500935
53.0 64.87834825825387
54.5 66.31584172766237
56.0 67.70926779529911
58.0 69.05501506641595
60.0 70.28791110445678
61.5 71.4542842649886
63.0 72.52895533367632
65.0 73.51104741809972
67.0 74.38058285578204
69.0 75.18333657837552
71.0 75.89220262335128
73.0 76.55575842148541
75.0 77.122596136594
77.5 77.65827914770121
80.0 78.11231830287959
82.5 78.54316757375345
85.0 78.92976284831394
87.5 79.26715269775772
90.0 79.56405586641506
92.5 79.78019402692749
95.0 79.96786475239021
97.5 80.09815694087538
100.0 80.15258314890548
103.0 80.15534840280343
106.0 80.10736133680253
109.0 80.0399672743342
112.0 79.96385978874505
115.0 79.87870782330502
118.0 79.8036946319185
122.0 79.76579201293879
125.0 79.76114476936861
128.0 79.83602784602479
132.0 79.93726214986013
136.0 80.06071805125343
140.0 80.18009452156937
145.0 80.30171825717065
150.0 80.37322182848179
155.0 80.4077923400482
160.0 80.34428125841049
165.0 80.20881255927473
170.0 79.98051804860977
175.0 79.72058433834621
180.0 79.41661443756477
185.0 79.0950890848268
190.0 78.78712999050859
195.0 78.51248621763577
200.0 78.26223977294472
206.0 78.07905266673043
212.0 77.9439663353467
218.0 77.84332843134955
224.0 77.76867037797696
230.0 77.72238339967434
236.0 77.6870979841076
240.0 77.656402050844
250.0 77.60183117251886
258.0 77.54926676732585
265.0 77.48231605518079
272.0 77.4003120592265
280.0 77.3226461990876
290.0 77.23767210668221
300.0 77.1488607641648
307.0 77.05132810718486
315.0 76.95435566642784
325.0 76.82813338353232
335.0 76.70776620048322
345.0 76.57323574401877
355.0 76.41834440038173
365.0 76.28145618243263
375.0 76.12525183219178
387.0 75.95019007518172
400.0 75.76890356694973
412.0 75.58446062479298
425.0 75.37703993811776
437.0 75.18132409893474
450.0 74.97611858075597
462.0 74.80930764235359
475.0 74.66326498238641
487.0 74.50778211160421
500.0 74.38618962345606
515.0 74.30687768535743
530.0 74.23804808566258
545.0 74.22568622388782
560.0 74.20255566851691
580.0 74.237948947323
600.0 74.31161311908949
615.0 74.4256726804758
630.0 74.55998156277485
650.0 74.76044228839608
670.0 75.00271734581032
690.0 75.28078261029637
710.0 75.5852788535618
730.0 75.8945795719933
750.0 76.17546854025545
775.0 76.4063070355852
800.0 76.5253133529795
825.0 76.49636372397208
850.0 76.38977958591995
875.0 76.15941654195437
900.0 75.88840372579133
925.0 75.61760240726709
950.0 75.31646040283768
975.0 75.06250818808137
1000.0 74.82822379649174
1030.0 74.63872068594968
1060.0 74.5015392367428
1090.0 74.38739329263419
1120.0 74.32619481976273
1150.0 74.31394631955519
1180.0 74.32484381719891
1220.0 74.34682299854371
1250.0 74.39857764676451
1280.0 74.46266344889331
1320.0 74.56212884838554
1360.0 74.67010456770608
1400.0 74.76531221965946
1450.0 74.874386200874
1500.0 74.96691530170642
1550.0 75.01386213607576
1600.0 75.02058922920578
1650.0 74.9672476861311
1700.0 74.84027771059645
1750.0 74.6799240255093
1800.0 74.488197142764
1850.0 74.29194507646866
1900.0 74.08137178990292
1950.0 73.86380252095258
2000.0 73.63564352320654
2060.0 73.41806705905302
2120.0 73.18481023817097
2180.0 72.9696480654873
2240.0 72.72036172601581
2300.0 72.53062429044543
2360.0 72.32655496193614
2400.0 72.16711122030647
2500.0 71.9968283838965
2580.0 71.85780065169128
2650.0 71.73711917923778
2720.0 71.6479362037898
2800.0 71.56555404978198
2900.0 71.51114872513584
3000.0 71.48110291353
3070.0 71.452905793332
3150.0 71.45793662770514
3250.0 71.46569322690736
3350.0 71.46903236473686
3450.0 71.49917049936475
3550.0 71.5259546427007
3650.0 71.58669257226494
3750.0 71.65318169590738
3870.0 71.71730864649587
4000.0 71.8022258260889
4120.0 71.88143466103031
4250.0 71.9670205927252
4370.0 72.02878462304456
4500.0 72.08975557428481
4620.0 72.13968008326636
4750.0 72.15613471489038
4870.0 72.16712784734757
5000.0 72.11999748540674
5150.0 72.08902236697072
5300.0 71.98451179874262
5450.0 71.8604026536998
5600.0 71.73687764288792
5800.0 71.59863456399673
6000.0 71.45784332593439
6150.0 71.30757478450872
6300.0 71.1726171477682
6500.0 71.03915578978571
6700.0 70.89304252141892
6900.0 70.80020072866321
7100.0 70.68628472636352
7300.0 70.6424252311655
7500.0 70.60786957229847
7750.0 70.63621768565177
8000.0 70.7121628042059
8250.0 70.81281176290557
8500.0 70.92968784129839
8750.0 71.07264233108693
9000.0 71.20447512810144
9250.0 71.31435040499508
9500.0 71.34637980401983
9750.0 71.33022541897921
10000.0 71.21063597556032
10300.0 70.96612451248306
10600.0 70.65608282628108
10900.0 70.30946150114869
11200.0 69.95817903725683
11500.0 69.64467474256865
11800.0 69.42034751506019
12200.0 69.29935833216933
12500.0 69.32618167428308
12800.0 69.53290411789786
13200.0 69.87269361182476
13600.0 70.18888552271956
14000.0 70.46489083897788
14500.0 70.58604240845567
15000.0 70.42286729320294
15500.0 69.87673836285407
16000.0 68.86829586235184
16500.0 67.34062896016457
17000.0 65.31030971085687
17500.0 62.919106333596034
18000.0 60.24653194063147
18500.0 57.44533158832614
19000.0 54.57624658410249
19500.0 51.79915285947446
