Freq "Early Reflections"
20.5078 75.28730899869129
23.4375 79.42488556649423
26.3672 82.32074699577244
29.2969 84.81115452308691
32.2266 86.36256279925131
35.1562 88.07783545175658
38.0859 89.2227624171369
41.0156 90.14517217399715
43.9453 90.73169595476661
46.875 90.8854994080492
49.8047 90.707193352937
55.6641 90.01054486794355
58.5938 89.4982935669089
61.5234 89.06066972376253
67.3828 88.1725132686753
73.2422 87.9276803254972
76.1719 88.09456050564829
82.0312 88.45735725070905
87.8906 89.1657307027542
93.75 89.80731369784415
102.539 90.39544731996286
108.398 90.55940655883828
117.188 90.66335483352304
125.977 90.26402984186348
134.766 89.4755488537588
143.555 88.63750183663196
155.273 88.14385289717741
164.062 88.28122961949468
175.781 88.23959896142097
190.43 87.69415113004689
202.148 87.39782381350936
216.797 87.45086034189971
234.375 87.58431396970698
249.023 87.50232032854323
266.602 87.54364357681077
287.109 87.70035496361729
307.617 87.90708049263539
331.055 87.69076131832857
354.492 87.82736084486767
377.93 87.89605226764307
407.227 87.64352031355325
436.523 86.80199631170251
465.82 86.12392565323607
500.977 85.32234746021241
536.133 85.04056460261144
574.219 84.83590403426574
615.234 85.1865814325086
659.18 85.684618851677
706.055 86.19715343610278
758.789 86.71496207260746
811.523 87.17434131793566
870.117 87.32182128592268
931.641 87.42182365301485
999.023 87.1437404501814
1072.27 85.95745609670188
1148.44 85.73428709409204
1230.47 87.55657180748625
1318.36 88.26827761766936
1415.04 88.7087277191968
1514.65 87.95425415189703
1623.05 86.5578142491054
1740.23 85.57636110597069
1866.21 84.60261174582604
2000.98 84.0197388407614
2144.53 84.5860530175979
2296.88 83.77431668646224
2460.94 84.53030701929838
2639.65 85.06890209023045
2827.15 82.55790762515544
3032.23 82.13502895945099
3249.02 82.24302455829854
3483.4 82.73277560165063
3732.42 82.97304632336257
3999.02 82.66234434640468
4286.13 83.24416309982297
4593.75 82.21761508326632
4924.8 82.94552146171465
5279.3 83.82553989687898
5657.23 84.03939132659005
6061.52 82.84228838300825
6498.05 80.99292877128137
6963.87 81.89162473767439
7464.84 83.66138235580043
8000.98 82.14405846299742
8575.2 81.00519105166924
9190.43 79.57298438628021
9849.61 78.44038577768671
10555.7 80.11290508393051
11314.5 81.34493224880487
12126.0 81.37610123178003
12996.1 83.60337869117511
13927.7 80.94254335051774
14929.7 81.48132357404322
15999.0 77.06207363293109
17147.5 78.15186740647006
18377.9 76.78952239819749
19699.2 67.53405095377802
19998.0 60.8097408315911
