Freq "Sound Power"
20.5078 75.33762184462763
23.4375 79.50034088495367
26.3672 82.40567097443078
29.2969 84.89943929957056
32.2266 86.4704803016108
35.1562 88.17838770494616
38.0859 89.3217547078472
41.0156 90.23741829646701
43.9453 90.81620440614113
46.875 90.97291583531067
49.8047 90.79828847047736
55.6641 90.10438433649196
58.5938 89.58584515121565
61.5234 89.13704177994788
67.3828 88.26127721397086
73.2422 88.03140662355793
76.1719 88.19962368229753
82.0312 88.55814595020601
87.8906 89.27080565898156
93.75 89.90491697510092
102.539 90.4938229637416
108.398 90.66010847968113
117.188 90.76978483267999
125.977 90.3712226562581
134.766 89.5815521621724
143.555 88.74164243804346
155.273 88.26082859093546
164.062 88.40005872952172
175.781 88.36170364386089
190.43 87.82523876856696
202.148 87.52212688177264
216.797 87.58524262757625
234.375 87.70601436714502
249.023 87.60615569306094
266.602 87.62942713570288
287.109 87.79937843514334
307.617 88.00889621936687
331.055 87.75230832035744
354.492 87.84678569057681
377.93 87.88744281628179
407.227 87.61375664286545
436.523 86.76014307160753
465.82 86.04021139544847
500.977 85.36897363099001
536.133 85.06708311505975
574.219 85.00206823645372
615.234 85.30261487105382
659.18 85.96638615397758
706.055 86.75726782853044
758.789 87.44131608252309
811.523 87.82592591078493
870.117 88.3249957762311
931.641 88.53372765154239
999.023 88.40211854972833
1072.27 87.87763138607025
1148.44 88.6345406811141
1230.47 89.04880580617164
1318.36 89.632411684113
1415.04 89.9554056787221
1514.65 89.1154034482996
1623.05 88.2533386840032
1740.23 87.92175805789735
1866.21 86.53279477250285
2000.98 85.649716926306
2144.53 86.70514701892724
2296.88 86.09926516266147
2460.94 85.7356520944423
2639.65 85.71107498849044
2827.15 83.16312441003895
3032.23 82.69965942530995
3249.02 83.13968697091133
3483.4 83.3590791175027
3732.42 83.25961587172533
3999.02 83.63581746256392
4286.13 84.59179651374346
4593.75 84.26181428504118
4924.8 84.28878058821851
5279.3 84.83354733710352
5657.23 85.14983161071129
6061.52 83.70071641409685
6498.05 81.65001534866335
6963.87 82.00741843016435
7464.84 83.53294889414629
8000.98 81.70641505494588
8575.2 80.79145489927707
9190.43 79.46257466312788
9849.61 78.29139437397488
10555.7 79.94387066453142
11314.5 81.03363256411926
12126.0 80.99220822820897
12996.1 83.53800959629267
13927.7 80.94398805172729
14929.7 80.79931543599092
15999.0 75.6586543814164
17147.5 76.47459692993475
18377.9 74.6934834808981
19699.2 65.3707664663715
19998.0 58.72508141250559
