Freq,Floor Bounce,Ceiling Bounce,Front Wall Bounce,Side Wall Bounce,Rear Wall Bounce,Total Early Reflection
22.4,30.27977745790568,31.298190594337257,30.94470594127256,31.79968608831072,29.617672873274614,30.854420333170196
23.0,30.85237800738082,32.16937719459213,31.650751915875418,32.02482416305196,30.562512592072807,31.498022466767424
23.6,31.57244826645845,33.1040939473306,32.295943928263796,32.22497771478942,31.1896217909364,32.12767535380331
24.0,32.44391724861637,34.2271843963986,33.33949804627869,33.89732134037473,32.47885097515146,33.33752599964998
25.0,33.337767342855415,35.32965060629161,34.607403980368986,34.74802273296015,33.647939732340745,34.39571468794725
25.8,34.21904449785342,36.4680110708392,36.25178056940726,36.41204345327006,35.205291856235476,35.794910522315035
26.5,34.411523263049645,37.65003912656684,37.83245631974026,37.389710493512325,36.45899873156742,36.91270637481773
27.2,35.29188145404555,38.94835241782508,39.286778549115695,38.25191221320114,37.99875119152557,38.15725692968152
28.0,36.449357664782724,40.35551626795612,40.20523882315459,39.72670991271448,39.069810865713265,39.366558394746136
29.0,38.124576725844975,42.14264565432188,41.67365423359854,41.01182945576855,40.535581951394704,40.89968889876391
30.0,39.930271847318465,43.649788060468865,43.21757137274636,42.02901993432454,41.9279583086161,42.3317178758893
30.7,42.03027184731846,45.15040313445141,44.84396198775093,43.77669166442598,43.14180613423855,43.933240901099566
31.5,43.949421814740276,46.401679126071514,46.61184808591804,45.66643733061582,44.346161987802645,45.52426412296683
32.5,45.66194867563766,47.64609975902823,47.80301427778255,47.106917626181314,45.49951104295343,46.850795319437196
33.5,46.9857391564897,48.92312260007134,48.83903230853949,48.49491213826278,46.51398761554776,48.062617649231385
34.5,48.4162761504999,50.17548434838008,49.92732409387406,49.69191013790825,47.91176863772756,49.313412434190866
35.5,49.60167684604727,51.44968377876029,50.940129218676304,50.69234754552454,49.306938955527755,50.47325279818642
36.5,50.69066301838194,52.2496837787603,51.82453164845714,51.553104503838455,50.19313719409419,51.366306560689594
37.5,51.51627615049989,52.928420114771654,52.5252166308654,52.257146714668124,50.912926522309334,52.086899919687085
38.7,52.48888377963456,53.58192912376617,53.18707268188416,53.12851997340488,51.691352742962266,52.86435425196726
40.0,53.235460918490475,54.39066301838193,53.92003785957695,53.901619178446396,52.45425432364672,53.63087906774689
41.2,54.3179278976485,55.345885606856484,54.760966204119626,54.656880186201306,53.12929751021218,54.5017646395392
42.5,54.792378988097994,55.92962303531269,55.29003257429579,55.09612427377539,53.59050221854733,55.00547194265573
43.7,55.03469773360899,56.35803522150263,55.74825398803182,55.41892602586478,54.104698000269764,55.396625967148935
45.0,55.40263350538768,56.95933929981308,56.39607577401097,55.935756385626576,54.75859258063383,55.957114415411354
46.2,56.12812233674836,57.75933929981309,57.12626303676248,56.75671307480246,55.49734633935731,56.72360813997233
47.5,56.72285902893765,58.35803522150263,57.72831720410542,57.36900862873682,56.018797564422414,57.31354178926463
48.7,57.39674297331737,58.80296788742379,58.31695859457028,57.90357798936384,56.53438378236595,57.859403350313016
50.0,58.07106876148262,59.17611856531714,58.830418213824956,58.40686341227462,57.04976511603988,58.3662380651333
51.5,58.45865853259174,59.63546091849048,59.31766075421329,58.82874977329668,57.45260574741303,58.80263153990576
53.0,58.789595285611995,59.965857275952544,59.537145845491935,59.20428742721013,57.8492093524348,59.127373138701756
54.5,59.04583147157399,60.153551162200614,59.82557821938968,59.56392431522903,58.27776130288075,59.42154358850101
56.0,59.221026149635065,60.05355116220062,59.96704995687446,59.81594938796182,58.538288946378984,59.55530954022751
58.0,59.396647812932315,59.92376450930966,60.11560153909576,60.088497356099595,58.711131737799775,59.67890937089126
60.0,59.554771683968056,59.849719059973054,60.406517701820846,60.32711164655899,58.8720370211158,59.837318174089745
61.5,59.54852142053363,59.84611403139874,60.453244987152715,60.390702846105384,58.98273191678075,59.87823920582521
63.0,59.50330511748405,59.934524153934774,60.466721493435585,60.62711164655899,59.045135360391896,59.95493918164506
65.0,59.552955367877786,60.23855083142047,60.762502657884994,60.732567072362016,59.20951209012398,60.14344688255889
67.0,59.768031066562344,60.33855083142048,60.87460381687747,60.80097969123389,59.37975615134171,60.27072724966163
69.0,59.89257011413608,60.43855083142047,60.89509089392081,60.88598361426054,59.478310840085626,60.353349375310984
71.0,59.751774375347395,60.065632689609885,60.613506398859585,60.659019808303526,59.24154296614991,60.098777919679804
73.0,59.62526453928848,59.94942181474029,60.470106422483994,60.36114542567326,59.15717241237101,59.93911186550963
75.0,59.702611558953635,59.72285902893766,60.263814585114275,60.12417700184943,59.02215582663848,59.78821211085531
77.5,60.0560373652456,59.71792789764851,60.43928808035621,60.12856427017344,59.09640218732389,59.91114991162945
80.0,60.862836170015356,60.53696012594369,61.399018952488106,60.846317939855126,59.84282440483278,60.726966697690784
82.5,62.233310238016756,61.90920925226939,62.755336340321975,62.00835111365974,60.97927440899045,62.014686701195785
85.0,64.19046221610057,63.71430637862282,64.43801284372601,63.49547713634098,62.72697436809899,63.75297113549142
87.5,66.11007799780293,65.6707173249541,66.34613074595725,65.30698341408262,64.72675272701328,65.66987291182592
90.0,67.9404416794549,67.47150800786939,68.13277308256681,67.10654428875466,66.7697086256822,67.51357761658063
92.5,69.7053180676647,69.17150800786939,69.81906161494297,68.85748999869598,68.86626708410148,69.30321642837795
95.0,71.23964531976003,70.97387961222819,71.32199455725407,70.47233893837266,70.80999888461456,70.97428393935462
97.5,72.57449351030438,72.33746771551316,72.69177750674626,71.79129976684993,72.49151385339884,72.38844085966602
100.0,73.8053180676647,73.37001488257476,73.83537086618986,72.91061693217728,73.84933551509914,73.56935070479584
103.0,74.87071732495409,74.10231994589776,74.83537086618986,73.77233893837266,74.87380289481118,74.51518088457077
106.0,75.93663575667186,74.70542400732661,75.79177750674626,74.6209083306828,75.58767224295359,75.3634244115174
109.0,77.03663575667186,75.24283030471975,76.73537086618987,75.3908852101651,76.07619921543932,76.15438634505057
112.0,78.03663575667186,75.81627940083641,77.6652871599955,76.22125855817288,76.45153076339665,76.92444418167149
115.0,78.83663575667188,76.3566725593005,78.46528715999551,76.91309906233546,76.65955054671687,77.56507305861966
118.0,79.46845083805432,76.95667255930051,79.11998423401442,77.55523826903811,76.91438334888112,78.14052307051267
122.0,79.9022846139602,77.32758719283594,79.5652871599955,77.97974525135949,77.00474027565127,78.51589969718778
125.0,80.26845083805433,77.62758719283593,79.91998423401444,78.2797452513595,77.05630761374074,78.81416559312703
128.0,80.46845083805431,77.92758719283592,80.11998423401444,78.56429849938317,77.04807915405709,79.01753072883514
132.0,80.83663575667187,78.3566725593005,80.51998423401443,78.97974525135949,77.33511544578143,79.40180648181246
136.0,80.96845083805432,78.62758719283593,80.71998423401445,79.21524218999728,77.5044017129935,79.59688200244584
140.0,81.16845083805433,78.88982856673472,80.89044363353322,79.43276641677858,77.73627777208961,79.80644428399475
145.0,81.36845083805433,79.2566725593005,81.14675150375353,79.76648157916895,78.02650925487393,80.0840810206688
150.0,81.56845083805433,79.51916705502754,81.30229476693692,79.94246053230242,78.2690768380703,80.28406202055706
155.0,81.73513059177982,79.71916705502754,81.47525122642456,80.20245227663601,78.50353249706633,80.48384041202081
160.0,81.96845083805432,79.98219967332304,81.70229476693692,80.436773874776,78.76491977600067,80.72433596304407
165.0,82.10076749445561,80.11916705502753,81.83175513861906,80.59671297694123,78.92956081243902,80.8660313855911
170.0,82.33435140868502,80.24898514879551,82.00229476693693,80.7587152916838,79.09003357424533,81.04372623179748
175.0,82.53435140868503,80.41916705502754,82.20229476693693,80.90245227663601,79.2170252824809,81.21900283665813
180.0,82.73435140868503,80.54898514879551,82.40229476693692,81.1204366302858,79.36911154403165,81.40473849645485
185.0,82.90076749445561,80.68623512455237,82.60229476693692,81.302452276636,79.4588576830165,81.56827926533583
190.0,83.20076749445562,80.91916705502754,82.90229476693693,81.62043663028578,79.77346047963955,81.86260174400493
195.0,83.20076749445562,80.8566725593005,82.88748929892041,81.65871529168379,79.81866369730666,81.86174976630778
200.0,83.10076749445561,80.92758719283593,82.88748929892041,81.62043663028578,79.87932098564505,81.84651455485172
206.0,83.13663575667186,81.12758719283593,82.98748929892041,81.70245227663602,80.0219647389824,81.94793427625588
212.0,83.00306957104252,81.0566725593005,82.88748929892041,81.602452276636,80.00804795670342,81.8551275040246
218.0,82.83663575667185,80.8566725593005,82.76035311823196,81.3863606964899,79.91194676761158,81.69309243116385
224.0,82.53663575667187,80.32758719283592,82.38748929892043,80.93276641677855,79.56772981307478,81.30291206217018
230.0,82.23663575667186,79.82758719283594,82.06035311823194,80.55740017519264,79.1325627204117,80.93259870431581
236.0,82.03663575667186,79.26588846059687,81.76035311823196,80.1243861571818,78.70146031000267,80.57910927912226
240.0,81.96845083805432,78.94898359150842,81.66035311823197,79.88255283808309,78.42058243532395,80.40806159224334
250.0,81.53663575667187,78.32179738688896,81.16035311823195,79.25929007237313,77.65083223968686,79.85487302755855
258.0,80.93663575667186,77.83546263134681,80.60489499373621,78.60776207081248,76.70362434240036,79.23399134536865
265.0,80.56845083805433,77.73546263134682,80.30489499373621,78.2779004889834,75.88345303736838,78.88343460018233
272.0,80.93663575667186,78.4950645803583,80.77525122642456,78.76475106144105,75.54735935581633,79.29869805552786
280.0,81.30306957104251,79.32179738688895,81.26035311823195,79.32481000513093,75.43191647153444,79.77481265898213
290.0,81.57150800786937,79.88219812790055,81.73175513861906,79.85778973918215,75.45055890135721,80.18515174566144
300.0,81.77609175449223,80.24898359150842,82.08748929892042,80.28748430179782,75.59386247137735,80.5017889830363
307.0,82.14576719438469,80.54898359150843,82.48748929892042,80.73776512801808,75.95775057489121,80.88229151610376
315.0,82.61227178315619,81.04898359150842,82.98748929892041,81.27473221777325,76.49713683567904,81.38309292051336
325.0,83.08219967332305,81.68219812790056,83.58748929892042,81.87473221777323,77.07393721273854,81.9536526850649
335.0,84.28219967332305,83.12179738688896,84.88748929892043,83.25130410818515,78.39201318743297,83.27098343601467
345.0,84.61916705502752,83.78219812790056,85.38748929892041,83.76828887792777,78.93982977850384,83.76868183512329
355.0,84.62758719283592,84.04898359150842,85.56035311823197,83.92546959607742,79.20205697704799,83.92411264962895
365.0,84.86096514237182,84.4096325668162,85.91704993328868,84.28204584418486,79.61283571652827,84.25660847095799
375.0,85.19897445130925,84.78219812790056,86.33175513861906,84.68204584418486,80.07902804615816,84.64567795410595
387.0,85.00963256681621,84.64314826109435,86.23175513861906,84.61949139192667,79.98730696985422,84.52568372165864
400.0,85.08219812790054,84.75521969308379,86.36035311823197,84.7334035549047,79.96715717080107,84.62506538800841
412.0,84.2552196930838,83.98219812790055,85.64675150375355,84.00805424837286,79.06584182582102,83.85914443261123
425.0,85.19506458035829,84.98219812790055,86.71998423401445,85.05432193465899,80.0273049050942,84.87540042204448
437.0,84.80942248426018,84.64898359150843,86.49366590096783,84.66910851874457,79.61248467203154,84.54799422179232
450.0,83.792378988098,83.68888547155002,85.6677916354448,83.61677723671053,78.55227891018814,83.59342814824069
462.0,83.50982855556757,83.56194867563765,85.55802016372603,83.26781203523977,78.20003528025336,83.38193625828622
475.0,82.52875610128314,82.94391724861637,84.98847217927516,82.47710642408279,77.40629234625989,82.66368960005937
487.0,81.47100612011482,82.592378988098,84.51941403242196,81.77009029053193,76.77036065865687,82.05702655017119
500.0,80.22457993687898,82.55062128010364,83.96648312494486,81.16199263579266,76.14888155845964,81.50052236824149
515.0,80.27915446671193,84.7026545034034,85.15121482311349,82.26199263579265,77.3184848871692,82.7950695344956
530.0,77.79664781293232,84.12179738688896,82.92321085894987,79.93536726194348,75.43709008303017,81.12648961329464
545.0,78.83435140868504,83.40963256681621,80.86758191272571,78.03776479053268,73.90741511442687,80.05240477877712
560.0,80.0441577493485,81.64898359150843,79.4902720206278,76.78080269676343,72.96399992400806,79.06949900660186
580.0,79.00306957104253,78.3094224842602,77.44917146014501,74.70869502748826,70.94689315978094,76.89897167717629
600.0,77.87150800786938,75.76226919657725,76.43166443048618,73.43662734523811,69.63990454415816,75.42039711524912
615.0,76.41916705502754,73.77245431186856,75.46976085057074,72.07630614465462,68.32112491217002,74.00849135735133
630.0,75.11627783177748,71.8888904905328,74.60739597553174,70.4332019802281,66.55051159185489,72.66640717491563
650.0,75.50942248426018,72.15052612831404,75.60278716454654,70.40386863274202,65.77792349781001,73.14097263727574
670.0,75.12699787697726,73.03308937677079,75.64986437708288,69.59463997822951,64.86964972898349,73.07800134021967
690.0,76.17346990883566,74.64165288164494,76.51668233957517,69.98186115607186,65.54430612631319,74.11398861990011
710.0,78.0575988212754,76.10137735040871,78.07711755270331,70.88736756116742,66.82477157577621,75.7053321893053
730.0,78.63696012594369,75.911018422176,78.06672282962043,70.38093094094225,66.48234697659746,75.83208170482746
750.0,78.71627783177748,75.56035296980747,77.85093454125428,70.20085041915605,65.7439694577853,75.69562468694934
775.0,77.8012357262664,74.74010271092209,77.1489488607326,69.9524907919086,64.27234214166188,74.89936199169432
800.0,77.66096514237182,74.70870389637979,77.54254351084629,71.1422324377343,63.975131979148046,75.05753257082017
825.0,78.20131827952113,73.54452072681786,77.7443265773904,72.37520336885844,63.77056280663845,75.25970590622832
850.0,79.40464502318537,71.94095755448734,77.75209960097519,72.78216900315056,62.88684580745259,75.64287192571192
875.0,80.14415774934852,73.19238562216104,78.51538988814664,72.78737050824301,62.74082989940182,76.35797831514805
900.0,80.09156164294319,72.34942636664186,77.6406362499824,71.36803804791263,62.17140792497031,75.86010310142004
925.0,79.47717895989803,73.49409265572766,78.50710266514332,73.18258112455386,63.80018195108879,76.1306656863122
950.0,79.88935847832784,73.55203848744765,79.70986206250122,75.62303089876343,64.27250071070317,77.03900923075676
975.0,79.77625435142636,73.41874145904484,80.09784783167262,76.33965428540442,65.78688504601203,77.26024313580618
1000.0,81.55604123364532,72.7842172711826,80.07832222267666,76.56754056276372,65.90265556151579,77.96789172701583
1030.0,82.15143780816817,73.90724770789694,81.60663577977988,78.5526935545026,67.87125496947857,79.15136366385674
1060.0,80.90602413937147,75.42926676879422,80.67267520714707,76.1106890855728,66.8859884798899,78.06965163895829
1090.0,75.47640124428997,75.24104544374337,80.1693894060983,76.45853952663849,66.96087248466951,76.47196861536096
1120.0,75.52304739073989,72.6123207399012,79.29374208934395,74.61183775779108,65.9667815418542,75.36002238198387
1150.0,77.9931413362611,71.27786133415738,78.18242122660547,72.06582909673149,64.41404536396935,75.0805493189861
1180.0,77.7782207979152,72.41152326304965,77.20250452973814,70.56994492051908,65.67855533844322,74.6236548333644
1220.0,76.07283899448728,72.6598038433142,78.3164927750419,72.55033544667941,67.9566047709087,74.80110013811247
1250.0,74.13546263134683,71.14315882574051,78.00249238661094,74.65330818333246,66.82853037896207,74.34799289633978
1280.0,78.28788684692404,72.657162075841,77.82355602450804,72.27056049186712,63.935499277045125,75.20573469612977
1320.0,81.85477168396808,76.45423864669905,80.01865649702341,72.19782030086199,63.96296085974126,78.02069840230594
1360.0,80.67035193787353,73.82389526938809,80.99553441398982,73.63837353094814,63.34823775818373,77.66186848481827
1400.0,79.72514469918943,70.38759923684218,80.0255028866182,74.48863920913746,61.648310859338125,76.72026904956917
1450.0,79.16146272052234,71.8174847980336,79.0401544450807,75.33238474314098,61.14934604458816,76.29918840968904
1500.0,77.19380864002827,70.48759923684219,79.51747219683118,70.7613505667887,60.739899484507674,75.21609842874537
1550.0,77.6256804531493,70.79148392197821,79.51362819676038,74.39941227517102,61.234813288032214,75.75550363343297
1600.0,77.64512846789918,72.3912339645671,78.82211811155248,73.87447241668696,60.24294557676852,75.49478684986119
1650.0,74.71436554184207,71.95667255930051,79.98852280650978,73.31897013676425,60.9900043378495,75.25736002736429
1700.0,76.3964130865138,74.79965439277179,79.31579769841888,73.66877323166835,60.7287498376935,75.65124190368124
1750.0,76.35973055260563,74.52149085387151,78.08437564019819,70.395773547593,61.83745095123837,74.72424926084759
1800.0,75.24918201469218,73.9236110299371,78.37734094811813,70.36766908765759,62.60344473629648,74.46222743112301
1850.0,76.0826007170703,74.58838259233903,75.96321352354308,69.76619568059658,62.36232261868692,73.80254715352379
1900.0,75.22770071685792,74.32303060258374,76.61462588093029,67.2241443888363,61.81905521479047,73.54277569839651
1950.0,76.10733339917951,75.83190291996641,77.18299457247089,65.32536863785299,58.31320055472821,74.32867396669947
2000.0,75.46887463636016,74.29501845533797,77.3896354279129,67.64223736310346,60.42373132478791,73.93921333305713
2060.0,75.80602413937146,76.68672555582687,79.40504069568209,65.78553414069998,59.503687559679506,75.47974572313984
2120.0,77.1328809265652,77.28852003748096,78.98191140081086,70.45795503915589,62.743827227131746,75.9622980736365
2180.0,76.82324058002983,76.70410916638599,79.45600468045095,66.43004815391404,56.566810332879754,75.75218981359211
2240.0,74.27137679706829,74.14850588118668,75.49120164293645,68.01473101678431,59.15224461883267,72.80097377929057
2300.0,74.93131741555754,72.75827843981656,77.25839242720934,64.82545365011318,55.867759618909474,73.28844393381044
2360.0,74.85356791445051,71.55901071927704,74.89390548525677,68.32960424260114,58.02355233575619,72.21122083745121
2400.0,75.79610594191718,71.8106840096726,75.44871296467029,66.2331915779177,52.773005117493085,72.67700045499987
2500.0,76.18963710466606,69.73719689485262,75.15692619104617,66.1555828183358,54.80778187261714,72.46575059264697
2580.0,76.24339850407559,73.29618707170916,77.86317653225001,70.17808706926324,51.98439794011307,74.31948437466991
2650.0,77.75234182425073,73.11595200332334,77.87304660984401,63.596630043578685,56.308753738692474,74.59649962348473
2720.0,76.13184327978685,71.94264053902357,76.87237714349895,69.79373990198319,54.888541877998335,73.62446828036845
2800.0,78.33441250169983,70.27244993229336,78.16863828516638,62.64395878239742,55.80412322769641,74.67182609846125
2900.0,77.84993472601855,70.91145898042548,78.22614198467718,67.00371160586506,60.22563870282383,74.64864048011526
3000.0,78.26435270902095,72.67346307508038,79.63092150128341,69.89142651548181,59.32594356763089,75.75245953845457
3070.0,78.99856102581366,73.16053971475958,80.62422295634721,70.64392974497639,60.06606894032109,76.59310667826112
3150.0,77.37150800786938,74.58199832327722,79.86221710262335,74.13865678438361,60.36240087689288,76.17448640044361
3250.0,75.12975098047417,74.06482377209412,79.12258506348581,75.19586688548434,58.92673494974153,75.40699580392857
