Freq,Floor Bounce,Ceiling Bounce,Front Wall Bounce,Side Wall Bounce,Rear Wall Bounce,Total Early Reflection
22.4,30.279777457905695,31.29819059433727,30.944705941272545,31.799686088310736,29.6176728732746,30.85442033317021
23.0,30.852378007380835,32.169377194592144,31.650751915875432,32.024824163051974,30.562512592072792,31.498022466767438
23.6,31.572448266458437,33.10409394733058,32.29594392826381,32.224977714789404,31.189621790936414,32.1276753538033
24.0,32.44391724861636,34.227184396398584,33.339498046278734,33.89732134037472,32.478850975151445,33.33752599964994
25.0,33.3377673428554,35.329650606291594,34.607403980369,34.748022732960166,33.64793973234076,34.39571468794723
25.8,34.21904449785343,36.468011070839154,36.25178056940727,36.41204345327007,35.20529185623549,35.79491052231502
26.5,34.41152326304966,37.65003912656685,37.832456319740245,37.38971049351234,36.458998731567405,36.912706374817745
27.2,35.29188145404554,38.94835241782509,39.28677854911568,38.25191221320112,37.998751191525585,38.15725692968151
28.0,36.44935766478271,40.355516267956105,40.2052388231546,39.7267099127145,39.06981086571325,39.36655839474615
29.0,38.12457672584499,42.14264565432187,41.673654233598526,41.01182945576856,40.53558195139472,40.8996888987639
30.0,39.93027184731848,43.64978806046888,43.21757137274638,42.02901993432452,41.927958308616084,42.33171787588931
30.7,42.030271847318474,45.150403134451395,44.843961987750916,43.776691664426,43.141806134238564,43.93324090109958
31.5,43.94942181474029,46.4016791260715,46.61184808591803,45.666437330615835,44.34616198780266,45.52426412296681
32.5,45.661948675637674,47.64609975902819,47.803014277782566,47.10691762618133,45.49951104295344,46.85079531943718
33.5,46.985739156489714,48.92312260007135,48.8390323085395,48.49491213826279,46.51398761554775,48.0626176492314
34.5,48.41627615049991,50.175484348380095,49.92732409387408,49.69191013790824,47.91176863772755,49.31341243419088
35.5,49.601676846047255,51.4496837787603,50.94012921867629,50.69234754552453,49.30693895552777,50.47325279818641
36.5,50.690663018381926,52.249683778760314,51.82453164845715,51.55310450383844,50.19313719409418,51.36630656068958
37.5,51.516276150499905,52.92842011477167,52.52521663086539,52.25714671466817,50.91292652230935,52.0868999196871
38.7,52.48888377963458,53.58192912376616,53.187072681884175,53.12851997340489,51.69135274296228,52.86435425196727
40.0,53.23546091849046,54.39066301838194,53.920037859576965,53.90161917844638,52.45425432364674,53.6308790677469
41.2,54.31792789764849,55.34588560685647,54.76096620411961,54.65688018620132,53.12929751021217,54.50176463953922
42.5,54.79237898809801,55.9296230353127,55.29003257429578,55.096124273775374,53.59050221854734,55.005471942655745
43.7,55.03469773360901,56.35803522150265,55.748253988031834,55.41892602586479,54.10469800026978,55.39662596714895
45.0,55.402633505387726,56.959339299813095,56.39607577401098,55.93575638562656,54.758592580633845,55.9571144154114
46.2,56.128122336748376,57.75933929981308,57.126263036762495,56.75671307480245,55.49734633935732,56.72360813997234
47.5,56.72285902893766,58.35803522150265,57.72831720410544,57.36900862873681,56.01879756442243,57.31354178926462
48.7,57.39674297331739,58.80296788742379,58.31695859457028,57.903577989363825,56.534383782365936,57.859403350313
50.0,58.07106876148261,59.17611856531714,58.83041821382494,58.40686341227462,57.049765116039865,58.36623806513329
51.5,58.45865853259173,59.63546091849048,59.31766075421331,58.82874977329668,57.452605747413074,58.802631539905775
53.0,58.78959528561198,59.96585727595256,59.537145845491935,59.20428742721015,57.849209352434784,59.12737313870177
54.5,59.045831471573976,60.1535511622006,59.82557821938968,59.563924315229016,58.27776130288075,59.421543588500995
56.0,59.22102614963505,60.053551162200606,59.967049956874476,59.81594938796182,58.538288946378984,59.5553095402275
58.0,59.39664781293233,59.92376450930966,60.11560153909575,60.088497356099595,58.711131737799775,59.67890937089126
60.0,59.55477168396807,59.849719059973054,60.40651770182083,60.32711164655896,58.8720370211158,59.837318174089745
61.5,59.548521420533646,59.84611403139874,60.45324498715273,60.3907028461054,58.982731916780736,59.878239205825224
63.0,59.50330511748406,59.934524153934774,60.466721493435585,60.62711164655897,59.045135360391896,59.954939181645074
65.0,59.55295536787777,60.23855083142047,60.76250265788498,60.732567072362,59.209512090123965,60.14344688255889
67.0,59.768031066562344,60.33855083142048,60.87460381687744,60.80097969123388,59.379756151341724,60.27072724966162
69.0,59.89257011413609,60.43855083142047,60.89509089392081,60.88598361426055,59.478310840085626,60.353349375310984
71.0,59.75177437534741,60.065632689609885,60.6135063988596,60.65901980830351,59.24154296614989,60.09877791967982
73.0,59.62526453928848,59.94942181474029,60.47010642248398,60.36114542567327,59.157172412371025,59.93911186550962
75.0,59.70261155895365,59.72285902893766,60.26381458511425,60.12417700184942,59.02215582663847,59.7882121108553
77.5,60.05603736524559,59.71792789764851,60.43928808035619,60.12856427017344,59.096402187323875,59.911149911629465
80.0,60.862836170015356,60.53696012594368,61.399018952488106,60.846317939855126,59.84282440483278,60.7269666976908
82.5,62.233310238016756,61.90920925226938,62.75533634032199,62.00835111365974,60.979274408990435,62.0146867011958
85.0,64.19046221610058,63.71430637862282,64.438012843726,63.495477136340966,62.72697436809899,63.75297113549141
87.5,66.1100779978029,65.67071732495408,66.34613074595727,65.30698341408262,64.72675272701328,65.66987291182592
90.0,67.9404416794549,67.47150800786939,68.13277308256683,67.10654428875466,66.76970862568221,67.51357761658063
92.5,69.70531806766472,69.17150800786938,69.81906161494295,68.85748999869598,68.8662670841015,69.30321642837795
95.0,71.23964531976002,70.97387961222817,71.32199455725409,70.47233893837267,70.80999888461457,70.9742839393546
97.5,72.57449351030438,72.33746771551314,72.69177750674625,71.79129976684993,72.49151385339884,72.388440859666
100.0,73.8053180676647,73.37001488257475,73.83537086618988,72.91061693217728,73.84933551509916,73.56935070479582
103.0,74.87071732495409,74.10231994589775,74.83537086618988,73.77233893837266,74.87380289481118,74.51518088457078
106.0,75.93663575667186,74.70542400732661,75.79177750674626,74.62090833068281,75.58767224295359,75.3634244115174
109.0,77.03663575667186,75.24283030471973,76.73537086618987,75.39088521016511,76.0761992154393,76.15438634505055
112.0,78.03663575667187,75.81627940083642,77.66528715999551,76.22125855817288,76.45153076339666,76.9244441816715
115.0,78.83663575667187,76.35667255930052,78.46528715999553,76.91309906233545,76.65955054671686,77.56507305861967
118.0,79.46845083805432,76.9566725593005,79.11998423401444,77.55523826903813,76.91438334888112,78.14052307051269
122.0,79.90228461396019,77.32758719283594,79.56528715999552,77.9797452513595,77.00474027565126,78.51589969718778
125.0,80.26845083805433,77.62758719283592,79.91998423401444,78.2797452513595,77.05630761374074,78.81416559312702
128.0,80.46845083805432,77.92758719283592,80.11998423401444,78.56429849938317,77.0480791540571,79.01753072883515
132.0,80.83663575667187,78.35667255930049,80.51998423401444,78.9797452513595,77.33511544578143,79.40180648181247
136.0,80.96845083805432,78.62758719283592,80.71998423401443,79.21524218999728,77.5044017129935,79.59688200244584
140.0,81.16845083805433,78.88982856673472,80.89044363353324,79.43276641677856,77.73627777208961,79.80644428399474
145.0,81.36845083805433,79.25667255930051,81.14675150375355,79.76648157916897,78.02650925487394,80.08408102066882
150.0,81.56845083805432,79.51916705502754,81.30229476693692,79.94246053230243,78.26907683807032,80.28406202055707
155.0,81.73513059177982,79.71916705502753,81.47525122642458,80.20245227663601,78.50353249706632,80.48384041202083
160.0,81.96845083805432,79.98219967332305,81.70229476693693,80.436773874776,78.76491977600068,80.72433596304408
165.0,82.10076749445562,80.11916705502752,81.83175513861906,80.59671297694123,78.92956081243902,80.86603138559109
170.0,82.33435140868502,80.24898514879551,82.00229476693693,80.75871529168381,79.09003357424534,81.04372623179746
175.0,82.53435140868503,80.41916705502753,82.20229476693692,80.90245227663601,79.2170252824809,81.21900283665812
180.0,82.73435140868501,80.5489851487955,82.40229476693692,81.1204366302858,79.36911154403165,81.40473849645484
185.0,82.90076749445562,80.68623512455237,82.60229476693694,81.302452276636,79.4588576830165,81.56827926533582
190.0,83.20076749445562,80.91916705502754,82.90229476693692,81.6204366302858,79.77346047963955,81.86260174400492
195.0,83.20076749445562,80.85667255930049,82.88748929892041,81.6587152916838,79.81866369730666,81.86174976630777
200.0,83.10076749445561,80.92758719283593,82.88748929892041,81.6204366302858,79.87932098564507,81.84651455485171
206.0,83.13663575667186,81.12758719283592,82.98748929892042,81.70245227663601,80.02196473898239,81.94793427625586
212.0,83.0030695710425,81.05667255930051,82.88748929892041,81.60245227663601,80.00804795670342,81.85512750402461
218.0,82.83663575667187,80.85667255930049,82.76035311823195,81.3863606964899,79.91194676761158,81.69309243116383
224.0,82.53663575667186,80.32758719283594,82.38748929892041,80.93276641677856,79.56772981307476,81.30291206217018
230.0,82.23663575667187,79.82758719283594,82.06035311823194,80.55740017519264,79.13256272041168,80.93259870431581
236.0,82.03663575667186,79.26588846059687,81.76035311823195,80.1243861571818,78.70146031000269,80.57910927912226
240.0,81.96845083805432,78.94898359150842,81.66035311823195,79.88255283808309,78.42058243532395,80.40806159224333
250.0,81.53663575667186,78.32179738688895,81.16035311823197,79.25929007237313,77.65083223968688,79.85487302755857
258.0,80.93663575667186,77.83546263134683,80.60489499373621,78.60776207081248,76.70362434240036,79.23399134536866
265.0,80.56845083805432,77.73546263134683,80.3048949937362,78.2779004889834,75.88345303736838,78.88343460018233
272.0,80.93663575667186,78.49506458035829,80.77525122642457,78.76475106144106,75.54735935581633,79.29869805552785
280.0,81.30306957104253,79.32179738688896,81.26035311823196,79.32481000513094,75.43191647153445,79.77481265898214
290.0,81.57150800786938,79.88219812790054,81.73175513861906,79.85778973918217,75.45055890135721,80.18515174566143
300.0,81.77609175449221,80.24898359150842,82.0874892989204,80.28748430179782,75.59386247137734,80.50178898303629
307.0,82.14576719438469,80.54898359150842,82.48748929892041,80.7377651280181,75.95775057489122,80.88229151610378
315.0,82.61227178315617,81.04898359150842,82.98748929892042,81.27473221777323,76.49713683567904,81.38309292051336
325.0,83.08219967332305,81.68219812790055,83.58748929892043,81.87473221777324,77.07393721273854,81.95365268506488
335.0,84.28219967332305,83.12179738688896,84.88748929892041,83.25130410818515,78.39201318743297,83.27098343601466
345.0,84.61916705502753,83.78219812790057,85.38748929892041,83.76828887792779,78.93982977850384,83.7686818351233
355.0,84.62758719283593,84.04898359150842,85.56035311823196,83.92546959607742,79.202056977048,83.92411264962897
365.0,84.86096514237182,84.40963256681621,85.91704993328868,84.28204584418485,79.61283571652828,84.256608470958
375.0,85.19897445130925,84.78219812790057,86.33175513861907,84.68204584418487,80.07902804615814,84.64567795410596
387.0,85.0096325668162,84.64314826109434,86.23175513861908,84.61949139192667,79.9873069698542,84.52568372165864
400.0,85.08219812790055,84.75521969308379,86.36035311823196,84.73340355490471,79.96715717080107,84.62506538800841
412.0,84.25521969308379,83.98219812790055,85.64675150375353,84.00805424837286,79.06584182582104,83.85914443261123
425.0,85.19506458035829,84.98219812790056,86.71998423401443,85.054321934659,80.0273049050942,84.87540042204448
437.0,84.8094224842602,84.64898359150841,86.49366590096783,84.66910851874458,79.61248467203156,84.54799422179231
450.0,83.792378988098,83.68888547155002,85.66779163544481,83.61677723671053,78.55227891018814,83.5934281482407
462.0,83.50982855556755,83.56194867563767,85.55802016372604,83.26781203523979,78.20003528025335,83.38193625828623
475.0,82.52875610128315,82.94391724861639,84.98847217927515,82.47710642408279,77.40629234625989,82.66368960005936
487.0,81.47100612011481,82.592378988098,84.51941403242198,81.77009029053194,76.77036065865688,82.0570265501712
500.0,80.22457993687897,82.55062128010364,83.96648312494486,81.16199263579264,76.14888155845962,81.50052236824148
515.0,80.27915446671192,84.7026545034034,85.15121482311348,82.26199263579265,77.31848488716922,82.79506953449558
530.0,77.7966478129323,84.12179738688894,82.92321085894986,79.9353672619435,75.43709008303018,81.12648961329464
545.0,78.83435140868502,83.4096325668162,80.86758191272573,78.03776479053268,73.90741511442685,80.05240477877713
560.0,80.04415774934851,81.64898359150841,79.4902720206278,76.78080269676344,72.96399992400808,79.06949900660184
580.0,79.00306957104252,78.3094224842602,77.44917146014501,74.70869502748826,70.94689315978096,76.89897167717628
600.0,77.87150800786937,75.76226919657724,76.43166443048618,73.43662734523811,69.63990454415816,75.4203971152491
615.0,76.41916705502754,73.77245431186857,75.46976085057072,72.07630614465462,68.32112491217002,74.00849135735133
630.0,75.11627783177747,71.88889049053282,74.60739597553173,70.4332019802281,66.55051159185489,72.66640717491563
650.0,75.5094224842602,72.15052612831404,75.60278716454656,70.40386863274203,65.77792349781002,73.14097263727575
670.0,75.12699787697726,73.03308937677076,75.64986437708288,69.59463997822951,64.86964972898349,73.07800134021967
690.0,76.17346990883564,74.64165288164494,76.51668233957517,69.98186115607184,65.54430612631317,74.11398861990008
710.0,78.0575988212754,76.10137735040873,78.07711755270331,70.88736756116744,66.82477157577621,75.7053321893053
730.0,78.63696012594369,75.91101842217599,78.06672282962043,70.38093094094225,66.48234697659747,75.83208170482747
750.0,78.71627783177748,75.56035296980747,77.85093454125426,70.20085041915607,65.74396945778531,75.69562468694934
775.0,77.80123572626638,74.74010271092207,77.1489488607326,69.9524907919086,64.2723421416619,74.8993619916943
800.0,77.66096514237184,74.70870389637979,77.54254351084627,71.14223243773431,63.975131979148046,75.05753257082016
825.0,78.20131827952113,73.54452072681785,77.74432657739041,72.37520336885844,63.770562806638466,75.25970590622832
850.0,79.40464502318535,71.94095755448733,77.75209960097517,72.78216900315057,62.88684580745259,75.6428719257119
875.0,80.14415774934851,73.19238562216104,78.51538988814663,72.787370508243,62.74082989940182,76.35797831514803
900.0,80.09156164294319,72.34942636664186,77.64063624998242,71.36803804791263,62.171407924970325,75.86010310142004
925.0,79.47717895989801,73.49409265572767,78.50710266514331,73.18258112455386,63.80018195108879,76.1306656863122
950.0,79.88935847832785,73.55203848744765,79.7098620625012,75.62303089876342,64.27250071070318,77.03900923075678
975.0,79.77625435142636,73.41874145904485,80.09784783167264,76.33965428540442,65.78688504601203,77.26024313580619
1000.0,81.5560412336453,72.7842172711826,80.07832222267668,76.56754056276372,65.90265556151579,77.96789172701583
1030.0,82.15143780816817,73.90724770789693,81.60663577977986,78.55269355450261,67.87125496947856,79.15136366385674
1060.0,80.90602413937147,75.42926676879422,80.67267520714708,76.11068908557282,66.88598847988989,78.06965163895829
1090.0,75.47640124428996,75.24104544374339,80.16938940609829,76.4585395266385,66.96087248466951,76.47196861536098
1120.0,75.52304739073989,72.6123207399012,79.29374208934394,74.61183775779106,65.96678154185422,75.36002238198388
1150.0,77.9931413362611,71.27786133415738,78.18242122660548,72.06582909673148,64.41404536396934,75.08054931898612
1180.0,77.7782207979152,72.41152326304965,77.20250452973814,70.56994492051909,65.67855533844323,74.6236548333644
1220.0,76.07283899448727,72.65980384331418,78.31649277504191,72.55033544667941,67.9566047709087,74.80110013811246
1250.0,74.13546263134681,71.1431588257405,78.00249238661094,74.65330818333244,66.82853037896207,74.34799289633976
1280.0,78.28788684692405,72.65716207584101,77.82355602450802,72.2705604918671,63.93549927704514,75.20573469612977
1320.0,81.85477168396808,76.45423864669904,80.0186564970234,72.19782030086198,63.962960859741244,78.02069840230594
1360.0,80.67035193787355,73.82389526938809,80.99553441398983,73.63837353094813,63.34823775818373,77.66186848481827
1400.0,79.72514469918943,70.38759923684219,80.02550288661821,74.48863920913747,61.648310859338125,76.72026904956917
1450.0,79.16146272052234,71.8174847980336,79.0401544450807,75.33238474314099,61.14934604458814,76.29918840968905
1500.0,77.19380864002828,70.48759923684219,79.51747219683118,70.76135056678872,60.739899484507674,75.21609842874538
1550.0,77.62568045314931,70.79148392197821,79.51362819676037,74.399412275171,61.234813288032214,75.75550363343298
1600.0,77.64512846789917,72.39123396456709,78.82211811155248,73.87447241668696,60.24294557676852,75.49478684986117
1650.0,74.71436554184208,71.9566725593005,79.98852280650979,73.31897013676425,60.99000433784951,75.2573600273643
1700.0,76.3964130865138,74.7996543927718,79.31579769841889,73.66877323166835,60.728749837693485,75.65124190368124
1750.0,76.35973055260564,74.52149085387151,78.08437564019819,70.39577354759298,61.83745095123838,74.72424926084757
1800.0,75.24918201469218,73.9236110299371,78.37734094811812,70.36766908765757,62.60344473629647,74.46222743112301
1850.0,76.08260071707032,74.58838259233903,75.96321352354308,69.76619568059657,62.36232261868692,73.80254715352379
1900.0,75.22770071685792,74.32303060258373,76.61462588093029,67.22414438883628,61.81905521479048,73.54277569839651
1950.0,76.10733339917951,75.8319029199664,77.18299457247088,65.32536863785297,58.313200554728226,74.32867396669947
2000.0,75.46887463636014,74.29501845533797,77.38963542791292,67.64223736310345,60.423731324787894,73.93921333305714
2060.0,75.80602413937144,76.68672555582687,79.40504069568209,65.7855341407,59.503687559679506,75.47974572313986
2120.0,77.1328809265652,77.28852003748096,78.98191140081084,70.45795503915588,62.743827227131746,75.9622980736365
2180.0,76.82324058002983,76.70410916638598,79.45600468045095,66.43004815391403,56.56681033287977,75.7521898135921
2240.0,74.27137679706827,74.1485058811867,75.49120164293645,68.0147310167843,59.152244618832654,72.80097377929057
2300.0,74.93131741555753,72.75827843981658,77.25839242720933,64.82545365011318,55.86775961890949,73.28844393381043
2360.0,74.85356791445052,71.55901071927703,74.89390548525677,68.32960424260115,58.02355233575621,72.21122083745122
2400.0,75.79610594191716,71.81068400967258,75.44871296467029,66.2331915779177,52.77300511749307,72.67700045499987
2500.0,76.18963710466605,69.7371968948526,75.15692619104617,66.1555828183358,54.80778187261713,72.46575059264698
2580.0,76.24339850407559,73.29618707170916,77.86317653225001,70.17808706926324,51.984397940113055,74.31948437466993
2650.0,77.75234182425075,73.11595200332334,77.873046609844,63.596630043578685,56.30875373869249,74.59649962348473
2720.0,76.13184327978686,71.94264053902359,76.87237714349895,69.79373990198319,54.88854187799835,73.62446828036846
2800.0,78.33441250169983,70.27244993229336,78.16863828516638,62.64395878239742,55.804123227696394,74.67182609846124
2900.0,77.84993472601855,70.9114589804255,78.22614198467718,67.00371160586506,60.22563870282383,74.64864048011525
3000.0,78.26435270902095,72.67346307508036,79.63092150128342,69.8914265154818,59.3259435676309,75.75245953845456
3070.0,78.99856102581367,73.16053971475957,80.6242229563472,70.64392974497638,60.0660689403211,76.59310667826114
3150.0,77.37150800786937,74.58199832327723,79.86221710262335,74.1386567843836,60.36240087689289,76.17448640044361
3250.0,75.12975098047416,74.0648237720941,79.12258506348581,75.19586688548434,58.926734949741515,75.40699580392857
