Freq "Front Wall Bounce"
22.4 30.94470594127256
23.0 31.650751915875418
23.6 32.295943928263796
24.0 33.33949804627869
25.0 34.607403980368986
25.8 36.25178056940726
26.5 37.83245631974026
27.2 39.286778549115695
28.0 40.20523882315459
29.0 41.67365423359854
30.0 43.21757137274636
30.7 44.84396198775093
31.5 46.61184808591804
32.5 47.80301427778255
33.5 48.83903230853949
34.5 49.92732409387406
35.5 50.940129218676304
36.5 51.82453164845714
37.5 52.5252166308654
38.7 53.18707268188416
40.0 53.92003785957695
41.2 54.760966204119626
42.5 55.29003257429579
43.7 55.74825398803182
45.0 56.39607577401097
46.2 57.12626303676248
47.5 57.72831720410542
48.7 58.31695859457028
50.0 58.830418213824956
51.5 59.31766075421329
53.0 59.537145845491935
54.5 59.82557821938968
56.0 59.96704995687446
58.0 60.11560153909576
60.0 60.406517701820846
61.5 60.453244987152715
63.0 60.466721493435585
65.0 60.762502657884994
67.0 60.87460381687747
69.0 60.89509089392081
71.0 60.613506398859585
73.0 60.470106422483994
75.0 60.263814585114275
77.5 60.43928808035621
80.0 61.399018952488106
82.5 62.755336340321975
85.0 64.43801284372601
87.5 66.34613074595725
90.0 68.13277308256681
92.5 69.81906161494297
95.0 71.32199455725407
97.5 72.69177750674626
100.0 73.83537086618986
103.0 74.83537086618986
106.0 75.79177750674626
109.0 76.73537086618987
112.0 77.6652871599955
115.0 78.46528715999551
118.0 79.11998423401442
122.0 79.5652871599955
125.0 79.91998423401444
128.0 80.11998423401444
132.0 80.51998423401443
136.0 80.71998423401445
140.0 80.89044363353322
145.0 81.14675150375353
150.0 81.30229476693692
155.0 81.47525122642456
160.0 81.70229476693692
165.0 81.83175513861906
170.0 82.00229476693693
175.0 82.20229476693693
180.0 82.40229476693692
185.0 82.60229476693692
190.0 82.90229476693693
195.0 82.88748929892041
200.0 82.88748929892041
206.0 82.98748929892041
212.0 82.88748929892041
218.0 82.76035311823196
224.0 82.38748929892043
230.0 82.06035311823194
236.0 81.76035311823196
240.0 81.66035311823197
250.0 81.16035311823195
258.0 80.60489499373621
265.0 80.30489499373621
272.0 80.77525122642456
280.0 81.26035311823195
290.0 81.73175513861906
300.0 82.08748929892042
307.0 82.48748929892042
315.0 82.98748929892041
325.0 83.58748929892042
335.0 84.88748929892043
345.0 85.38748929892041
355.0 85.56035311823197
365.0 85.91704993328868
375.0 86.33175513861906
387.0 86.23175513861906
400.0 86.36035311823197
412.0 85.64675150375355
425.0 86.71998423401445
437.0 86.49366590096783
450.0 85.6677916354448
462.0 85.55802016372603
475.0 84.98847217927516
487.0 84.51941403242196
500.0 83.96648312494486
515.0 85.15121482311349
530.0 82.92321085894987
545.0 80.86758191272571
560.0 79.4902720206278
580.0 77.44917146014501
600.0 76.43166443048618
615.0 75.46976085057074
630.0 74.60739597553174
650.0 75.60278716454654
670.0 75.64986437708288
690.0 76.51668233957517
710.0 78.07711755270331
730.0 78.06672282962043
750.0 77.85093454125428
775.0 77.1489488607326
800.0 77.54254351084629
825.0 77.7443265773904
850.0 77.75209960097519
875.0 78.51538988814664
900.0 77.6406362499824
925.0 78.50710266514332
950.0 79.70986206250122
975.0 80.09784783167262
1000.0 80.07832222267666
1030.0 81.60663577977988
1060.0 80.67267520714707
1090.0 80.1693894060983
1120.0 79.29374208934395
1150.0 78.18242122660547
1180.0 77.20250452973814
1220.0 78.3164927750419
1250.0 78.00249238661094
1280.0 77.82355602450804
1320.0 80.01865649702341
1360.0 80.99553441398982
1400.0 80.0255028866182
1450.0 79.0401544450807
1500.0 79.51747219683118
1550.0 79.51362819676038
1600.0 78.82211811155248
1650.0 79.98852280650978
1700.0 79.31579769841888
1750.0 78.08437564019819
1800.0 78.37734094811813
1850.0 75.96321352354308
1900.0 76.61462588093029
1950.0 77.18299457247089
2000.0 77.3896354279129
2060.0 79.40504069568209
2120.0 78.98191140081086
2180.0 79.45600468045095
2240.0 75.49120164293645
2300.0 77.25839242720934
2360.0 74.89390548525677
2400.0 75.44871296467029
2500.0 75.15692619104617
2580.0 77.86317653225001
2650.0 77.87304660984401
2720.0 76.87237714349895
2800.0 78.16863828516638
2900.0 78.22614198467718
3000.0 79.63092150128341
3070.0 80.62422295634721
3150.0 79.86221710262335
3250.0 79.12258506348581
3350.0 79.00521375883285
3450.0 78.40768280107926
3550.0 77.4464005690281
3650.0 78.52046002822944
3750.0 80.40526188984461
3870.0 82.54300478491041
4000.0 81.2344856591754
4120.0 79.258686931485
4250.0 77.73517448372898
4370.0 78.03427413832529
4500.0 76.3705682609361
4620.0 76.38811923985216
4750.0 76.08305379121283
4870.0 76.32178387196866
5000.0 77.76986341972581
5150.0 79.00420797464625
5300.0 79.6335175256879
5450.0 76.89015075773021
5600.0 77.37551897327809
5800.0 80.99761017110175
6000.0 82.35993607985961
6150.0 82.49936430692298
6300.0 80.84057092398507
6500.0 80.63498208574686
6700.0 83.08255222148111
6900.0 84.39414058923603
7100.0 84.5354774431905
7300.0 84.14441480518533
7500.0 83.35079026509985
7750.0 81.5286926127201
8000.0 82.25334194314132
8250.0 80.85920315381557
8500.0 80.1560879002055
8750.0 80.88828386327947
9000.0 81.72540352390958
9250.0 82.79047500388788
9500.0 84.87662364914536
9750.0 83.15683466468408
10000.0 82.86363281877897
10300.0 84.7476868014767
10600.0 82.77696177690429
10900.0 84.71347439491643
11200.0 83.38864773467273
11500.0 82.9951906262849
11800.0 83.49391020202597
12200.0 83.33316000312031
12500.0 82.82541578136005
12800.0 80.29806445359576
13200.0 80.86192363768404
13600.0 81.83863502883942
14000.0 80.43827873336849
14500.0 80.12121916894982
15000.0 81.30541560438961
15500.0 82.33007818128304
16000.0 83.21656811586107
16500.0 80.97471281762559
17000.0 78.82386741639455
17500.0 75.8312183221536
18000.0 72.29447652581986
18500.0 74.53220931007128
19000.0 76.00647557400563
19500.0 73.54347833678308
