Freq "Sound Power"
20.5078 48.49098600470289
21.2402 49.92600675172112
21.9727 50.91875284682759
22.7051 51.69312149769375
23.4375 52.47802358162066
24.1699 53.039916378739875
25.6348 54.13073821291219
26.3672 54.67563304057414
27.0996 55.307468556284064
27.832 55.87403271841636
29.2969 56.504676075401974
30.0293 56.958063309908866
31.4941 57.70541412735666
32.2266 58.130038245942515
33.6914 58.91248847542853
34.4238 59.274148829449175
35.8887 59.98566170041407
37.3535 60.6318462877495
38.8184 61.29692372975221
39.5508 61.613951154635984
41.0156 62.226003786939984
42.4805 62.81621793561342
43.9453 63.41242199489997
45.4102 63.99414013393539
47.6074 64.71306372471223
49.0723 65.28583726327098
50.5371 65.85830325380104
52.7344 66.43993274005645
54.1992 66.88397911927872
56.3965 67.59609456821914
58.5938 68.29033440200998
60.0586 68.69939502868114
62.2559 69.33106394788257
64.4531 69.88599743969066
66.6504 70.49000623685122
69.5801 71.22422402068294
71.7773 71.72118819760279
73.9746 72.2389039247031
76.9043 72.9077167901272
79.834 73.5421507395947
82.7637 74.11883212290125
85.6934 74.70203414573795
88.623 75.24990344333433
91.5527 75.82714830892583
94.4824 76.3460059158579
98.1445 76.8914313869447
101.807 77.46946220576052
105.469 78.03195011622894
109.131 78.54790453005836
112.793 79.02902009608944
116.455 79.45138703131097
120.85 79.96351102912918
125.244 80.53646824305248
129.639 80.94268597058785
134.033 81.2965367765854
138.428 81.61449255764929
143.555 81.93154655640143
148.682 82.29522284880387
153.809 82.57565557109719
159.668 82.69942760744387
164.795 82.80010446655005
170.654 82.74703132512367
176.514 83.07306554753148
183.105 83.10924425609934
189.697 83.1970986802022
196.289 83.24705485563312
202.881 83.0581383864771
210.205 82.97666327695991
217.529 83.04828264558164
225.586 82.95813427446932
232.91 82.77613758918771
241.699 82.6887587229765
249.756 82.2521008051893
258.545 82.32899057815135
268.066 82.65150374018555
277.588 82.2134164831729
287.109 81.96878649170415
297.363 81.87433459205431
307.617 82.16536543466589
318.604 81.5737035365834
329.59 81.43014805639055
341.309 81.23734816148705
353.76 81.10943933275894
366.211 81.24305167708566
378.662 81.18508146990855
392.578 80.79503072061426
405.762 80.85244222268864
420.41 80.70776357402919
435.059 80.64342475138399
450.439 80.49595977279718
466.553 80.31077827900803
482.666 80.40106366025994
500.244 80.4545350451068
517.822 80.27225829784855
536.133 80.33744223945925
554.443 80.15245295313473
574.219 79.7280749967294
594.727 80.11108243916476
615.234 80.3873783665047
637.207 80.63937195741914
659.912 80.51974479745449
683.35 80.06290826432759
706.787 79.72704380276481
731.689 79.99806541052159
758.057 79.50720263545044
784.424 79.56907175773014
812.256 79.51718253044432
840.82 79.3798987860833
870.85 79.2704776361359
901.611 78.67177365937492
933.105 78.2493772559876
966.064 77.6414756435945
999.756 77.36492968087383
1034.91 76.99307325139596
1071.53 76.5698202394239
1109.62 77.1778555871351
1148.44 77.65627895031218
1189.45 77.56780344820525
1231.2 77.62201367515618
1274.41 77.5058938645993
1319.82 77.82140020780635
1365.97 78.2863149488722
1414.31 78.27271734899946
1464.11 78.44306749951993
1515.38 78.4502570375675
1568.85 78.6773962377103
1624.51 78.92545362699109
1681.64 79.22542487746725
1740.97 78.88538030505758
1802.49 78.57085461389256
1866.21 78.65829734397408
1932.13 79.16690582655094
2000.24 79.43060169176371
2070.56 79.28503355547737
2143.8 79.90364898092021
2219.24 79.77252892410134
2297.61 78.88280286311105
2378.17 79.19753562924222
2462.4 79.30037081418386
2548.83 78.74690802461765
2638.92 78.74490390147365
2731.93 79.0663970698357
2828.61 79.17202593634352
2928.22 79.1507076987454
3031.49 78.92281379091541
3138.43 78.79228355407393
3249.02 78.44528546026845
3363.28 78.20493647582938
3481.93 78.26803711591069
3604.98 77.6817593368806
3732.42 77.6475014133415
3863.53 77.51391889731845
3999.76 77.43895014833528
4141.11 77.26254585754107
4286.87 77.26747141636979
4438.48 77.43696243996817
4594.48 77.56712897800818
4757.08 77.81722263152677
4924.8 77.67759019862892
5098.39 77.82129822976852
5277.83 77.94110874010414
5463.87 77.88968692263295
5656.49 77.677763268972
5856.45 77.75163486073404
6062.99 77.5397905621128
6276.86 77.40992421741488
6498.05 77.55250555563524
6727.29 77.55254924343848
6964.6 77.96391355168693
7209.96 78.21158095329255
7464.11 78.3838350620719
7727.78 78.53521700512219
8000.24 78.43962227554124
8282.23 77.89730689709596
8574.46 77.67845094551208
8876.22 77.77901876665646
9189.7 77.84730561596606
9513.43 77.89722869509023
9848.88 77.72482754732285
10196.8 77.54116393559706
10556.4 77.42600698821747
10928.5 77.10275160722995
11313.7 76.48007219124483
11712.9 75.9259026884789
12126.0 75.86772777534267
12553.7 75.883640598704
12996.1 75.54444039892051
13454.6 75.32462505136168
13928.5 75.08278216955459
14419.9 74.68721615637484
14928.2 74.36873134265497
15454.8 73.82690464367992
15999.8 73.40789978205203
16564.5 73.01054408026937
17148.2 72.54306878730618
17753.2 71.98816853240378
18379.4 71.33895540923362
19027.6 70.78343865835957
19698.5 70.47278173119624
19999.5 70.22951956807023
