Freq "Listening Window"
20.0 36.74433836981508
20.2909 37.6597601625903
20.586 38.66735665985429
20.8855 39.694664912269374
21.1893 40.64070527639423
21.4975 41.47495586751053
21.8102 42.20239834094825
22.1274 42.84156960668629
22.4492 43.42271301603866
22.7758 43.982282022712624
23.1071 44.550674191718244
23.4432 45.14237297672646
23.7841 45.7413283825383
24.1301 46.31603542108029
24.4811 46.839203424171984
24.8372 47.29740596340456
25.1984 47.69512544232599
25.5649 48.05254563264545
25.9368 48.400917486587375
26.3141 48.76601717660911
26.6968 49.158753516474235
27.0851 49.572069133908585
27.4791 49.98106004124904
27.8788 50.36081375289943
28.2843 50.7042578158093
28.6957 51.01671062225235
29.1131 51.317027309309566
29.5365 51.61788338608149
29.9661 51.92289915145875
30.402 52.220368599286346
30.8442 52.49063127633001
31.2929 52.732180256505444
31.748 52.96030323982096
32.2098 53.19809522559157
32.6783 53.45849462673651
33.1536 53.72438626839576
33.6359 53.97420168779725
34.1251 54.197249244381524
34.6215 54.41830693752516
35.125 54.66469834179476
35.6359 54.93664077558786
36.1543 55.20371118025132
36.6802 55.44923522884905
37.2137 55.69883751767064
37.755 55.982483771254536
38.3041 56.286975465371555
38.8613 56.56718702618663
39.4265 56.82573257319601
40.0 57.126590530471574
40.5818 57.4830252672667
41.1721 57.80365935602458
41.771 58.03000979266692
42.3785 58.219127656578095
42.9949 58.459220779791295
43.6203 58.67566048202971
44.2548 58.74980868967937
44.8985 58.85437643235748
45.5515 59.271275096781
46.2141 59.887749697762956
46.8863 60.30201738199682
47.5683 60.400260017683095
48.2602 60.52241767276038
48.9621 60.86302886625181
49.6743 61.22560429682615
50.3968 61.48065387280607
51.1299 61.767160012712466
51.8736 62.158340117336024
52.6281 62.54205321963974
53.3936 62.87992310070885
54.1702 63.23688515592653
54.9581 63.614843961330834
55.7575 63.96637744929869
56.5685 64.30081948654018
57.3914 64.63808750267715
58.2261 64.96722302710597
59.073 65.26397427007545
59.9323 65.54419585026166
60.804 65.84642613153233
61.6884 66.19099194684598
62.5857 66.54876255503844
63.496 66.87912453866822
64.4196 67.18370436468739
65.3566 67.48072014208363
66.3073 67.75297826730186
67.2717 68.0046897057815
68.2502 68.28671988044427
69.2429 68.57922530176954
70.2501 68.86536314634742
71.2719 69.15609333385399
72.3086 69.41814948869461
73.3603 69.63920401324197
74.4274 69.79703363665594
75.5099 69.8922487773376
76.6083 69.97855052990504
77.7226 70.03704547096885
78.8531 70.108808913246
80.0 70.21936088655154
81.1636 70.31044982725102
82.3442 70.38731448208195
83.5419 70.44632630380323
84.757 70.45343597708002
85.9899 70.41834053925793
87.2406 70.36989357721451
88.5096 70.32769527704643
89.797 70.28170279278062
91.1031 70.20151424023462
92.4282 70.05241957335907
93.7726 69.8197926985888
95.1366 69.5816187892243
96.5204 69.37523250307387
97.9243 69.2324878506093
99.3486 69.14664731172672
100.794 69.06981686644252
102.26 68.98598664444623
103.747 68.91262481466423
105.256 68.84348534488701
106.787 68.75867034676436
108.34 68.6494251851276
109.916 68.49139285468328
111.515 68.34582562265845
113.137 68.24171113923138
114.783 68.16392207838733
116.452 68.07370230236266
118.146 68.01527042535571
119.865 67.97315454787157
121.608 67.9353865427572
123.377 67.90296995196194
125.171 67.86777576312834
126.992 67.8547966177973
128.839 67.82795454216182
130.713 67.7746717843531
132.615 67.64148008825569
134.543 67.48397746666281
136.5 67.41448165958656
138.486 67.30532368040018
140.5 67.1550573738221
142.544 66.99190214887442
144.617 66.81287433513505
146.721 66.68807758598258
148.855 66.70815787145777
151.02 66.6863554011073
153.217 66.44901553742615
155.445 66.19289956076456
157.706 66.0577970837492
160.0 65.95223622629364
162.327 66.18057778151507
164.688 66.52192213950737
167.084 67.08872645873033
169.514 67.64196312702038
171.98 67.7165515748886
174.481 67.76659203182781
177.019 67.87074345038077
179.594 67.9673414424593
182.206 68.02672674416642
184.856 68.12489981532026
187.545 68.24485943298232
190.273 68.38503456015913
193.041 68.49999922229887
195.849 68.55963598788217
198.697 68.68305230114356
201.587 68.59014630191007
204.52 68.49094543779613
207.494 68.42348200125622
210.512 68.21089718578112
213.574 67.94042349162916
216.681 67.82983920377903
219.833 67.77938961776148
223.03 67.84844817502767
226.274 67.73540707744424
229.565 67.60478330550728
232.905 67.45149003123181
236.292 67.52046451961
239.729 67.42405801378608
243.216 67.34687371271288
246.754 67.51547221857047
250.343 67.91810828053227
253.984 68.21493878299476
257.678 68.30867495914417
261.426 68.22975154213796
265.229 68.07426871061753
269.087 67.32278904107436
273.001 67.24300327712749
276.972 67.30111757238161
281.0 67.02746378261067
285.088 67.14248643438441
289.234 67.3077369289557
293.441 67.51377813536945
297.709 67.75439510823033
302.04 67.64348624572422
306.433 67.06082648903477
310.89 67.0330002049521
315.412 66.94665354155939
320.0 66.78680154331654
324.655 66.6574468096155
329.377 66.79615351296492
334.168 66.95887546045529
339.028 66.88691590612295
343.959 66.39585585408845
348.962 66.56856451478292
354.038 67.1347200818651
359.188 67.75637201531349
364.412 68.23633103495499
369.713 67.82595643360307
375.09 67.82955214695863
380.546 68.01109051473804
386.081 68.37717282346355
391.697 68.49601227750715
397.394 68.63829053347935
403.175 67.92646510743691
409.039 68.06517521033702
414.989 67.7967312961819
421.025 67.89383021329725
427.149 67.89547143251892
433.362 68.00262354529421
439.665 68.06766662877651
446.06 67.70955525347959
452.548 67.887923827374
459.131 67.46490045704958
465.809 67.91148424479731
472.584 67.6918227945207
479.458 67.56586669355981
486.432 67.50600052803433
493.507 67.64094471448169
500.686 67.15962118837876
507.968 67.40484413709636
515.357 67.55750774004288
522.853 67.51452153336285
530.458 67.56766330182737
538.174 67.86450544587674
546.002 68.389920254924
553.943 68.27196251619051
562.001 68.28239355152215
570.175 68.28667727576614
578.469 68.13492996590183
586.883 68.12169915642863
595.419 67.89678738063067
604.08 67.91963912491077
612.866 67.9815335806096
621.78 67.8626961306237
630.824 67.69723602023328
640.0 67.51149871373356
649.309 67.4267725247534
658.753 67.34899439744802
668.335 67.2487013168803
678.056 67.21249897865658
687.919 67.13677536630836
697.925 67.05703808066278
708.077 66.98698711970027
718.376 66.93242257661994
728.825 66.94270247735632
739.426 67.0361524133185
750.181 67.1955385226227
761.093 67.39609995333605
772.163 67.60487995924392
783.394 67.81235258459373
794.789 68.01670443873975
806.349 68.2047902945859
818.078 68.3741185425274
829.977 68.51068134120918
842.05 68.61336326682792
854.298 68.67929134744922
866.724 68.70490323575116
879.33 68.69218696159751
892.12 68.63327161244823
905.097 68.53736184397403
918.262 68.40620833021819
931.618 68.2434151503392
945.169 68.06093951362264
958.917 67.86368780726956
972.864 67.65953434637767
987.015 67.46833202634399
1001.37 67.28394363425723
1015.94 67.12729876155366
1030.71 67.00100695177882
1045.71 66.90113635045252
1060.92 66.82571048926272
1076.35 66.75959874278436
1092.0 66.69299572060577
1107.89 66.60951744430706
1124.0 66.49368572997653
1140.35 66.33108243666071
1156.94 66.10887802512416
1173.77 65.82624953311789
1190.84 65.47573894453616
1208.16 65.06684412343411
1225.73 64.62010636080694
1243.56 64.16860742130484
1261.65 63.78851893814837
1280.0 63.542274771193775
1298.62 63.50653873816454
1317.51 63.692779675436554
1336.67 64.06625129440985
1356.11 64.5557945611819
1375.84 65.06670358957062
1395.85 65.5361549259886
1416.15 65.90445380398894
1436.75 66.15202073610416
1457.65 66.26431581076838
1478.85 66.24775650094607
1500.36 66.11441214593195
1522.19 65.90246983892384
1544.33 65.65804054394246
1566.79 65.4461600303078
1589.58 65.32141935941608
1612.7 65.30073499691453
1636.16 65.36334088000585
1659.95 65.45385094020988
1684.1 65.49494530706997
1708.6 65.42287419321978
1733.45 65.20046895674439
1758.66 64.80278944753319
1784.24 64.25158080006754
1810.19 63.618409583136824
1836.52 63.006493782492655
1863.24 62.5554503226068
1890.34 62.35742273021462
1917.83 62.373362895111924
1945.73 62.479314347476034
1974.03 62.539608433890606
2002.74 62.471538980967026
2031.87 62.24857713482966
2061.43 61.91312858217897
2091.41 61.531518956600706
2121.83 61.192010459456114
2152.69 60.93556078793698
2184.01 60.74046413416211
2215.77 60.551864732913415
2248.0 60.30664715159459
2280.7 59.99145230962655
2313.87 59.6310699056168
2347.53 59.29634312562942
2381.68 59.03543706903538
2416.32 58.86927915108616
2451.46 58.76756540250253
2487.12 58.663803880083194
2523.3 58.515287240820115
2560.0 58.308673665153236
2597.24 58.08313197640797
2635.01 57.928251956243386
2673.34 57.91970475041178
2712.23 58.06843313986907
2751.68 58.28384424493619
2791.7 58.46230358576673
2832.31 58.53589896658097
2873.5 58.53225062168379
2915.3 58.55551805177885
2957.7 58.70121896430835
3000.72 58.985932576102144
3044.37 59.331944107374895
3088.65 59.630961205114914
3133.58 59.83774623092775
3179.16 59.98608575917528
3225.4 60.15364734751678
3272.31 60.392057581955996
3319.91 60.64491739522205
3368.2 60.81404333552922
3417.19 60.86373154722449
3466.89 60.89017992611859
3517.32 61.044008704369745
3568.48 61.3451217197922
3620.39 61.67930758349972
3673.05 61.98367445536243
3726.47 62.300375204209686
3780.67 62.68395873847284
3835.67 63.10352125343918
3891.46 63.496845301214265
3948.06 63.85157032474645
4005.49 64.16956678103868
4063.75 64.41048451778595
4122.86 64.47485172545913
4182.82 64.2516248100682
4243.66 63.75314670377432
4305.39 63.30182957309435
4368.01 63.32220816965416
4431.55 63.70628967777148
4496.01 63.98941796304483
4561.4 64.05402005049113
4627.75 64.09206753156542
4695.06 64.25702759863985
4763.35 64.572588595867
4832.64 64.89295107867147
4902.93 65.06171842946212
4974.24 65.29190101663823
5046.6 65.76092447824189
5120.0 66.005720979809
5194.47 65.64832631518813
5270.03 65.08406483428298
5346.68 64.88140708992756
5424.45 64.96659233777835
5503.35 65.0840253816719
5583.4 65.17821644793683
5664.61 65.24559889587064
5747.01 65.20665176216461
5830.6 65.12516126634668
5915.41 65.17484229003269
6001.45 65.11633473074579
6088.74 64.86860585623273
6177.3 64.70217825562624
6267.15 64.45659726695384
6358.31 64.06554546762827
6450.8 63.70876037412644
6544.62 63.25289381022476
6639.82 62.750684036753896
6736.4 62.48328984118717
6834.38 62.38747136486502
6933.79 63.12851606423554
7034.64 64.30886075929645
7136.96 65.20510186856656
7240.77 66.11090173524795
7346.09 66.70790755776089
7452.94 67.02322427490475
7561.35 67.34136848638403
7671.33 67.43539836748234
7782.91 67.61653179259139
7896.12 67.77650531645999
8010.97 67.87938563166823
8127.49 68.05742346255781
8245.71 68.0628492370135
8365.65 68.03311056941554
8487.33 67.89745792600984
8610.78 67.76051294559838
8736.03 67.65642853885491
8863.09 67.5398898137966
8992.01 67.46755511595256
9122.8 67.2745365186458
9255.5 67.06741733247911
9390.12 66.71795631794716
9526.7 66.37498120817145
9665.27 65.97695624152908
9805.86 65.9189980040463
9948.49 66.06251894345161
10093.2 66.31751366974572
10240.0 66.45798295270689
10388.9 66.50984261178534
10540.1 66.4278290236824
10693.4 66.23623325652868
10848.9 65.98538131654064
11006.7 65.83033645806562
11166.8 65.89818934941833
11329.2 66.00846294429546
11494.0 66.02249433868819
11661.2 65.99870492943377
11830.8 65.99718459768617
12002.9 66.04279707998256
12177.5 66.04586496784543
12354.6 65.96244541272041
12534.3 65.90170393661407
12716.6 65.76770062405906
12901.6 65.85256037500308
13089.2 66.13620690113544
13279.6 66.40917774152227
13472.8 66.62263188423682
13668.8 66.88988770338118
13867.6 67.02650987966234
14069.3 66.9326731798058
14273.9 66.81760285720523
14481.5 66.72766038191756
14692.2 66.70006349814771
14905.9 66.99938695092624
15122.7 67.49096798388084
15342.7 67.91717737658972
15565.8 68.10823454323983
15792.2 67.97273304626651
16021.9 67.72054576499555
16255.0 67.38340143913989
16491.4 67.09307720946502
16731.3 66.76413734011464
16974.7 66.37218761425594
17221.6 65.87634475950398
17472.1 65.39194067651289
17726.2 64.98920032549132
17984.0 64.52474695738921
18245.6 64.03646640216648
18511.0 63.61193212571246
18780.2 63.260654579636295
19053.4 62.93074092986417
19330.5 62.69522843014943
19611.7 62.39643141356187
19897.0 61.96403816009298
