Freq "Early Reflections"
20.0 56.53705954186509
20.2909 56.94620030202924
20.586 57.443200302029254
20.8855 58.09945736314296
21.1893 58.866200302029256
21.4975 59.73305954186509
21.8102 60.62020030202925
22.1274 61.53120030202925
22.4492 62.40005954186509
22.7758 63.23920030202926
23.1071 64.0060595418651
23.4432 64.75720030202925
23.7841 65.47620030202924
24.1301 66.20920030202925
24.4811 66.9630595418651
24.8372 67.72520030202925
25.1984 68.50705954186509
25.5649 69.28120030202925
25.9368 70.0723944826193
26.3141 70.8780595418651
26.6968 71.66420030202926
27.0851 72.44345736314295
27.4791 73.2130595418651
27.8788 73.99620030202925
28.2843 74.74120030202924
28.6957 75.48345736314295
29.1131 76.2010595418651
29.5365 76.89920030202926
29.9661 77.55820030202925
30.402 78.17120030202926
30.8442 78.76020030202925
31.2929 79.30520030202925
31.748 79.77726246555
32.2098 80.23833289089352
32.6783 80.66539448261932
33.1536 81.04745736314297
33.6359 81.41139448261933
34.1251 81.73139448261932
34.6215 82.02839448261932
35.125 82.31639448261932
35.6359 82.58633289089352
36.1543 82.83720030202926
36.6802 83.05220030202925
37.2137 83.22999959157127
37.755 83.35128270158279
38.3041 83.43297008338436
38.8613 83.48439314956153
39.4265 83.50266590414023
40.0 83.50706349240383
40.5818 83.50062959680278
41.1721 83.49625036149398
41.771 83.496608294872
42.3785 83.50164147860579
42.9949 83.51249899451032
43.6203 83.52834073128474
44.2548 83.54544349651496
44.8985 83.56262499041576
45.5515 83.59363457548159
46.2141 83.62212939146814
46.8863 83.65398785765498
47.5683 83.68409301254827
48.2602 83.70477826197785
48.9621 83.72140912765416
49.6743 83.73227175371167
50.3968 83.74008914294906
51.1299 83.74869065963482
51.8736 83.75637919988313
52.6281 83.77560716322101
53.3936 83.79107885224683
54.1702 83.80318158316003
54.9581 83.81969960762852
55.7575 83.83342574316735
56.5685 83.84734469273536
57.3914 83.86738435515153
58.2261 83.88669718891344
59.073 83.90861901411783
59.9323 83.93272748706181
60.804 83.95781971816459
61.6884 83.9858707628662
62.5857 84.01005310899743
63.496 84.03083475149035
64.4196 84.0583075840403
65.3566 84.08643096583098
66.3073 84.12162904801914
67.2717 84.14640183223817
68.2502 84.1711927100691
69.2429 84.19098596172026
70.2501 84.20330214835076
71.2719 84.21497123133678
72.3086 84.21116918871901
73.3603 84.20368765581449
74.4274 84.18824039776489
75.5099 84.16822727871369
76.6083 84.16032584529516
77.7226 84.16216333245137
78.8531 84.17953711693741
80.0 84.2004550108642
81.1636 84.224376010888
82.3442 84.23623215354964
83.5419 84.25254233457382
84.757 84.27347971791114
85.9899 84.29392342241952
87.2406 84.31850252779599
88.5096 84.35509782744595
89.797 84.38674675755288
91.1031 84.42083726291203
92.4282 84.46289285776368
93.7726 84.49268820569954
95.1366 84.51599049819663
96.5204 84.5232385052406
97.9243 84.51119376453744
99.3486 84.48595934136313
100.794 84.46001161166721
102.26 84.44170573804278
103.747 84.43665335401336
105.256 84.44851281139887
106.787 84.45298859287828
108.34 84.436250678887
109.916 84.39663069719693
111.515 84.34854581511235
113.137 84.28802661362953
114.783 84.23469248846423
116.452 84.2054660931538
118.146 84.21026663155253
119.865 84.24131549568501
121.608 84.29139492267294
123.377 84.34983882350416
125.171 84.4000691996907
126.992 84.43558853144376
128.839 84.44700739831391
130.713 84.46957527490441
132.615 84.4887019136312
134.543 84.5001705910744
136.5 84.49196899919883
138.486 84.46001466242717
140.5 84.43795267381154
142.544 84.43672188779146
144.617 84.45281605345876
146.721 84.49416542086935
148.855 84.54092986068585
151.02 84.57423339693085
153.217 84.55618486055533
155.445 84.4605198759084
157.706 84.32526335944183
160.0 84.20971507019948
162.327 84.17176246433242
164.688 84.20874562242444
167.084 84.26007937613002
169.514 84.28226064586639
171.98 84.24143148837575
174.481 84.1402124866581
177.019 84.02968747158226
179.594 83.96812915623427
182.206 83.98085253636508
184.856 84.02184034330446
187.545 84.05441873839189
190.273 84.06697716345442
193.041 84.05357099097856
195.849 84.01361207668991
198.697 83.98884627787712
201.587 83.99759804917144
204.52 84.04286016629838
207.494 84.06512545467422
210.512 84.06800281746696
213.574 84.08393324769096
216.681 84.08932395817546
219.833 84.08185033213232
223.03 84.08965665954773
226.274 84.10105235851103
229.565 84.09769880416049
232.905 84.09098433588372
236.292 84.06778501088546
239.729 83.97736365724164
243.216 83.84935590979981
246.754 83.77122655106805
250.343 83.74680905581724
253.984 83.76016818774842
257.678 83.79363440859514
261.426 83.82761732364284
265.229 83.90380006274222
269.087 84.01865186053264
273.001 84.09207905486011
276.972 84.11335301421627
281.0 84.13270668623412
285.088 84.12970701344574
289.234 84.09895857331912
293.441 84.01051307330286
297.709 83.85763057881815
302.04 83.71246114258872
306.433 83.61998930752432
310.89 83.58665344436305
315.412 83.59899632410844
320.0 83.58760287515841
324.655 83.56226147158715
329.377 83.52545020638289
334.168 83.48227302319111
339.028 83.47033958281699
343.959 83.47920311129826
348.962 83.48182684911421
354.038 83.5306211879342
359.188 83.55200340558808
364.412 83.58964427737098
369.713 83.63539472824586
375.09 83.60059438967366
380.546 83.4284837132004
386.081 83.22205398117441
391.697 83.11261132127888
397.394 83.02843654844767
403.175 82.96712832881708
409.039 82.94854473867206
414.989 82.99094461005909
421.025 83.04174065563053
427.149 83.1737255835357
433.362 83.29797903658599
439.665 83.31318033888914
446.06 83.36958809734409
452.548 83.43463709801998
459.131 83.50109073791279
465.809 83.564846183041
472.584 83.59617647382674
479.458 83.63156674532163
486.432 83.66091400472838
493.507 83.70725407652753
500.686 83.69300383050432
507.968 83.65886794731449
515.357 83.64982895076517
522.853 83.62645557068944
530.458 83.63143256348283
538.174 83.59333070463757
546.002 83.5612905673793
553.943 83.52061604610357
562.001 83.4482980493419
570.175 83.39005213263738
578.469 83.31829715075061
586.883 83.24805885638285
595.419 83.18537224343714
604.08 83.12033593568565
612.866 83.05909442499852
621.78 83.00079514863013
630.824 82.93624997252005
640.0 82.87875575394696
649.309 82.81987011953598
658.753 82.76557609634574
668.335 82.71614201875737
678.056 82.66987443915983
687.919 82.62849297406896
697.925 82.59021726864731
708.077 82.55667412481611
718.376 82.52821635442332
728.825 82.50462456814918
739.426 82.48674275846906
750.181 82.47384549875163
761.093 82.46708889061112
772.163 82.46588838388034
783.394 82.46960812698022
794.789 82.47935098172763
806.349 82.49215699217561
818.078 82.50908672951816
829.977 82.528246483642
842.05 82.54833129643289
854.298 82.56770774202293
866.724 82.58478178936477
879.33 82.5975811095779
892.12 82.60423048931813
905.097 82.60287166102385
918.262 82.59167548471893
931.618 82.56945390182523
945.169 82.53368083809562
958.917 82.48432433267823
972.864 82.41893355556155
987.015 82.32118945964564
1001.37 82.2096418862533
1015.94 82.0864996781435
1030.71 81.95764470529797
1045.71 81.86110964929101
1060.92 81.76135975416162
1076.35 81.66223107430812
1092.0 81.57261984565268
1107.89 81.52963743940987
1124.0 81.4949226868793
1140.35 81.4760061460577
1156.94 81.48144368804876
1173.77 81.4866138323761
1190.84 81.51227988607181
1208.16 81.55673718980154
1225.73 81.61745627100532
1243.56 81.69644596141212
1261.65 81.77996340726969
1280.0 81.86793971563203
1298.62 81.9459514477341
1317.51 81.98150205276303
1336.67 82.01001934199682
1356.11 82.02840829399321
1375.84 82.0305230180122
1395.85 82.01285872771135
1416.15 81.9837641319555
1436.75 81.94354363665495
1457.65 81.89597595204104
1478.85 81.85208551158115
1500.36 81.81397358951088
1522.19 81.7829353092232
1544.33 81.76560736473732
1566.79 81.76637860531872
1589.58 81.7803876871072
1612.7 81.80069915197153
1636.16 81.81896637582031
1659.95 81.82584859176912
1684.1 81.80781303620607
1708.6 81.75851631501212
1733.45 81.68284193049146
1758.66 81.58238740608974
1784.24 81.45310622198318
1810.19 81.31609918704108
1836.52 81.18497470061152
1863.24 81.06321384530224
1890.34 80.97309635146262
1917.83 80.90769309322305
1945.73 80.85847814663644
1974.03 80.80315556566374
2002.74 80.73560837706114
2031.87 80.65559431713928
2061.43 80.57410052820593
2091.41 80.50415541658099
2121.83 80.46549336729899
2152.69 80.47438019324039
2184.01 80.53231905184279
2215.77 80.62593162128681
2248.0 80.73143546742682
2280.7 80.82269812484631
2313.87 80.88447723607139
2347.53 80.91178861900865
2381.68 80.91068572849478
2416.32 80.90044688383131
2451.46 80.90252932816584
2487.12 80.9425894818705
2523.3 81.01789693950735
2560.0 81.10960727201106
2597.24 81.18957381019727
2635.01 81.23543884874591
2673.34 81.24119682495197
2712.23 81.22623975299831
2751.68 81.22102791483476
2791.7 81.25049071066613
2832.31 81.31949643822522
2873.5 81.40684420111045
2915.3 81.4780046074584
2957.7 81.50535799113568
3000.72 81.48974780880245
3044.37 81.45553239958855
3088.65 81.43481969851727
3133.58 81.43908696606248
3179.16 81.45546393992265
3225.4 81.45078620097249
3272.31 81.40657242492728
3319.91 81.33629595550673
3368.2 81.28374519619813
3417.19 81.2782587121152
3466.89 81.30997794938608
3517.32 81.32953117828882
3568.48 81.29024070323095
3620.39 81.18141482835433
3673.05 81.03911431936464
3726.47 80.92860141096985
3780.67 80.88869606790172
3835.67 80.89231504532131
3891.46 80.88279571357111
3948.06 80.84191964504228
4005.49 80.80743463773808
4063.75 80.8230440918014
4122.86 80.87131457447056
4182.82 80.88730376966893
4243.66 80.8230892965723
4305.39 80.70981153989182
4368.01 80.62357994334938
4431.55 80.59558512887973
4496.01 80.59048198713322
4561.4 80.55163475999548
4627.75 80.48005731717124
4695.06 80.4244534128398
4763.35 80.40573589205933
4832.64 80.38916667282209
4902.93 80.34934955847172
4974.24 80.30658144243885
5046.6 80.27897457260366
5120.0 80.23575357323304
5194.47 80.12713610464365
5270.03 79.96144147077857
5346.68 79.82043838301335
5424.45 79.79971891443357
5503.35 79.90171752264382
5583.4 80.05479776164648
5664.61 80.17450499185081
5747.01 80.21156188541462
5830.6 80.16670280024695
5915.41 80.10306141072847
6001.45 80.09808987223566
6088.74 80.17767133334647
6177.3 80.30892723988372
6267.15 80.40281447648466
6358.31 80.36493525777765
6450.8 80.22909010214859
6544.62 80.15130235563292
6639.82 80.19605123510226
6736.4 80.25062485400431
6834.38 80.254230372513
6933.79 80.2705850993616
7034.64 80.29883116674613
7136.96 80.31796713782875
7240.77 80.40082393012236
7346.09 80.5006170492739
7452.94 80.50054035381501
7561.35 80.5439840637927
7671.33 80.70570520961653
7782.91 80.73733753657999
7896.12 80.59953827108924
8010.97 80.38356419272563
8127.49 80.1185674919553
8245.71 80.14508008746695
8365.65 80.4074546093109
8487.33 80.4467850999054
8610.78 80.33596714121059
8736.03 80.19142965778572
8863.09 80.12591249639392
8992.01 80.23580083159807
9122.8 80.27796518107623
9255.5 80.23881182320436
9390.12 80.19081760680842
9526.7 80.0379198767839
9665.27 79.85819466782439
9805.86 79.91188789356313
9948.49 80.0805381335783
10093.2 80.18212033276393
10240.0 79.97972283395703
10388.9 80.07046996049829
10540.1 80.25491099012307
10693.4 80.05411444195201
10848.9 79.75213352780102
11006.7 79.66806425810633
11166.8 79.84064634033467
11329.2 79.65223878448364
11494.0 79.72757993536717
11661.2 79.86994663292023
11830.8 79.96274844626514
12002.9 79.82641771059667
12177.5 79.87762695573505
12354.6 79.82048264150544
12534.3 79.82226120708917
12716.6 79.84627338691622
12901.6 79.72998205683396
13089.2 79.69680540611846
13279.6 79.90314303004243
13472.8 79.78898841121855
13668.8 79.63537434921813
13867.6 79.77948322791617
14069.3 79.73924658737617
14273.9 79.67274173972909
14481.5 79.69197815655122
14692.2 79.77268204250757
14905.9 79.72348066889543
15122.7 79.60407468007774
15342.7 79.7716748168387
15565.8 79.68513066590893
15792.2 79.5264798561434
16021.9 79.75336680057929
16255.0 79.69414169982045
16491.4 79.56892827122601
16731.3 79.6419460217271
16974.7 79.61738311568794
17221.6 79.5036468100121
17472.1 79.51289508800151
17726.2 79.53529419108614
17984.0 79.44615477487007
18245.6 79.41565101752713
18511.0 79.46271601027264
18780.2 79.42667613190716
19053.4 79.37446788437404
19330.5 79.4716143938477
19611.7 79.2814625758629
19897.0 79.41507253997919
