Freq,Floor Bounce,Ceiling Bounce,Front Wall Bounce,Side Wall Bounce,Rear Wall Bounce,Total Early Reflection
22.4,37.10690501035458,38.0007674944556,37.77166275391892,37.29494317379661,36.73231241496657,37.40524071204982
23.0,38.30690501035457,39.16692185116048,38.971662753918906,38.48432509185335,37.90060875052373,38.59000153808168
23.6,39.506905010354586,40.3669218511605,40.15742449135814,39.674618599447285,39.10060875052372,39.785002005348076
24.0,40.67150800786939,41.56692185116049,41.31508314243882,40.83461266071174,40.27427239741644,40.95686582535981
25.0,41.8069050103546,42.70076749445559,42.471662753918906,41.99470176525642,41.41100090042582,42.10155052456025
25.8,43.006905010354586,43.8669218511605,43.62913392494289,43.144636798431094,42.59540333548057,43.27212373466966
26.5,44.17150800786936,45.06692185116049,44.80065786069426,44.34463679843108,43.784852134632985,44.45749969442028
27.2,45.3069050103546,46.20076749445562,45.971662753918906,45.50529453839417,44.942871876836335,45.60907073873608
28.0,46.506905010354586,47.3669218511605,47.12913392494286,46.66466350479163,46.10060875052375,46.7769109524931
29.0,47.60690501035461,48.50076749445563,48.27166275391892,47.81471363173003,47.24287187683635,47.91091168225961
30.0,48.7069050103546,49.56692185116049,49.37166275391891,48.884325091853356,48.300608750523736,48.990001538081685
30.7,49.7069050103546,50.600767494455624,50.37166275391891,49.90529453839417,49.337473804735,50.00814513479679
31.5,50.706905010354575,51.56692185116049,51.31508314243882,50.855352239003025,50.29540333548056,50.971161294838424
32.5,51.506905010354586,52.400767494455636,52.171662753918895,51.72433102272399,51.15328322359909,51.8145810881183
33.5,52.3069050103546,53.20076749445562,52.971662753918906,52.4949431737966,51.93231241496659,52.605240712049834
34.5,53.006905010354586,53.90076749445561,53.67166275391891,53.19470176525641,52.61100090042581,53.30155052456027
35.5,53.70690501035459,54.5669218511605,54.32913392494288,53.86466350479162,53.29540333548057,53.97602044122678
36.5,54.30690501035458,55.16692185116051,54.971662753918906,54.48432509185335,53.90060875052373,54.59000153808171
37.5,54.906905010354606,55.76692185116049,55.5716627539189,55.084325091853344,54.50060875052374,55.1900015380817
38.7,55.506905010354586,56.3669218511605,56.12913392494288,55.66466350479163,55.09540333548057,55.77602044122676
40.0,56.07150800786937,56.96692185116051,56.71508314243883,56.23461266071175,55.67427239741643,56.35686582535979
41.2,56.63821129888743,57.53435140868501,57.30065786069426,56.83461266071173,56.25841976530093,56.93730901227468
42.5,57.238211298887435,58.13435140868502,57.90065786069425,57.434612660711736,56.85841976530091,57.537309012274676
43.7,57.871508007869366,58.766921851160504,58.51508314243884,58.03461266071173,57.47427239741644,58.15686582535979
45.0,58.5069050103546,59.3669218511605,59.12913392494289,58.66466350479162,58.09540333548058,58.77602044122678
46.2,59.10690501035458,60.0007674944556,59.7716627539189,59.32433102272401,58.748140599548336,59.413698268409405
47.5,59.80690501035458,60.70076749445562,60.457424491358154,59.97461859944727,59.40580793387123,60.09365209621839
48.7,60.506905010354586,61.3669218511605,61.17166275391891,60.68432509185334,60.10060875052372,60.7900015380817
50.0,61.238211298887435,62.100767494455624,61.8861845050195,61.414713631730024,60.84802073984211,61.52080412115099
51.5,62.006905010354586,62.8669218511605,62.62913392494288,62.16532867573781,61.60060875052372,62.2770406003371
53.0,62.77150800786937,63.66692185116051,63.40065786069427,62.94463679843108,62.38485213463298,63.05749969442029
54.5,63.5069050103546,64.40076749445562,64.17166275391892,63.705294538394156,63.13747380473498,63.808145134796774
56.0,64.30690501035458,65.16692185116051,64.92913392494289,64.46466350479162,63.89540333548058,64.57602044122676
58.0,65.03821129888743,65.90076749445562,65.68618450501948,65.21471363173002,64.64802073984212,65.32080412115099
60.0,65.70690501035459,66.60076749445561,66.37166275391891,65.924331022724,65.34814059954834,66.0136982684094
61.5,66.40690501035459,67.2669218511605,67.04313939533782,66.57461859944728,66.00060875052374,66.68189317672858
63.0,67.00690501035459,67.8669218511605,67.62913392494288,67.16532867573781,66.60060875052372,67.2770406003371
65.0,67.50690501035459,68.40076749445562,68.1716627539189,67.70529453839417,67.13747380473498,67.80814513479675
67.0,68.00690501035459,68.8669218511605,68.64313939533781,68.17461859944729,67.60060875052372,68.28189317672856
69.0,68.43821129888742,69.30076749445563,69.0861845050195,68.61471363173001,68.04802073984212,68.72080412115099
71.0,68.87150800786937,69.73435140868503,69.51508314243884,69.03461266071173,68.46366967090756,69.14757751298228
73.0,69.3069050103546,70.16692185116051,69.92913392494289,69.45535223900303,68.89540333548058,69.57420689671386
75.0,69.70690501035459,70.5669218511605,70.37166275391891,69.8949431737966,69.32702444325282,69.99659304831482
77.5,70.2069050103546,71.0669218511605,70.85742449135816,70.37461859944727,69.80060875052374,70.48500200534806
80.0,70.70690501035459,71.60076749445561,71.37166275391891,70.90529453839417,70.337473804735,71.00814513479676
82.5,71.3069050103546,72.20076749445562,71.9716627539189,71.49494317379659,70.93747380473499,71.6061252524832
85.0,71.97150800786939,72.8669218511605,72.62913392494288,72.15535223900304,71.60060875052372,72.26846431876515
87.5,72.60690501035458,73.5669218511605,73.2861845050195,72.81471363173002,72.27463818903533,72.93474641168643
90.0,73.30690501035458,74.23358982687998,73.9716627539189,73.49378972461022,72.9269039993406,73.61164305406632
92.5,73.90690501035459,74.86692185116051,74.5716627539189,74.13437889258371,73.57475731639072,74.2354574444555
95.0,74.50690501035459,75.46692185116049,75.17166275391891,74.71471363173004,74.16415577512747,74.82980101960112
97.5,75.0069050103546,75.9669218511605,75.6716627539189,75.21471363173002,74.64287187683634,75.32615654358207
100.0,75.43821129888744,76.30076749445561,76.0861845050195,75.61471363173003,75.04802073984212,75.72080412115099
103.0,75.70690501035459,76.56692185116049,76.37166275391891,75.88526041028545,75.31642914462759,75.99288774182948
106.0,75.93821129888742,76.7007674944556,76.52913392494287,76.04535283202588,75.46366967090756,76.15768133778792
109.0,76.07150800786937,76.73435140868501,76.61508314243885,76.11562128927491,75.55304099587863,76.23841566857391
112.0,76.13821129888743,76.73435140868501,76.67166275391892,76.13528244988788,75.55853933835466,76.26844132320673
115.0,76.13821129888743,76.66845083805433,76.62913392494289,76.09607007138567,75.52726532105684,76.23157162921191
118.0,76.13821129888743,76.56845083805433,76.61508314243885,76.04739974319708,75.46439453752087,76.18640198418632
122.0,76.07150800786937,76.50076749445562,76.55774911351313,75.96760887964113,75.40181214362369,76.1197221954935
125.0,76.07150800786937,76.46845083805432,76.52946066855591,75.9380513503263,75.34432305027113,76.09098936234989
128.0,76.07150800786937,76.46845083805432,76.54346508697898,75.91971698124384,75.32920626889822,76.08801788628838
132.0,76.13821129888743,76.46845083805432,76.61508314243885,75.94125004927142,75.36095832928102,76.12678133188103
136.0,76.17150800786939,76.56845083805433,76.71508314243883,75.98083115755486,75.39310400297742,76.19057039035167
140.0,76.27150800786939,76.66845083805433,76.8013081360778,76.07197247096035,75.46219554223975,76.28064238774576
145.0,76.40690501035459,76.80306957104251,76.91508314243885,76.16288869411572,75.53608854242933,76.39239011554356
150.0,76.50690501035459,76.96845083805432,77.08748929892042,76.26455372084105,75.60524065759947,76.5185317297598
155.0,76.6760917544922,77.06845083805433,77.22979499755904,76.39626689072992,75.68475761029008,76.64474832392845
160.0,76.80690501035458,77.20306957104252,77.38748929892041,76.49805014496485,75.74406326826168,76.76572426440097
165.0,76.9760917544922,77.33663575667185,77.58748929892042,76.61151011619887,75.793406740092,76.90500060587883
170.0,77.14283030471975,77.43663575667186,77.71606664920142,76.69430138978005,75.81039043564402,77.00943897148429
175.0,77.27609175449221,77.53663575667186,77.88748929892041,76.78922020606709,75.8176701763497,77.11839770236756
180.0,77.47609175449222,77.57150800786937,78.0307751786751,76.86342735677079,75.78262579135053,77.21104398148229
185.0,77.57609175449221,77.57150800786937,78.14510093472825,76.91747965070226,75.71118622819907,77.26009519854539
190.0,77.6760917544922,77.5404416794549,78.24510093472827,76.9323602114358,75.5979586287041,77.28703188451307
195.0,77.77609175449223,77.4069050103546,78.25971162456,76.92155141529108,75.44536195387636,77.26254332149128
200.0,77.87609175449221,77.27609175449221,78.27461192973442,76.8945419668682,75.2541130312451,77.23272093838462
206.0,77.87609175449221,77.0457671943847,78.25971162456,76.8183025544567,74.97676182694649,77.13446613580574
212.0,77.87609175449221,76.78219967332305,78.20359507493895,76.69752492277776,74.70538130185935,77.01408805291425
218.0,77.87609175449221,76.48982856673473,78.10359507493895,76.56344330791629,74.38684546627601,76.87151433153166
224.0,77.84044167945491,76.12758719283593,78.00359507493896,76.44439278445637,74.0550836079207,76.71181836477655
230.0,77.74044167945492,75.79897445130925,77.88879404668057,76.27958714386072,73.70525852390747,76.52970090652684
236.0,77.7069050103546,75.50963256681621,77.77525122642456,76.13630561655201,73.33745295097881,76.37682918108806
240.0,77.64044167945491,75.20963256681621,77.67525122642458,76.00324043743808,72.99487839477281,76.22397002278865
250.0,77.5404416794549,74.94898359150842,77.61834583164506,75.88906773169705,72.69691692777522,76.08987175365571
258.0,77.5404416794549,74.76194867563765,77.57525122642457,75.78204584418486,72.42902425831943,76.00471784861404
265.0,77.47609175449222,74.63546263134683,77.51834583164506,75.73126350338632,72.16107390735044,75.91830292035947
272.0,77.47609175449222,74.5026545034034,77.5048949937362,75.68302894545891,71.94447424760398,75.86767804520393
280.0,77.40986628672329,74.47641629732152,77.5048949937362,75.6577193191261,71.73903806366056,75.82349831686085
290.0,77.34576719438469,74.37641629732153,77.5048949937362,75.6477253670181,71.5886988681017,75.77695393724314
300.0,77.34576719438469,74.27641629732153,77.4610247430264,75.6345155323628,71.44438785343641,75.7360621947163
307.0,77.24576719438468,74.21792789764851,77.41834583164507,75.60159192496363,71.32464952222867,75.67079226519434
315.0,77.1457671943847,74.1179278976485,77.34770564348939,75.57892007876862,71.22539409839236,75.59494782299312
325.0,77.01592692226707,73.97641629732153,77.23271257836937,75.5463298627195,71.13678833994672,75.49045443666236
335.0,76.88219967332304,73.87641629732153,77.06133449841815,75.49616594822504,71.07347111273614,75.37258134156872
345.0,76.71592692226706,73.63546263134683,76.90454428904086,75.39849660196428,71.01170042204694,75.22068269343568
355.0,76.48219967332305,73.46194867563767,76.63332902223297,75.26743493164719,70.89564237696872,75.01497884895842
365.0,76.21592692226704,73.22179738688894,76.36325933618238,75.08997870819145,70.75275635066221,74.77987216597309
375.0,75.91592692226708,72.94898359150841,76.04831996303517,74.83443753363052,70.53410776456548,74.4954559253735
387.0,75.55260953202217,72.73752777300028,75.70677105329769,74.50071093408013,70.2775735562751,74.17492221568
400.0,75.1234968506598,72.46588846059686,75.33556388387746,74.08985965453596,69.89008123028864,73.79253664968469
412.0,74.62349685065979,72.19471929119204,74.90812322241334,73.5597320070626,69.39884389472388,73.34203767575578
425.0,74.16096514237184,71.9566725593005,74.52187666371496,72.99900643075588,68.85719864403669,72.91011188157627
437.0,73.73257218046557,71.71916705502754,74.12285863338771,72.4015519105612,68.23287129474122,72.47267166888318
450.0,73.34314826109436,71.54898514879551,73.79684417735001,71.84857835182494,67.63574077138573,72.09286609660117
462.0,73.04314826109434,71.44283030471972,73.56910435091777,71.37833613621088,67.0559572991822,71.79843529283079
475.0,72.98219812790056,71.4760917544922,73.456113113523,71.04353145363847,66.56331508778351,71.66308503135562
487.0,73.11592538879982,71.61227178315617,73.48693201565365,70.86484606144695,66.16052559966805,71.68156250323808
500.0,73.48219812790055,71.87609175449221,73.71688698638106,70.90764778966408,65.93382793742151,71.90206338501059
515.0,74.11592538879982,72.28219967332303,74.16189813238987,71.18645134169739,65.87298697445699,72.3447740552748
530.0,74.97717895989803,72.81916705502753,74.74762776797354,71.65726107303585,65.95384167815718,72.96747115584837
545.0,75.96668552790022,73.42758719283594,75.4322845762818,72.27891699354976,66.17873018088952,73.71084321992507
560.0,76.92926676879424,74.09897445130926,76.14660536245859,72.9128850130986,66.44016843725251,74.4761255448575
580.0,77.85768127821953,74.78219812790054,76.81549792485819,73.57189969453387,66.71918161044528,75.22784944700274
600.0,78.68493492460848,75.39506458035831,77.38693201565366,74.13174687074307,66.99475309568288,75.8927019505857
615.0,79.17896989520116,76.0094224842602,77.84367019549539,74.55011990360485,67.19561792437916,76.38070598687221
630.0,79.40906430015983,76.50034112939827,78.04367019549541,74.77048591584347,67.27917807031432,76.64685593560594
650.0,79.2053180676647,76.81832544184972,78.02966643952459,74.71530839275233,67.24118974678353,76.6235411207274
670.0,78.7053180676647,77.0377673428554,77.75932909922398,74.45225449032274,67.08950025116125,76.38418444210907
690.0,77.93663575667186,77.0377673428554,77.33318639800505,74.02004771574198,66.85259710055821,75.95348793788943
710.0,77.00228461396019,76.9586572401787,76.82038572538129,73.50757596049026,66.57355587208458,75.43687223565585
730.0,76.03435140868501,76.7361070797735,76.27785412024795,72.9188884359922,66.2663567175341,74.8727460345898
750.0,75.10076749445561,76.38098490550679,75.7533403545323,72.34053038134954,65.9373711996687,74.29766361062713
775.0,74.26692185116049,75.88098490550679,75.28105405270281,71.86508767814755,65.62498233704417,73.73641871430611
800.0,73.63358982687998,75.1809849055068,75.00077486363645,71.48068791661204,65.2990747424328,73.22772504908643
825.0,73.33358982687999,74.37100612011481,74.90077486363646,71.30146841887485,64.95908029709034,72.85286861789037
850.0,73.26692185116049,73.49389595883675,74.93063483385276,71.27629541859855,64.64779654628538,72.60200364605284
875.0,73.33435140868504,72.51719474435359,75.11658891427828,71.35701891218518,64.34079944759044,72.46846992919316
900.0,73.6022846139602,71.61719474435358,75.40459800630047,71.53002453216094,64.06226936606464,72.5000216900336
925.0,73.9022846139602,70.66503937590753,75.77694707771288,71.75041570192371,63.80185203571111,72.61957619274463
950.0,74.13663575667186,69.81458026313015,76.1252186901643,71.96746339995784,63.589701773747535,72.76439289008817
975.0,74.37150800786938,69.11458026313015,76.52521869016431,72.1980636984147,63.387387747073774,72.97612628453686
1000.0,74.50690501035459,68.61458026313014,76.85560086420264,72.36317526972456,63.21713824669986,73.15155339279687
1030.0,74.4162794008364,68.27106876148261,77.1442528794574,72.46572096398822,63.059763674590286,73.25675534513461
1060.0,74.16023818113064,68.07106876148262,77.32146150843792,72.4740472647918,62.8964692614675,73.26626511006255
1090.0,73.81912930458361,68.10263350538771,77.44995181223499,72.4333664613537,62.70163848859757,73.24361966368383
1120.0,73.38691806020397,68.23469773360898,77.5137083636732,72.34627851439473,62.529783546028796,73.17388597384881
1150.0,72.91123284744552,68.50982855556755,77.53021714508259,72.20923102943222,62.34600972286927,73.08003686403899
1180.0,72.37644070192741,68.77584607527146,77.47702569753505,72.0384102510362,62.104211530085976,72.93929059865927
1220.0,71.84712970069143,69.17584607527147,77.37702569753506,71.83623917639159,61.88355307129224,72.7894470286016
1250.0,71.38836336106192,69.54391589069238,77.24087617714227,71.59340819138295,61.61846106576505,72.63072892044913
1280.0,71.06717854541961,69.90265313251615,77.04037598944493,71.35073291760781,61.347354330741084,72.46314287562114
1320.0,70.78197279351602,70.19742198666302,76.8295012821311,71.08965121244425,61.04266642988148,72.29171489772015
1360.0,70.66341430931712,70.497421986663,76.58815757822029,70.8196735703363,60.729766912918194,72.1329723225074
1400.0,70.51339185077106,70.7334254866836,76.32974912379521,70.55359686937157,60.424283147926246,71.95943283382736
1450.0,70.50964836786132,70.90967169524963,76.06238046347687,70.30347286808043,60.07889528734728,71.80148953347299
1500.0,70.40217694444593,70.98633240679167,75.82096886727874,69.98668154504303,59.75093710776656,71.62185324186798
1550.0,70.26270468593695,71.02324058002984,75.56674144853578,69.7529873982307,59.427747879262,71.43856607153566
1600.0,70.12046289304054,70.90191445428934,75.32591542548661,69.4606288603634,59.10470788562458,71.22690082738391
1650.0,69.91240506158306,70.7563856682801,75.16566529270008,69.22279036775502,58.78824290668051,71.0498612721801
1700.0,69.7482232473412,70.52619034370159,74.99979462490046,68.96930499236556,58.49079337721706,70.85931496332967
1750.0,69.63094151933295,70.26127711209435,74.86287304485347,68.71276903392034,58.209966939591766,70.68500772253367
1800.0,69.7066735385269,69.91568621032727,74.76287304485348,68.48494037452605,57.977849921551666,70.5522365979038
1850.0,69.98395269084585,69.51163742381371,74.63875910386577,68.31428080891078,57.74929988340148,70.44359898749096
1900.0,70.28760046288923,69.1200526472089,74.50384960421601,68.1359233133057,57.56537185083141,70.34551689062812
1950.0,70.74066805894,68.68936069103891,74.40246824085753,68.03371717129906,57.40486064856701,70.31176721015977
2000.0,71.11832676913882,68.19398241754959,74.2521874890129,67.92605620590854,57.29606261928174,70.24444741168367
2060.0,71.4326899561031,67.660215210313,74.10995196098706,67.88037044145585,57.2028707857405,70.18443365045145
2120.0,71.59409347255907,67.1525506625945,73.95030265974238,67.89315464971321,57.14582703157903,70.09734694240366
2180.0,71.65099006382059,66.64041068732143,73.75664856349036,67.9178657667295,57.08831679345661,69.9731329423316
2240.0,71.62875610128314,66.17291047960765,73.59368091761945,67.98223245507091,57.08257949947864,69.85544882307647
2300.0,71.5593392998131,65.81169273533239,73.48635407692052,68.0225300141178,57.058550398307574,69.75883827565346
2360.0,71.41192126753356,65.46425579739024,73.36375268001348,68.096088355129,57.06028930208764,69.63934517397357
2400.0,71.26996121118249,65.22215031039019,73.2779156258684,68.1384874958208,57.041347401391306,69.54397532766447
2500.0,71.15986172658737,65.13031449963486,73.26158750744284,68.14392502320517,57.013777752960834,69.49743229681079
2580.0,71.0134796001795,65.10330511748404,73.29965872110594,68.16144003616475,56.96901188046638,69.47344372621718
2650.0,70.86053543727171,65.15405093453074,73.38170476982307,68.160407403784,56.896752249163086,69.47334665375956
2720.0,70.6551922001827,65.24413052381577,73.53945039341075,68.1443357468529,56.83625884693153,69.50076961817834
2800.0,70.52285985267756,65.41627940083643,73.71022339281369,68.1833173946291,56.78122529900962,69.57276733803445
2900.0,70.3586096117203,65.57314211136084,73.9618960716221,68.21669974928537,56.76006256847113,69.68251766939224
3000.0,70.24302103107541,65.70076749445562,74.22052824272046,68.32624111510133,56.7666084599047,69.82231492655592
3070.0,70.18051352069253,65.80306957104251,74.48618321792003,68.47028593763974,56.83055000979418,69.9857744915883
3150.0,70.25118017459572,65.80231994589775,74.82056310672488,68.6820253239801,56.93951694681924,70.22171986737912
3250.0,70.3908297035973,65.76769521305295,75.15546430825812,68.99123078829805,57.11054200028934,70.48690510870462
3350.0,70.53167423934988,65.66769521305294,75.49012460773444,69.34325642770969,57.326243474802084,70.75749456556149
