Freq,Floor Bounce,Ceiling Bounce,Front Wall Bounce,Side Wall Bounce,Rear Wall Bounce,Total Early Reflection
22.4,37.75627209896217,38.65013458306319,38.42102984252651,37.9443102624042,37.38167950357416,38.05460780065741
23.0,38.95627209896216,39.81628893976807,39.6210298425265,39.13369218046094,38.54997583913132,39.23936862668927
23.6,40.15627209896218,41.01628893976809,40.80679157996573,40.323985688054876,39.74997583913131,40.43436909395567
24.0,41.32087509647698,42.21628893976808,41.96445023104641,41.48397974931933,40.92363948602403,41.6062329139674
25.0,42.45627209896219,43.35013458306318,43.1210298425265,42.64406885386401,42.06036798903341,42.75091761316784
25.8,43.65627209896218,44.51628893976809,44.27850101355048,43.794003887038684,43.24477042408816,43.92149082327725
26.5,44.820875096476954,45.71628893976808,45.45002494930185,44.99400388703867,44.434219223240575,45.10686678302787
27.2,45.95627209896219,46.85013458306321,46.6210298425265,46.15466162700176,45.592238965443926,46.25843782734367
28.0,47.15627209896218,48.01628893976809,47.77850101355045,47.314030593399224,46.74997583913134,47.42627804110069
29.0,48.2562720989622,49.15013458306322,48.92102984252651,48.46408072033762,47.89223896544394,48.5602787708672
30.0,49.356272098962194,50.21628893976808,50.0210298425265,49.533692180460946,48.949975839131326,49.639368626689276
30.7,50.356272098962194,51.250134583063215,51.0210298425265,50.554661627001764,49.98684089334259,50.65751222340438
31.5,51.356272098962165,52.21628893976808,51.96445023104641,51.504719327610616,50.94477042408815,51.620528383446015
32.5,52.15627209896218,53.050134583063226,52.821029842526485,52.37369811133158,51.80265031220668,52.46394817672589
33.5,52.95627209896219,53.85013458306321,53.6210298425265,53.14431026240419,52.58167950357418,53.254607800657425
34.5,53.65627209896218,54.5501345830632,54.3210298425265,53.844068853864,53.2603679890334,53.95091761316786
35.5,54.35627209896218,55.21628893976809,54.97850101355047,54.51403059339921,53.94477042408816,54.62538752983437
36.5,54.956272098962174,55.8162889397681,55.6210298425265,55.13369218046094,54.54997583913132,55.2393686266893
37.5,55.5562720989622,56.41628893976808,56.22102984252649,55.733692180460935,55.14997583913133,55.83936862668929
38.7,56.15627209896218,57.01628893976809,56.77850101355047,56.314030593399224,55.74477042408816,56.42538752983435
40.0,56.72087509647696,57.6162889397681,57.36445023104642,56.88397974931934,56.32363948602402,57.00623291396738
41.2,57.28757838749502,58.1837184972926,57.95002494930185,57.48397974931932,56.90778685390852,57.58667610088227
42.5,57.887578387495026,58.78371849729261,58.55002494930184,58.083979749319326,57.5077868539085,58.186676100882266
43.7,58.520875096476956,59.416288939768094,59.16445023104643,58.68397974931932,58.12363948602403,58.80623291396738
45.0,59.15627209896219,60.01628893976809,59.77850101355048,59.31403059339921,58.74477042408817,59.42538752983437
46.2,59.75627209896217,60.65013458306319,60.421029842526494,59.9736981113316,59.397507688155926,60.063065357016995
47.5,60.456272098962174,61.35013458306321,61.106791579965744,60.62398568805486,60.05517502247882,60.74301918482598
48.7,61.15627209896218,62.01628893976809,61.8210298425265,61.33369218046093,60.74997583913131,61.43936862668929
50.0,61.887578387495026,62.750134583063215,62.53555159362709,62.064080720337614,61.4973878284497,62.17017120975858
51.5,62.65627209896218,63.51628893976809,63.27850101355047,62.8146957643454,62.24997583913131,62.92640768894469
53.0,63.42087509647696,64.3162889397681,64.05002494930186,63.59400388703867,63.03421922324057,63.70686678302788
54.5,64.15627209896219,65.05013458306321,64.82102984252651,64.35466162700175,63.78684089334257,64.45751222340436
56.0,64.95627209896217,65.8162889397681,65.57850101355048,65.1140305933992,64.54477042408817,65.22538752983435
58.0,65.68757838749502,66.55013458306321,66.33555159362707,65.86408072033761,65.29738782844971,65.97017120975858
60.0,66.35627209896218,67.2501345830632,67.0210298425265,66.5736981113316,65.99750768815593,66.66306535701699
61.5,67.05627209896218,67.9162889397681,67.69250648394541,67.22398568805487,66.64997583913133,67.33126026533617
63.0,67.65627209896218,68.51628893976809,68.27850101355047,67.8146957643454,67.24997583913131,67.92640768894469
65.0,68.15627209896218,69.05013458306321,68.82102984252649,68.35466162700176,67.78684089334257,68.45751222340434
67.0,68.65627209896218,69.51628893976809,69.2925064839454,68.82398568805488,68.24997583913131,68.93126026533615
69.0,69.08757838749501,69.95013458306322,69.7355515936271,69.2640807203376,68.6973878284497,69.37017120975858
71.0,69.52087509647696,70.38371849729262,70.16445023104643,69.68397974931932,69.11303675951515,69.79694460158987
73.0,69.95627209896219,70.8162889397681,70.57850101355048,70.10471932761062,69.54477042408817,70.22357398532145
75.0,70.35627209896218,71.21628893976809,71.0210298425265,70.5443102624042,69.97639153186041,70.64596013692241
77.5,70.8562720989622,71.71628893976809,71.50679157996575,71.02398568805486,70.44997583913133,71.13436909395566
80.0,71.35627209896218,72.2501345830632,72.0210298425265,71.55466162700176,70.98684089334259,71.65751222340435
82.5,71.95627209896219,72.85013458306321,72.6210298425265,72.14431026240418,71.58684089334258,72.25549234109079
85.0,72.62087509647698,73.51628893976809,73.27850101355047,72.80471932761063,72.24997583913131,72.91783140737274
87.5,73.25627209896217,74.21628893976809,73.9355515936271,73.4640807203376,72.92400527764292,73.58411350029402
90.0,73.95627209896217,74.88295691548757,74.6210298425265,74.14315681321781,73.57627108794819,74.26101014267391
92.5,74.55627209896218,75.5162889397681,75.22102984252649,74.7837459811913,74.2241244049983,74.8848245330631
95.0,75.15627209896218,76.11628893976808,75.8210298425265,75.36408072033763,74.81352286373506,75.47916810820871
97.5,75.65627209896219,76.6162889397681,76.32102984252649,75.86408072033761,75.29223896544393,75.97552363218966
100.0,76.08757838749503,76.9501345830632,76.7355515936271,76.26408072033762,75.6973878284497,76.37017120975858
103.0,76.35627209896218,77.21628893976808,77.0210298425265,76.53462749889304,75.96579623323518,76.64225483043707
106.0,76.58757838749501,77.3501345830632,77.17850101355046,76.69471992063347,76.11303675951515,76.80704842639551
109.0,76.72087509647696,77.3837184972926,77.26445023104644,76.7649883778825,76.20240808448622,76.8877827571815
112.0,76.78757838749502,77.3837184972926,77.32102984252651,76.78464953849547,76.20790642696225,76.91780841181432
115.0,76.78757838749502,77.31781792666192,77.27850101355048,76.74543715999326,76.17663240966444,76.8809387178195
118.0,76.78757838749502,77.21781792666192,77.26445023104644,76.69676683180467,76.11376162612846,76.83576907279391
122.0,76.72087509647696,77.1501345830632,77.20711620212072,76.61697596824872,76.05117923223128,76.76908928410109
125.0,76.72087509647696,77.11781792666191,77.1788277571635,76.5874184389339,75.99369013887872,76.74035645095748
128.0,76.72087509647696,77.11781792666191,77.19283217558657,76.56908406985143,75.97857335750581,76.73738497489597
132.0,76.78757838749502,77.11781792666191,77.26445023104644,76.59061713787901,76.01032541788861,76.77614842048862
136.0,76.82087509647698,77.21781792666192,77.36445023104642,76.63019824616245,76.04247109158501,76.83993747895926
140.0,76.92087509647698,77.31781792666192,77.45067522468538,76.72133955956794,76.11156263084735,76.93000947635335
145.0,77.05627209896218,77.4524366596501,77.56445023104644,76.81225578272331,76.18545563103692,77.04175720415115
150.0,77.15627209896218,77.61781792666191,77.73685638752801,76.91392080944864,76.25460774620706,77.16789881836739
155.0,77.3254588430998,77.71781792666192,77.87916208616663,77.04563397933751,76.33412469889767,77.29411541253604
160.0,77.45627209896217,77.85243665965011,78.036856387528,77.14741723357244,76.39343035686927,77.41509135300856
165.0,77.62545884309979,77.98600284527944,78.23685638752801,77.26087720480646,76.44277382869959,77.55436769448642
170.0,77.79219739332734,78.08600284527945,78.36543373780901,77.34366847838764,76.45975752425161,77.65880606009188
175.0,77.9254588430998,78.18600284527945,78.536856387528,77.43858729467468,76.46703726495728,77.76776479097515
180.0,78.1254588430998,78.22087509647696,78.68014226728269,77.51279444537838,76.43199287995812,77.86041107008988
185.0,78.2254588430998,78.22087509647696,78.79446802333584,77.56684673930985,76.36055331680666,77.90946228715298
190.0,78.3254588430998,78.18980876806249,78.89446802333586,77.5817273000434,76.2473257173117,77.93639897312066
195.0,78.42545884309982,78.0562720989622,78.90907871316759,77.57091850389867,76.09472904248395,77.91191041009887
200.0,78.5254588430998,77.9254588430998,78.92397901834201,77.5439090554758,75.90348011985269,77.88208802699221
206.0,78.5254588430998,77.69513428299229,78.90907871316759,77.46766964306428,75.62612891555408,77.78383322441333
212.0,78.5254588430998,77.43156676193064,78.85296216354654,77.34689201138535,75.35474839046694,77.66345514152184
218.0,78.5254588430998,77.13919565534232,78.75296216354654,77.21281039652388,75.0362125548836,77.52088142013925
224.0,78.4898087680625,76.77695428144352,78.65296216354655,77.09375987306396,74.70445069652828,77.36118545338414
230.0,78.38980876806251,76.44834153991684,78.53816113528816,76.92895423246831,74.35462561251506,77.17906799513443
236.0,78.3562720989622,76.1589996554238,78.42461831503215,76.7856727051596,73.9868200395864,77.02619626969565
240.0,78.2898087680625,75.8589996554238,78.32461831503217,76.65260752604567,73.6442454833804,76.87333711139624
250.0,78.18980876806249,75.59835068011601,78.26771292025265,76.53843482030464,73.34628401638281,76.7392388422633
258.0,78.18980876806249,75.41131576424524,78.22461831503216,76.43141293279245,73.07839134692702,76.65408493722163
265.0,78.1254588430998,75.28482971995442,78.16771292025265,76.3806305919939,72.81044099595803,76.56767000896706
272.0,78.1254588430998,75.152021592011,78.15426208234379,76.3323960340665,72.59384133621157,76.51704513381152
280.0,78.05923337533088,75.12578338592911,78.15426208234379,76.30708640773369,72.38840515226815,76.47286540546844
290.0,77.99513428299228,75.02578338592912,78.15426208234379,76.29709245562569,72.23806595670929,76.42632102585073
300.0,77.99513428299228,74.92578338592912,78.11039183163399,76.28388262097039,72.093754942044,76.38542928332389
307.0,77.89513428299227,74.8672949862561,78.06771292025266,76.25095901357122,71.97401661083626,76.32015935380193
315.0,77.7951342829923,74.76729498625609,77.99707273209698,76.22828716737621,71.87476118699995,76.24431491160071
325.0,77.66529401087466,74.62578338592913,77.88207966697696,76.1956969513271,71.78615542855431,76.13982152526995
335.0,77.53156676193063,74.52578338592912,77.71070158702574,76.14553303683263,71.72283820134373,76.02194843017631
345.0,77.36529401087465,74.28482971995442,77.55391137764845,76.04786369057187,71.66106751065453,75.87004978204327
355.0,77.13156676193064,74.11131576424526,77.28269611084056,75.91680202025478,71.54500946557631,75.66434593756601
365.0,76.86529401087463,73.87116447549653,77.01262642478997,75.73934579679904,71.4021234392698,75.42923925458068
375.0,76.56529401087467,73.598350680116,76.69768705164276,75.48380462223811,71.18347485317307,75.1448230139811
387.0,76.20197662062976,73.38689486160787,76.35613814190528,75.15007802268772,70.92694064488269,74.82428930428759
400.0,75.7728639392674,73.11525554920445,75.98493097248505,74.73922674314355,70.53944831889623,74.44190373829228
412.0,75.27286393926738,72.84408637979963,75.55749031102093,74.2090990956702,70.04821098333147,73.99140476436337
425.0,74.81033223097943,72.60603964790809,75.17124375232255,73.64837351936347,69.50656573264428,73.55947897018386
437.0,74.38193926907316,72.36853414363513,74.7722257219953,73.05091899916879,68.8822383833488,73.12203875749077
450.0,73.99251534970195,72.1983522374031,74.4462112659576,72.49794544043253,68.28510785999332,72.74223318520876
462.0,73.69251534970194,72.09219739332731,74.21847143952536,72.02770322481847,67.70532438778979,72.44780238143838
475.0,73.63156521650815,72.12545884309979,74.1054802021306,71.69289854224606,67.2126821763911,72.31245211996321
487.0,73.76529247740741,72.26163887176376,74.13629910426124,71.51421315005454,66.80989268827564,72.33092959184567
500.0,74.13156521650814,72.5254588430998,74.36625407498865,71.55701487827167,66.5831950260291,72.55143047361818
515.0,74.76529247740741,72.93156676193063,74.81126522099746,71.83581843030498,66.52235406306458,72.99414114388239
530.0,75.62654604850562,73.46853414363513,75.39699485658113,72.30662816164345,66.60320876676477,73.61683824445596
545.0,76.61605261650782,74.07695428144353,76.08165166488939,72.92828408215735,66.8280972694971,74.36021030853266
560.0,77.57863385740183,74.74834153991685,76.79597245106618,73.56225210170619,67.0895355258601,75.12549263346509
580.0,78.50704836682712,75.43156521650813,77.46486501346578,74.22126678314146,67.36854869905287,75.87721653561033
600.0,79.33430201321607,76.0444316689659,78.03629910426125,74.78111395935066,67.64412018429047,76.5420690391933
615.0,79.82833698380875,76.65878957286779,78.49303728410298,75.19948699221244,67.84498501298675,77.0300730754798
630.0,80.05843138876742,77.14970821800586,78.693037284103,75.41985300445106,67.9285451589219,77.29622302421353
650.0,79.8546851562723,77.46769253045731,78.67903352813218,75.36467548135992,67.89055683539112,77.27290820933499
670.0,79.3546851562723,77.687134431463,78.40869618783157,75.10162157893033,67.73886733976884,77.03355153071666
690.0,78.58600284527945,77.687134431463,77.98255348661264,74.66941480434957,67.5019641891658,76.60285502649702
710.0,77.65165170256778,77.60802432878629,77.46975281398888,74.15694304909785,67.22292296069217,76.08623932426345
730.0,76.6837184972926,77.3854741683811,76.92722120885554,73.56825552459979,66.91572380614168,75.52211312319739
750.0,75.7501345830632,77.03035199411438,76.40270744313989,72.98989746995713,66.5867382882763,74.94703069923472
775.0,74.91628893976808,76.53035199411438,75.9304211413104,72.51445476675514,66.27434942565176,74.3857858029137
800.0,74.28295691548757,75.8303519941144,75.65014195224404,72.13005500521963,65.94844183104038,73.87709213769402
825.0,73.98295691548758,75.0203732087224,75.55014195224405,71.95083550748244,65.60844738569793,73.50223570649796
850.0,73.91628893976808,74.14326304744434,75.58000192246035,71.92566250720614,65.29716363489297,73.25137073466043
875.0,73.98371849729263,73.16656183296118,75.76595600288587,72.00638600079277,64.99016653619803,73.11783701780075
900.0,74.25165170256778,72.26656183296117,76.05396509490807,72.17939162076853,64.71163645467223,73.1493887786412
925.0,74.5516517025678,71.31440646451512,76.42631416632047,72.3997827905313,64.4512191243187,73.26894328135222
950.0,74.78600284527946,70.46394735173774,76.7745857787719,72.61683048856543,64.23906886235513,73.41375997869577
975.0,75.02087509647697,69.76394735173774,77.1745857787719,72.84743078702229,64.03675483568136,73.62549337314445
1000.0,75.15627209896218,69.26394735173773,77.50496795281023,73.01254235833215,63.86650533530745,73.80092048140446
1030.0,75.06564648944399,68.9204358500902,77.79361996806499,73.11508805259581,63.70913076319788,73.9061224337422
1060.0,74.80960526973823,68.72043585009021,77.97082859704551,73.1234143533994,63.54583635007509,73.91563219867014
1090.0,74.4684963931912,68.7520005939953,78.09931890084258,73.08273354996129,63.35100557720516,73.89298675229142
1120.0,74.03628514881156,68.88406482221657,78.1630754522808,72.99564560300232,63.179150634636386,73.8232530624564
1150.0,73.56059993605311,69.15919564417514,78.17958423369018,72.85859811803981,62.99537681147686,73.72940395264658
1180.0,73.025807790535,69.42521316387905,78.12639278614265,72.68777733964379,62.75357861869357,73.58865768726686
1220.0,72.49649678929902,69.82521316387906,78.02639278614265,72.48560626499918,62.53292015989983,73.43881411720919
1250.0,72.03773044966951,70.19328297929997,77.89024326574986,72.24277527999054,62.26782815437264,73.28009600905672
1280.0,71.7165456340272,70.55202022112374,77.68974307805252,72.0001000062154,61.996721419348674,73.11250996422874
1320.0,71.43133988212361,70.8467890752706,77.4788683707387,71.73901830105184,61.69203351848907,72.94108198632775
1360.0,71.31278139792471,71.14678907527059,77.23752466682788,71.4690406589439,61.379134001525784,72.78233941111499
1400.0,71.16275893937865,71.38279257529119,76.9791162124028,71.20296395797916,61.07365023653384,72.60879992243495
1450.0,71.15901545646891,71.55903878385722,76.71174755208446,70.95283995668802,60.72826237595487,72.45085662208058
1500.0,71.05154403305352,71.63569949539927,76.47033595588633,70.63604863365062,60.40030419637415,72.27122033047557
1550.0,70.91207177454454,71.67260766863743,76.21610853714337,70.40235448683829,60.07711496786959,72.08793316014325
1600.0,70.76982998164813,71.55128154289693,75.9752825140942,70.10999594897099,59.75407497423217,71.8762679159915
1650.0,70.56177215019065,71.4057527568877,75.81503238130767,69.87215745636261,59.4376099952881,71.69922836078769
1700.0,70.39759033594879,71.17555743230918,75.64916171350805,69.61867208097316,59.14016046582465,71.50868205193726
1750.0,70.28030860794054,70.91064420070194,75.51224013346106,69.36213612252793,58.859334028199356,71.33437481114126
1800.0,70.35604062713449,70.56505329893486,75.41224013346107,69.13430746313364,58.62721701015926,71.20160368651139
1850.0,70.63331977945344,70.1610045124213,75.28812619247336,68.96364789751837,58.39866697200907,71.09296607609855
1900.0,70.93696755149682,69.76941973581648,75.1532166928236,68.78529040191329,58.214738939439,70.99488397923571
1950.0,71.3900351475476,69.3387277796465,75.05183532946512,68.68308425990665,58.0542277371746,70.96113429876736
2000.0,71.76769385774641,68.84334950615718,74.90155457762049,68.57542329451613,57.94542970788933,70.89381450029126
2060.0,72.0820570447107,68.30958229892059,74.75931904959465,68.52973753006344,57.85223787434809,70.83380073905904
2120.0,72.24346056116666,67.8019177512021,74.59966974834997,68.5425217383208,57.79519412018662,70.74671403101125
2180.0,72.30035715242818,67.28977777592902,74.40601565209795,68.5672328553371,57.7376838820642,70.6225000309392
2240.0,72.27812318989074,66.82227756821524,74.24304800622704,68.6315995436785,57.73194658808623,70.50481591168406
2300.0,72.2087063884207,66.46105982393998,74.13572116552811,68.6718971027254,57.707917486915164,70.40820536426105
2360.0,72.06128835614115,66.11362288599783,74.01311976862107,68.74545544373659,57.70965639069523,70.28871226258116
2400.0,71.91932829979008,65.87151739899778,73.927282714476,68.78785458442839,57.690714489998896,70.19334241627206
2500.0,71.80922881519496,65.77968158824245,73.91095459605043,68.79329211181276,57.663144841568425,70.14679938541838
2580.0,71.66284668878708,65.75267220609163,73.94902580971353,68.81080712477234,57.61837896907397,70.12281081482477
2650.0,71.5099025258793,65.80341802313833,74.03107185843066,68.8097744923916,57.546119337770676,70.12271374236715
2720.0,71.30455928879029,65.89349761242336,74.18881748201834,68.7937028354605,57.48562593553912,70.15013670678593
2800.0,71.17222694128515,66.06564648944402,74.35959048142128,68.83268448323669,57.43059238761721,70.22213442664204
2900.0,71.00797670032789,66.22250919996843,74.6112631602297,68.86606683789296,57.40942965707872,70.33188475799983
3000.0,70.892388119683,66.35013458306321,74.86989533132805,68.97560820370892,57.41597554851229,70.47168201516351
3070.0,70.82988060930012,66.4524366596501,75.13555030652762,69.11965302624733,57.47991709840177,70.63514158019589
3150.0,70.90054726320331,66.45168703450534,75.46993019533247,69.33139241258769,57.58888403542683,70.87108695598671
3250.0,71.0401967922049,66.41706230166054,75.80483139686571,69.64059787690564,57.75990908889693,71.13627219731221
3350.0,71.18104132795747,66.31706230166053,76.13949169634203,69.99262351631728,57.975610563409674,71.40686165416908
