Freq "Ceiling Bounce"
22.4 38.65013458306319
23.0 39.81628893976807
23.6 41.01628893976809
24.0 42.21628893976808
25.0 43.35013458306318
25.8 44.51628893976809
26.5 45.71628893976808
27.2 46.85013458306321
28.0 48.01628893976809
29.0 49.15013458306322
30.0 50.21628893976808
30.7 51.250134583063215
31.5 52.21628893976808
32.5 53.050134583063226
33.5 53.85013458306321
34.5 54.5501345830632
35.5 55.21628893976809
36.5 55.8162889397681
37.5 56.41628893976808
38.7 57.01628893976809
40.0 57.6162889397681
41.2 58.1837184972926
42.5 58.78371849729261
43.7 59.416288939768094
45.0 60.01628893976809
46.2 60.65013458306319
47.5 61.35013458306321
48.7 62.01628893976809
50.0 62.750134583063215
51.5 63.51628893976809
53.0 64.3162889397681
54.5 65.05013458306321
56.0 65.8162889397681
58.0 66.55013458306321
60.0 67.2501345830632
61.5 67.9162889397681
63.0 68.51628893976809
65.0 69.05013458306321
67.0 69.51628893976809
69.0 69.95013458306322
71.0 70.38371849729262
73.0 70.8162889397681
75.0 71.21628893976809
77.5 71.71628893976809
80.0 72.2501345830632
82.5 72.85013458306321
85.0 73.51628893976809
87.5 74.21628893976809
90.0 74.88295691548757
92.5 75.5162889397681
95.0 76.11628893976808
97.5 76.6162889397681
100.0 76.9501345830632
103.0 77.21628893976808
106.0 77.3501345830632
109.0 77.3837184972926
112.0 77.3837184972926
115.0 77.31781792666192
118.0 77.21781792666192
122.0 77.1501345830632
125.0 77.11781792666191
128.0 77.11781792666191
132.0 77.11781792666191
136.0 77.21781792666192
140.0 77.31781792666192
145.0 77.4524366596501
150.0 77.61781792666191
155.0 77.71781792666192
160.0 77.85243665965011
165.0 77.98600284527944
170.0 78.08600284527945
175.0 78.18600284527945
180.0 78.22087509647696
185.0 78.22087509647696
190.0 78.18980876806249
195.0 78.0562720989622
200.0 77.9254588430998
206.0 77.69513428299229
212.0 77.43156676193064
218.0 77.13919565534232
224.0 76.77695428144352
230.0 76.44834153991684
236.0 76.1589996554238
240.0 75.8589996554238
250.0 75.59835068011601
258.0 75.41131576424524
265.0 75.28482971995442
272.0 75.152021592011
280.0 75.12578338592911
290.0 75.02578338592912
300.0 74.92578338592912
307.0 74.8672949862561
315.0 74.76729498625609
325.0 74.62578338592913
335.0 74.52578338592912
345.0 74.28482971995442
355.0 74.11131576424526
365.0 73.87116447549653
375.0 73.598350680116
387.0 73.38689486160787
400.0 73.11525554920445
412.0 72.84408637979963
425.0 72.60603964790809
437.0 72.36853414363513
450.0 72.1983522374031
462.0 72.09219739332731
475.0 72.12545884309979
487.0 72.26163887176376
500.0 72.5254588430998
515.0 72.93156676193063
530.0 73.46853414363513
545.0 74.07695428144353
560.0 74.74834153991685
580.0 75.43156521650813
600.0 76.0444316689659
615.0 76.65878957286779
630.0 77.14970821800586
650.0 77.46769253045731
670.0 77.687134431463
690.0 77.687134431463
710.0 77.60802432878629
730.0 77.3854741683811
750.0 77.03035199411438
775.0 76.53035199411438
800.0 75.8303519941144
825.0 75.0203732087224
850.0 74.14326304744434
875.0 73.16656183296118
900.0 72.26656183296117
925.0 71.31440646451512
950.0 70.46394735173774
975.0 69.76394735173774
1000.0 69.26394735173773
1030.0 68.9204358500902
1060.0 68.72043585009021
1090.0 68.7520005939953
1120.0 68.88406482221657
1150.0 69.15919564417514
1180.0 69.42521316387905
1220.0 69.82521316387906
1250.0 70.19328297929997
1280.0 70.55202022112374
1320.0 70.8467890752706
1360.0 71.14678907527059
1400.0 71.38279257529119
1450.0 71.55903878385722
1500.0 71.63569949539927
1550.0 71.67260766863743
1600.0 71.55128154289693
1650.0 71.4057527568877
1700.0 71.17555743230918
1750.0 70.91064420070194
1800.0 70.56505329893486
1850.0 70.1610045124213
1900.0 69.76941973581648
1950.0 69.3387277796465
2000.0 68.84334950615718
2060.0 68.30958229892059
2120.0 67.8019177512021
2180.0 67.28977777592902
2240.0 66.82227756821524
2300.0 66.46105982393998
2360.0 66.11362288599783
2400.0 65.87151739899778
2500.0 65.77968158824245
2580.0 65.75267220609163
2650.0 65.80341802313833
2720.0 65.89349761242336
2800.0 66.06564648944402
2900.0 66.22250919996843
3000.0 66.35013458306321
3070.0 66.4524366596501
3150.0 66.45168703450534
3250.0 66.41706230166054
3350.0 66.31706230166053
3450.0 66.12324670083578
3550.0 65.87286393926739
3650.0 65.63430050392259
3750.0 65.40435565900721
3870.0 65.1708579424791
4000.0 64.90922881519495
4120.0 64.70938351163576
4250.0 64.54717693242617
4370.0 64.4148958508691
4500.0 64.34078518324945
4620.0 64.29179475572587
4750.0 64.2368909876771
4870.0 64.12721208082179
5000.0 64.07645750329122
5150.0 63.91925058897563
5300.0 63.75933314748812
5450.0 63.580632266123146
5600.0 63.326962694199665
5800.0 63.06829674418296
6000.0 62.75062365361126
6150.0 62.43499190669159
6300.0 62.06161093697834
6500.0 61.625220717286965
6700.0 61.22606594969325
6900.0 60.910148340224524
7100.0 60.658160507334685
7300.0 60.504095448645856
7500.0 60.51449060244086
7750.0 60.60525496024063
8000.0 60.88698462810055
8250.0 61.34965527244559
8500.0 61.868145178207
8750.0 62.485608627350786
9000.0 63.00617867402762
9250.0 63.63270709852537
9500.0 64.08902880956545
9750.0 64.42928124022941
10000.0 64.57587424263099
10300.0 64.51549210811967
10600.0 64.24366726338575
10900.0 63.92890352640316
11200.0 63.5006321144225
11500.0 63.100632114422496
11800.0 62.73064578188675
12200.0 62.575874242630974
12500.0 62.575874242630974
12800.0 62.89152210421909
13200.0 63.34917050041483
13600.0 63.86491469869013
14000.0 64.26491469869013
14500.0 64.5915221042191
15000.0 64.57587424263099
15500.0 64.19152210421908
16000.0 63.37587424263097
16500.0 61.918581566501274
17000.0 59.975874242630994
17500.0 57.67587424263098
18000.0 55.10303107270835
18500.0 52.37587424263097
19000.0 49.57587424263099
19500.0 46.77587424263098
