Freq "Floor Bounce"
22.4 37.10690501035458
23.0 38.30690501035457
23.6 39.506905010354586
24.0 40.67150800786939
25.0 41.8069050103546
25.8 43.006905010354586
26.5 44.17150800786939
27.2 45.3069050103546
28.0 46.506905010354586
29.0 47.60690501035458
30.0 48.7069050103546
30.7 49.7069050103546
31.5 50.7069050103546
32.5 51.506905010354586
33.5 52.30690501035457
34.5 53.006905010354586
35.5 53.7069050103546
36.5 54.3069050103546
37.5 54.90690501035459
38.7 55.5069050103546
40.0 56.07150800786938
41.2 56.63821129888743
42.5 57.23821129888742
43.7 57.87150800786938
45.0 58.506905010354586
46.2 59.10690501035458
47.5 59.80690501035458
48.7 60.506905010354586
50.0 61.238211298887435
51.5 62.006905010354586
53.0 62.771508007869386
54.5 63.506905010354586
56.0 64.3069050103546
58.0 65.03821129888742
60.0 65.7069050103546
61.5 66.40690501035459
63.0 67.00690501035459
65.0 67.50690501035459
67.0 68.00690501035459
69.0 68.43821129888744
71.0 68.87150800786938
73.0 69.3069050103546
75.0 69.7069050103546
77.5 70.20690501035459
80.0 70.7069050103546
82.5 71.30690501035458
85.0 71.97150800786937
87.5 72.6069050103546
90.0 73.3069050103546
92.5 73.90690501035459
95.0 74.50690501035459
97.5 75.00690501035459
100.0 75.43821129888744
103.0 75.7069050103546
106.0 75.93821129888744
109.0 76.07150800786938
112.0 76.13821129888743
115.0 76.13821129888743
118.0 76.13821129888743
122.0 76.07150800786938
125.0 76.07150800786938
128.0 76.07150800786938
132.0 76.13821129888743
136.0 76.17150800786938
140.0 76.27150800786939
145.0 76.40690501035459
150.0 76.5069050103546
155.0 76.6760917544922
160.0 76.8069050103546
165.0 76.9760917544922
170.0 77.14283030471974
175.0 77.27609175449221
180.0 77.4760917544922
185.0 77.57609175449223
190.0 77.6760917544922
195.0 77.77609175449221
200.0 77.87609175449222
206.0 77.87609175449222
212.0 77.87609175449222
218.0 77.87609175449222
224.0 77.8404416794549
230.0 77.7404416794549
236.0 77.70690501035459
240.0 77.64044167945491
250.0 77.54044167945491
258.0 77.54044167945491
265.0 77.4760917544922
272.0 77.4760917544922
280.0 77.4098662867233
290.0 77.34576719438469
300.0 77.34576719438469
307.0 77.24576719438468
315.0 77.14576719438469
325.0 77.01592692226706
335.0 76.88219967332304
345.0 76.71592692226704
355.0 76.48219967332304
365.0 76.21592692226706
375.0 75.91592692226706
387.0 75.55260953202216
400.0 75.12349685065979
412.0 74.6234968506598
425.0 74.16096514237182
437.0 73.73257218046558
450.0 73.34314826109434
462.0 73.04314826109436
475.0 72.98219812790056
487.0 73.11592538879982
500.0 73.48219812790056
515.0 74.11592538879981
530.0 74.97717895989803
545.0 75.96668552790021
560.0 76.92926676879422
580.0 77.85768127821953
600.0 78.6849349246085
615.0 79.17896989520115
630.0 79.40906430015984
650.0 79.2053180676647
670.0 78.7053180676647
690.0 77.93663575667186
710.0 77.0022846139602
730.0 76.03435140868503
750.0 75.10076749445562
775.0 74.2669218511605
800.0 73.63358982687997
825.0 73.33358982687997
850.0 73.2669218511605
875.0 73.33435140868502
900.0 73.6022846139602
925.0 73.90228461396019
950.0 74.13663575667186
975.0 74.37150800786937
1000.0 74.50690501035459
1030.0 74.41627940083642
1060.0 74.16023818113064
1090.0 73.81912930458363
1120.0 73.38691806020397
1150.0 72.91123284744552
1180.0 72.37644070192741
1220.0 71.84712970069143
1250.0 71.38836336106192
1280.0 71.06717854541961
1320.0 70.78197279351602
1360.0 70.66341430931713
1400.0 70.51339185077106
1450.0 70.5096483678613
1500.0 70.40217694444593
1550.0 70.26270468593694
1600.0 70.12046289304052
1650.0 69.91240506158304
1700.0 69.74822324734119
1750.0 69.63094151933295
1800.0 69.7066735385269
1850.0 69.98395269084585
1900.0 70.28760046288923
1950.0 70.74066805894
2000.0 71.11832676913882
2060.0 71.4326899561031
2120.0 71.59409347255908
2180.0 71.65099006382057
2240.0 71.62875610128314
2300.0 71.55933929981309
2360.0 71.41192126753357
2400.0 71.26996121118248
2500.0 71.15986172658735
2580.0 71.0134796001795
2650.0 70.8605354372717
2720.0 70.65519220018267
2800.0 70.52285985267756
2900.0 70.35860961172028
3000.0 70.24302103107543
3070.0 70.18051352069254
3150.0 70.2511801745957
3250.0 70.39082970359729
3350.0 70.53167423934987
3450.0 70.78687662824873
3550.0 71.11688630006817
3650.0 71.4307933711823
3750.0 71.68859177923459
3870.0 71.9765793831768
4000.0 72.20586825843148
4120.0 72.31780002610535
4250.0 72.40137892277062
4370.0 72.41388511176723
4500.0 72.36801107083917
4620.0 72.2946681446287
4750.0 72.18031664163966
4870.0 72.02240726008675
5000.0 71.83669399809315
5150.0 71.66506011325959
5300.0 71.40827710656964
5450.0 71.1938964251819
5600.0 70.97979693268616
5800.0 70.7954735506012
6000.0 70.58201452057558
6150.0 70.38201452057557
6300.0 70.26882143514852
6500.0 70.13913968958946
6700.0 70.0524231134238
6900.0 70.03695108716924
7100.0 70.03695108716924
7300.0 70.06506011325959
7500.0 70.1512650258149
7750.0 70.3512650258149
8000.0 70.59430017477816
8250.0 70.89430017477815
8500.0 71.22294362715998
8750.0 71.63749164860505
9000.0 71.96718462137126
9250.0 72.2832722873143
9500.0 72.50032062204596
9750.0 72.56352555502136
10000.0 72.5502760977696
10300.0 72.33728906550863
10600.0 72.03728906550863
10900.0 71.63728906550863
11200.0 71.2372890655086
11500.0 70.88272777407495
11800.0 70.58272777407494
12200.0 70.4502760977696
12500.0 70.55027609776961
12800.0 70.86352555502134
13200.0 71.3502760977696
13600.0 71.8502760977696
14000.0 72.26352555502135
14500.0 72.56352555502136
15000.0 72.5502760977696
15500.0 72.15027609776959
16000.0 71.29587874590275
16500.0 69.85027609776961
17000.0 67.9502760977696
17500.0 65.65027609776959
18000.0 63.05027609776961
18500.0 60.350276097769594
19000.0 57.5502760977696
19500.0 54.750276097769614
