Freq "Floor Bounce"
22.4 37.75627209896217
23.0 38.95627209896216
23.6 40.15627209896218
24.0 41.32087509647698
25.0 42.45627209896219
25.8 43.65627209896218
26.5 44.820875096476954
27.2 45.95627209896219
28.0 47.15627209896218
29.0 48.2562720989622
30.0 49.356272098962194
30.7 50.356272098962194
31.5 51.356272098962165
32.5 52.15627209896218
33.5 52.95627209896219
34.5 53.65627209896218
35.5 54.35627209896218
36.5 54.956272098962174
37.5 55.5562720989622
38.7 56.15627209896218
40.0 56.72087509647696
41.2 57.28757838749502
42.5 57.887578387495026
43.7 58.520875096476956
45.0 59.15627209896219
46.2 59.75627209896217
47.5 60.456272098962174
48.7 61.15627209896218
50.0 61.887578387495026
51.5 62.65627209896218
53.0 63.42087509647696
54.5 64.15627209896219
56.0 64.95627209896217
58.0 65.68757838749502
60.0 66.35627209896218
61.5 67.05627209896218
63.0 67.65627209896218
65.0 68.15627209896218
67.0 68.65627209896218
69.0 69.08757838749501
71.0 69.52087509647696
73.0 69.95627209896219
75.0 70.35627209896218
77.5 70.8562720989622
80.0 71.35627209896218
82.5 71.95627209896219
85.0 72.62087509647698
87.5 73.25627209896217
90.0 73.95627209896217
92.5 74.55627209896218
95.0 75.15627209896218
97.5 75.65627209896219
100.0 76.08757838749503
103.0 76.35627209896218
106.0 76.58757838749501
109.0 76.72087509647696
112.0 76.78757838749502
115.0 76.78757838749502
118.0 76.78757838749502
122.0 76.72087509647696
125.0 76.72087509647696
128.0 76.72087509647696
132.0 76.78757838749502
136.0 76.82087509647698
140.0 76.92087509647698
145.0 77.05627209896218
150.0 77.15627209896218
155.0 77.3254588430998
160.0 77.45627209896217
165.0 77.62545884309979
170.0 77.79219739332734
175.0 77.9254588430998
180.0 78.1254588430998
185.0 78.2254588430998
190.0 78.3254588430998
195.0 78.42545884309982
200.0 78.5254588430998
206.0 78.5254588430998
212.0 78.5254588430998
218.0 78.5254588430998
224.0 78.4898087680625
230.0 78.38980876806251
236.0 78.3562720989622
240.0 78.2898087680625
250.0 78.18980876806249
258.0 78.18980876806249
265.0 78.1254588430998
272.0 78.1254588430998
280.0 78.05923337533088
290.0 77.99513428299228
300.0 77.99513428299228
307.0 77.89513428299227
315.0 77.7951342829923
325.0 77.66529401087466
335.0 77.53156676193063
345.0 77.36529401087465
355.0 77.13156676193064
365.0 76.86529401087463
375.0 76.56529401087467
387.0 76.20197662062976
400.0 75.7728639392674
412.0 75.27286393926738
425.0 74.81033223097943
437.0 74.38193926907316
450.0 73.99251534970195
462.0 73.69251534970194
475.0 73.63156521650815
487.0 73.76529247740741
500.0 74.13156521650814
515.0 74.76529247740741
530.0 75.62654604850562
545.0 76.61605261650782
560.0 77.57863385740183
580.0 78.50704836682712
600.0 79.33430201321607
615.0 79.82833698380875
630.0 80.05843138876742
650.0 79.8546851562723
670.0 79.3546851562723
690.0 78.58600284527945
710.0 77.65165170256778
730.0 76.6837184972926
750.0 75.7501345830632
775.0 74.91628893976808
800.0 74.28295691548757
825.0 73.98295691548758
850.0 73.91628893976808
875.0 73.98371849729263
900.0 74.25165170256778
925.0 74.5516517025678
950.0 74.78600284527946
975.0 75.02087509647697
1000.0 75.15627209896218
1030.0 75.06564648944399
1060.0 74.80960526973823
1090.0 74.4684963931912
1120.0 74.03628514881156
1150.0 73.56059993605311
1180.0 73.025807790535
1220.0 72.49649678929902
1250.0 72.03773044966951
1280.0 71.7165456340272
1320.0 71.43133988212361
1360.0 71.31278139792471
1400.0 71.16275893937865
1450.0 71.15901545646891
1500.0 71.05154403305352
1550.0 70.91207177454454
1600.0 70.76982998164813
1650.0 70.56177215019065
1700.0 70.39759033594879
1750.0 70.28030860794054
1800.0 70.35604062713449
1850.0 70.63331977945344
1900.0 70.93696755149682
1950.0 71.3900351475476
2000.0 71.76769385774641
2060.0 72.0820570447107
2120.0 72.24346056116666
2180.0 72.30035715242818
2240.0 72.27812318989074
2300.0 72.2087063884207
2360.0 72.06128835614115
2400.0 71.91932829979008
2500.0 71.80922881519496
2580.0 71.66284668878708
2650.0 71.5099025258793
2720.0 71.30455928879029
2800.0 71.17222694128515
2900.0 71.00797670032789
3000.0 70.892388119683
3070.0 70.82988060930012
3150.0 70.90054726320331
3250.0 71.0401967922049
3350.0 71.18104132795747
3450.0 71.43624371685632
3550.0 71.76625338867575
3650.0 72.08016045978991
3750.0 72.33795886784219
3870.0 72.62594647178439
4000.0 72.85523534703907
4120.0 72.96716711471295
4250.0 73.05074601137822
4370.0 73.06325220037482
4500.0 73.01737815944676
4620.0 72.94403523323629
4750.0 72.82968373024727
4870.0 72.67177434869436
5000.0 72.48606108670073
5150.0 72.31442720186718
5300.0 72.05764419517725
5450.0 71.8432635137895
5600.0 71.62916402129373
5800.0 71.44484063920879
6000.0 71.23138160918316
6150.0 71.03138160918317
6300.0 70.91818852375613
6500.0 70.78850677819706
6700.0 70.70179020203139
6900.0 70.68631817577685
7100.0 70.68631817577685
7300.0 70.71442720186718
7500.0 70.8006321144225
7750.0 71.0006321144225
8000.0 71.24366726338573
8250.0 71.54366726338573
8500.0 71.87231071576755
8750.0 72.28685873721264
9000.0 72.61655170997884
9250.0 72.93263937592191
9500.0 73.14968771065355
9750.0 73.21289264362893
10000.0 73.1996431863772
10300.0 72.9866561541162
10600.0 72.6866561541162
10900.0 72.2866561541162
11200.0 71.88665615411621
11500.0 71.53209486268253
11800.0 71.23209486268254
12200.0 71.0996431863772
12500.0 71.19964318637719
12800.0 71.51289264362893
13200.0 71.99964318637718
13600.0 72.4996431863772
14000.0 72.91289264362894
14500.0 73.21289264362893
15000.0 73.1996431863772
15500.0 72.79964318637718
16000.0 71.94524583451035
16500.0 70.49964318637718
17000.0 68.5996431863772
17500.0 66.29964318637718
18000.0 63.69964318637719
18500.0 60.9996431863772
19000.0 58.1996431863772
19500.0 55.39964318637719
