Freq,Floor Bounce,Ceiling Bounce,Front Wall Bounce,Side Wall Bounce,Rear Wall Bounce,Total Early Reflection
20.5078,58.60410374642183,57.9399760802751,58.11760206433604,58.257290312016096,62.71383339999258,59.57433790290817
23.4375,61.48344914132973,61.279572840968044,61.12403295162193,61.51408369518741,65.77618140705023,62.66862740959408
26.3672,65.49122469142645,65.59020153577517,65.26715706204683,65.8242977679281,69.32343872934976,66.61001016683923
29.2969,68.44694636169518,68.5188332082347,68.24767545363805,68.77268169515723,71.71407910932322,69.36120580725223
32.2266,71.15837737200671,71.19242080762484,70.97237187837787,71.46883204817337,73.9434693784481,71.9057940526022
35.1563,73.7427382055565,73.6765183524698,73.54410662691707,73.98798003351399,76.02548796968678,74.30398293112461
38.0859,75.71688521708336,75.57364404107608,75.50881678529169,75.90859677302582,77.61624805259105,76.14224417880362
41.0156,77.3808519316674,77.19921865397782,77.17241968679144,77.53814909275249,78.97401234125653,77.70883448365049
43.9453,78.58983401633705,78.31688389747704,78.36061903769826,78.6888639176035,79.8834371178307,78.80810598581786
46.875,79.56335006284543,79.25673354850579,79.33204446241855,79.63078146369804,80.6381503316056,79.71393749824352
49.8047,80.23918603771075,79.88852421252841,79.99828878909125,80.27651616374183,81.14046890981453,80.33177160544044
52.7344,80.70121493345871,80.33105322598331,80.45869201474522,80.72081874884816,81.46124357909251,80.75281410439933
55.6641,81.13479623219514,80.7383939832134,80.88714367455043,81.1353110319468,81.777231982677,81.14943674485835
58.5938,81.40564115603252,80.98434940574876,81.1499105764766,81.39254595230277,81.96779793969367,81.39307030469459
61.5234,81.6657960204198,81.20493870692974,81.40319708413477,81.6192867583044,82.07753090848146,81.60407101779698
64.4531,81.86108520377418,81.37147666874353,81.5940429333823,81.79034352595295,82.16184837718666,81.76385221143194
67.3828,82.05588516973049,81.54555921178249,81.78818514822382,81.96249273733217,82.2498949794227,81.92697339572362
70.3125,82.13153265641759,81.58742950822678,81.84611150153776,82.02394344691874,82.29759719085656,81.98413322890465
73.2422,82.20750171328861,81.68108895261906,81.92856245984596,82.1137412395558,82.38618769590042,82.07009617972669
76.1719,82.36533721158814,81.818123990224,82.07580700476447,82.26395140607355,82.52832356801947,82.21716599843421
79.1016,82.36795018774825,81.8289901273541,82.08203468595772,82.26957641521466,82.53873190855839,82.2242694111971
82.0313,82.59924819008037,82.03574865244828,82.32382006510389,82.44983538189987,82.54323710017242,82.39494250708597
84.9609,82.83118237108678,82.22470069353727,82.56478644509735,82.62600218497747,82.49289402548494,82.55236339879731
87.8906,82.57677059290437,82.04019988404005,82.2932803064694,82.4719886193996,82.65423355363346,82.41280310657028
90.8203,82.52047225576662,81.97092765017715,82.2309950267258,82.41036057183504,82.62576585532749,82.35778591778832
93.75,82.8435614120732,82.22130414519329,82.55298156839338,82.65806770144034,82.70535283165326,82.6012397771656
96.6797,82.82029430428075,82.20209114837274,82.5452003752067,82.61289277776135,82.50218079721947,82.54109907723515
102.539,82.86626129158189,82.24501641704057,82.57491516494667,82.65762242319195,82.62644013976055,82.5986486564708
105.469,82.85366749271738,82.20612215211318,82.55828292692186,82.62497328193626,82.56350879799527,82.56624253951875
108.398,82.95653202988186,82.27611320699839,82.6553052877022,82.69565292344373,82.5826668765516,82.63873589767692
111.328,83.06861059884696,82.34514348826721,82.75453445069166,82.78578945433398,82.64523661345024,82.72613339295738
117.188,83.0757805788925,82.31780517165208,82.75824971003694,82.76148524261986,82.56439569675311,82.70274166061726
120.117,83.17373411059998,82.42040180583305,82.85558042628327,82.83862122719732,82.63179060628855,82.79129975692585
125.977,83.14079293939022,82.35675317324552,82.82857444676843,82.77673390197579,82.46635348755568,82.72280911253958
128.906,83.05887626812914,82.28936741803723,82.75981657860086,82.69599163016548,82.27732335935865,82.62653576933215
134.766,82.87620539769246,82.09413684999188,82.54074328020111,82.54026697569896,82.39001056575007,82.49565497638446
137.695,82.8645114555836,82.0398510476718,82.5122974140863,82.49207714859419,82.3718530726471,82.46420481402086
143.555,82.86860982818646,81.90424852642452,82.4904021312069,82.38118727299737,82.12990964147495,82.36728459160952
149.414,82.92592220451861,81.88477843098805,82.54344911317945,82.36853215600158,81.95016801258149,82.3518194612683
155.273,83.01571486626835,81.90671998320403,82.63473829444882,82.4186254248352,81.86462697394279,82.39026419092238
158.203,83.01673090139668,81.9431216247322,82.6457100938564,82.43566444517901,81.87936394877262,82.40539021039811
164.063,82.91368998159967,81.86843147337713,82.54167530318904,82.3399117817349,81.8458523457691,82.32110078103358
169.922,82.73203325202888,81.68906237780925,82.3612586397657,82.14377222994166,81.74296289108422,82.15144583814617
175.781,82.62812804670449,81.50367454587439,82.23210501042688,81.97205971844221,81.52718484925019,81.99387375051728
181.641,82.60523416215484,81.39387104099472,82.20212901525123,81.89335563177345,81.3296140657674,81.91192438089276
190.43,82.51384869208843,81.40506512823674,82.15907040887963,81.84114589776188,81.22749157880969,81.85517851834472
196.289,82.37017496654434,81.28792813516006,82.00973127980349,81.67243492796513,81.18079186093144,81.72705864726846
202.148,82.31735724547167,81.13254281771165,81.93556079971626,81.52374676535686,81.00370218926972,81.61057328637675
210.938,82.28371652882095,80.98332649427084,81.90020269474341,81.41313505494928,80.64781313400266,81.48621647577417
216.797,82.12500532508702,80.84192744287644,81.71686783732864,81.24889629984034,80.62922877265382,81.3475427113182
225.586,82.22786343497101,80.78168628849795,81.82304792481116,81.19365724186554,80.37467834807168,81.33253052077343
234.375,82.24553639225557,80.80091046226147,81.82078948706555,81.20378506779605,80.22565235376415,81.31821201484622
240.234,82.09092648700967,80.51811332148716,81.60098804583394,80.94785317214821,80.09622218337995,81.11074543744581
249.023,82.28627020307471,80.33912670449956,81.7575146336561,80.96774055370078,79.615647398948,81.09770046094563
257.813,82.27466941846185,80.5443343154525,81.78835865793566,81.07026174572025,79.88391885674936,81.19552254194582
266.602,81.98249732085522,79.84144020788948,81.36375205509677,80.53266515524022,79.4640020655507,80.73788848923917
278.32,81.75594247989675,80.03975159162032,81.44308975875533,80.52244118595507,79.45292969847779,80.7269848506248
287.109,81.63918734078712,80.3214536469763,81.37113382064368,80.37817484020815,79.23971590679255,80.67219199761028
295.898,82.07431050645697,80.43074373513127,81.62422282004152,80.48041051760872,78.88874842275784,80.83591796640839
307.617,82.44271565877372,80.12439417709939,81.77644922273905,80.6120027438198,79.3513309752001,81.0050833624645
319.336,82.56966698935659,79.9816151984117,81.91800591944971,80.53970489745149,78.7752401443711,80.96538176982457
331.055,82.33641888592032,79.78995101077864,81.72654481484699,80.45846853379558,78.79409516848379,80.80799109244217
342.773,82.3587905082762,79.33311470018752,81.72128050898372,80.09351922343996,78.41081838846833,80.63013377279219
354.492,82.33827820948878,79.76024197267343,81.96370930290863,80.47302063495187,77.91579058739094,80.76653784152143
366.211,82.43196767059587,79.93236441335884,82.0816236676871,80.67795353100387,77.60705783717827,80.86037419113596
377.93,82.47935048409987,80.21568147125853,82.12030064681701,80.83081228470735,77.96414922153751,80.99457171451868
392.578,81.81754514039537,79.75789616371871,81.43524003700004,80.12910143981796,77.38079258446372,80.3618052919509
407.227,81.90392381494391,79.16853141407853,81.32583637346232,79.6726766253808,76.94115483450312,80.13244382634646
421.875,82.23792168787016,79.60239036653203,81.67694139294531,80.18107089834328,76.4473918033969,80.44681647580484
436.523,82.67409437121877,80.03543535766516,82.18633838048298,80.40659104299077,77.10305243997718,80.88132229582388
451.172,83.16320994300096,80.99462255323783,82.85390032845287,81.15103529784265,76.60557519928086,81.47333028031912
465.82,83.19906123322237,81.12644227662103,82.80990683365091,81.2429030696184,77.03508024055631,81.54202962685878
483.398,82.81390596910335,81.04458714466512,82.44557887160437,81.07981546310518,76.46085263857681,81.24802447172252
500.977,82.8581173623919,80.50845468430406,82.34338177294848,81.24204881516005,76.88599997621091,81.1990968068191
518.555,82.45674873177097,79.7051564133031,82.04278634243234,80.84546023886173,76.86841788468693,80.78945975178438
536.133,82.48051682452285,79.54292636581862,82.70215160506964,81.0228379835755,76.15021858844574,80.94199547970848
553.711,82.61177438211384,79.58049297455484,82.64634372524182,81.24948384922216,75.85196257828943,80.99674849848373
574.219,82.74926644724704,79.59813367676043,82.79666811529839,81.36017900490222,76.62348734344364,81.15697126767566
594.727,82.78980318712289,79.72883875541822,82.9353602320927,80.67955000206611,76.64396649988282,81.0973823459787
615.234,82.56960683698141,79.68676305233927,83.05368010435886,80.86098694272349,75.67024221998929,81.03514111217191
638.672,83.0785479886214,78.47023197674129,83.38749965964277,81.17344445063775,76.27212540280439,81.23873331475494
659.18,82.29978136066825,79.28036884482151,83.22574134750072,81.07665839013487,76.44882811941517,81.05167358172454
682.617,82.48707417920421,79.87016389389976,83.43550469716462,80.73128518025055,76.39561407604525,81.18511312863288
706.055,82.77196980204458,79.97374521115583,83.75487593335244,80.62245734809838,76.00698967972114,81.34436399640741
732.422,81.929552037299,80.32454072977127,83.30519367952837,80.43028470743732,75.14551346815298,80.94027665545161
758.789,81.78534696679442,80.54665765420211,83.31870601272607,80.10728915264593,75.50321480366601,80.91306673195368
785.156,81.15988992836544,80.64692846104262,83.01224884364714,79.92536237889875,74.5242990426265,80.59490975691718
811.523,80.57978688209906,79.90169693877525,82.9065385680074,80.0166350646528,74.25292436370262,80.28840630830419
840.82,81.01008305194641,79.64050094827897,82.73599795896497,80.13434554291842,73.49215554025656,80.26523375676615
870.117,80.59265906393779,79.55825671401898,82.96981154317098,79.73368456237145,73.61906783134364,80.1716344780705
902.344,80.54619484222576,80.06707942654575,83.2079337343835,80.21361409578296,73.30767528787293,80.41967882072223
931.641,80.16567917324828,79.26190142633118,83.31072559288508,79.95155606894915,73.70427206893245,80.21139639628657
966.797,79.85872082328538,78.93941500661151,83.44737384029779,79.89245326577098,73.22119519908722,80.1271627994114
999.023,79.70839886596534,78.83003878332896,83.32630106933566,79.56823330130337,72.976228500241,79.9595564423063
1034.18,79.21017770201877,79.50789311062664,83.0941055167614,79.33860272545694,72.30259389900664,79.81747882606396
1072.27,78.82201580448121,79.01006689422107,82.99895058567299,79.10560136857688,71.63249096891478,79.55485093621851
1110.35,77.92785979723284,78.29533049955856,82.80481367725841,78.65881394503052,71.22884442155757,79.1067891837185
1148.44,77.06809071460111,77.0742891949169,82.83910471777165,78.60110683012732,70.82395119168001,78.79342320483315
1189.45,76.13350060669686,76.27709865011641,82.99263239405974,78.59952205739762,70.73764965572103,78.65651106330141
1230.47,75.16899368406709,75.67523183701036,82.8447096297169,78.55573688719286,70.85732422952185,78.40393442566901
1274.41,74.31480343451608,75.29266349081664,82.71847638508515,78.37461432091091,70.72899760825496,78.1749217106055
1318.36,74.06694045889017,74.57669619498931,82.39174330476729,78.1469807633751,70.08275759007675,77.82623197008515
1365.23,73.41649572446883,74.15624870993247,81.77391982409631,77.67970004153898,69.15677728165929,77.24758846439326
1415.04,72.81339356476934,73.73414419059068,81.41861311449597,77.32848243598377,68.76418409410198,76.86550649749984
1464.84,72.85124493050598,72.80379381184662,81.80620723667646,77.46690573729109,68.50633029069364,77.0384429365057
1514.65,73.28079585219295,72.48857943183882,82.10843203171859,77.78933120282915,68.94088162628216,77.31526854622737
1570.31,74.05107431545798,70.89145634063068,81.82466763283786,77.63380847189791,69.1046284902975,77.09343687167107
1623.05,74.28408478252884,72.15813202713983,81.5708319094282,77.1505939417658,68.72677905278117,76.92275771134388
1681.64,75.41829418340907,71.71371349667751,81.37752448216082,76.86749142623398,68.73931544629667,76.86773795132994
1740.23,75.35968922650432,72.51639011534674,81.5319160944257,77.1321196927621,69.22651368961903,77.06776539780924
1801.76,75.92890071897398,71.369708890357,81.7169010240599,77.72001964943976,69.85136365466894,77.32682737287487
1866.21,76.07765633807077,72.58506754459897,81.46061901834936,77.33194698184312,69.87955960007363,77.20106976043148
1930.66,75.96888610839093,71.66402814127888,80.51530309664395,77.0966344880398,69.64761686129984,76.57554085320528
2000.98,76.10084937299776,72.89430412783987,81.1214457269099,78.30422435237224,69.72235674935223,77.27112217319753
2071.29,76.65846132157849,75.52511155563334,81.59437505512093,79.59324091536057,70.45475678657014,78.17612182542648
2144.53,76.53713213340455,77.24722061510764,80.88901290589227,79.30641228935664,70.68094043034374,78.03128554357389
2217.77,77.37333463017558,77.59559396487046,80.07489534225428,78.88171930149733,71.02049397210305,77.83603885582505
2296.88,77.45260561296061,78.60100435521554,80.99863531935078,79.9687229635609,71.88496746036219,78.67649161643232
2378.91,77.42216497449985,80.05805991213737,81.99101347320287,80.67625995157165,72.45524688762191,79.53462579459057
2460.94,79.0873484295483,79.98411634214068,81.98881746039483,80.47484759436975,71.34315337104405,79.67493247255808
2548.83,79.93226973179549,80.56588979558498,82.0443695972503,80.60836041443078,71.68687341710782,80.01966831752434
2639.65,80.70378086190156,81.6953224914281,82.35058998043218,81.20844672068293,71.76312267951651,80.6762710445218
2733.4,81.70598295936226,81.8859643543452,82.25048470668742,81.35523835699185,71.62175763922573,80.94503134580266
2827.15,82.36079591107891,82.11111103192263,82.48050638692469,81.60161218046507,71.52247170419166,81.27521208543094
2926.76,83.00985699949675,81.60638615260527,82.4667487947597,81.53042994230998,71.53788263418143,81.32070039979872
3032.23,83.32268031928358,81.73404062993826,82.68119960755968,81.16174554127605,71.73417680513367,81.4299748618978
3137.7,83.27905231144965,81.24089554094492,83.17099884642424,81.42714103000682,71.187894778399,81.49483364017348
3249.02,83.37021397338637,81.45843204117911,82.91913849853572,81.2095818177076,71.60652289804119,81.45896937746187
3363.28,83.33023509353336,81.94023460927063,82.69204997664859,81.17179360502881,71.17701293026457,81.47098803989181
3483.4,83.11297590107138,82.24137488091608,83.19969789060745,81.15259576303728,71.26897361934805,81.61389166791596
3606.45,82.77583929285376,82.5563436419921,83.14604105960407,81.06147344081953,72.07292603092657,81.5823781925741
3732.42,82.17644388052867,82.83280044506711,83.01254909189616,81.75021629786019,72.99546675861663,81.62395931550516
3864.26,81.7279640472547,82.59248026619454,83.48419660785042,82.57875138430472,72.5539782334933,81.77633258848735
3999.02,82.42002229349283,82.78203733337043,83.51715382388534,82.9224476794301,72.58240892008473,82.05864058850757
4139.65,83.09661799631381,82.20906748406651,83.96137893041407,83.15373889104247,72.28817686292068,82.26825292844612
4286.13,83.10958256708895,82.95617441843007,84.14662285853265,83.24594536853752,72.32192251572614,82.50508602940549
4438.48,84.01634451816058,82.73593765841974,84.14599548952746,83.4043023582621,71.46700778051853,82.70762440055366
4593.75,84.17496039713237,82.98922319096448,84.35623946761852,82.66070603152387,71.58913826400287,82.70519434330427
4757.81,84.03144996896631,82.97480355377996,84.08004821000874,82.59185354717013,70.57926184949085,82.55418977258984
4924.8,84.75116761807594,83.03507450933004,84.27715169337243,81.9015327187818,70.82807779551062,82.71628281306093
5097.66,84.57176768915303,82.96264120887992,84.52128043744928,82.15848856383268,70.81906377304409,82.76015705003903
5279.3,84.33356771155034,82.73868402948625,84.4727770608143,81.59007481722765,70.12550399468435,82.52222252840403
5463.87,84.25997048659127,83.00428127943428,84.67678278700869,81.40656067159182,70.12963403809106,82.59357130110715
5657.23,83.53560470240909,82.73161528676917,84.17032134121882,81.40589310620052,69.71454936850594,82.15959617121464
5856.45,83.21797813165938,82.62452061629878,84.23852468519416,81.39809149055642,69.09184640860397,82.06425350325057
6061.52,83.2425061238936,82.35851745870029,84.62978454043713,81.18409119196053,68.37048613221671,82.10433883905202
6275.39,83.12198026338567,81.78410805045664,84.9685315141919,81.2297505533108,67.55438955526012,82.08647625870907
6498.05,83.6031078367842,81.34584025986192,84.95547165178925,81.34195587801551,67.67320487714352,82.15181875976111
6726.56,83.66138412695913,80.91548509359413,85.04071438234615,81.20883517720895,67.394749546589,82.1090853841667
6963.87,83.76383800150506,80.48090027990105,84.977311621456,81.00757233536619,67.43035516919728,82.01850237247353
7209.96,83.7575232725888,80.27362142495676,84.68115470792614,80.7160589007072,66.36742958086246,81.8193056401714
7464.84,83.62872933872433,80.30198389968922,84.41108814052069,80.34210257104877,65.68999967520531,81.61869493345337
7728.52,83.52214084942376,80.33657067454808,84.39261141429688,79.9593236802189,64.62901364618638,81.52288475885044
8000.98,83.5154778043617,80.2582404811299,84.73293220103743,79.79840251236837,63.848546456635574,81.61999628093469
8282.23,83.47210457986674,79.84932960330484,85.07511766670619,79.79381562662167,64.13316138857331,81.69514182705649
8575.2,83.43645900166587,79.16472566398457,85.02250753270276,79.47664744832306,64.29457307491623,81.537113883811
8876.95,83.34562928648248,78.35729437538936,84.6608914073088,78.78183980175531,63.90732592409299,81.17295013265075
9190.43,83.0570448009761,77.28631905532482,84.23275745640431,78.00547248431089,63.401042797349604,80.68987181853623
9512.7,82.73179697008649,76.93407314341961,84.08625246385014,77.45420026310498,62.794949575038686,80.4195719699373
9849.61,82.52689941861519,76.57769765895615,84.11542828959675,77.17145700920976,62.54570432955478,80.30434449222776
10195.3,82.25979234739115,76.11923135885206,84.19977194449218,77.0027337342581,62.10800512810778,80.20333313834037
10555.7,82.02185134392562,76.08096028414835,83.98231937378512,76.73592659833325,61.861187209874615,79.98881356314277
10927.7,81.64042581321246,76.38275895202028,83.37882624681946,75.98878934288273,60.550488125271,79.52239870449908
11314.5,81.19705930040838,76.76886626659304,82.74095466316417,74.81075922685386,59.65300160360265,79.013800546822
11712.9,80.48195996307315,76.18863359300985,82.33360518011929,73.81908729868775,59.661597870819094,78.44448953679354
12126.0,80.30382094668181,75.05833364278398,82.78705120759241,74.15850340131342,59.42323297641869,78.52728325969423
12553.7,80.28955660556224,74.33404623318089,82.98279924897176,74.8772977758444,59.626402918285024,78.62630657157774
12996.1,79.96428858458366,73.98354630867966,82.59014432440775,75.38718060971429,60.265596471109106,78.34289843829269
13453.1,79.55193462506787,73.42793774002341,82.15416780898902,76.01647839319449,61.607584947286796,78.03242114911878
13927.7,79.5797382896412,72.44958511721612,82.78027199069491,76.35618663276988,61.746237565025126,78.36001089526214
14419.9,79.77440096449563,70.8982053963184,84.00472578486321,76.01362156222845,60.899677630601744,79.02941963330821
14929.7,79.55623027208438,68.82014357019645,84.5873437993177,74.88714288273364,60.485043478262384,79.21583750501858
