Freq "Rear Wall Bounce"
20.5078 60.49939582895419
21.9727 62.19804923123564
23.4375 63.75995217151731
24.9023 65.13408866252036
26.3672 66.71161064760291
27.832 68.03700374431783
29.2969 69.33746744354794
30.7617 70.5834370282583
32.2266 71.76518980640208
33.6914 72.9732706348763
35.1562 73.98491253864366
36.6211 74.96932857625774
38.0859 75.91432897351856
39.5508 76.77934087821532
41.0156 77.48947878581588
42.4805 77.75738232358162
43.9453 78.43690898282935
45.4102 79.03501571491532
46.875 79.53151264033217
48.3398 79.96142083893591
51.2695 80.79279452255972
52.7344 81.15179234821936
54.1992 81.51137267050021
55.6641 81.83438304261884
58.5938 82.45665872671677
60.0586 82.6841079959311
62.9883 83.25005428700855
64.4531 83.49257776603181
67.3828 83.99329871238226
68.8477 84.22582180586289
71.7773 84.70324761781606
74.707 85.16865919967498
77.6367 85.56483029429262
79.1016 85.73915850162197
82.0312 86.13725591286517
84.9609 86.49733479969072
87.8906 86.83221494859671
90.8203 87.02761005618314
95.2148 87.41474159323757
98.1445 87.63570292575743
101.074 87.8057567022205
105.469 87.91098371529279
108.398 88.16507035452774
112.793 88.39340657099393
117.188 88.41676189570984
120.117 88.46944797052281
124.512 88.6847487276901
128.906 88.80789164253143
133.301 88.74825303746218
139.16 88.62547209839283
143.555 88.57683016303731
147.949 88.59507905655082
153.809 88.34174584235149
159.668 88.34841040156371
165.527 88.37855360623861
171.387 88.1792623784531
177.246 87.85435325542132
183.105 87.51834733072883
188.965 87.31381990480833
196.289 87.0898023009262
203.613 86.67828376157522
210.938 86.47452154222375
218.262 86.34791412260732
225.586 86.07974157700528
232.91 85.16075115810919
241.699 84.62009890784142
250.488 86.51195989470145
259.277 86.37926311167766
268.066 85.98669963748286
276.855 85.433741342301
287.109 85.40847182457397
297.363 85.10776954592033
307.617 84.81141263114516
319.336 84.35337509961687
329.59 83.85255451540978
341.309 84.06702836227592
353.027 83.50188466899417
366.211 83.2185905319752
379.395 83.12467237531145
392.578 83.2548892242547
405.762 82.87640031899683
420.41 82.37515728391548
435.059 82.5453304140342
451.172 82.34979440518717
465.82 82.2666556435774
483.398 82.33229185190284
499.512 82.08420272065085
517.09 82.47373615676638
536.133 82.32992925842285
555.176 81.9234721407133
574.219 82.56448113313155
594.727 82.65570041288194
615.234 82.22949233212151
637.207 82.9546567557398
659.18 81.61869262245432
682.617 82.17471395867426
707.52 82.39591547609069
732.422 81.82059397902889
757.324 82.31849566857218
785.156 82.07575220785527
811.523 81.58402975127996
840.82 80.60806894780026
870.117 80.96369840213015
900.879 80.12876908985345
933.105 80.71333873295706
965.332 79.38454326888095
1000.49 79.40509668526292
1035.64 78.54381907833307
1072.27 78.86966889759462
1108.89 78.0902974936613
1148.44 78.27899360457018
1189.45 78.45020338754934
1230.47 77.12484206696797
1274.41 77.60571223021914
1319.82 77.61690861185578
1366.7 77.8691243172967
1413.57 77.31222663341254
1463.38 76.43794009485151
1516.11 75.82475216049443
1568.85 75.27437748046512
1624.51 75.242499079635
1681.64 75.18201925168182
1741.7 74.93165070478462
1803.22 75.50037679747695
1866.21 74.57167520327813
1932.13 74.94568700840405
1999.51 74.6337959388818
2069.82 74.56296160926851
2143.07 74.79315939342177
2219.24 74.40340613718014
2296.88 74.12245494215094
2378.91 74.29669850609436
2462.4 74.73263484860952
2548.83 75.53967174352324
2639.65 75.52529185804917
2731.93 74.97132156084109
2828.61 74.9628539021648
2928.22 75.42917208718416
3030.76 75.59950334252721
3137.7 75.66720339913354
3249.02 75.85286353407864
3363.28 74.77534347288343
3481.93 74.8601727122117
3604.98 75.0589765791718
3732.42 75.30931909712406
3864.26 75.61998778880513
4000.49 75.60926788530625
4141.11 76.61369009987324
4287.6 77.00727886043417
4438.48 76.95023135583902
4595.21 76.34051577079624
4756.35 77.18380460621204
4924.8 76.77004397096727
5097.66 77.0766239046288
5277.83 76.09596187810274
5463.87 75.65131445913389
5657.23 75.33871729707027
5856.45 74.35915822976042
6062.99 74.06652726748257
6276.86 73.28835059439768
6498.05 73.04063533344232
6726.56 73.40572554180864
6963.87 73.20787359500716
7209.96 73.02536711136807
7464.84 71.50989561258126
7727.05 72.09579320395821
7999.51 72.24607984738375
8282.23 71.6650974574093
8573.73 71.5311108715218
8876.95 71.67538696152528
9188.96 71.33934467800556
9514.16 71.15376423098613
9849.61 69.64933880941301
10196.8 68.23066024177282
10555.7 66.21885328681398
10927.7 63.763074597948815
11313.0 62.16085666980669
11712.9 62.64070045929955
12126.0 61.88790350721908
12553.7 57.92607596862908
12996.1 56.418707444324156
13454.6 58.58952903661438
13929.2 61.762960945558376
14419.9 63.12499118620431
14928.2 63.24831953280767
15455.6 62.683112036367845
16000.5 63.085995116319225
16564.5 59.304541216422024
17148.9 54.073000661512395
17752.4 57.12845869412527
18379.4 57.490400117834014
19026.9 56.621940428444105
19697.8 54.37811744481158
19999.5 53.9510389537416
