Freq "Rear Wall Bounce"
22.4 4.798767314102818
23.0 5.055441125506334
23.6 5.879808678201883
24.0 7.45544112550634
25.0 9.416514762144587
25.8 11.428683499249999
26.5 13.164576297951143
27.2 14.545903391928093
28.0 15.673119693374716
29.0 16.936338550599103
30.0 18.83633855059911
30.7 21.661886332815968
31.5 24.721711715761202
32.5 27.19759161925022
33.5 29.01336348637581
34.5 30.49733252363025
35.5 31.747763786765645
36.5 32.94171341448187
37.5 34.04171341448189
38.7 34.86850152178043
40.0 35.495743616347355
41.2 36.24438560962771
42.5 38.299711336495065
43.7 41.0908434036012
45.0 43.075139322233
46.2 43.929520953484925
47.5 44.7474875266672
48.7 46.266677207379146
50.0 48.10619249241681
51.5 49.94726391941329
53.0 51.8082285166182
54.5 53.597339027687084
56.0 55.20538813824295
58.0 56.49994324466802
60.0 58.19923243964034
61.5 60.398047087112374
63.0 62.67059415901433
65.0 64.87059415901435
67.0 67.08034438936888
69.0 69.23303145504254
71.0 71.00689439579155
73.0 72.17536406642353
75.0 72.80714202932249
77.5 73.38630872540709
80.0 74.09747983830351
82.5 74.30812141103566
85.0 74.41443042702973
87.5 74.71443042702973
90.0 74.8839117297417
92.5 75.09561506154047
95.0 75.59112979309101
97.5 75.98092784740909
100.0 76.23514874988453
103.0 76.5562450464479
106.0 76.48294626863175
109.0 76.64619509682682
112.0 77.16829703596635
115.0 76.87951451561975
118.0 75.91747113460424
122.0 75.76928521594412
125.0 76.90635139176052
128.0 77.52761576238805
132.0 76.91772980767837
136.0 76.6400295290083
140.0 76.8063513917605
145.0 76.7400295290083
150.0 77.11626325183161
155.0 77.5748114267388
160.0 77.5748114267388
165.0 77.03108875481736
170.0 76.89498832424927
175.0 77.72002073153801
180.0 78.12002073153802
185.0 77.97580573057759
190.0 78.44525331302056
195.0 78.86839933850835
200.0 78.31145002533592
206.0 77.79405674400631
212.0 77.52039157310273
218.0 77.22039157310273
224.0 76.86819693834971
230.0 76.45215099976473
236.0 76.05408402885608
240.0 75.8606603518894
250.0 76.06000108983967
258.0 76.28979097426965
265.0 76.44705626078861
272.0 76.3606861075482
280.0 76.2628075850355
290.0 76.21329472081058
300.0 75.97031298924989
307.0 75.59686404579519
315.0 75.19092521648972
325.0 74.80956396105957
335.0 74.39512148160675
345.0 73.89225367656901
355.0 73.41426661976452
365.0 73.08074060029932
375.0 72.66246258350537
387.0 72.15306523699087
400.0 71.60224003780657
412.0 71.07624762071902
425.0 70.65387146199102
437.0 70.32556702412701
450.0 70.18586816950051
462.0 70.09354287436484
475.0 69.95222044740659
487.0 69.87997047158373
500.0 69.79778666171153
515.0 69.7746198539292
530.0 69.7540794731215
545.0 69.71665869152966
560.0 69.6444870269573
580.0 69.60172509766643
600.0 69.44711680787321
615.0 69.23611879986669
630.0 68.91598491185086
650.0 68.48278969373881
670.0 67.86658650427839
690.0 67.12843654257881
710.0 66.1748805735335
730.0 65.07652632976121
750.0 63.7984643441179
775.0 62.4850468238637
800.0 61.389289935904586
825.0 60.55287648913439
850.0 60.05676477903529
875.0 59.73820144817731
900.0 59.299808026180415
925.0 58.54427727625236
950.0 57.370838181479925
975.0 55.68803846015571
1000.0 53.67956056258048
1030.0 51.62178486869432
1060.0 50.22450164286032
1090.0 49.85194527315632
1120.0 50.32860477231817
1150.0 51.41260950688714
1180.0 52.98622736426792
1220.0 54.63593711502914
1250.0 56.315795794546986
1280.0 57.899530533472344
1320.0 59.47486002188357
1360.0 60.82935477777151
1400.0 61.985149079715455
1450.0 62.80752900884575
1500.0 63.41091940831342
1550.0 63.7320602378188
1600.0 63.88762307591918
1650.0 63.90119098580915
1700.0 63.843756919357375
1750.0 63.6862535101274
1800.0 63.26789509525037
1850.0 62.55200608195966
1900.0 61.641279994380525
1950.0 60.61250465921985
2000.0 59.48169292938756
2060.0 58.73941913655794
2120.0 58.58199874074701
2180.0 58.6238419101455
2240.0 58.70747704675033
2300.0 59.0582839023989
2360.0 59.622492833897994
2400.0 59.87525701223355
2500.0 59.49748416947551
2580.0 58.60943502224514
2650.0 58.11682499491842
2720.0 58.01133711912493
2800.0 57.76991158256729
2900.0 57.40799823676333
3000.0 57.0722836809603
3070.0 56.49128999013867
3150.0 55.86690390051929
3250.0 55.41824078585911
3350.0 55.086949171835656
3450.0 55.0613907543309
3550.0 55.68347981552138
3650.0 56.54949609053834
3750.0 57.43822230471106
3870.0 57.96908844261897
4000.0 57.733430111168104
4120.0 57.17306089839472
4250.0 56.71035851492532
4370.0 56.06976070853874
4500.0 55.26923163961307
4620.0 54.508350805212345
4750.0 54.14334295841361
4870.0 54.188924097595745
5000.0 54.4182376214293
5150.0 54.3062266805416
5300.0 53.57568882625351
5450.0 53.198488109826386
5600.0 53.56470631148743
5800.0 53.96186817737093
6000.0 54.05645385944321
6150.0 54.04141443436747
6300.0 54.14611826305374
6500.0 54.268589842587474
6700.0 54.070547397581194
6900.0 53.233249478723295
7100.0 52.33834083410507
7300.0 52.08166292381763
7500.0 51.9579076928223
7750.0 51.57160072519001
8000.0 51.145820555722636
8250.0 50.618865564438224
8500.0 50.75997464688781
8750.0 52.05418847938721
9000.0 52.85663290220977
9250.0 52.66068612903247
9500.0 51.6067921548307
9750.0 51.80602029012489
10000.0 52.21261945351414
10300.0 51.59861303104056
10600.0 51.94688484055125
10900.0 51.79457403452999
11200.0 50.031911712153615
11500.0 49.66087798724705
11800.0 50.50419619463075
12200.0 50.02118005387216
12500.0 48.88785523065478
12800.0 48.12774869102809
13200.0 47.906150158707405
13600.0 48.15272306937557
14000.0 47.027183428998526
14500.0 44.834642385187024
15000.0 44.59322925957797
15500.0 44.64532728080236
16000.0 43.760547362354274
16500.0 42.48748336699596
17000.0 38.97088202143475
17500.0 34.28053648002792
18000.0 33.23490725619554
18500.0 29.959797074444495
19000.0 28.570520091870648
19500.0 31.517026355537112
