Freq "On Axis"
22.4 -14.299999999999983
23.0 -12.299999999999983
23.6 -10.299999999999983
24.0 -8.200000000000017
25.0 -5.999999999999972
25.8 -3.5999999999999943
26.5 -1.0999999999999943
27.2 1.5000000000000284
28.0 4.099999999999994
29.0 6.700000000000017
30.0 9.200000000000017
30.7 11.700000000000017
31.5 14.099999999999994
32.5 16.299999999999983
33.5 18.5
34.5 20.5
35.5 22.5
36.5 24.5
37.5 26.299999999999983
38.7 28.200000000000017
40.0 29.900000000000006
41.2 31.599999999999994
42.5 33.400000000000006
43.7 35.0
45.0 36.599999999999994
46.2 38.20000000000002
47.5 39.79999999999998
48.7 41.29999999999998
50.0 42.79999999999998
51.5 44.29999999999998
53.0 45.79999999999998
54.5 47.3
56.0 48.7
58.0 50.099999999999994
60.0 51.5
61.5 52.80000000000001
63.0 54.099999999999994
65.0 55.400000000000006
67.0 56.70000000000002
69.0 57.900000000000006
71.0 59.099999999999994
73.0 60.30000000000001
75.0 61.400000000000006
77.5 62.599999999999994
80.0 63.7
82.5 64.8
85.0 65.9
87.5 66.9
90.0 67.80000000000001
92.5 68.6
95.0 69.20000000000002
97.5 69.8
100.0 70.2
103.0 70.5
106.0 70.69999999999999
109.0 70.9
112.0 71.0
115.0 71.1
118.0 71.1
122.0 71.2
125.0 71.2
128.0 71.3
132.0 71.3
136.0 71.4
140.0 71.4
145.0 71.4
150.0 71.4
155.0 71.4
160.0 71.4
165.0 71.4
170.0 71.4
175.0 71.4
180.0 71.4
185.0 71.3
190.0 71.3
195.0 71.3
200.0 71.2
206.0 71.2
212.0 71.2
218.0 71.2
224.0 71.1
230.0 71.0
236.0 70.9
240.0 70.9
250.0 71.0
258.0 71.0
265.0 71.0
272.0 71.1
280.0 71.1
290.0 71.2
300.0 71.2
307.0 71.2
315.0 71.1
325.0 71.2
335.0 71.2
345.0 71.3
355.0 71.3
365.0 71.3
375.0 71.2
387.0 71.2
400.0 71.1
412.0 71.1
425.0 71.1
437.0 71.0
450.0 71.1
462.0 71.1
475.0 71.1
487.0 71.1
500.0 71.1
515.0 71.0
530.0 71.0
545.0 71.0
560.0 70.9
580.0 70.8
600.0 70.8
615.0 70.8
630.0 70.8
650.0 70.9
670.0 70.9
690.0 70.8
710.0 70.8
730.0 70.69999999999999
750.0 70.8
775.0 70.9
800.0 71.0
825.0 71.1
850.0 71.0
875.0 70.8
900.0 70.5
925.0 70.2
950.0 70.0
975.0 69.7
1000.0 69.20000000000002
1030.0 68.9
1060.0 69.0
1090.0 69.29999999999998
1120.0 69.6
1150.0 69.4
1180.0 69.1
1220.0 69.0
1250.0 69.20000000000002
1280.0 69.4
1320.0 69.6
1360.0 69.6
1400.0 69.6
1450.0 69.5
1500.0 69.29999999999998
1550.0 69.0
1600.0 68.6
1650.0 68.3
1700.0 68.0
1750.0 67.80000000000001
1800.0 67.7
1850.0 67.80000000000001
1900.0 67.9
1950.0 68.19999999999999
2000.0 68.6
2060.0 69.0
2120.0 69.4
2180.0 69.7
2240.0 69.9
2300.0 70.0
2360.0 70.1
2400.0 70.1
2500.0 70.2
2580.0 70.2
2650.0 70.1
2720.0 70.0
2800.0 70.0
2900.0 70.0
3000.0 70.0
3070.0 70.1
3150.0 70.2
3250.0 70.2
3350.0 70.2
3450.0 70.2
3550.0 70.1
3650.0 70.0
3750.0 70.0
3870.0 69.9
4000.0 69.9
4120.0 69.9
4250.0 70.0
4370.0 70.1
4500.0 70.0
4620.0 69.8
4750.0 69.29999999999998
4870.0 68.7
5000.0 68.1
5150.0 68.0
5300.0 68.3
5450.0 68.5
5600.0 68.4
5800.0 68.19999999999999
6000.0 68.0
6150.0 67.80000000000001
6300.0 67.80000000000001
6500.0 67.9
6700.0 68.19999999999999
6900.0 68.4
7100.0 68.4
7300.0 68.19999999999999
7500.0 67.80000000000001
7750.0 67.5
8000.0 67.3
8250.0 67.0
8500.0 66.5
8750.0 65.8
9000.0 64.9
9250.0 63.7
9500.0 62.400000000000006
9750.0 61.2
10000.0 60.599999999999994
10300.0 61.5
10600.0 63.5
10900.0 65.2
11200.0 66.1
11500.0 66.3
11800.0 66.2
12200.0 66.0
12500.0 65.9
12800.0 65.4
13200.0 64.6
13600.0 63.599999999999994
14000.0 62.599999999999994
14500.0 61.400000000000006
15000.0 60.0
15500.0 57.80000000000001
16000.0 55.400000000000006
16500.0 54.400000000000006
17000.0 55.2
17500.0 56.0
18000.0 56.099999999999994
18500.0 55.599999999999994
19000.0 54.599999999999994
19500.0 53.3
