Freq "Side Wall Bounce"
20.5078 52.373149455726306
21.9727 54.93810688072416
23.4375 56.45686972863682
24.9023 58.12130041228532
26.3672 58.84048088936804
27.832 60.60624101938251
29.2969 61.50565378496124
30.7617 62.951959256515764
32.2266 63.87138200914971
33.6914 64.7653551318004
35.1563 65.7220508496467
36.6211 66.42128179954247
38.0859 67.23196507049055
39.5508 67.92974400810843
41.0156 68.70732819419217
42.4805 69.38503300493736
43.9453 70.02749657041987
45.4102 70.65075923966754
46.875 71.24928474684359
48.3398 71.86851405565461
51.2695 73.06264029203744
52.7344 73.66586896719573
54.1992 74.24243826946785
55.6641 74.75191002528176
58.5938 75.82994642948188
60.0586 76.33323378541951
62.9883 77.39094487547423
64.4531 77.87390580562361
67.3828 78.89144446848476
68.8477 79.35276916485705
71.7773 80.26891191389487
74.707 81.12579411665074
77.6367 81.81721659965115
79.1016 82.17510497498746
82.0313 82.88377515038718
84.9609 83.4296895993114
87.8906 83.73552759871956
90.8203 83.50473732609701
95.2148 84.13503064060882
98.1445 83.8568294950435
101.074 83.619419856901
105.469 83.33960766350194
108.398 83.1265782903768
112.793 82.79079186237816
117.188 82.36056428499998
120.117 82.15622727427984
124.512 81.56296239512044
128.906 81.10899209324137
133.301 80.65775587549993
139.16 80.09204276378863
143.555 79.81601419910747
147.949 79.69002061209493
153.809 79.77371907413897
159.668 80.10062896084598
165.527 80.24299955255671
171.387 80.26412409964546
177.246 80.33391917001188
183.105 80.19614558778049
188.965 80.11495567560763
196.289 80.13058615100113
203.613 79.74566608249926
210.938 79.42389231867968
218.262 79.30569326531943
225.586 79.26259161768007
232.91 79.60500571613863
241.699 80.32541528342257
250.488 81.3051446818997
259.277 82.33984058641344
268.066 82.72364396622284
276.855 83.18604911448473
287.109 83.47283400262782
297.363 83.36731519935176
307.617 83.61665322579789
319.336 83.37560100490803
329.59 83.443212926707
341.309 82.94009576443906
353.027 82.5934169029886
366.211 82.63241724394496
379.395 82.51947449025246
392.578 81.16766110304472
405.762 79.85034508498117
420.41 80.08304398173861
435.059 79.90450617336693
451.172 80.33833458858491
465.82 80.65896122572592
483.398 81.00456563929619
499.512 81.59322911173051
517.09 82.12058668452674
536.133 81.38728332107577
555.176 82.01158446297634
574.219 81.51757749769494
594.727 80.94832267096726
615.234 81.14955414313427
637.207 81.95560708248787
659.18 81.75721741738407
682.617 81.65469559817458
707.52 81.24382799521014
732.422 80.54045369889694
757.324 80.28322684332345
785.156 80.70758706386252
811.523 80.67300822915651
840.82 80.66109027095479
870.117 80.45907801304647
900.879 80.39446584321988
933.105 80.59571416633271
965.332 80.46944873548787
1000.49 80.26608092123861
1035.64 79.78714068470788
1072.27 79.72307227999976
1108.89 79.51292608130808
1148.44 79.69740147165534
1189.45 79.62498271941284
1230.47 79.49899250285378
1274.41 78.85288203463367
1319.82 77.95359900297599
1366.7 77.02097512830956
1413.57 76.40021873171368
1463.38 76.56846519660697
1516.11 77.08621626158465
1568.85 77.44805755802149
1624.51 76.79527344617692
1681.64 76.15050760057419
1741.7 76.0337593216792
1803.22 76.54080558789583
1866.21 76.74759439611803
1932.13 76.27081812891831
1999.51 76.64528336029072
2069.82 77.82401215886244
2143.07 77.88334679375913
2219.24 76.92699094687451
2296.88 77.68653329106095
2378.91 78.84277075183677
2462.4 78.57661889256234
2548.83 78.16010803184052
2639.65 78.55715723209543
2731.93 79.02045430052402
2828.61 79.08213624504022
2928.22 79.30920504481236
3030.76 79.21934598715974
3137.7 79.42171642501587
3249.02 79.53197013899589
3363.28 79.71124367743899
3481.93 79.63777250786899
3604.98 79.820009463668
3732.42 80.06863856902784
3864.26 80.19188419198882
4000.49 80.35481006677192
4141.11 80.5850944238659
4287.6 80.50386545341281
4438.48 81.35383939366493
4595.21 81.42238341256216
4756.35 81.50139147723537
4924.8 81.35006793583402
5097.66 81.48818848456027
5277.83 81.44744234318955
5463.87 80.72363449275137
5657.23 80.69050542784389
5856.45 80.47034794523792
6062.99 80.74540100320165
6276.86 81.00900641573341
6498.05 81.03578832426385
6726.56 80.91682366745124
6963.87 80.36175752211331
7209.96 79.7561730880868
7464.84 79.23327926259134
7727.05 79.01306344706177
7999.51 79.14020815511098
8282.23 79.47256127519297
8573.73 79.66042575389716
8876.95 79.17796477839194
9188.96 78.59814566117174
9514.16 78.25190476526075
9849.61 77.96614654838179
10196.8 77.79549359828614
10555.7 77.76094731679558
10927.7 77.59720325610077
11313.0 77.41506354435282
11712.9 77.05883188320182
12126.0 76.67569828036193
12553.7 76.6448993258358
12996.1 76.12808747314976
13454.6 75.17994039105238
13929.2 74.1139366548137
14419.9 72.71741304362102
14928.2 72.02710372158884
15455.6 72.06376521278699
16000.5 70.19440519757951
16564.5 69.87956678939759
17148.9 69.3133860277456
17752.4 68.97010237015267
18379.4 68.81061779720929
19026.9 68.23398677552753
19697.8 68.462238219699
19999.5 68.0949781614065
