Freq "Ceiling Bounce"
20.5078 56.29639076409133
21.9727 63.20934380149389
23.4375 66.12671417862195
24.9023 68.3800565234853
26.3672 70.60115414249815
27.832 72.24777180199843
29.2969 73.28331566222528
30.7617 75.77126564565357
32.2266 77.11337974497309
33.6914 78.48366620809149
35.1562 80.11667579574817
36.6211 81.30225999137284
38.0859 81.45030565880255
39.5508 81.88927673499906
41.0156 82.8215571863507
42.4805 83.18571667839831
43.9453 83.49065167387174
45.4102 83.63999885725495
46.875 83.87650914898106
48.3398 84.02049832784289
51.2695 84.00593989760962
52.7344 84.26559528191396
54.1992 84.78647207040906
55.6641 84.61161465808846
58.5938 84.42210014397072
60.0586 84.63723434813235
62.9883 84.64237999848571
64.4531 84.63814277192496
67.3828 84.84553612439542
68.8477 84.95373027850407
71.7773 85.15990991809608
74.707 85.30231402012718
77.6367 85.417979164639
79.1016 85.51662118170616
82.0312 85.70645879698415
84.9609 85.69387832865087
87.8906 85.84612580517802
90.8203 85.87049908379495
95.2148 86.25551174992962
98.1445 86.53591101236977
101.074 86.28598545223512
105.469 86.26878509670884
108.398 86.45483167626868
112.793 86.54004490341808
117.188 86.52592448176611
120.117 86.71428396429356
124.512 86.67180842703067
128.906 86.80256759363586
133.301 86.79171373955357
139.16 86.47454072279201
143.555 86.36928989851715
147.949 86.58671645845756
153.809 86.43851589465027
159.668 86.51778626769679
165.527 86.4663201889062
171.387 86.22134883838696
177.246 86.02152210758832
183.105 85.94148893053816
188.965 85.9684572377024
196.289 86.29847680496357
203.613 86.13041518435273
210.938 86.12646020234688
218.262 85.73168212167984
225.586 85.82180961000763
232.91 85.47323806258517
241.699 84.84378983652043
250.488 85.59251506830252
259.277 85.92564544242644
268.066 85.52953055861093
276.855 85.73637242348305
287.109 85.97443676910468
297.363 86.53812703859576
307.617 86.04340225852906
319.336 86.27136792553414
329.59 86.60640885496888
341.309 86.5853769863915
353.027 86.81472457761963
366.211 87.54124342024281
379.395 87.54781942270743
392.578 87.09141512882373
405.762 86.4618299279812
420.41 87.20812775659296
435.059 86.84960338214078
451.172 86.29890010351001
465.82 86.24342498685623
483.398 85.00776162593942
499.512 84.42313487106388
517.09 84.4682226443899
536.133 84.90485127641114
555.176 86.05045538720482
574.219 86.78540753162031
594.727 87.86463919068356
615.234 90.09777057808398
637.207 90.0415336059318
659.18 90.02019280487394
682.617 89.76038383495461
707.52 88.25102910715258
732.422 87.64860626348343
757.324 87.74306702400023
785.156 91.3588485424102
811.523 92.7474922661409
840.82 91.77622147821042
870.117 92.28048692744424
900.879 92.07345790318666
933.105 90.02357958398004
965.332 89.90802960183619
1000.49 88.94174557610926
1035.64 88.54829896312943
1072.27 88.38684056787937
1108.89 87.83202873448876
1148.44 88.05339905154197
1189.45 88.76406357940233
1230.47 87.38377437383754
1274.41 85.61941546881042
1319.82 86.01675886402089
1366.7 84.59285544090098
1413.57 83.64672298015509
1463.38 82.0457167655801
1516.11 80.81123615234566
1568.85 79.77508765738285
1624.51 78.1731787941215
1681.64 76.86042373799486
1741.7 77.99167142630647
1803.22 76.9342826060365
1866.21 75.99253502676126
1932.13 78.12594775709445
1999.51 78.33433427185773
2069.82 78.9101207698469
2143.07 79.8887287116659
2219.24 80.73557253596805
2296.88 81.36554195168758
2378.91 81.89626579918674
2462.4 83.49508874554911
2548.83 85.11810467266143
2639.65 84.22905282240366
2731.93 82.4119703031722
2828.61 82.22255634741977
2928.22 82.29282673575628
3030.76 82.3886166254486
3137.7 82.59051726317786
3249.02 82.56846181856505
3363.28 82.51742274899375
3481.93 82.01747308710969
3604.98 82.57504647260156
3732.42 81.98656258432096
3864.26 81.92791704459398
4000.49 81.29431391627737
4141.11 81.70064959291965
4287.6 81.38038546248592
4438.48 81.73706244091265
4595.21 80.92949169529196
4756.35 81.30338952267174
4924.8 80.997669387139
5097.66 81.21005652747372
5277.83 81.34898843679434
5463.87 81.1778548694116
5657.23 82.07002632943566
5856.45 82.22856223158948
6062.99 82.01049487321309
6276.86 82.165255372008
6498.05 81.96490148485101
6726.56 81.63375551541542
6963.87 81.85415979878908
7209.96 81.68901483018612
7464.84 81.45201822588818
7727.05 81.10285981604294
7999.51 80.62141146971474
8282.23 80.64452734426074
8573.73 80.47851494309793
8876.95 80.31930939819749
9188.96 79.65093874346765
9514.16 78.89677541452724
9849.61 78.85279866354128
10196.8 78.59593087228147
10555.7 78.1124277165262
10927.7 77.82770784590167
11313.0 79.55058581986589
11712.9 80.71116817216931
12126.0 80.05046363034018
12553.7 77.91170063757879
12996.1 79.21423341007248
13454.6 81.0232526233033
13929.2 82.06310062791361
14419.9 81.27021530916166
14928.2 79.36967342098447
15455.6 77.18763248812766
16000.5 75.73156565553408
16564.5 75.95817538863149
17148.9 75.5124141801394
17752.4 74.0216333600539
18379.4 71.60784544007309
19026.9 69.34728398237958
19697.8 62.310209546559335
19999.5 53.71365119784103
