Freq "Estimated In-Room Response"
20.0 36.48358862949209
20.2909 36.09055110396491
20.586 35.62228332712721
20.8855 35.20007692671675
21.1893 35.19021980812303
21.4975 35.69075541191529
21.8102 36.490221821258814
22.1274 37.342053871923895
22.4492 38.01966100967576
22.7758 38.386520800063636
23.1071 38.41244620129933
23.4432 38.1779612212201
23.7841 37.957392851982945
24.1301 38.161080830992745
24.4811 38.9162824445703
24.8372 39.961485153228864
25.1984 40.95208655628002
25.5649 41.676267344754876
25.9368 42.07888025761659
26.3141 42.224631017011234
26.6968 42.26757384615499
27.0851 42.39823626749143
27.4791 42.75098741450981
27.8788 43.29356266393802
28.2843 43.904631293999984
28.6957 44.508436294761395
29.1131 45.08629973379138
29.5365 45.64326815162863
29.9661 46.1719303528225
30.402 46.652499446156895
30.8442 47.08126892759327
31.2929 47.5217452142582
31.748 48.03711555212442
32.2098 48.64679027374052
32.6783 49.296823592488835
33.1536 49.90212690905955
33.6359 50.43834669550196
34.1251 50.94049846376225
34.6215 51.4702364445092
35.125 52.03924611961074
35.6359 52.61336575525138
36.1543 53.15997713017168
36.6802 53.68560042978021
37.2137 54.22466359126082
37.755 54.78664216889513
38.3041 55.35089703572652
38.8613 55.897478706449945
39.4265 56.43674501287289
40.0 56.98745744228755
40.5818 57.54335038009228
41.1721 58.07185896482228
41.771 58.56228565456648
42.3785 59.032327960131425
42.9949 59.50517378324493
43.6203 59.98675647668307
44.2548 60.47983711462743
44.8985 60.99968376489605
45.5515 61.53719510620425
46.2141 62.05461835793709
46.8863 62.539607667186715
47.5683 63.03917006821382
48.2602 63.5685469622064
48.9621 64.06677248537628
49.6743 64.49752990017818
50.3968 64.92100700025108
51.1299 65.38922528868082
51.8736 65.86792992415619
52.6281 66.3203053798585
53.3936 66.76473212384404
54.1702 67.20935481915748
54.9581 67.63587268454773
55.7575 68.04287166863946
56.5685 68.43385748665702
57.3914 68.79364097155783
58.2261 69.11887408193789
59.073 69.42327673775787
59.9323 69.71721427552467
60.804 70.02777536030402
61.6884 70.369169496738
62.5857 70.71226401693497
63.496 71.04146645207418
64.4196 71.36928221969309
65.3566 71.68617773009612
66.3073 71.96971579328621
67.2717 72.2451958543826
68.2502 72.55597291813773
69.2429 72.8869265218658
70.2501 73.21811488649374
71.2719 73.55536439265232
72.3086 73.89999437177964
73.3603 74.23480184478838
74.4274 74.53699626357064
75.5099 74.81965155142764
76.6083 75.08816110114311
77.7226 75.34765732035731
78.8531 75.64043454468948
80.0 75.95167323345899
81.1636 76.26905190357843
82.3442 76.58638934870577
83.5419 76.88192417151112
84.757 77.14545957925637
85.9899 77.38870422496643
87.2406 77.6153283403824
88.5096 77.83568026244282
89.797 78.0352628506564
91.1031 78.11687156570147
92.4282 78.13645851956602
93.7726 78.221061636601
95.1366 78.34908423441186
96.5204 78.50405883752326
97.9243 78.74296649068103
99.3486 79.00316195228712
100.794 79.23873143261838
102.26 79.4426285788262
103.747 79.65709614526735
105.256 79.81590858029699
106.787 79.95710468823356
108.34 80.126384402584
109.916 80.3054633309203
111.515 80.45134402456904
113.137 80.53388710816466
114.783 80.60721455396448
116.452 80.65374960710652
118.146 80.69138502109628
119.865 80.73804715959795
121.608 80.78897073199298
123.377 80.82352839204307
125.171 80.83524596346764
126.992 80.82741630438501
128.839 80.82425891910594
130.713 80.82301006858454
132.615 80.78942667316582
134.543 80.71665128501452
136.5 80.67036129418128
138.486 80.62051263005051
140.5 80.60041699845272
142.544 80.62807642537976
144.617 80.53478047860867
146.721 80.43664315245915
148.855 80.4423504986138
151.02 80.49482614298343
153.217 80.3302565894281
155.445 79.96745855200093
157.706 79.80801535315834
160.0 79.707757278391
162.327 79.65375631728472
164.688 79.72255634081995
167.084 79.91119943126586
169.514 79.83879671432479
171.98 79.56772661928152
174.481 79.41257159783534
177.019 79.36370799145718
179.594 79.04201136102628
182.206 78.62232061559425
184.856 78.61322933114056
187.545 78.66492814679619
190.273 78.48114096884541
193.041 78.3802704300117
195.849 78.39722636786252
198.697 78.28150416451878
201.587 78.04706162453937
204.52 78.00245785599445
207.494 78.07224816531652
210.512 78.24751168911563
213.574 78.113245093328
216.681 77.81914049470541
219.833 77.84810741599732
223.03 77.94001022629375
226.274 78.02490589084903
229.565 77.93143014934277
232.905 77.7218926048137
236.292 77.37651081661998
239.729 77.44325766064179
243.216 77.63678059357939
246.754 77.81636201701279
250.343 77.70354881219036
253.984 77.58830041646571
257.678 77.43376137995075
261.426 77.14902840848663
265.229 77.13608447942734
269.087 77.17110563104936
273.001 77.07093486018717
276.972 76.85400651866664
281.0 76.81687620832267
285.088 77.09031021633712
289.234 77.42237103875897
293.441 77.59268788101372
297.709 77.31082878893383
302.04 77.07448426664139
306.433 76.7485827631179
310.89 76.58659571387369
315.412 76.44293123914474
320.0 76.4732379818791
324.655 76.54898432886584
329.377 76.71724455952778
334.168 76.74089481885326
339.028 76.72120770871994
343.959 76.24689455518953
348.962 76.11347764602144
354.038 76.02577043060722
359.188 76.13298072568692
364.412 76.01229107766662
369.713 75.77442696604868
375.09 75.77194833307185
380.546 75.67537338570861
386.081 75.63502446099568
391.697 75.47534632026563
397.394 75.38034448262168
403.175 75.13106641749403
409.039 74.97139967321867
414.989 74.81284904794546
421.025 74.68342520766797
427.149 74.44407188597003
433.362 74.23819039375535
439.665 73.99781693940409
446.06 73.71008523081743
452.548 73.40617465914858
459.131 73.12850674159067
465.809 72.89202545284772
472.584 72.66022785516549
479.458 72.47650855407377
486.432 72.2979905012691
493.507 72.17732482555445
500.686 72.0469396368606
507.968 71.95224233749121
515.357 71.92722726271451
522.853 71.96130738541945
530.458 72.03794754324761
538.174 72.14461122732729
546.002 72.27866983971325
553.943 72.43290149602477
562.001 72.59795114491838
570.175 72.76816291492754
578.469 72.93533424704196
586.883 73.0914509096545
595.419 73.23290269145178
604.08 73.35973457035365
612.866 73.4697986096342
621.78 73.56134652918749
630.824 73.63350603304286
640.0 73.68543307998128
649.309 73.71871431158425
658.753 73.7362469798118
668.335 73.73983803884737
678.056 73.732453877995
687.919 73.71753568824539
697.925 73.69928259971203
708.077 73.68198674382609
718.376 73.66983395911167
728.825 73.66625681450184
739.426 73.67463014342334
750.181 73.6968115948267
761.093 73.73411014347288
772.163 73.7846927222532
783.394 73.84716351840083
794.789 73.91975104446156
806.349 73.9957697164265
818.078 74.07216933758684
829.977 74.14326505469646
842.05 74.20488435940062
854.298 74.25272456575553
866.724 74.28225708608765
879.33 74.29185141973568
892.12 74.27842562395085
905.097 74.24078052042046
918.262 74.17838393255192
931.618 74.09189528226649
945.169 73.98280902143388
958.917 73.85331629741256
972.864 73.70706610799294
987.015 73.54798616769192
1001.37 73.37503105825103
1015.94 73.20239735752143
1030.71 73.03907336475018
1045.71 72.88790011673187
1060.92 72.75692758138092
1076.35 72.65682573520654
1092.0 72.59142862191376
1107.89 72.56415641582615
1124.0 72.57552717713438
1140.35 72.62263180612166
1156.94 72.70006650718983
1173.77 72.79824695109615
1190.84 72.9066798727096
1208.16 73.01436080458254
1225.73 73.11245150268762
1243.56 73.19170393050673
1261.65 73.24483094085774
1280.0 73.26869626452034
1298.62 73.26291812302284
1317.51 73.22989854836167
1336.67 73.1749516154819
1356.11 73.10659863668297
1375.84 73.03329684600834
1395.85 72.96407010422121
1416.15 72.90607184957034
1436.75 72.86207273203581
1457.65 72.83002564893964
1478.85 72.80398971035108
1500.36 72.77600262491805
1522.19 72.73829681546314
1544.33 72.68522268161813
1566.79 72.61651881480563
1589.58 72.5385083852883
1612.7 72.46374126129298
1636.16 72.40695703879065
1659.95 72.38195701609021
1684.1 72.39676725195831
1708.6 72.44864732838386
1733.45 72.5232340082348
1758.66 72.60150849026127
1784.24 72.66076231028609
1810.19 72.68592608759401
1836.52 72.67152726895874
1863.24 72.62427796001803
1890.34 72.56068624015332
1917.83 72.50307554839874
1945.73 72.47050696454534
1974.03 72.46976192288383
2002.74 72.49304578207193
2031.87 72.5222560164617
2061.43 72.5384235456683
2091.41 72.53111174939349
2121.83 72.50580199165165
2152.69 72.47905338396697
2184.01 72.47027624873328
2215.77 72.48815012484347
2248.0 72.52518933732917
2280.7 72.5593867722743
2313.87 72.56626874543234
2347.53 72.5320565949716
2381.68 72.45742256192624
2416.32 72.35701625936183
2451.46 72.24787620729417
2487.12 72.1395412047739
2523.3 72.0300479967356
2560.0 71.91328251541852
2597.24 71.78739010216209
2635.01 71.65844886388271
2673.34 71.53877107454848
2712.23 71.43453520916555
2751.68 71.34498700005922
2791.7 71.26827091511254
2832.31 71.20930842747521
2873.5 71.178411733413
2915.3 71.18150732300582
2957.7 71.2105267540019
3000.72 71.24908062920079
3044.37 71.28575511483321
3088.65 71.32327407336955
3133.58 71.36913385392661
3179.16 71.4230265447344
3225.4 71.4739380028116
3272.31 71.51478050050031
3319.91 71.55384194505456
3368.2 71.60470770400985
3417.19 71.6653121868916
3466.89 71.71554139844412
3517.32 71.7436950109329
3568.48 71.76759465305888
3620.39 71.81835193841954
3673.05 71.90323931978318
3726.47 71.99770488019128
3780.67 72.07980936250831
3835.67 72.15046093058535
3891.46 72.2187956162799
3948.06 72.28601281539629
4005.49 72.35087690404029
4063.75 72.41151810198417
4122.86 72.45434941046598
4182.82 72.46674708689939
4243.66 72.45802075029124
4305.39 72.44400114172217
4368.01 72.42197239263078
4431.55 72.38493565316531
4496.01 72.34625907294189
4561.4 72.3256343846852
4627.75 72.33556855006614
4695.06 72.37320020005862
4763.35 72.41751034251271
4832.64 72.45211556124113
4902.93 72.48225634370931
4974.24 72.49250379358102
5046.6 72.47402353835854
5120.0 72.45828701426811
5194.47 72.42188714127204
5270.03 72.30201573681991
5346.68 72.14028856403831
5424.45 72.00743790085329
5503.35 71.9107770189103
5583.4 71.88527542704432
5664.61 71.92469706545356
5747.01 71.96092736960267
5830.6 71.99512396818875
5915.41 72.0826508531141
6001.45 72.22775083228183
6088.74 72.33770877303482
6177.3 72.40517142040152
6267.15 72.51610949007616
6358.31 72.62120389785164
6450.8 72.67887824972877
6544.62 72.69396391670779
6639.82 72.69222443870784
6736.4 72.69898094528845
6834.38 72.67879030177455
6933.79 72.67595607839004
7034.64 72.68434606388384
7136.96 72.69443524234572
7240.77 72.73196888430317
7346.09 72.83311313035216
7452.94 72.95725903756443
7561.35 73.08937972610467
7671.33 73.20652528669267
7782.91 73.30299866258326
7896.12 73.35197554128607
8010.97 73.33565721538325
8127.49 73.32936930443157
8245.71 73.35617825404272
8365.65 73.30634820352032
8487.33 73.20376744803137
8610.78 73.033443296886
8736.03 72.76986987190188
8863.09 72.46138640872788
8992.01 72.12240375539199
9122.8 71.68464426701252
9255.5 71.23039623638272
9390.12 70.88397774693027
9526.7 70.62411015750878
9665.27 70.52715780845429
9805.86 70.63874946951246
9948.49 70.81150961454541
10093.2 70.89419764506987
10240.0 70.99321726736224
10388.9 71.10560084531735
10540.1 71.15870593280563
10693.4 71.22362187219841
10848.9 71.38129856391055
11006.7 71.63482188825861
11166.8 71.90106059750264
11329.2 72.24366412496693
11494.0 72.62800606590204
11661.2 72.99343891728044
11830.8 73.30466859697724
12002.9 73.50326980589915
12177.5 73.56392517613631
12354.6 73.52843915946937
12534.3 73.42693398197156
12716.6 73.31303350595756
12901.6 73.2026437541329
13089.2 73.0878634944294
13279.6 72.89976790161299
13472.8 72.70200214703658
13668.8 72.56372381331762
13867.6 72.34531710689862
14069.3 72.06954668737038
14273.9 71.70869846492414
14481.5 71.43961377698125
14692.2 71.36615388537237
14905.9 71.30936462579785
15122.7 71.15570456741149
15342.7 70.8579481294012
15565.8 70.47830239101427
15792.2 70.15217512407719
16021.9 69.96333107558598
16255.0 69.85012571060759
16491.4 69.75688962593634
16731.3 69.59166982549543
16974.7 69.35730395930787
17221.6 69.12311424031182
17472.1 68.93024158853389
17726.2 68.74620187745934
17984.0 68.51648135703334
18245.6 68.29409611440013
18511.0 68.0990303918534
18780.2 67.88095376936158
19053.4 67.61940644475554
19330.5 67.29951375889296
19611.7 67.09757480075287
19897.0 66.96199332629723
