Freq "Estimated In-Room Response"
20.5078 63.83579032494255
23.4375 66.11595162610155
26.3672 67.98213066278247
29.2969 69.53394605744978
32.2266 71.10150545357685
35.1563 72.4709766542714
38.0859 73.75383489701771
41.0156 74.8899341252127
43.9453 76.07025975769845
46.875 77.15521800635891
49.8047 78.1374995252595
52.7344 79.09409598640363
55.6641 79.97990766387927
58.5938 80.89494889747775
61.5234 81.6119945543375
64.4531 82.38579747837163
67.3828 83.07314701930879
70.3125 83.69539414331986
73.2422 84.30309312021683
76.1719 84.89390721114245
79.1016 85.33573036413175
82.0313 85.80281588014611
84.9609 86.17007319357131
87.8906 86.4656242154638
90.8203 86.73169628811995
93.75 87.06619772676538
96.6797 87.17476863875771
102.539 87.48649609745468
105.469 87.58865986688937
108.398 87.73784348786701
111.328 87.86175774660715
117.188 87.99429213617323
120.117 88.03702203876712
125.977 87.92623515486873
128.906 87.86825010714577
134.766 87.66361544196143
137.695 87.58972047050338
143.555 87.47553778636937
149.414 87.34593391728143
155.273 87.31012770461778
158.203 87.33863705881386
164.063 87.5115818786623
169.922 87.15983500409561
175.781 86.94650201203173
181.641 86.83491135747495
190.43 86.8003079844286
196.289 86.75127551065853
202.148 86.7105071386342
210.938 86.66042752044753
216.797 86.55748877299685
225.586 86.78379422195025
234.375 86.85199169158675
240.234 86.59950529555802
249.023 86.59846931949768
257.813 86.84966037001905
266.602 86.2435253375106
278.32 86.40319780088203
287.109 86.49286421293868
295.898 86.58414059084892
307.617 86.3019931010319
319.336 87.112108492893
331.055 87.01572397257908
342.773 86.3473714945245
354.492 86.63835723078118
366.211 86.68577194641252
377.93 86.9319656941439
392.578 85.91004701464193
407.227 85.70379672860322
421.875 85.69143460606416
436.523 85.5517281068617
451.172 85.76814910801514
465.82 85.50032054268219
483.398 85.60579301041075
500.977 84.86596705592179
518.555 84.29454755275425
536.133 84.40658919703067
553.711 84.74319599801822
574.219 84.24335713935456
594.727 84.04189606578737
615.234 84.11965716846913
638.672 83.86225664583439
659.18 83.24202879447593
682.617 83.98931439410673
706.055 84.13965156437915
732.422 83.82501779676102
758.789 84.68802282188496
785.156 83.69767682518842
811.523 84.07037882256934
840.82 84.00916933297734
870.117 83.8105525168013
902.344 84.01436000253366
931.641 84.2059312500903
966.797 84.06447726244046
999.023 84.25351894463506
1034.18 84.37651475552853
1072.27 84.82144259861282
1110.35 84.65071560262781
1148.44 85.2213943501816
1189.45 85.18924469071264
1230.47 85.22996078753752
1274.41 85.10403550570679
1318.36 84.89183599926773
1365.23 84.61705648348786
1415.04 84.43895601374257
1464.84 84.38977534929768
1514.65 84.56685268218756
1570.31 84.5966129106177
1623.05 84.17883004604873
1681.64 83.8727093111046
1740.23 83.67204283379154
1801.76 83.72367817952271
1866.21 83.364150911074
1930.66 82.94641102741589
2000.98 83.39561424655083
2071.29 84.26128737066473
2144.53 84.20417833365512
2217.77 83.85623223476954
2296.88 84.80210715807478
2378.91 85.66167288533802
2460.94 85.86110437335134
2548.83 85.09539378872297
2639.65 83.62804047323205
2733.4 83.73068746814023
2827.15 83.79011381323288
2926.76 83.54877450276335
3032.23 83.34787032202702
3137.7 83.53727346826423
3249.02 83.45382603270944
3363.28 83.15164967014422
3483.4 83.31765029011447
3606.45 83.0322376893388
3732.42 82.68875082722037
3864.26 82.92792565233292
3999.02 83.09999591836022
4139.65 82.96869091862463
4286.13 83.45504115526074
4438.48 83.73194452604564
4593.75 83.94432821938874
4757.81 83.95615176837244
4924.8 83.9854489815897
5097.66 83.30517573926548
5279.3 82.68783689175855
5463.87 82.75667468163303
5657.23 82.23431527044934
5856.45 82.33609435693769
6061.52 82.58687001102592
6275.39 82.94927892381735
6498.05 82.98609200049758
6726.56 82.9681502066204
6963.87 82.98540054371715
7209.96 82.7681099649038
7464.84 82.54572473397424
7728.52 82.61859508551606
8000.98 83.121699838873
8282.23 83.27238346831788
8575.2 83.44323956292429
8876.95 83.2621228848186
9190.43 83.02778411373839
9512.7 83.04741534870477
9849.61 83.09294331810682
10195.3 83.17630915039028
10555.7 83.3361655709601
10927.7 83.19568495996907
11314.5 82.99364264253941
11712.9 82.65476402104521
12126.0 82.61974510844719
12553.7 82.41471617584217
12996.1 82.23954748959915
13453.1 81.99694203990892
13927.7 81.75483779085957
14419.9 81.48552915304055
14929.7 81.48035190107424
15454.1 81.79595239049242
15999.0 81.8291968106006
16564.5 81.52478800725105
17147.5 81.76254934044326
17753.9 81.92388705472855
18377.9 81.60252308760842
19028.3 81.33127287708434
19699.2 81.26049361106674
19998.0 81.16270661481111
