Freq,Floor Bounce,Ceiling Bounce,Front Wall Bounce,Side Wall Bounce,Rear Wall Bounce,Total Early Reflection
20.0,28.609672697048524,28.522438636456343,28.63077180309901,28.47945659931935,28.09747424233902,28.4721904884004
20.2909,29.117337417902007,29.028438636456343,29.13748338680844,28.986729612918595,28.60706543833382,28.97959580650314
20.586,29.661333428157064,29.56743863645633,29.67904931528429,29.530088576579033,29.154790694944893,29.52263514314768
20.8855,30.215325909017395,30.112438636456346,30.22832949608977,30.08213828117576,29.713859523417312,30.074379511628962
21.1893,30.751319003679328,30.639438636456333,30.759467119112344,30.616386806764893,30.256237985491538,30.60838074143973
21.4975,31.240647453244918,31.12143863645636,31.244748615704026,31.104242005823437,30.750839502562343,31.096074188601193
21.8102,31.657981014519464,31.53743863645633,31.66103107901162,31.52151545701659,31.170227485058007,31.513289531939876
22.1274,32.02131578118633,31.905768471421624,32.02688609463732,31.88650696353011,31.533234756206582,31.878422249346414
22.4492,32.381987459257886,32.27576847142163,32.392171499827356,32.24951628275372,31.891061905930485,32.24187110772351
22.7758,32.77699451777542,32.68010194661042,32.79188694947035,32.647134513583154,32.28212243705812,32.63953022989793
23.1071,33.22433342815708,33.13310194661045,33.242317396943804,33.095455460753584,32.725228160809536,33.08807057684575
23.4432,33.725333428157086,33.63510194661043,33.744320087963246,33.59677338194689,33.223628966678916,33.58906616278159
23.7841,34.25133342815707,34.15843863645634,34.26932051194993,34.121485108077735,33.74837562152405,34.113832166434946
24.1301,34.766998277200884,34.67243863645632,34.784036233119906,34.63638377305472,34.264162831683876,34.62883290231022
24.4811,35.26266471725225,35.16643863645635,35.278893118567964,35.13128325755042,34.75946822251095,35.12377487333913
24.8372,35.73566471725226,35.63943863645633,35.75232051194993,35.60458141615612,35.232567976870456,35.59694154415942
25.1984,36.19833342815707,36.10343863645633,36.21560559396593,36.06738133217857,35.694784447670685,36.05995005547709
25.5649,36.66433342815708,36.570108852386284,36.68217836006707,36.53358110096485,36.15952549885145,36.5260127712414
25.9368,37.14266701355038,37.048108852386264,37.16032008796324,37.01147965315022,36.63695490452224,37.00398583215929
26.3141,37.63833342815707,37.54310885238627,37.65546249817541,37.50698379359841,37.13320539225808,37.499483819283455
26.6968,38.13966471725226,38.044438636456334,38.156605989894445,38.008976395666906,37.6373994493066,38.0014347481694
27.0851,38.63699827720089,38.542101946610416,38.65374802760877,38.50726937061867,38.13863487059325,38.4997053053892
27.4791,39.124329591862136,39.02876847142164,39.140748027608765,38.99486442535826,38.628667305330936,38.98738382396036
27.8788,39.59399827720088,39.49810194661046,39.610177406765786,39.46426550489312,39.09887243424342,39.456980424528695
28.2843,40.0499982772009,39.95410194661045,40.06631929878378,39.920166933704394,39.553822334112,39.9127966976269
28.6957,40.50299827720093,40.40710885238627,40.51989036235713,40.37246523698644,40.003939819376996,40.36524522960622
29.1131,40.96066471725226,40.864438636456356,40.97774754213307,40.829167750180375,40.45821458695909,40.82206611219914
29.5365,41.43233342815708,41.33544561922835,41.44917560622849,41.29996621678819,40.92742994007796,41.292925803301785
29.9661,41.919333428157074,41.82210885238629,41.93588872556097,41.7863654923718,41.41300823041564,41.77941660390778
30.402,42.41533342815708,42.31910885238631,42.432888069870586,42.28306312736473,41.9095322859734,42.27606187860766
30.8442,42.913333428157074,42.8181088523863,42.93103134944798,42.780860813107125,42.4075283205857,42.774252343947666
31.2929,43.40000219007058,43.30644561922833,43.418745837461046,43.26816912704217,42.89322769144687,43.261424943034285
31.748,43.878337417902,43.78544561922834,43.89746122634986,43.74597592004821,43.36934728091603,43.73946050256555
32.2098,44.35033741790201,44.258445619228326,44.370461226349846,44.21837463299187,43.840151099157254,44.211730283880144
32.6783,44.82000625638429,44.72944561922833,44.84088912173084,44.68808199069156,44.30800920319206,44.68150108487487
33.1536,45.30400625638427,45.21410885238629,45.32503263239528,45.17198220599161,44.7912215973617,45.16550047537845
33.6359,45.80300625638429,45.713108852386284,45.82388912173087,45.671876156235015,45.29403465787138,45.66534964141394
34.1251,46.31433741790201,46.22277537772777,46.33360287802475,46.182961300691545,45.80884737642455,46.17659904473726
34.6215,46.81133342815707,46.71543863645633,46.828029970512745,46.67984547146949,46.31225946816389,46.67334463209761
35.125,47.27999451777541,47.17643863645634,47.29317288210649,47.14712817795245,46.78729805227843,47.14062942801422
35.6359,47.72899091179437,47.618775377727786,47.739032003456884,47.59383196282732,47.23632706371771,47.58718048069309
36.1543,48.16899091179437,48.055115911618145,48.17860447914657,48.03135376360899,47.671657232082,48.02499718600791
36.6802,48.61932590901739,48.50512312430564,48.62989253017426,48.47978388096098,48.11402036454322,48.473613433049024
37.2137,49.09666471725225,48.98746004515708,49.11075354893525,48.9571184426176,48.58256863003592,48.95107265412727
37.755,49.60000625638429,49.4981304904484,49.618040666294746,49.46105046892015,49.07869511029131,49.45550620870662
38.3041,50.11301047614177,50.01746004515708,50.13475663107664,49.97566947353606,49.58753617974237,49.970119954805625
38.8613,50.61501484934283,50.52246004515709,50.63818610874273,50.477882259468046,50.08662502719582,50.47253427205476
39.4265,51.10401484934283,51.01079354402849,51.12732924659454,50.96559209867864,50.57139491707785,50.96039700953911
40.0,51.58301484934282,51.48746748831309,51.606045131616284,51.44310923955915,51.045532683320815,51.43768159878127
40.5818,52.06068389193149,51.96213801004602,52.08290359043144,51.91902165942395,51.51876825460715,51.913413873797865
41.1721,52.541014849342815,52.44047508492966,52.56276234175684,52.39823841518577,51.99678841843843,52.39259830124439
41.771,53.02401484934282,52.922808582646184,53.045622593377686,52.88065952237672,52.47869389708896,52.87511870905746
42.3785,53.50701484934282,53.40647508492965,53.52862485759394,53.36367400864175,52.96176617924195,53.358270056379155
42.9949,53.991014849342804,53.8908085826462,54.013053852312694,53.84778296360241,53.446185912907026,53.84252517531809
43.6203,54.47935030783468,54.379475084929666,54.501481925270014,54.33587185349987,53.93359812409956,54.3307289497387
44.2548,54.96668389193148,54.86647508492966,54.98933482387818,54.822952685057956,54.42005782717803,54.817893001530706
44.8985,55.45468389193148,55.35347508492964,55.47676060768208,55.31002738220535,54.90666460344684,55.30513177917925
45.5515,55.944683891931476,55.8431456830981,55.966614662907276,55.79971174515944,55.39586236932634,55.79482522432713
46.2141,56.43068389193148,56.3281456830981,56.452614272612024,56.28520397912911,55.88179482528216,56.28050893260027
46.8863,56.910350307834676,56.80648283500636,56.93175595365703,56.76470233133895,56.3623508384881,56.759926095465715
47.5683,57.38268389193149,57.27748283500637,57.40347203123511,57.235906638303675,56.833816761280346,57.231477172114865
48.2602,57.85068389193148,57.7448163321278,57.87161427261202,57.703611481578406,57.300660559527685,57.699101975259524
48.9621,58.32068389193148,58.21382003837485,58.34175785846624,58.172717667746184,57.768406826849144,58.168340389006175
49.6743,58.79068389193148,58.68315350960424,58.81204442185779,58.64152925095249,58.235105787979336,58.63742545582201
50.3968,59.26168389193148,59.15349073854284,59.28290278284126,59.11183577106601,58.70432739821308,59.10779901548082
51.1299,59.734683891931496,59.62549073854284,59.75561854168696,59.58424251344519,59.17695721337134,59.580351495763594
51.8736,60.20135030783466,60.09216148956405,60.222189728248054,60.0508488489198,59.64400349533352,60.047056168096034
52.6281,60.66101937598718,60.55116148956404,60.68161873493693,60.510555232233855,60.1047806870115,60.506749526791424
53.3936,61.11501937598719,61.00516148956403,61.13590619081252,60.964460884119916,60.55924783461987,60.96087566897829
54.1702,61.56501937598719,61.45416148956403,61.585764480867496,61.41406720163107,61.01007891181071,61.41071688240075
54.9581,62.0100193759872,61.89916148956402,62.03047885325486,61.858768802911825,61.45668661382528,61.85589094158689
55.7575,62.449683891931485,62.338161489564044,62.47019307432066,62.298165013996936,61.89708343208879,62.295511496844256
56.5685,62.88235298550306,62.77116148956404,62.903334868464526,62.73095926273075,62.33011750078953,62.72843749119643
57.3914,63.30668849512065,63.19616148956402,63.32833365613055,63.15495550071154,62.75342885873086,63.15279059159093
58.2261,63.72302405607468,63.613169622977054,63.745334708125114,63.57056350882813,63.16633298582758,63.56862928144284
59.073,64.13169325174687,64.02216962297706,64.15490587073008,63.97867273765402,63.57182279084549,63.97686175957185
59.9323,64.53369325174688,64.42516962297705,64.55719305148855,64.37998158219168,63.971928162137175,64.37864033024091
60.804,64.92936249839008,64.82316962297705,64.95447833628967,64.77678503487328,64.36824630856901,64.77546268503487
61.6884,65.31769816180994,65.21416962297705,65.34390784024815,65.16578503487331,64.75859433437648,65.1650645377977
62.5857,65.69836748497993,65.59683229143447,65.7257652149353,65.5471886578094,65.14068404400534,65.54679029554148
63.496,66.06703387657788,65.96649879553863,66.09490784024815,65.91629151477935,65.51061677512415,65.91607626384003
64.4196,66.41970322530955,66.31816962297705,66.44719305148855,66.26799416399857,65.86343095804071,66.26829657999616
65.3566,66.75703387657789,66.65216962297706,66.78390928821835,66.60339474791188,66.19852543096408,66.60403210827798
66.3073,67.08003387657789,66.97217790984286,67.1060526330922,66.92420939634486,66.51815553268612,66.92519780306611
67.2717,67.39336748497992,67.28218635016103,67.41862511269221,67.23492912597172,66.82496840090221,67.23599089566375
68.2502,67.6993726250003,67.58719494393108,67.72577207710981,67.53886845753046,67.12285972624517,67.54014461778281
69.2429,67.99937791845095,67.8868660514097,68.02677561869886,67.83710652408519,67.41449915319764,67.83841869797776
70.2501,68.29171381261743,68.1792036911526,68.32006474225244,68.12753517849971,67.69971034043776,68.12928119984369
71.2719,68.56938336533159,68.45687487501797,68.59820808199547,68.40454104022662,67.97415262435898,68.40633293305238
72.3086,68.82771381261742,68.71420369115259,68.85606300392352,68.66263387983054,68.23298309277436,68.66440436534218
73.3603,69.06571381261742,68.95220369115262,69.09406169403911,68.90121926014253,68.47452016634294,68.9031618415361
74.4274,69.28804431085041,69.1742036911526,69.31563056369126,69.12370415365004,68.70115127286341,69.1260768315959
75.5099,69.49837791845096,69.3852036911526,69.52606097572739,69.3346928413118,68.91563686397743,69.33744962475598
76.6083,69.69937791845095,69.58720369115261,69.72763056369125,69.53609786084044,69.11897284345969,69.53927578585674
77.7226,69.89271381261743,69.7802036911526,69.92163322317481,69.72930065205665,69.3135233282161,69.7328769656015
78.8531,70.07571381261742,69.96187487501798,70.10449012829466,69.91100837590511,69.4956098003814,69.91515430644745
80.0,70.24238336533158,70.12621259182511,70.27063552109666,70.07542663083132,69.6580332416226,70.08002234515068
81.1636,70.39338336533157,70.2758838520711,70.42220887820903,70.22445051822359,69.80326829867138,70.22943308236626
82.3442,70.53371933642511,70.41489298256862,70.56278278500058,70.36257888831202,69.93646163804492,70.36781533826768
83.5419,70.6643889656419,70.54490226651005,70.69406806928978,70.49198826961783,70.06159237165527,70.49722597154712
84.757,70.78672501366823,70.66623085352118,70.81635215891133,70.61358628536661,70.18352409500011,70.61912687192802
85.9899,70.90205864579586,70.78056877598776,70.93092085887992,70.72896044894671,70.30310103420562,70.7348752541374
87.2406,71.00705296898886,70.88523085352116,71.03520524925517,70.83513189887739,70.41586800913863,70.84129747316749
88.5096,71.10005296898885,70.97689298256864,71.12748915783675,70.92860855718818,70.51714691776502,70.9354752230768
89.797,71.18438336533157,71.05989298256861,71.21091804246106,71.01309691232431,70.60843187782336,71.02064425695704
91.1031,71.26038336533158,71.13555949133341,71.28706082704467,71.08889059919285,70.68848230754647,71.09730262845196
92.4282,71.3297193364251,71.20423085352117,71.3572045296995,71.15750539688777,70.75818805283791,71.16659665875551
93.7726,71.3953889656419,71.26890226651003,71.42320666541207,71.22161508029592,70.82315740941296,71.23169562572976
95.1366,71.45372501366822,71.32724021454378,71.48220886565404,71.27903064669289,70.88034805695871,71.28977916159558
96.5204,71.50539471938163,71.37791170389485,71.53435295710145,71.32895303984695,70.92907480685585,71.34046260244588
97.9243,71.55040062655046,71.4229212947226,71.58064151632969,71.3728682581926,70.97211160683072,71.38516184343018
99.3486,71.58740062655045,71.4599212947226,71.61835732275371,71.40898755143162,71.00720721912197,71.42178972021519
100.794,71.61707045967961,71.48859755067994,71.64835968757089,71.4369003770606,71.03555257785374,71.45073759997919
102.26,71.64240668714805,71.51393103899274,71.67436149547538,71.46151097990841,71.06037128690568,71.47597388511643
103.747,71.66174296600721,71.53160744915203,71.69393301970874,71.47892964491768,71.07792425907522,71.49431826701789
105.256,71.6767465572787,71.54527919311963,71.70936501249287,71.49194911931056,71.09063410584044,71.50833080775278
106.787,71.69175292424372,71.55828932138236,71.72522325342479,71.50437049208792,71.10130703154016,71.52181108325317
108.34,71.70708933117493,71.57129960309156,71.74151297595651,71.51670730176937,71.1100980073421,71.53509311728045
109.916,71.72142960897389,71.58331003824665,71.7560869055135,71.52784463896435,71.11636721041778,71.54691190571954
111.515,71.73376611842146,71.5923206268471,71.76852133872687,71.53648519253187,71.12136959201437,71.55653468916955
113.137,71.742102679281,71.59700354522657,71.77709887389055,71.54124143586684,71.12060029883877,71.56182604615255
114.783,71.74644326287324,71.59635331331489,71.78082247047911,71.5405149620778,71.11394577549791,71.56203720277102
116.452,71.74844326287327,71.59170344072656,71.781688747439,71.53759169502337,71.10514619809211,71.55953195476664
118.146,71.74744326287326,71.5853873807702,71.78012480973713,71.53325506207564,71.0959336313067,71.55519985653572
119.865,71.74244326287325,71.57572646013114,71.77369770972929,71.5251894146909,71.08653267960192,71.54755904313483
121.608,71.73177294563347,71.56305993854568,71.76198268329378,71.51426977158663,71.08048803588485,71.53704968873946
123.377,71.71643635921896,71.54672646013114,71.74583541253405,71.49982605658501,71.07445354430536,71.52319577738722
125.171,71.69676611842146,71.52572646013112,71.72568833114241,71.47968956437393,71.06480705681744,71.504874884081
126.992,71.68043635921896,71.50572646013111,71.70854488548706,71.46196191900749,71.05626728982233,71.488767850307
128.839,71.66943635921896,71.48941085961434,71.69683213274881,71.44795748902048,71.04818105669148,71.47648180535795
130.713,71.66543635921896,71.4787621400877,71.69169144033492,71.4398778090745,71.0417541844717,71.46965833627549
132.615,71.66577294563348,71.47544722867899,71.6919770105075,71.43748541142654,71.04405706022546,71.46906710311895
134.543,71.66611363099634,71.4761262108558,71.69440759961341,71.4367948990372,71.04636669388789,71.47006803837783
136.5,71.66712805138553,71.48279920104872,71.69983860313795,71.43861056131846,71.05136301138589,71.47402783457153
138.486,71.66348008227027,71.48979920104873,71.70198419460475,71.43743535012078,71.05394359305818,71.47535657058813
140.5,71.65416678688703,71.4917992010487,71.69898925349939,71.42928362170004,71.04565523191701,71.47006327965941
142.544,71.64219186899096,71.49079920104873,71.69370809855951,71.41823839376009,71.03373865732794,71.46190257737267
144.617,71.62788069307807,71.48147224191362,71.68300217946019,71.40230416062417,71.01429764032889,71.44810594314976
146.721,71.61556120656269,71.46848497868639,71.67258212316565,71.38548216384939,70.99176121836283,71.4333147047337
148.855,71.60489894776128,71.4511711128742,71.66144495617911,71.36983484299365,70.97369219950771,71.41888781721616
151.02,71.59789894776128,71.43286403816761,71.65145083192945,71.3557861187894,70.95851498188611,71.40610815251713
153.217,71.59056120656268,71.41189104709684,71.64031217444148,71.34041843390025,70.94501383614156,71.39252511368542
155.445,71.5815612065627,71.38859239650921,71.62817267934119,71.32376100353463,70.93004590044457,71.37740061592716
157.706,71.57322351686457,71.36730177557129,71.61746640416298,71.30742861468667,70.91445011883506,71.36307736192983
160.0,71.56023272019439,71.3423459731225,71.60319248449233,71.28640332364716,70.89258390101438,71.34423431590773
162.327,71.54624207690306,71.31706598926448,71.58849612750197,71.2633273796811,70.86445469677572,71.32349925856295
164.688,71.53492330405817,71.29478789353888,71.57723344181767,71.24249392142718,70.83633090492557,71.30510805620321
167.084,71.52394293698788,71.27585326283592,71.56768842727786,71.2233864221923,70.808539305766,71.28823069289426
169.514,71.5179631834002,71.26459646239005,71.56457555458589,71.20842775166624,70.78187071068179,71.27634323636846
171.98,71.51866700515956,71.26232482344247,71.56975340732991,71.20023203137148,70.75660836196393,71.2710352789984
174.481,71.5253727154928,71.26839755097575,71.5820716168391,71.19747383871459,70.73002068875239,71.27106032095455
177.019,71.53108031415853,71.27512994377769,71.59310238158878,71.19410940432778,70.69951305061014,71.26996168775719
179.594,71.53544357150075,71.27784473900446,71.59996943508693,71.19013566014927,70.66853257405313,71.26671739799049
182.206,71.5364505703071,71.27520727009855,71.60139524980431,71.18559695745392,70.64801035017419,71.26224936257655
184.856,71.5317774557997,71.26920727009858,71.59580981342442,71.18040698462886,70.64239020017192,71.25684682784197
187.545,71.52210439195841,71.2611877084455,71.58578963186667,71.17443398687895,70.65184231772919,71.25148340507452
190.273,71.50777745579971,71.25116830017365,71.57263956000021,71.16517308610845,70.66821551225794,71.24463123459954
193.041,71.48978980091411,71.24214904528404,71.55878354230052,71.15259972141054,70.68235876127382,71.23603543795424
195.849,71.47148106973881,71.2324919117414,71.54593979179914,71.13711801098557,70.68803139222291,71.22542110802632
198.697,71.45385382653674,71.22051124406448,71.53381936659247,71.11833153915168,70.68490776317155,71.212449977912
201.587,71.44423398151956,71.21320727009856,71.5294178110105,71.10560626310684,70.68282422621486,71.20514662561834
204.52,71.43560974569658,71.20259010722262,71.52430092483482,71.09077345354108,70.67992760831268,71.19668298246076
207.494,71.42097873265179,71.18067142451552,71.51232135441899,71.06646779239784,70.66590077780458,71.1793859474225
210.512,71.40737214849227,71.1554539732847,71.5017736917606,71.03841521458901,70.6398804118563,71.15910211672676
213.574,71.39810898762434,71.13063071155983,71.4968064124634,71.00921900499445,70.59696043612725,71.13783047890834
216.681,71.40688236321313,71.12219890426822,71.51129487848533,70.99284785890339,70.54480274810726,71.12882914124013
219.833,71.43967221966665,71.14212859202034,71.55249948489748,70.99915449936553,70.49034448902326,71.14062414874176
223.03,71.48578259392094,71.17770092393138,71.60454595831973,71.02181867704968,70.43586273396255,71.16422835155335
226.274,71.52383135865712,71.2154781948297,71.6465548915498,71.04868535691024,70.39835438112361,71.18824781308085
229.565,71.53249724777754,71.2324504385923,71.65753557556206,71.05861032544355,70.37668494173784,71.1943042500794
232.905,71.50947808652299,71.216714908468,71.63363956222376,71.04191745354676,70.36053229797368,71.17492505273971
