Freq "Ceiling Bounce"
20.0 28.44915561758843
20.2909 28.95515561758843
20.586 29.49415561758842
20.8855 30.039155617588435
21.1893 30.56615561758842
21.4975 31.04815561758845
21.8102 31.464155617588418
22.1274 31.832485452553712
22.4492 32.20248545255372
22.7758 32.60681892774251
23.1071 33.05981892774254
23.4432 33.56181892774252
23.7841 34.08515561758843
24.1301 34.59915561758841
24.4811 35.09315561758844
24.8372 35.56615561758842
25.1984 36.03015561758842
25.5649 36.49682583351837
25.9368 36.97482583351835
26.3141 37.46982583351836
26.6968 37.97115561758842
27.0851 38.468818927742504
27.4791 38.95548545255373
27.8788 39.42481892774255
28.2843 39.88081892774254
28.6957 40.33382583351836
29.1131 40.791155617588444
29.5365 41.26216260036044
29.9661 41.74882583351838
30.402 42.245825833518396
30.8442 42.74482583351839
31.2929 43.233162600360416
31.748 43.71216260036043
32.2098 44.185162600360414
32.6783 44.65616260036042
33.1536 45.14082583351838
33.6359 45.63982583351837
34.1251 46.14949235885986
34.6215 46.642155617588415
35.125 47.10315561758843
35.6359 47.545492358859875
36.1543 47.981832892750234
36.6802 48.43184010543773
37.2137 48.91417702628917
37.755 49.42484747158049
38.3041 49.94417702628917
38.8613 50.44917702628918
39.4265 50.937510525160576
40.0 51.414184469445175
40.5818 51.88885499117811
41.1721 52.36719206606175
41.771 52.84952556377827
42.3785 53.33319206606174
42.9949 53.81752556377829
43.6203 54.306192066061755
44.2548 54.79319206606175
44.8985 55.28019206606173
45.5515 55.76986266423019
46.2141 56.25486266423019
46.8863 56.73319981613845
47.5683 57.204199816138456
48.2602 57.671533313259886
48.9621 58.14053701950694
49.6743 58.60987049073633
50.3968 59.08020771967493
51.1299 59.552207719674925
51.8736 60.01887847069614
52.6281 60.477878470696126
53.3936 60.93187847069612
54.1702 61.38087847069612
54.9581 61.82587847069611
55.7575 62.26487847069613
56.5685 62.697878470696125
57.3914 63.12287847069611
58.2261 63.53988660410914
59.073 63.94888660410915
59.9323 64.35188660410914
60.804 64.74988660410914
61.6884 65.14088660410914
62.5857 65.52354927256656
63.496 65.89321577667071
64.4196 66.24488660410914
65.3566 66.57888660410914
66.3073 66.89889489097494
67.2717 67.20890333129312
68.2502 67.51391192506317
69.2429 67.81358303254179
70.2501 68.10592067228468
71.2719 68.38359185615006
72.3086 68.64092067228468
73.3603 68.8789206722847
74.4274 69.10092067228469
75.5099 69.31192067228469
76.6083 69.5139206722847
77.7226 69.70692067228468
78.8531 69.88859185615007
80.0 70.0529295729572
81.1636 70.20260083320319
82.3442 70.3416099637007
83.5419 70.47161924764214
84.757 70.59294783465327
85.9899 70.70728575711985
87.2406 70.81194783465325
88.5096 70.90360996370073
89.797 70.9866099637007
91.1031 71.0622764724655
92.4282 71.13094783465326
93.7726 71.19561924764211
95.1366 71.25395719567587
96.5204 71.30462868502694
97.9243 71.34963827585469
99.3486 71.3866382758547
100.794 71.41531453181203
102.26 71.44064802012483
103.747 71.45832443028412
105.256 71.47199617425171
106.787 71.48500630251445
108.34 71.49801658422365
109.916 71.51002701937874
111.515 71.51903760797919
113.137 71.52372052635866
114.783 71.52307029444698
116.452 71.51842042185865
118.146 71.51210436190229
119.865 71.50244344126322
121.608 71.48977691967777
123.377 71.47344344126323
125.171 71.45244344126321
126.992 71.4324434412632
128.839 71.41612784074643
130.713 71.40547912121978
132.615 71.40216420981108
134.543 71.40284319198788
136.5 71.40951618218081
138.486 71.41651618218081
140.5 71.4185161821808
142.544 71.41751618218082
144.617 71.40818922304571
146.721 71.39520195981848
148.855 71.3778880940063
151.02 71.3595810192997
153.217 71.33860802822893
155.445 71.3153093776413
157.706 71.29401875670338
160.0 71.2690629542546
162.327 71.24378297039657
164.688 71.22150487467097
167.084 71.20257024396801
169.514 71.19131344352213
171.98 71.18904180457456
174.481 71.19511453210784
177.019 71.20184692490977
179.594 71.20456172013655
182.206 71.20192425123064
184.856 71.19592425123066
187.545 71.18790468957759
190.273 71.17788528130573
193.041 71.16886602641613
195.849 71.1592088928735
198.697 71.14722822519657
201.587 71.13992425123065
204.52 71.12930708835471
207.494 71.10738840564761
210.512 71.08217095441678
213.574 71.05734769269192
216.681 71.0489158854003
219.833 71.06884557315243
223.03 71.10441790506347
226.274 71.14219517596179
229.565 71.15916741972438
232.905 71.1434318896001
236.292 71.1136704862665
239.729 71.07861726869699
243.216 71.05269732497479
246.754 71.04218089643332
250.343 71.03771252787726
253.984 71.03590357546317
257.678 71.04508527049562
261.426 71.069225653959
265.229 71.09428881637999
269.087 71.09908331981248
273.001 71.09093037636121
276.972 71.04909824562401
281.0 70.9980240422666
285.088 70.97460716865105
289.234 70.98212363195928
293.441 71.01195824879528
297.709 71.04010996825336
302.04 71.04795043450503
306.433 71.03149998239198
310.89 70.99334732144123
315.412 70.94855150428761
320.0 70.91288615458862
324.655 70.89331823895778
329.377 70.87323641780885
334.168 70.86613253835556
339.028 70.85835903687406
343.959 70.82924689443882
348.962 70.80853983746104
354.038 70.7982704187643
359.188 70.78224851093442
364.412 70.77907176251867
369.713 70.7973946444897
375.09 70.8012486477614
380.546 70.78076968542089
386.081 70.75113178971276
391.697 70.70806258207627
397.394 70.66211605066451
403.175 70.5930571699692
409.039 70.53479217320292
414.989 70.52427145840177
421.025 70.55062559574475
427.149 70.61855289237413
433.362 70.71601154569599
439.665 70.78118512188529
446.06 70.80011731283979
452.548 70.76754580324639
459.131 70.68664684651105
465.809 70.59400407728647
472.584 70.52821782714028
479.458 70.49713196094712
486.432 70.49841304543536
493.507 70.50241715661151
500.686 70.51947226066186
507.968 70.54625023027535
515.357 70.57539341422036
522.853 70.60325868783104
530.458 70.68905378423024
538.174 70.77449317764207
546.002 70.88229331839239
553.943 70.97993851003761
562.001 71.01875406072838
570.175 71.02894531310997
578.469 70.97875031250635
586.883 70.88645714662267
595.419 70.8473637043239
604.08 70.82565826428595
612.866 70.83759195804785
621.78 70.8466632242556
630.824 70.83852680234382
640.0 70.81461214287134
649.309 70.79777974197974
658.753 70.827908480027
668.335 70.82861201814555
678.056 70.81418948354136
687.919 70.75133575099498
697.925 70.60635484584589
708.077 70.50077152926323
718.376 70.51072544278908
728.825 70.53136524966521
739.426 70.39060707696736
750.181 70.24594600552159
761.093 70.16511037549354
772.163 70.10084000163236
783.394 70.07614926433317
794.789 70.01904077134746
806.349 69.93240422199854
818.078 69.86878585288633
829.977 69.75053326738151
842.05 69.64286471194521
854.298 69.56549515235538
866.724 69.42204045643041
879.33 69.22274920316936
892.12 69.03651394835806
905.097 68.75584082737487
918.262 68.47929343135924
931.618 68.31680385976463
945.169 68.18809160776603
958.917 68.13502975245753
972.864 68.13454956485943
987.015 68.04618251593342
1001.37 68.00224566461118
1015.94 67.99580566767598
1030.71 68.04661946365762
1045.71 68.19372162793415
1060.92 68.3630562176614
1076.35 68.4346773811592
1092.0 68.28011031598794
1107.89 67.9594944515144
1124.0 67.65694518355684
1140.35 67.35601356267539
1156.94 67.10533944960982
1173.77 67.20422798762455
1190.84 67.52690640012705
1208.16 67.86104682154372
1225.73 68.09996559897978
1243.56 68.15256087365727
1261.65 68.06317924308455
1280.0 67.93034563600479
1298.62 67.85736367254434
1317.51 67.75318295374942
1336.67 67.581685430133
1356.11 67.38889107072832
1375.84 67.21169738824979
1395.85 67.07839044247437
1416.15 67.05358966676508
1436.75 67.16442462592234
1457.65 67.32906986543921
1478.85 67.47137205164536
1500.36 67.57784285545252
1522.19 67.76264909948229
1544.33 67.96527729484286
1566.79 68.13174416446267
1589.58 68.33660455331898
1612.7 68.50926034848166
1636.16 68.6394108110077
1659.95 68.77102288902944
1684.1 68.80332290116839
1708.6 68.76408819915656
1733.45 68.67665982707987
1758.66 68.5509696864395
1784.24 68.49835157985207
1810.19 68.55598240178351
1836.52 68.74080264522895
1863.24 69.00652430441822
1890.34 69.30714471839056
1917.83 69.65416677904214
1945.73 70.01879451185782
1974.03 70.35815618193408
2002.74 70.6954744095182
2031.87 70.93164481719131
2061.43 71.1155829480938
2091.41 71.29573827536498
2121.83 71.40520136450829
2152.69 71.52933719507442
2184.01 71.68883796356974
2215.77 71.82501012424301
2248.0 71.92628056525047
2280.7 72.01206471759319
2313.87 72.09359591058875
2347.53 72.16101601651398
2381.68 72.22345001819045
2416.32 72.28461321401075
2451.46 72.28951002341853
2487.12 72.25210565900024
2523.3 72.186058003479
2560.0 72.07738143383894
2597.24 71.9707705498008
2635.01 71.85511123497025
2673.34 71.72757273209879
2712.23 71.62166035099013
2751.68 71.54869676844567
2791.7 71.50560503146625
2832.31 71.49048897481643
2873.5 71.48634530929199
2915.3 71.47422053269302
2957.7 71.4516378152599
3000.72 71.4290335001384
3044.37 71.39271788025287
3088.65 71.360456745487
3133.58 71.3295295991095
3179.16 71.2569510105744
3225.4 71.1352292597653
3272.31 70.97490487898746
3319.91 70.76242948375888
3368.2 70.52579631273234
3417.19 70.28000359174321
3466.89 70.0460585100652
3517.32 69.84372014180936
3568.48 69.63277954545391
3620.39 69.46417211853004
3673.05 69.33859674696821
3726.47 69.21550087289847
3780.67 69.10800336886082
3835.67 68.95826966765652
3891.46 68.76403750048264
3948.06 68.55140579285815
4005.49 68.3118315253307
4063.75 68.1003360425932
4122.86 67.97076998709232
4182.82 67.95655080890843
4243.66 68.04979023044947
4305.39 68.20298963079335
4368.01 68.40224732528776
4431.55 68.5872558591965
4496.01 68.66388908665174
4561.4 68.64287071103304
4627.75 68.54845139685155
4695.06 68.35801005910422
4763.35 68.04232007963687
4832.64 67.61589779605599
4902.93 67.09887903377488
4974.24 66.5800477044058
5046.6 66.34104676564631
5120.0 66.62033401538014
5194.47 67.2243315061952
5270.03 67.84554363486116
5346.68 68.37322314585701
5424.45 68.80794775346986
5503.35 69.13588013586762
5583.4 69.35041799090729
5664.61 69.47060117105876
5747.01 69.45519486941865
5830.6 69.27870659359898
5915.41 69.00175391009373
6001.45 68.67898901467031
6088.74 68.35775321571442
6177.3 68.09850639782788
6267.15 67.91067634896281
6358.31 67.76210310416364
6450.8 67.64064959748022
6544.62 67.52020731899871
6639.82 67.36142142404232
6736.4 67.16076065599181
6834.38 66.96451736449485
6933.79 66.83101508756253
7034.64 66.78781013669595
7136.96 66.89301281081718
7240.77 67.10518302609741
7346.09 67.30311084437285
7452.94 67.44972378720287
7561.35 67.51318437311551
7671.33 67.4798701413135
7782.91 67.3781917462728
7896.12 67.23608181388474
8010.97 67.0746756874306
8127.49 66.90761914267507
8245.71 66.7496911904861
8365.65 66.63397874218569
8487.33 66.52287148404409
8610.78 66.42076909636994
8736.03 66.35702888446724
8863.09 66.32990265262863
8992.01 66.37643726566607
9122.8 66.49557390698341
9255.5 66.61121539208199
9390.12 66.7323962017612
9526.7 66.80235382889417
9665.27 66.7751726403385
9805.86 66.63605836956997
9948.49 66.46510932288832
10093.2 66.31479459041425
10240.0 66.1973951914885
10388.9 66.14567952778144
10540.1 66.14875363012904
10693.4 66.2247905933459
10848.9 66.35675780160467
11006.7 66.48959443338113
11166.8 66.63800614761284
11329.2 66.73861901835843
11494.0 66.7816169085506
11661.2 66.77350085532271
11830.8 66.6887188793763
12002.9 66.55766436011804
12177.5 66.37740131789543
12354.6 66.10281736473551
12534.3 65.72659414396007
12716.6 65.26349310526926
12901.6 64.83564109361895
13089.2 64.49210472159758
13279.6 64.2857457102519
13472.8 64.18263096132607
13668.8 64.14831330244704
13867.6 64.20123451865858
14069.3 64.28485822723663
14273.9 64.39883574361029
14481.5 64.54664028241821
14692.2 64.65297322144836
14905.9 64.75309582296953
15122.7 64.81588981685556
15342.7 64.84049651391375
15565.8 64.85974066979081
15792.2 64.85392925663194
16021.9 64.85304972343096
16255.0 64.83630038841216
16491.4 64.81045872664632
16731.3 64.76677935942878
16974.7 64.70336385361772
17221.6 64.63299628607918
17472.1 64.55409542319063
17726.2 64.50916270150907
17984.0 64.53450314094277
18245.6 64.64039634553413
18511.0 64.8433293624151
18780.2 65.09715521126185
19053.4 65.33483679192715
19330.5 65.53180776327929
19611.7 65.6493368071704
19897.0 65.68978060429446
