Freq "Ceiling Bounce"
20.0 28.522438636456343
20.2909 29.028438636456343
20.586 29.56743863645633
20.8855 30.112438636456346
21.1893 30.639438636456333
21.4975 31.12143863645636
21.8102 31.53743863645633
22.1274 31.905768471421624
22.4492 32.27576847142163
22.7758 32.68010194661042
23.1071 33.13310194661045
23.4432 33.63510194661043
23.7841 34.15843863645634
24.1301 34.67243863645632
24.4811 35.16643863645635
24.8372 35.63943863645633
25.1984 36.10343863645633
25.5649 36.570108852386284
25.9368 37.048108852386264
26.3141 37.54310885238627
26.6968 38.044438636456334
27.0851 38.542101946610416
27.4791 39.02876847142164
27.8788 39.49810194661046
28.2843 39.95410194661045
28.6957 40.40710885238627
29.1131 40.864438636456356
29.5365 41.33544561922835
29.9661 41.82210885238629
30.402 42.31910885238631
30.8442 42.8181088523863
31.2929 43.30644561922833
31.748 43.78544561922834
32.2098 44.258445619228326
32.6783 44.72944561922833
33.1536 45.21410885238629
33.6359 45.713108852386284
34.1251 46.22277537772777
34.6215 46.71543863645633
35.125 47.17643863645634
35.6359 47.618775377727786
36.1543 48.055115911618145
36.6802 48.50512312430564
37.2137 48.98746004515708
37.755 49.4981304904484
38.3041 50.01746004515708
38.8613 50.52246004515709
39.4265 51.01079354402849
40.0 51.48746748831309
40.5818 51.96213801004602
41.1721 52.44047508492966
41.771 52.922808582646184
42.3785 53.40647508492965
42.9949 53.8908085826462
43.6203 54.379475084929666
44.2548 54.86647508492966
44.8985 55.35347508492964
45.5515 55.8431456830981
46.2141 56.3281456830981
46.8863 56.80648283500636
47.5683 57.27748283500637
48.2602 57.7448163321278
48.9621 58.21382003837485
49.6743 58.68315350960424
50.3968 59.15349073854284
51.1299 59.62549073854284
51.8736 60.09216148956405
52.6281 60.55116148956404
53.3936 61.00516148956403
54.1702 61.45416148956403
54.9581 61.89916148956402
55.7575 62.338161489564044
56.5685 62.77116148956404
57.3914 63.19616148956402
58.2261 63.613169622977054
59.073 64.02216962297706
59.9323 64.42516962297705
60.804 64.82316962297705
61.6884 65.21416962297705
62.5857 65.59683229143447
63.496 65.96649879553863
64.4196 66.31816962297705
65.3566 66.65216962297706
66.3073 66.97217790984286
67.2717 67.28218635016103
68.2502 67.58719494393108
69.2429 67.8868660514097
70.2501 68.1792036911526
71.2719 68.45687487501797
72.3086 68.71420369115259
73.3603 68.95220369115262
74.4274 69.1742036911526
75.5099 69.3852036911526
76.6083 69.58720369115261
77.7226 69.7802036911526
78.8531 69.96187487501798
80.0 70.12621259182511
81.1636 70.2758838520711
82.3442 70.41489298256862
83.5419 70.54490226651005
84.757 70.66623085352118
85.9899 70.78056877598776
87.2406 70.88523085352116
88.5096 70.97689298256864
89.797 71.05989298256861
91.1031 71.13555949133341
92.4282 71.20423085352117
93.7726 71.26890226651003
95.1366 71.32724021454378
96.5204 71.37791170389485
97.9243 71.4229212947226
99.3486 71.4599212947226
100.794 71.48859755067994
102.26 71.51393103899274
103.747 71.53160744915203
105.256 71.54527919311963
106.787 71.55828932138236
108.34 71.57129960309156
109.916 71.58331003824665
111.515 71.5923206268471
113.137 71.59700354522657
114.783 71.59635331331489
116.452 71.59170344072656
118.146 71.5853873807702
119.865 71.57572646013114
121.608 71.56305993854568
123.377 71.54672646013114
125.171 71.52572646013112
126.992 71.50572646013111
128.839 71.48941085961434
130.713 71.4787621400877
132.615 71.47544722867899
134.543 71.4761262108558
136.5 71.48279920104872
138.486 71.48979920104873
140.5 71.4917992010487
142.544 71.49079920104873
144.617 71.48147224191362
146.721 71.46848497868639
148.855 71.4511711128742
151.02 71.43286403816761
153.217 71.41189104709684
155.445 71.38859239650921
157.706 71.36730177557129
160.0 71.3423459731225
162.327 71.31706598926448
164.688 71.29478789353888
167.084 71.27585326283592
169.514 71.26459646239005
171.98 71.26232482344247
174.481 71.26839755097575
177.019 71.27512994377769
179.594 71.27784473900446
182.206 71.27520727009855
184.856 71.26920727009858
187.545 71.2611877084455
190.273 71.25116830017365
193.041 71.24214904528404
195.849 71.2324919117414
198.697 71.22051124406448
201.587 71.21320727009856
204.52 71.20259010722262
207.494 71.18067142451552
210.512 71.1554539732847
213.574 71.13063071155983
216.681 71.12219890426822
219.833 71.14212859202034
223.03 71.17770092393138
226.274 71.2154781948297
229.565 71.2324504385923
232.905 71.216714908468
236.292 71.18695350513441
239.729 71.1519002875649
243.216 71.1259803438427
246.754 71.11546391530123
250.343 71.11099554674517
253.984 71.10918659433108
257.678 71.11836828936353
261.426 71.1425086728269
265.229 71.1675718352479
269.087 71.17236633868039
273.001 71.16421339522913
276.972 71.12238126449192
281.0 71.0713070611345
285.088 71.04789018751896
289.234 71.0554066508272
293.441 71.08524126766319
297.709 71.11339298712127
302.04 71.12123345337294
306.433 71.10478300125989
310.89 71.06663034030915
315.412 71.02183452315552
320.0 70.98616917345653
324.655 70.96660125782569
329.377 70.94651943667677
334.168 70.93941555722347
339.028 70.93164205574197
343.959 70.90252991330674
348.962 70.88182285632895
354.038 70.87155343763222
359.188 70.85553152980233
364.412 70.85235478138658
369.713 70.87067766335761
375.09 70.87453166662931
380.546 70.8540527042888
386.081 70.82441480858067
391.697 70.78134560094418
397.394 70.73539906953242
403.175 70.66634018883711
409.039 70.60807519207083
414.989 70.59755447726968
421.025 70.62390861461266
427.149 70.69183591124204
433.362 70.7892945645639
439.665 70.8544681407532
446.06 70.8734003317077
452.548 70.8408288221143
459.131 70.75992986537896
465.809 70.66728709615438
472.584 70.6015008460082
479.458 70.57041497981503
486.432 70.57169606430327
493.507 70.57570017547943
500.686 70.59275527952977
507.968 70.61953324914326
515.357 70.64867643308827
522.853 70.67654170669896
530.458 70.76233680309815
538.174 70.84777619650998
546.002 70.9555763372603
553.943 71.05322152890552
562.001 71.0920370795963
570.175 71.10222833197788
578.469 71.05203333137426
586.883 70.95974016549059
595.419 70.92064672319181
604.08 70.89894128315386
612.866 70.91087497691576
621.78 70.9199462431235
630.824 70.91180982121173
640.0 70.88789516173925
649.309 70.87106276084765
658.753 70.90119149889492
668.335 70.90189503701346
678.056 70.88747250240927
687.919 70.8246187698629
697.925 70.6796378647138
708.077 70.57405454813114
718.376 70.58400846165699
728.825 70.60464826853313
739.426 70.46389009583527
750.181 70.3192290243895
761.093 70.23839339436145
772.163 70.17412302050028
783.394 70.14943228320108
794.789 70.09232379021537
806.349 70.00568724086645
818.078 69.94206887175424
829.977 69.82381628624942
842.05 69.71614773081312
854.298 69.6387781712233
866.724 69.49532347529832
879.33 69.29603222203727
892.12 69.10979696722598
905.097 68.82912384624278
918.262 68.55257645022715
931.618 68.39008687863254
945.169 68.26137462663394
958.917 68.20831277132544
972.864 68.20783258372734
987.015 68.11946553480134
1001.37 68.07552868347909
1015.94 68.06908868654389
1030.71 68.11990248252553
1045.71 68.26700464680206
1060.92 68.4363392365293
1076.35 68.50796040002712
1092.0 68.35339333485585
1107.89 68.03277747038231
1124.0 67.73022820242475
1140.35 67.4292965815433
1156.94 67.17862246847773
1173.77 67.27751100649246
1190.84 67.60018941899496
1208.16 67.93432984041164
1225.73 68.17324861784769
1243.56 68.22584389252518
1261.65 68.13646226195246
1280.0 68.0036286548727
1298.62 67.93064669141225
1317.51 67.82646597261733
1336.67 67.65496844900092
1356.11 67.46217408959623
1375.84 67.2849804071177
1395.85 67.15167346134228
1416.15 67.12687268563299
1436.75 67.23770764479025
1457.65 67.40235288430712
1478.85 67.54465507051327
1500.36 67.65112587432043
1522.19 67.8359321183502
1544.33 68.03856031371078
1566.79 68.20502718333059
1589.58 68.40988757218689
1612.7 68.58254336734957
1636.16 68.71269382987562
1659.95 68.84430590789735
1684.1 68.8766059200363
1708.6 68.83737121802447
1733.45 68.74994284594779
1758.66 68.62425270530741
1784.24 68.57163459871998
1810.19 68.62926542065142
1836.52 68.81408566409687
1863.24 69.07980732328613
1890.34 69.38042773725847
1917.83 69.72744979791005
1945.73 70.09207753072573
1974.03 70.43143920080199
2002.74 70.76875742838611
2031.87 71.00492783605922
2061.43 71.18886596696171
2091.41 71.3690212942329
2121.83 71.4784843833762
2152.69 71.60262021394233
2184.01 71.76212098243765
2215.77 71.89829314311092
2248.0 71.99956358411838
2280.7 72.0853477364611
2313.87 72.16687892945666
2347.53 72.2342990353819
2381.68 72.29673303705836
2416.32 72.35789623287866
2451.46 72.36279304228644
2487.12 72.32538867786815
2523.3 72.25934102234692
2560.0 72.15066445270685
2597.24 72.04405356866872
2635.01 71.92839425383816
2673.34 71.8008557509667
2712.23 71.69494336985804
2751.68 71.62197978731358
2791.7 71.57888805033416
2832.31 71.56377199368434
2873.5 71.5596283281599
2915.3 71.54750355156094
2957.7 71.52492083412781
3000.72 71.50231651900631
3044.37 71.46600089912079
3088.65 71.43373976435491
3133.58 71.40281261797742
3179.16 71.33023402944231
3225.4 71.20851227863321
3272.31 71.04818789785537
3319.91 70.83571250262679
3368.2 70.59907933160025
3417.19 70.35328661061112
3466.89 70.1193415289331
3517.32 69.91700316067727
3568.48 69.70606256432183
3620.39 69.53745513739796
3673.05 69.41187976583612
3726.47 69.28878389176639
3780.67 69.18128638772873
3835.67 69.03155268652444
3891.46 68.83732051935056
3948.06 68.62468881172606
4005.49 68.38511454419861
4063.75 68.17361906146111
4122.86 68.04405300596024
4182.82 68.02983382777634
4243.66 68.12307324931739
4305.39 68.27627264966127
4368.01 68.47553034415567
4431.55 68.66053887806441
4496.01 68.73717210551965
4561.4 68.71615372990095
4627.75 68.62173441571946
4695.06 68.43129307797213
4763.35 68.11560309850478
4832.64 67.6891808149239
4902.93 67.17216205264279
4974.24 66.65333072327371
5046.6 66.41432978451422
5120.0 66.69361703424805
5194.47 67.29761452506311
5270.03 67.91882665372907
5346.68 68.44650616472492
5424.45 68.88123077233777
5503.35 69.20916315473553
5583.4 69.4237010097752
5664.61 69.54388418992667
5747.01 69.52847788828656
5830.6 69.3519896124669
5915.41 69.07503692896164
6001.45 68.75227203353822
6088.74 68.43103623458234
6177.3 68.17178941669579
6267.15 67.98395936783072
6358.31 67.83538612303155
6450.8 67.71393261634813
6544.62 67.59349033786663
6639.82 67.43470444291023
6736.4 67.23404367485972
6834.38 67.03780038336276
6933.79 66.90429810643045
7034.64 66.86109315556386
7136.96 66.9662958296851
7240.77 67.17846604496532
7346.09 67.37639386324076
7452.94 67.52300680607078
7561.35 67.58646739198342
7671.33 67.55315316018141
7782.91 67.45147476514072
7896.12 67.30936483275265
8010.97 67.14795870629851
8127.49 66.98090216154299
8245.71 66.82297420935402
8365.65 66.7072617610536
8487.33 66.596154502912
8610.78 66.49405211523785
8736.03 66.43031190333515
8863.09 66.40318567149654
8992.01 66.44972028453398
9122.8 66.56885692585132
9255.5 66.6844984109499
9390.12 66.80567922062912
9526.7 66.87563684776208
9665.27 66.84845565920641
9805.86 66.70934138843788
9948.49 66.53839234175624
10093.2 66.38807760928216
10240.0 66.27067821035641
10388.9 66.21896254664935
10540.1 66.22203664899695
10693.4 66.29807361221381
10848.9 66.43004082047258
11006.7 66.56287745224904
11166.8 66.71128916648075
11329.2 66.81190203722635
11494.0 66.85489992741851
11661.2 66.84678387419062
11830.8 66.76200189824421
12002.9 66.63094737898595
12177.5 66.45068433676335
12354.6 66.17610038360343
12534.3 65.79987716282798
12716.6 65.33677612413717
12901.6 64.90892411248686
13089.2 64.5653877404655
13279.6 64.35902872911981
13472.8 64.25591398019398
13668.8 64.22159632131495
13867.6 64.27451753752649
14069.3 64.35814124610454
14273.9 64.4721187624782
14481.5 64.61992330128612
14692.2 64.72625624031627
14905.9 64.82637884183744
15122.7 64.88917283572347
15342.7 64.91377953278166
15565.8 64.93302368865872
15792.2 64.92721227549985
16021.9 64.92633274229887
16255.0 64.90958340728007
16491.4 64.88374174551423
16731.3 64.8400623782967
16974.7 64.77664687248563
17221.6 64.70627930494709
17472.1 64.62737844205854
17726.2 64.58244572037698
17984.0 64.60778615981069
18245.6 64.71367936440204
18511.0 64.91661238128302
18780.2 65.17043823012976
19053.4 65.40811981079506
19330.5 65.6050907821472
19611.7 65.72261982603831
19897.0 65.76306362316237
