Freq "Front Wall Bounce"
20.0 28.63077180309901
20.2909 29.13748338680844
20.586 29.67904931528429
20.8855 30.22832949608977
21.1893 30.759467119112344
21.4975 31.244748615704026
21.8102 31.66103107901162
22.1274 32.02688609463732
22.4492 32.392171499827356
22.7758 32.79188694947035
23.1071 33.242317396943804
23.4432 33.744320087963246
23.7841 34.26932051194993
24.1301 34.784036233119906
24.4811 35.278893118567964
24.8372 35.75232051194993
25.1984 36.21560559396593
25.5649 36.68217836006707
25.9368 37.16032008796324
26.3141 37.65546249817541
26.6968 38.156605989894445
27.0851 38.65374802760877
27.4791 39.140748027608765
27.8788 39.610177406765786
28.2843 40.06631929878378
28.6957 40.51989036235713
29.1131 40.97774754213307
29.5365 41.44917560622849
29.9661 41.93588872556097
30.402 42.432888069870586
30.8442 42.93103134944798
31.2929 43.418745837461046
31.748 43.89746122634986
32.2098 44.370461226349846
32.6783 44.84088912173084
33.1536 45.32503263239528
33.6359 45.82388912173087
34.1251 46.33360287802475
34.6215 46.828029970512745
35.125 47.29317288210649
35.6359 47.739032003456884
36.1543 48.17860447914657
36.6802 48.62989253017426
37.2137 49.11075354893525
37.755 49.618040666294746
38.3041 50.13475663107664
38.8613 50.63818610874273
39.4265 51.12732924659454
40.0 51.606045131616284
40.5818 52.08290359043144
41.1721 52.56276234175684
41.771 53.045622593377686
42.3785 53.52862485759394
42.9949 54.013053852312694
43.6203 54.501481925270014
44.2548 54.98933482387818
44.8985 55.47676060768208
45.5515 55.966614662907276
46.2141 56.452614272612024
46.8863 56.93175595365703
47.5683 57.40347203123511
48.2602 57.87161427261202
48.9621 58.34175785846624
49.6743 58.81204442185779
50.3968 59.28290278284126
51.1299 59.75561854168696
51.8736 60.222189728248054
52.6281 60.68161873493693
53.3936 61.13590619081252
54.1702 61.585764480867496
54.9581 62.03047885325486
55.7575 62.47019307432066
56.5685 62.903334868464526
57.3914 63.32833365613055
58.2261 63.745334708125114
59.073 64.15490587073008
59.9323 64.55719305148855
60.804 64.95447833628967
61.6884 65.34390784024815
62.5857 65.7257652149353
63.496 66.09490784024815
64.4196 66.44719305148855
65.3566 66.78390928821835
66.3073 67.1060526330922
67.2717 67.41862511269221
68.2502 67.72577207710981
69.2429 68.02677561869886
70.2501 68.32006474225244
71.2719 68.59820808199547
72.3086 68.85606300392352
73.3603 69.09406169403911
74.4274 69.31563056369126
75.5099 69.52606097572739
76.6083 69.72763056369125
77.7226 69.92163322317481
78.8531 70.10449012829466
80.0 70.27063552109666
81.1636 70.42220887820903
82.3442 70.56278278500058
83.5419 70.69406806928978
84.757 70.81635215891133
85.9899 70.93092085887992
87.2406 71.03520524925517
88.5096 71.12748915783675
89.797 71.21091804246106
91.1031 71.28706082704467
92.4282 71.3572045296995
93.7726 71.42320666541207
95.1366 71.48220886565404
96.5204 71.53435295710145
97.9243 71.58064151632969
99.3486 71.61835732275371
100.794 71.64835968757089
102.26 71.67436149547538
103.747 71.69393301970874
105.256 71.70936501249287
106.787 71.72522325342479
108.34 71.74151297595651
109.916 71.7560869055135
111.515 71.76852133872687
113.137 71.77709887389055
114.783 71.78082247047911
116.452 71.781688747439
118.146 71.78012480973713
119.865 71.77369770972929
121.608 71.76198268329378
123.377 71.74583541253405
125.171 71.72568833114241
126.992 71.70854488548706
128.839 71.69683213274881
130.713 71.69169144033492
132.615 71.6919770105075
134.543 71.69440759961341
136.5 71.69983860313795
138.486 71.70198419460475
140.5 71.69898925349939
142.544 71.69370809855951
144.617 71.68300217946019
146.721 71.67258212316565
148.855 71.66144495617911
151.02 71.65145083192945
153.217 71.64031217444148
155.445 71.62817267934119
157.706 71.61746640416298
160.0 71.60319248449233
162.327 71.58849612750197
164.688 71.57723344181767
167.084 71.56768842727786
169.514 71.56457555458589
171.98 71.56975340732991
174.481 71.5820716168391
177.019 71.59310238158878
179.594 71.59996943508693
182.206 71.60139524980431
184.856 71.59580981342442
187.545 71.58578963186667
190.273 71.57263956000021
193.041 71.55878354230052
195.849 71.54593979179914
198.697 71.53381936659247
201.587 71.5294178110105
204.52 71.52430092483482
207.494 71.51232135441899
210.512 71.5017736917606
213.574 71.4968064124634
216.681 71.51129487848533
219.833 71.55249948489748
223.03 71.60454595831973
226.274 71.6465548915498
229.565 71.65753557556206
232.905 71.63363956222376
236.292 71.59390716920339
239.729 71.55375998842337
243.216 71.5326512362506
246.754 71.53127191584917
250.343 71.53676685439491
253.984 71.54242510491281
257.678 71.55595610340889
261.426 71.57832374041124
265.229 71.60481155532877
269.087 71.62870411287852
273.001 71.6428577918468
276.972 71.62230442472165
281.0 71.59363148058776
285.088 71.57854939277621
289.234 71.58534165093555
293.441 71.6178442872196
297.709 71.65550663412576
302.04 71.67846702580727
306.433 71.68002524050908
310.89 71.65729000623085
315.412 71.63075560207162
320.0 71.62059105469154
324.655 71.63624916460228
329.377 71.65851640571859
334.168 71.68912167926439
339.028 71.71375345595752
343.959 71.71184894837708
348.962 71.7123004012128
354.038 71.72548008716245
359.188 71.72345998978427
364.412 71.72268240288565
369.713 71.73552829708302
375.09 71.7172016386076
380.546 71.67907897904172
386.081 71.64727738494585
391.697 71.61452189170899
397.394 71.5845600198844
403.175 71.54147858773237
409.039 71.5160383475303
414.989 71.53017383720228
421.025 71.5724304978712
427.149 71.635928418205
433.362 71.70329182111189
439.665 71.72638357596497
446.06 71.6964423843894
452.548 71.62943544936
459.131 71.53885616436995
465.809 71.45144969205857
472.584 71.4145467742504
479.458 71.42172033997295
486.432 71.4650202062997
493.507 71.52322383779386
500.686 71.60468391179268
507.968 71.69335789132481
515.357 71.75800618200311
522.853 71.79715475222734
530.458 71.8591188373094
538.174 71.90205248054471
546.002 71.96063874861515
553.943 72.00720685530598
562.001 72.02407404504939
570.175 72.04715669245215
578.469 72.02760458320114
586.883 71.9865195283728
595.419 71.99241023659333
604.08 71.99576807131533
612.866 71.99728683712179
621.78 71.98262926123985
630.824 71.967135445508
640.0 71.9570027151685
649.309 71.97301622020711
658.753 72.02349189400272
668.335 72.01991090941817
678.056 71.99990013498686
687.919 71.92435780915162
697.925 71.79699171737154
708.077 71.779201138665
718.376 71.90312244083302
728.825 72.03648860570826
739.426 72.01743885890977
750.181 71.97702441424424
761.093 71.98100813436851
772.163 72.0126921130516
783.394 72.07853413714949
794.789 72.08651315858421
806.349 72.05262769849456
818.078 72.01806170213422
829.977 71.92482541440936
842.05 71.85796107035463
854.298 71.84630111785515
866.724 71.83814378174341
879.33 71.86452078485587
892.12 71.91644003952459
905.097 71.94939362014189
918.262 71.94408240985938
931.618 71.88468471686994
945.169 71.84268776409162
958.917 71.79681121705399
972.864 71.79607983212918
987.015 71.83335273537816
1001.37 71.84716623595868
1015.94 71.85747280252612
1030.71 71.85693302582821
1045.71 71.82091051689468
1060.92 71.80854393433523
1076.35 71.79446039056812
1092.0 71.7434384036076
1107.89 71.69189079071124
1124.0 71.73729585779964
1140.35 71.81266304823383
1156.94 71.71369909728122
1173.77 71.71848603965957
1190.84 71.80156403039558
1208.16 71.81009674240359
1225.73 71.82923791926008
1243.56 71.76957083097699
1261.65 71.63034738235368
1280.0 71.57701357030652
1298.62 71.54471353390582
1317.51 71.53727804246864
1336.67 71.56402975465144
1356.11 71.50200842682864
1375.84 71.45288315937859
1395.85 71.40303807768854
1416.15 71.3230257021392
1436.75 71.32617698129255
1457.65 71.29343838444832
1478.85 71.27796626969061
1500.36 71.28418625760094
1522.19 71.27806219298992
1544.33 71.36558813873276
1566.79 71.44666996028988
1589.58 71.5198262963882
1612.7 71.57229087373804
1636.16 71.54154806639383
1659.95 71.54492585440813
1684.1 71.47338180539472
1708.6 71.4003343277268
1733.45 71.34745927634923
1758.66 71.24055630418982
1784.24 71.13544978582058
1810.19 71.04291824427594
1836.52 70.94246031050173
1863.24 70.88527012968842
1890.34 70.84918384781595
1917.83 70.8882919313491
1945.73 70.97611211970978
1974.03 71.03419051499995
2002.74 71.07364920481645
2031.87 71.04256250975573
2061.43 70.94483658332553
2091.41 70.87867156425098
2121.83 70.80838005561552
2152.69 70.74510094030518
2184.01 70.71783178209091
2215.77 70.68283762761985
2248.0 70.64071102162409
2280.7 70.62117238642969
2313.87 70.65630339819919
2347.53 70.69629376782189
2381.68 70.71094586092485
2416.32 70.73635919574917
2451.46 70.75842502181658
2487.12 70.7685553293212
2523.3 70.82492321691007
2560.0 70.9289657716039
2597.24 71.02870269395245
2635.01 71.09816600576204
2673.34 71.13537963499945
2712.23 71.0703158631189
2751.68 70.92239066981485
2791.7 70.76373967254972
2832.31 70.59612023239927
2873.5 70.48039107939603
2915.3 70.47786280115092
2957.7 70.5270674962955
3000.72 70.60546626259537
3044.37 70.63471629211696
3088.65 70.5685518555267
3133.58 70.39954631648045
3179.16 70.13248972986254
3225.4 69.83338097290246
3272.31 69.58119190574904
3319.91 69.41359143133353
3368.2 69.37008710974142
3417.19 69.43788941837006
3466.89 69.5576729023499
3517.32 69.65860892344251
3568.48 69.69874498275864
3620.39 69.69203945621379
3673.05 69.69184519236522
3726.47 69.73204617778916
3780.67 69.83950321755964
3835.67 69.98600576834157
3891.46 70.12069766948619
3948.06 70.21363386838681
4005.49 70.28272443095585
4063.75 70.35922468281575
4122.86 70.45488522353673
4182.82 70.54740455771946
4243.66 70.62418135279322
4305.39 70.67863427987909
4368.01 70.74554287156877
4431.55 70.84462622802889
4496.01 70.95413449553001
4561.4 71.05719073981734
4627.75 71.12039280880046
4695.06 71.1345118055545
4763.35 71.14112742146956
4832.64 71.14585609625689
4902.93 71.13832410642958
4974.24 71.12330435547733
5046.6 71.14452449045766
5120.0 71.21902902226667
5194.47 71.26670887228501
5270.03 71.231453666366
5346.68 71.13337038828972
5424.45 71.02400792645307
5503.35 70.94988570764478
5583.4 70.90809136426513
5664.61 70.89167163100926
5747.01 70.87352363837071
5830.6 70.82198003519558
5915.41 70.76043504665432
6001.45 70.69140647473206
6088.74 70.5881002900628
6177.3 70.4410221500932
6267.15 70.28990298213404
6358.31 70.18063210189635
6450.8 70.13939911705478
6544.62 70.16102445012045
6639.82 70.21637283215988
6736.4 70.2910801118965
6834.38 70.34729463652774
6933.79 70.35966080232382
7034.64 70.37471585509586
7136.96 70.35429643132059
7240.77 70.29066219773696
7346.09 70.27806960377148
7452.94 70.25950800480344
7561.35 70.21147686814457
7671.33 70.21226283267569
7782.91 70.20230611525179
7896.12 70.14950018838977
8010.97 70.0897257168829
8127.49 70.02135857952901
8245.71 69.95693347873828
8365.65 69.8665807017795
8487.33 69.74433008521657
8610.78 69.63365739267994
8736.03 69.55668665067641
8863.09 69.53002317130822
8992.01 69.5600601971004
9122.8 69.65506878676591
9255.5 69.82954223770035
9390.12 69.99810961777092
9526.7 70.11499644855503
9665.27 70.20551257980416
9805.86 70.24517606991932
9948.49 70.2398541320848
10093.2 70.28378225580744
10240.0 70.37487952293606
10388.9 70.4815311366574
10540.1 70.57416092404112
10693.4 70.68493785575696
10848.9 70.78770866663682
11006.7 70.83720484020537
11166.8 70.83303733560983
11329.2 70.79192595903775
11494.0 70.6961812245706
11661.2 70.56347981675137
11830.8 70.45780895341743
12002.9 70.36911189897498
12177.5 70.29371203833617
12354.6 70.26715348779138
12534.3 70.16295650406778
12716.6 70.00668846426223
12901.6 69.92703744454064
13089.2 69.8678459016489
13279.6 69.90062784928963
13472.8 69.96023942890046
13668.8 69.98862467094219
13867.6 70.04410125352965
14069.3 70.04357374348636
14273.9 70.03594272434518
14481.5 70.0079616084701
14692.2 69.94108344816038
14905.9 69.87910325636479
15122.7 69.79794334232176
15342.7 69.74656265556051
15565.8 69.72953898861095
15792.2 69.74373109959679
16021.9 69.80816049219132
16255.0 69.8803089708278
16491.4 69.96780042636107
16731.3 70.0505505388522
16974.7 70.12272752419724
17221.6 70.18578048270236
17472.1 70.22827799949721
17726.2 70.25057286576455
17984.0 70.25079493044906
18245.6 70.22849026470114
18511.0 70.20573936816872
18780.2 70.1884774816597
19053.4 70.19850947097639
19330.5 70.26555994756477
19611.7 70.39038953023953
19897.0 70.5978805574301
