Freq "Front Wall Bounce"
20.0 28.557488784231083
20.2909 29.064200367940543
20.586 29.605766296416363
20.8855 30.155046477221845
21.1893 30.686184100244446
21.4975 31.1714655968361
21.8102 31.587748060143696
22.1274 31.953603075769394
22.4492 32.31888848095946
22.7758 32.71860393060243
23.1071 33.16903437807591
23.4432 33.67103706909535
23.7841 34.196037493082
24.1301 34.71075321425198
24.4811 35.20561009970007
24.8372 35.679037493082035
25.1984 36.142322575098035
25.5649 36.60889534119917
25.9368 37.087037069095345
26.3141 37.58217947930751
26.6968 38.08332297102652
27.0851 38.580465008740845
27.4791 39.06746500874084
27.8788 39.53689438789786
28.2843 39.993036279915856
28.6957 40.446607343489205
29.1131 40.90446452326515
29.5365 41.375892587360596
29.9661 41.862605706693046
30.402 42.35960505100269
30.8442 42.85774833058005
31.2929 43.34546281859315
31.748 43.824178207481935
32.2098 44.29717820748192
32.6783 44.76760610286294
33.1536 45.25174961352735
33.6359 45.750606102862946
34.1251 46.26031985915685
34.6215 46.75474695164485
35.125 47.21988986323859
35.6359 47.66574898458896
36.1543 48.105321460278645
36.6802 48.55660951130636
37.2137 49.03747053006734
37.755 49.544757647426835
38.3041 50.061473612208715
38.8613 50.56490308987483
39.4265 51.054046227726616
40.0 51.53276211274836
40.5818 52.00962057156353
41.1721 52.489479322888926
41.771 52.972339574509775
42.3785 53.45534183872603
42.9949 53.9397708334448
43.6203 54.42819890640209
44.2548 54.91605180501027
44.8985 55.40347758881417
45.5515 55.89333164403938
46.2141 56.3793312537441
46.8863 56.858472934789134
47.5683 57.3301890123672
48.2602 57.798331253744095
48.9621 58.268474839598326
49.6743 58.738761402989894
50.3968 59.209619763973365
51.1299 59.682335522819045
51.8736 60.14890670938016
52.6281 60.60833571606901
53.3936 61.06262317194461
54.1702 61.5124814619996
54.9581 61.95719583438695
55.7575 62.39691005545275
56.5685 62.830051849596614
57.3914 63.255050637262656
58.2261 63.6720516892572
59.073 64.08162285186216
59.9323 64.48391003262066
60.804 64.88119531742177
61.6884 65.27062482138022
62.5857 65.65248219606738
63.496 66.02162482138024
64.4196 66.37391003262066
65.3566 66.71062626935046
66.3073 67.0327696142243
67.2717 67.34534209382431
68.2502 67.65248905824191
69.2429 67.95349259983097
70.2501 68.24678172338452
71.2719 68.52492506312757
72.3086 68.7827799850556
73.3603 69.02077867517121
74.4274 69.24234754482335
75.5099 69.45277795685948
76.6083 69.65434754482334
77.7226 69.84835020430688
78.8531 70.03120710942675
80.0 70.19735250222874
81.1636 70.34892585934111
82.3442 70.48949976613265
83.5419 70.62078505042186
84.757 70.7430691400434
85.9899 70.85763784001202
87.2406 70.96192223038726
88.5096 71.05420613896884
89.797 71.13763502359316
91.1031 71.21377780817674
92.4282 71.28392151083159
93.7726 71.34992364654416
95.1366 71.40892584678613
96.5204 71.46106993823352
97.9243 71.50735849746178
99.3486 71.5450743038858
100.794 71.57507666870299
102.26 71.60107847660747
103.747 71.62065000084083
105.256 71.63608199362497
106.787 71.65194023455689
108.34 71.66822995708861
109.916 71.68280388664557
111.515 71.69523831985897
113.137 71.70381585502264
114.783 71.70753945161121
116.452 71.7084057285711
118.146 71.70684179086922
119.865 71.70041469086138
121.608 71.68869966442587
123.377 71.67255239366612
125.171 71.65240531227451
126.992 71.63526186661915
128.839 71.62354911388091
130.713 71.61840842146702
132.615 71.6186939916396
134.543 71.62112458074552
136.5 71.62655558427005
138.486 71.62870117573684
140.5 71.62570623463147
142.544 71.62042507969161
144.617 71.60971916059228
146.721 71.59929910429773
148.855 71.5881619373112
151.02 71.57816781306154
153.217 71.56702915557355
155.445 71.5548896604733
157.706 71.54418338529507
160.0 71.5299094656244
162.327 71.51521310863404
164.688 71.50395042294976
167.084 71.49440540840996
169.514 71.49129253571799
171.98 71.496470388462
174.481 71.50878859797118
177.019 71.51981936272085
179.594 71.52668641621902
182.206 71.52811223093642
184.856 71.5225267945565
187.545 71.51250661299875
190.273 71.49935654113229
193.041 71.48550052343259
195.849 71.47265677293123
198.697 71.46053634772456
201.587 71.45613479214259
204.52 71.45101790596689
207.494 71.43903833555107
210.512 71.42849067289268
213.574 71.42352339359549
216.681 71.43801185961742
219.833 71.47921646602958
223.03 71.53126293945184
226.274 71.57327187268187
229.565 71.58425255669415
232.905 71.56035654335585
236.292 71.52062415033548
239.729 71.48047696955544
243.216 71.45936821738269
246.754 71.45798889698126
250.343 71.463483835527
253.984 71.46914208604488
257.678 71.48267308454096
261.426 71.50504072154332
265.229 71.53152853646085
269.087 71.5554210940106
273.001 71.56957477297887
276.972 71.54902140585372
281.0 71.52034846171986
285.088 71.50526637390831
289.234 71.51205863206762
293.441 71.5445612683517
297.709 71.58222361525785
302.04 71.60518400693937
306.433 71.60674222164118
310.89 71.58400698736293
315.412 71.55747258320369
320.0 71.54730803582365
324.655 71.56296614573435
329.377 71.58523338685066
334.168 71.61583866039649
339.028 71.6404704370896
343.959 71.63856592950918
348.962 71.63901738234487
354.038 71.65219706829453
359.188 71.65017697091636
364.412 71.64939938401774
369.713 71.66224527821512
375.09 71.6439186197397
380.546 71.6057959601738
386.081 71.57399436607793
391.697 71.54123887284108
397.394 71.51127700101652
403.175 71.46819556886447
409.039 71.44275532866239
414.989 71.45689081833437
421.025 71.49914747900327
427.149 71.56264539933707
433.362 71.63000880224399
439.665 71.65310055709708
446.06 71.62315936552147
452.548 71.5561524304921
459.131 71.46557314550205
465.809 71.37816667319065
472.584 71.3412637553825
479.458 71.34843732110504
486.432 71.3917371874318
493.507 71.44994081892594
500.686 71.53140089292476
507.968 71.6200748724569
515.357 71.6847231631352
522.853 71.72387173335942
530.458 71.78583581844148
538.174 71.82876946167681
546.002 71.88735572974723
553.943 71.93392383643805
562.001 71.95079102618146
570.175 71.97387367358424
578.469 71.95432156433321
586.883 71.91323650950488
595.419 71.91912721772542
604.08 71.92248505244741
612.866 71.92400381825387
621.78 71.90934624237194
630.824 71.8938524266401
640.0 71.8837196963006
649.309 71.89973320133919
658.753 71.95020887513479
668.335 71.94662789055025
678.056 71.92661711611896
687.919 71.85107479028372
697.925 71.72370869850363
708.077 71.7059181197971
718.376 71.82983942196512
728.825 71.96320558684035
739.426 71.94415584004187
750.181 71.90374139537633
761.093 71.9077251155006
772.163 71.93940909418367
783.394 72.00525111828158
794.789 72.01323013971631
806.349 71.97934467962665
818.078 71.9447786832663
829.977 71.85154239554143
842.05 71.78467805148672
854.298 71.77301809898722
866.724 71.76486076287551
879.33 71.79123776598797
892.12 71.84315702065668
905.097 71.87611060127398
918.262 71.87079939099146
931.618 71.81140169800202
945.169 71.76940474522371
958.917 71.72352819818606
972.864 71.72279681326125
987.015 71.76006971651023
1001.37 71.77388321709076
1015.94 71.7841897836582
1030.71 71.78365000696031
1045.71 71.74762749802676
1060.92 71.73526091546734
1076.35 71.72117737170021
1092.0 71.67015538473969
1107.89 71.61860777184333
1124.0 71.66401283893173
1140.35 71.73938002936592
1156.94 71.6404160784133
1173.77 71.64520302079166
1190.84 71.72828101152766
1208.16 71.73681372353569
1225.73 71.75595490039215
1243.56 71.69628781210906
1261.65 71.55706436348575
1280.0 71.50373055143861
1298.62 71.4714305150379
1317.51 71.46399502360072
1336.67 71.49074673578355
1356.11 71.42872540796074
1375.84 71.37960014051068
1395.85 71.32975505882064
1416.15 71.2497426832713
1436.75 71.25289396242465
1457.65 71.22015536558041
1478.85 71.20468325082271
1500.36 71.21090323873304
1522.19 71.20477917412202
1544.33 71.29230511986485
1566.79 71.37338694142198
1589.58 71.44654327752028
1612.7 71.49900785487013
1636.16 71.46826504752593
1659.95 71.47164283554021
1684.1 71.40009878652683
1708.6 71.32705130885888
1733.45 71.27417625748132
1758.66 71.16727328532191
1784.24 71.06216676695269
1810.19 70.96963522540804
1836.52 70.86917729163382
1863.24 70.81198711082052
1890.34 70.77590082894802
1917.83 70.81500891248119
1945.73 70.90282910084187
1974.03 70.96090749613204
2002.74 71.00036618594855
2031.87 70.96927949088781
2061.43 70.87155356445763
2091.41 70.80538854538307
2121.83 70.7350970367476
2152.69 70.67181792143728
2184.01 70.64454876322301
2215.77 70.60955460875194
2248.0 70.56742800275616
2280.7 70.54788936756177
2313.87 70.58302037933129
2347.53 70.62301074895399
2381.68 70.63766284205695
2416.32 70.66307617688125
2451.46 70.68514200294865
2487.12 70.69527231045329
2523.3 70.75164019804214
2560.0 70.85568275273599
2597.24 70.95541967508454
2635.01 71.02488298689411
2673.34 71.06209661613156
2712.23 70.99703284425101
2751.68 70.84910765094692
2791.7 70.6904566536818
2832.31 70.52283721353135
2873.5 70.40710806052813
2915.3 70.40457978228301
2957.7 70.4537844774276
3000.72 70.53218324372745
3044.37 70.56143327324905
3088.65 70.4952688366588
3133.58 70.32626329761256
3179.16 70.05920671099463
3225.4 69.76009795403455
3272.31 69.50790888688111
3319.91 69.34030841246562
3368.2 69.29680409087352
3417.19 69.36460639950215
3466.89 69.484389883482
3517.32 69.5853259045746
3568.48 69.62546196389071
3620.39 69.61875643734587
3673.05 69.61856217349731
3726.47 69.65876315892123
3780.67 69.76622019869171
3835.67 69.91272274947364
3891.46 70.04741465061828
3948.06 70.14035084951891
4005.49 70.20944141208794
4063.75 70.28594166394784
4122.86 70.38160220466881
4182.82 70.47412153885155
4243.66 70.5508983339253
4305.39 70.60535126101117
4368.01 70.67225985270085
4431.55 70.77134320916099
4496.01 70.88085147666209
4561.4 70.98390772094945
4627.75 71.04710978993253
4695.06 71.06122878668657
4763.35 71.06784440260165
4832.64 71.07257307738897
4902.93 71.06504108756168
4974.24 71.05002133660943
5046.6 71.07124147158976
5120.0 71.14574600339877
5194.47 71.19342585341711
5270.03 71.15817064749808
5346.68 71.06008736942181
5424.45 70.95072490758514
5503.35 70.87660268877687
5583.4 70.83480834539722
5664.61 70.81838861214135
5747.01 70.80024061950282
5830.6 70.74869701632767
5915.41 70.68715202778641
6001.45 70.61812345586416
6088.74 70.51481727119489
6177.3 70.3677391312253
6267.15 70.21661996326613
6358.31 70.10734908302844
6450.8 70.06611609818685
6544.62 70.08774143125254
6639.82 70.14308981329197
6736.4 70.21779709302861
6834.38 70.27401161765982
6933.79 70.2863777834559
7034.64 70.30143283622795
7136.96 70.28101341245268
7240.77 70.21737917886907
7346.09 70.20478658490359
7452.94 70.18622498593551
7561.35 70.13819384927665
7671.33 70.13897981380778
7782.91 70.12902309638386
7896.12 70.07621716952187
8010.97 70.01644269801497
8127.49 69.94807556066108
8245.71 69.88365045987037
8365.65 69.79329768291159
8487.33 69.67104706634868
8610.78 69.56037437381201
8736.03 69.4834036318085
8863.09 69.45674015244029
8992.01 69.4867771782325
9122.8 69.581785767898
9255.5 69.75625921883243
9390.12 69.924826598903
9526.7 70.04171342968712
9665.27 70.13222956093627
9805.86 70.17189305105141
9948.49 70.16657111321689
10093.2 70.21049923693951
10240.0 70.30159650406816
10388.9 70.40824811778948
10540.1 70.50087790517323
10693.4 70.61165483688904
10848.9 70.7144256477689
11006.7 70.76392182133745
11166.8 70.75975431674192
11329.2 70.71864294016984
11494.0 70.6228982057027
11661.2 70.49019679788346
11830.8 70.3845259345495
12002.9 70.29582888010707
12177.5 70.22042901946826
12354.6 70.19387046892348
12534.3 70.08967348519987
12716.6 69.93340544539433
12901.6 69.85375442567275
13089.2 69.79456288278101
13279.6 69.82734483042171
13472.8 69.88695641003254
13668.8 69.91534165207428
13867.6 69.97081823466175
14069.3 69.97029072461844
14273.9 69.96265970547726
14481.5 69.93467858960217
14692.2 69.86780042929246
14905.9 69.80582023749687
15122.7 69.72466032345386
15342.7 69.67327963669261
15565.8 69.65625596974306
15792.2 69.67044808072887
16021.9 69.73487747332342
16255.0 69.80702595195987
16491.4 69.89451740749315
16731.3 69.9772675199843
16974.7 70.04944450532933
17221.6 70.11249746383444
17472.1 70.1549949806293
17726.2 70.17728984689666
17984.0 70.17751191158113
18245.6 70.15520724583324
18511.0 70.13245634930081
18780.2 70.11519446279179
19053.4 70.12522645210848
19330.5 70.19227692869686
19611.7 70.31710651137162
19897.0 70.52459753856219
