Freq "Ceiling Bounce"
22.4 -17.469161685219646
23.0 -16.593821232664382
23.6 -15.816422003574573
24.0 -15.137640067218214
25.0 -14.379207720813568
25.8 -9.463408799027874
26.5 -5.535322615913842
27.2 -2.809594520779214
28.0 -0.689373130413756
29.0 1.0521967677364188
30.0 2.5521967677363904
30.7 4.844548061279639
31.5 7.794705910548046
32.5 10.029386616640622
33.5 11.88448213662879
34.5 13.4407119778149
35.5 15.109013604237262
36.5 17.54311549329249
37.5 19.479401228214826
38.7 21.081065114964176
40.0 22.491475299816827
41.2 24.664680250758025
42.5 27.16214544305079
43.7 29.098273186743185
45.0 30.73493393941699
46.2 32.50901214427874
47.5 34.609867495191125
48.7 36.3738364733487
50.0 37.89996844160599
51.5 39.82654731432011
53.0 41.653577937562275
54.5 43.2439448384027
56.0 45.4073603928786
58.0 47.92910450022576
60.0 49.92390458479154
61.5 51.78961312216633
63.0 53.620188514897976
65.0 55.22018851489794
67.0 57.01795813433047
69.0 58.817214550956194
71.0 60.417958134330476
73.0 62.151254843312415
75.0 63.716382592114925
77.5 64.98506490310774
80.0 66.11939215520307
82.5 67.28506490310777
85.0 68.41939215520306
87.5 69.41939215520307
90.0 70.25046416039713
92.5 70.91939215520306
95.0 71.38203144940323
97.5 71.98203144940324
100.0 72.75046416039713
103.0 73.28203144940325
106.0 73.88203144940323
109.0 74.58203144940323
112.0 75.18051432989866
115.0 75.61409824412807
118.0 76.08051432989866
122.0 76.48051432989867
125.0 76.81333666232301
128.0 77.11333666232302
132.0 77.41333666232302
136.0 77.74744204849598
140.0 78.01333666232303
145.0 78.38051432989866
150.0 78.64744204849599
155.0 78.84744204849599
160.0 79.047442048496
165.0 79.21487742722287
170.0 79.34744204849598
175.0 79.41487742722288
180.0 79.51487742722287
185.0 79.5820667813408
190.0 79.64976171801781
195.0 79.74976171801781
200.0 79.74976171801781
206.0 79.81795813433048
212.0 79.91795813433046
218.0 79.91795813433046
224.0 79.95362644767121
230.0 79.98665184579764
236.0 79.98665184579764
240.0 79.98665184579764
250.0 79.98665184579764
258.0 79.95583858993527
265.0 79.85583858993526
272.0 79.79201861859923
280.0 79.75583858993525
290.0 79.69201861859922
300.0 79.65583858993526
307.0 79.62551402982773
315.0 79.62551402982773
325.0 79.65583858993526
335.0 79.69201861859922
345.0 79.72257714016278
355.0 79.79201861859923
365.0 79.85583858993526
375.0 79.89201861859924
387.0 79.82257714016279
400.0 79.82257714016279
412.0 79.72257714016278
425.0 79.55583858993525
437.0 79.45583858993525
450.0 79.32257714016278
462.0 79.19201861859922
475.0 79.02873198423856
487.0 78.92873198423855
500.0 78.79891389047059
515.0 78.70733402827896
530.0 78.57872128675228
545.0 78.38937940225925
560.0 78.301544222332
580.0 78.301544222332
600.0 78.41520946678986
615.0 78.35616313276456
630.0 78.43036811554668
650.0 78.30501137473154
670.0 78.04701242403915
690.0 77.94701242403916
710.0 77.7895753910106
730.0 77.84701242403915
750.0 77.94701242403916
775.0 77.9895753910106
800.0 77.89807227729277
825.0 77.69807227729277
850.0 77.39807227729277
875.0 77.19807227729277
900.0 77.17423552476593
925.0 77.23152121079046
950.0 77.29807227729276
975.0 77.19807227729277
1000.0 76.96513394010204
1030.0 76.56513394010203
1060.0 76.13270220332083
1090.0 75.63270220332082
1120.0 75.17639464837536
1150.0 74.77639464837537
1180.0 74.452438288669
1220.0 74.22889887543136
1250.0 74.18472352221112
1280.0 74.38472352221112
1320.0 74.54111521167069
1360.0 74.76513394010202
1400.0 75.16513394010204
1450.0 75.72232957207319
1500.0 76.29807227729276
1550.0 76.74111521167067
1600.0 77.09432579297615
1650.0 77.29432579297615
1700.0 77.47154499221712
1750.0 77.59370335632578
1800.0 77.73880947201813
1850.0 77.76318144573857
1900.0 77.38895824264709
1950.0 76.71612771583449
2000.0 76.09353680299894
2060.0 75.62424342964012
2120.0 75.38969291251478
2180.0 75.27698277975847
2240.0 74.99773424493323
2300.0 74.30655110059912
2360.0 73.5466641187602
2400.0 73.11764751136636
2500.0 73.03289981468514
2580.0 73.32219789364264
2650.0 73.81106425100059
2720.0 74.44356888868971
2800.0 74.91184603492678
2900.0 75.36205333501147
3000.0 75.56205333501148
3070.0 75.54297188329906
3150.0 75.47446901194776
3250.0 75.82527016712831
3350.0 76.45890130215496
3450.0 76.81106425100059
3550.0 76.74646757230364
3650.0 76.09473065555775
3750.0 74.05064283551596
3870.0 73.10432677232201
4000.0 74.95670459159221
4120.0 76.13622996959133
4250.0 76.22909573714026
4370.0 76.03934069156239
4500.0 75.73493903562573
4620.0 75.30646892461209
4750.0 74.92203891186846
4870.0 75.10305601363316
5000.0 75.4166979226123
5150.0 75.60269046260302
5300.0 75.1342239887494
5450.0 73.55106434978045
5600.0 71.4705863265921
5800.0 70.58149284669075
6000.0 71.88782534600003
6150.0 73.8542504189299
6300.0 75.01361430384252
6500.0 75.55309205388188
6700.0 75.96301912275736
6900.0 76.21883622246773
7100.0 76.23274483422459
7300.0 75.99147658954463
7500.0 75.62107669751931
7750.0 74.63631698348159
8000.0 72.5210766975193
8250.0 70.37364326062495
8500.0 71.1194111218829
8750.0 72.16138775454807
9000.0 71.92427912930783
9250.0 71.16631707332041
9500.0 71.19121155413178
9750.0 72.67285809222601
10000.0 74.3294575593272
10300.0 75.18702028867341
10600.0 75.6870202886734
10900.0 75.95367395580439
11200.0 75.35367395580438
11500.0 74.02083742582192
11800.0 72.48850668532492
12200.0 70.88850668532491
12500.0 69.38850668532494
12800.0 68.95367395580439
13200.0 69.195467989801
13600.0 69.17285809222601
14000.0 68.80802227768103
14500.0 69.9530677712845
15000.0 70.65306777128448
15500.0 70.3266512026391
16000.0 69.10067977478487
16500.0 67.73109158267714
17000.0 67.8726782206249
17500.0 67.91594111849516
18000.0 67.09274431010219
18500.0 65.38368612017169
19000.0 62.10693123184164
19500.0 59.72181477899785
