Freq "Rear Wall Bounce"
22.4 -9.568621758204458
23.0 -8.640134664277738
23.6 -7.819584844699776
24.0 -7.170486628631934
25.0 -6.515876730776583
25.8 -5.262055075538157
26.5 -4.137479837888392
27.2 -3.3509633886659316
28.0 -2.7430460904546834
29.0 -2.3024315830551103
30.0 -2.0220356715297356
30.7 -0.9497837252687731
31.5 0.9197910073369968
32.5 2.4254796460335086
33.5 3.6935657504784984
34.5 4.8096000774956025
35.5 6.364898314723902
36.5 9.61539949798619
37.5 12.157325416154052
38.7 14.184368592116371
40.0 15.871640112615822
41.2 18.864009887323803
42.5 22.330858957844853
43.7 24.847638306458876
45.0 26.85099047115439
46.2 29.157011413331773
47.5 31.804509285843253
48.7 33.872557197591604
50.0 35.61444805073718
51.5 37.873844176932366
53.0 39.94471121125814
54.5 41.6501914565856
56.0 43.95779264382527
58.0 46.633013627053074
60.0 48.70852297090785
61.5 50.63952997694294
63.0 52.481842445279185
65.0 54.094993212000546
67.0 55.996833913907054
69.0 57.85934135992919
71.0 59.52222870356495
73.0 61.38204225493361
75.0 62.952591143258374
77.5 64.29040495819127
80.0 65.42615629945217
82.5 66.631557342108
85.0 67.86359614103412
87.5 68.88710544513712
90.0 69.71088079310229
92.5 70.41454943799859
95.0 70.9484891416747
97.5 71.61085913172722
100.0 72.31485377687798
103.0 72.9143414222741
106.0 73.48092457779529
109.0 74.20656656439924
112.0 74.80905811437727
115.0 75.25636419943022
118.0 75.65488280471114
122.0 76.0484835627065
125.0 76.43300091632975
128.0 76.68461383165801
132.0 76.98921613383547
136.0 77.331519827393
140.0 77.55849441533884
145.0 77.94760487138136
150.0 78.15861962146361
155.0 78.34759317465819
160.0 78.55729185622738
165.0 78.71969719730183
170.0 78.8300547855215
175.0 78.89284991094168
180.0 78.99794817717576
185.0 79.06145328299466
190.0 79.13030129942156
195.0 79.17777970032076
200.0 79.19988905051791
206.0 79.23223663879583
212.0 79.27565902545795
218.0 79.28732856357779
224.0 79.30356703149963
230.0 79.32064645670097
236.0 79.32657603930512
240.0 79.32348037088488
250.0 79.32421839466016
258.0 79.29449565959585
265.0 79.21255931270574
272.0 79.11280366132632
280.0 79.02234273751152
290.0 78.91830319808037
300.0 78.77083752588261
307.0 78.6221676348417
315.0 78.48299275806313
325.0 78.3320373594011
335.0 78.13990833379307
345.0 77.97053956751256
355.0 77.79107357114817
365.0 77.58736245899466
375.0 77.30484136144568
387.0 76.89101476651528
400.0 76.54468172750558
412.0 76.12742990432987
425.0 75.58966844068169
437.0 75.11599062628231
450.0 74.71598429596719
462.0 74.29400877167102
475.0 73.93010933102724
487.0 73.61686220130842
500.0 73.41048731216804
515.0 73.25427113344121
530.0 73.15901798337843
545.0 73.07677751518052
560.0 73.01144779232358
580.0 73.06044791355262
600.0 73.09813667652784
615.0 73.01656726351187
630.0 72.91858742568273
650.0 72.50154816945921
670.0 71.92625027486244
690.0 71.37528385181356
710.0 70.86346126711935
730.0 70.53492131661606
750.0 70.22007740553855
775.0 69.85926382274154
800.0 69.49296731551932
825.0 69.1401455633707
850.0 68.81733562693624
875.0 68.6590907637579
900.0 68.74511436020929
925.0 69.06454648074408
950.0 69.56106625770065
975.0 69.98315397125768
1000.0 70.37018897477893
1030.0 70.75725393113676
1060.0 71.1967136859211
1090.0 71.59656303365357
1120.0 71.94808705659527
1150.0 72.24684529547007
1180.0 72.53895027584286
1220.0 72.74238692043582
1250.0 72.8035861797575
1280.0 72.64443171072338
1320.0 72.11916339793775
1360.0 71.44022861539983
1400.0 70.8347632185294
1450.0 70.255411367999
1500.0 69.48954838722636
1550.0 68.6251918570797
1600.0 67.7870549700712
1650.0 67.04662414649087
1700.0 66.26548758345187
1750.0 65.57218834529256
1800.0 65.10993458611931
1850.0 64.64648470611415
1900.0 63.80954612267588
1950.0 62.83567360532615
2000.0 62.0615611879314
2060.0 61.66005987125533
2120.0 61.628598043623285
2180.0 61.83364872322058
2240.0 61.87373808208757
2300.0 61.58032591221708
2360.0 61.13770743685353
2400.0 60.851239789993244
2500.0 60.6238243412747
2580.0 60.399655809169204
2650.0 60.11823487438613
2720.0 59.87497327982369
2800.0 59.68514105346934
2900.0 59.52891704943136
3000.0 59.2286797272202
3070.0 58.830548478671474
3150.0 58.59859029347933
3250.0 58.94572800172898
3350.0 59.64140899347606
3450.0 60.03562039672134
3550.0 59.989382664077894
3650.0 59.152734673547684
3750.0 56.976802363680335
3870.0 55.81422855602473
4000.0 57.56867505214042
4120.0 58.62753979435449
4250.0 58.772843954174775
4370.0 58.60350181092345
4500.0 58.425432802364455
4620.0 58.04487258174565
4750.0 57.87259931303653
4870.0 58.1944392356893
5000.0 58.67969329504611
5150.0 59.1334268855437
5300.0 58.98539875285297
5450.0 57.514569816345
5600.0 55.356081905977916
5800.0 54.10481449940302
6000.0 54.86510998311037
6150.0 56.29916873623891
6300.0 57.08479716663204
6500.0 57.43652012541203
6700.0 57.779233638753524
6900.0 58.03746511633449
7100.0 58.10290939530792
7300.0 57.96055131686252
7500.0 57.66581370431196
7750.0 56.682861438928896
8000.0 54.461867391665876
8250.0 52.00944698257568
8500.0 52.32624329730639
8750.0 52.94427372165653
9000.0 52.40262688425459
9250.0 51.42505563206292
9500.0 51.300617526104745
9750.0 52.638167896275306
10000.0 54.032536718998884
10300.0 54.51165567996095
10600.0 54.54224993345501
10900.0 54.262346763392614
11200.0 53.159787002433276
11500.0 51.29267706443029
11800.0 49.19879550572564
12200.0 47.057165285680995
12500.0 45.03938170662177
12800.0 44.14376180989704
13200.0 43.9629573083064
13600.0 43.45915839968491
14000.0 42.66355640090198
14500.0 43.288102635972294
15000.0 43.342725900999724
15500.0 42.54188021490093
16000.0 41.186834070651244
16500.0 39.92566680177656
17000.0 40.47252206097865
17500.0 41.078173340119534
18000.0 40.90604274684101
18500.0 40.083512481083304
19000.0 37.79265202560792
19500.0 36.340778655758626
