Freq "On Axis"
22.4 41.89999999999999
23.0 44.2
23.6 44.8
24.0 45.7
25.0 47.2
25.8 48.8
26.5 50.000000000000014
27.2 51.500000000000014
28.0 52.89999999999999
29.0 54.2
30.0 55.7
30.7 57.10000000000001
31.5 58.2
32.5 59.500000000000014
33.5 60.89999999999999
34.5 62.10000000000001
35.5 63.39999999999999
36.5 64.59999999999998
37.5 65.60000000000001
38.7 66.7
40.0 67.9
41.2 69.2
42.5 70.4
43.7 71.6
45.0 72.8
46.2 74.0
47.5 75.3
48.7 76.5
50.0 77.7
51.5 78.8
53.0 79.8
54.5 80.7
56.0 81.3
58.0 81.8
60.0 82.2
61.5 82.39999999999999
63.0 82.9
65.0 83.6
67.0 84.0
69.0 84.2
71.0 84.50000000000001
73.0 85.0
75.0 85.60000000000001
77.5 86.3
80.0 86.8
82.5 87.00000000000001
85.0 87.09999999999998
87.5 87.00000000000001
90.0 87.2
92.5 87.39999999999999
95.0 87.5
97.5 87.7
100.0 87.7
103.0 87.2
106.0 86.8
109.0 86.8
112.0 87.00000000000001
115.0 86.8
118.0 85.99999999999999
122.0 85.99999999999999
125.0 86.3
128.0 85.8
132.0 84.7
136.0 84.4
140.0 84.4
145.0 83.9
150.0 83.3
155.0 83.40000000000002
160.0 83.3
165.0 83.3
170.0 83.10000000000001
175.0 83.7
180.0 84.8
185.0 84.4
190.0 83.49999999999999
195.0 84.89999999999999
200.0 85.7
206.0 83.6
212.0 83.0
218.0 84.89999999999999
224.0 85.7
230.0 85.60000000000001
236.0 85.4
240.0 86.1
250.0 86.4
258.0 86.5
265.0 86.5
272.0 86.4
280.0 86.1
290.0 85.7
300.0 85.3
307.0 84.89999999999999
315.0 84.50000000000001
325.0 84.2
335.0 84.1
345.0 83.9
355.0 83.7
365.0 83.49999999999999
375.0 83.3
387.0 83.10000000000001
400.0 83.10000000000001
412.0 83.3
425.0 83.7
437.0 84.0
450.0 84.1
462.0 84.0
475.0 83.8
487.0 83.7
500.0 83.8
515.0 83.9
530.0 84.0
545.0 84.0
560.0 84.2
580.0 84.7
600.0 85.5
615.0 86.3
630.0 86.9
650.0 87.3
670.0 87.6
690.0 88.2
710.0 88.7
730.0 88.9
750.0 88.7
775.0 88.3
800.0 88.0
825.0 88.0
850.0 87.9
875.0 87.6
900.0 87.2
925.0 86.7
950.0 86.4
975.0 86.9
1000.0 87.6
1030.0 88.10000000000001
1060.0 88.6
1090.0 88.8
1120.0 87.7
1150.0 85.60000000000001
1180.0 83.8
1220.0 83.8
1250.0 84.2
1280.0 84.2
1320.0 84.1
1360.0 84.8
1400.0 84.89999999999999
1450.0 84.50000000000001
1500.0 83.9
1550.0 83.49999999999999
1600.0 83.3
1650.0 82.8
1700.0 82.6
1750.0 83.10000000000001
1800.0 83.3
1850.0 83.3
1900.0 83.0
1950.0 83.8
2000.0 84.2
2060.0 84.1
2120.0 84.59999999999998
2180.0 84.50000000000001
2240.0 85.0
2300.0 85.90000000000002
2360.0 86.5
2400.0 86.1
2500.0 86.1
2580.0 85.5
2650.0 84.59999999999998
2720.0 84.0
2800.0 84.1
2900.0 84.1
3000.0 83.8
3070.0 83.0
3150.0 83.3
3250.0 84.2
3350.0 83.6
3450.0 81.2
3550.0 82.39999999999999
3650.0 84.50000000000001
3750.0 82.6
3870.0 84.1
4000.0 84.50000000000001
4120.0 83.9
4250.0 84.1
4370.0 83.6
4500.0 82.6
4620.0 81.9
4750.0 82.9
4870.0 83.49999999999999
5000.0 84.4
5150.0 86.1
5300.0 87.6
5450.0 88.40000000000002
5600.0 88.2
5800.0 86.9
6000.0 85.60000000000001
6150.0 84.2
6300.0 83.9
6500.0 83.7
6700.0 83.8
6900.0 83.9
7100.0 85.1
7300.0 85.4
7500.0 85.1
7750.0 83.6
8000.0 81.8
8250.0 79.3
8500.0 76.8
8750.0 76.2
9000.0 79.1
9250.0 81.6
9500.0 81.8
9750.0 82.3
10000.0 84.1
10300.0 83.3
10600.0 81.4
10900.0 80.3
11200.0 78.6
11500.0 76.6
11800.0 77.7
12200.0 78.49999999999999
12500.0 77.3
12800.0 75.60000000000001
13200.0 74.0
13600.0 73.8
14000.0 72.39999999999999
14500.0 69.1
15000.0 71.6
15500.0 67.8
16000.0 74.89999999999999
16500.0 73.3
17000.0 73.6
17500.0 76.9
18000.0 79.8
18500.0 76.4
19000.0 71.7
19500.0 71.7
