Freq,On Axis,Listening Window,Sound Power,Early Reflections,Early Reflections DI,Sound Power DI,DI offset
20.5078,59.76230909090907,59.33746772155814,65.42661904639685,63.151451713857114,36.18601600770103,33.91084867516129,40
21.9727,62.773609090909076,62.391566645512086,66.72123205232174,64.85518480599245,37.536381839519635,35.67033459319035,40
23.4375,64.82630909090909,64.49236068719856,67.59037433461285,66.09981083833407,38.39254984886449,36.90198635258571,40
24.9023,65.77600909090907,65.44330209733373,68.50162127910056,67.02297994035872,38.420322156975004,36.941680818233166,40
26.3672,67.40720909090908,67.1545964211726,70.06887958694125,68.67469498838886,38.479901432783734,37.08571683423135,40
27.832,69.06250909090909,68.8686456669746,71.55431895928498,70.27382083693655,38.59482483003805,37.31432670768962,40
29.2969,70.21300909090908,70.03665017130422,72.48196947994708,71.29513419851745,38.74151597278677,37.554680691357134,40
30.7617,71.5678090909091,71.44180698462822,73.94997827673848,72.76537398799717,38.67643299663105,37.49182870788974,40
32.2266,72.82490909090909,72.73494706214348,75.23059786413899,74.06957293134832,38.66537413079516,37.50434919800449,40
33.6914,74.30740909090909,74.24803103038121,76.53384029246213,75.46734330507354,38.78068772530767,37.71419073791908,40
35.1562,75.48290909090909,75.44520616136836,77.63622791867276,76.6161374181729,38.829068743195464,37.8089782426956,40
36.6211,76.62810909090908,76.61318392263749,78.72342564544996,77.7474443131023,38.86573960953518,37.889758277187525,40
38.0859,77.68140909090909,77.6811370534191,79.67835696532006,78.7572173328873,38.92391972053181,38.002780088099044,40
39.5508,78.59490909090908,78.60747896007246,80.52503582861016,79.64355950835171,38.96391945172074,38.0824431314623,40
41.0156,79.45600909090908,79.47863203793844,81.31675682976476,80.47388663685805,39.004745401080385,38.16187520817368,40
42.4805,80.21650909090908,80.24686676547147,82.00310762074083,81.19959030750124,39.04727645797023,38.24375914473063,40
43.9453,80.92980909090909,80.96808188026628,82.67467736260886,81.89699924108155,39.07108263918474,38.29340451765742,40
45.4102,81.55680909090907,81.6010175864936,83.2484472215966,82.50016611197096,39.10085147452264,38.35257036489699,40
46.875,82.1109090909091,82.16110823256116,83.78759080253366,83.05208605773446,39.109022174826706,38.373517430027505,40
48.3398,82.67210909090909,82.72643452998165,84.2790785633474,83.5780208771485,39.14841365283314,38.44735596663425,40
51.2695,83.76230909090908,83.82029659055459,85.2040460537789,84.57915598416204,39.24114060639255,38.616250536775695,40
52.7344,84.16880909090908,84.2271011363603,85.53114984217372,84.94245211114577,39.284649025214534,38.695951294186585,40
54.1992,84.53820909090908,84.5964351628554,85.81772181601372,85.26731523348738,39.32911992936802,38.778713346841684,40
55.6641,84.85870909090909,84.9172416474855,86.08210232451113,85.55804988945958,39.359191758025915,38.83513932297437,40
58.5938,85.47030909090908,85.52793436826049,86.56716507152092,86.1027750446367,39.42515932362379,38.96076929673957,40
60.0586,85.74440909090909,85.80094080982384,86.77357119035977,86.34148285059887,39.45945795922498,39.02736961946407,40
62.9883,86.29240909090909,86.3460435810851,87.19124081731096,86.81953252708658,39.52651105399852,39.15480276377414,40
64.4531,86.54020909090909,86.59189282834335,87.37309279621883,87.0298074806246,39.56208534771875,39.21880003212452,40
67.3828,86.94200909090908,86.99121878012943,87.67356504612769,87.37309863908942,39.61812014104001,39.31765373400174,40
68.8477,87.08880909090908,87.13730999242314,87.78121078514609,87.49776510189143,39.63954489053171,39.356099207277055,40
71.7773,87.26520909090908,87.31162661967689,87.87609928965571,87.62805179727752,39.683574822399365,39.43552733002117,40
74.707,87.4265090909091,87.47053573020824,87.97461630055619,87.75346208986278,39.71707364034546,39.49591942965205,40
77.6367,87.56850909090909,87.60781843278694,88.01229568621193,87.83756193623901,39.77025649654793,39.595522746575014,40
79.1016,87.58080909090909,87.61835620939628,87.99099367219576,87.83062501505162,39.78773119434466,39.627362537200526,40
82.0312,87.58360909090908,87.61706855327866,87.9132064928975,87.78822966222191,39.82883889105675,39.703862060381155,40
84.9609,87.53630909090909,87.56387642742565,87.77194539654846,87.68586170287622,39.87801472454943,39.791931030877194,40
87.8906,87.50240909090908,87.52328129898812,87.63944597577535,87.59795882680203,39.925322472186096,39.88383532321278,40
90.8203,87.76850909090908,87.78241718698177,87.82399546588061,87.81504627881966,39.96737090816211,39.95842172110116,40
95.2148,87.92850909090909,87.94046150560223,87.93325812347517,87.94717205728733,39.9932894483149,40.00720338212706,40
98.1445,87.79360909090909,87.80150827372034,87.73665846698583,87.77746083716245,40.02404743655789,40.064849806734514,40
101.074,87.65950909090907,87.66219697660597,87.54717138009579,87.61252404713235,40.049672929473616,40.11502559651018,40
105.469,87.56090909090908,87.55194897055605,87.29898071431235,87.42878789305306,40.123161077503,40.252968256243705,40
108.398,87.55660909090908,87.54044411378543,87.20426125786008,87.36769114508601,40.17275296869941,40.336182855925344,40
112.793,87.34960909090908,87.32598206114028,86.8493147640843,87.07218160914178,40.2538004519985,40.47666729705598,40
117.188,87.06800909090909,87.02832485310218,86.37181107688819,86.66558337896416,40.36274147413802,40.656513776213984,40
120.117,87.34250909090909,87.287619503489,86.3502464412162,86.78870151484443,40.498917988644564,40.9373730622728,40
124.512,87.45730909090908,87.41340657641874,86.62428106280194,87.00801718180261,40.40538939461612,40.789125513616796,40
128.906,87.02020909090908,86.96666765527169,86.18705732840333,86.55720496404311,40.40946269122858,40.779610326868365,40
133.301,86.98400909090908,86.91117289596981,85.7817534988517,86.3401166961454,40.57105619982441,41.12941939711811,40
139.16,87.13890909090908,87.05427019842796,85.68937827188456,86.36244802964933,40.69182216877863,41.36489192654339,40
143.555,87.30530909090908,87.21007705506109,85.61473681191663,86.40524953402573,40.804827521035364,41.59534024314446,40
147.949,87.75680909090909,87.66487601110776,86.02657290501467,86.85582284684142,40.809053164266345,41.63830310609309,40
153.809,88.07680909090908,87.99736282831292,86.48367508634962,87.26921363851136,40.728149189801556,41.513687741963295,40
159.668,87.29650909090908,87.21853735736619,86.05889068571548,86.61817760648297,40.600359750883214,41.159646671650705,40
165.527,87.4910090909091,87.3747211838648,85.6822121385131,86.5164394541427,40.85828172972211,41.69250904535171,40
171.387,87.75440909090906,87.64906285750502,85.7726508518885,86.73514571727546,40.91391714022956,41.876412005616515,40
177.246,87.27540909090908,87.1741779615403,85.56812113578958,86.36027823208767,40.81389972945263,41.60605682575071,40
183.105,87.33560909090909,87.19941921488875,85.08713017555444,86.15803078515981,41.04138842972894,42.112289039334314,40
188.965,87.7641090909091,87.62938324341508,85.18237268465631,86.50517136316248,41.1242118802526,42.44701055875876,40
196.289,87.93560909090908,87.81477307913022,85.65876159910091,86.81643273922674,40.99834033990348,42.156011480029306,40
203.613,87.50270909090908,87.39205356054555,85.51367383537504,86.47873101909086,40.91332254145469,41.878379725170504,40
210.938,87.05030909090908,86.91023990039008,85.05384132302412,85.9747049572379,40.93553494315218,41.856398577365965,40
218.262,87.29100909090909,87.13571274742863,84.84767968174324,86.03249505096086,41.103217696467766,42.28803306568538,40
225.586,87.28930909090909,87.11848227068698,85.08768673243577,86.06188131506094,41.05660095562604,42.03079553825121,40
232.91,87.73380909090909,87.53217646079267,85.15282292619932,86.27992852607713,41.25224793471554,42.37935353459335,40
241.699,88.05310909090909,87.86234425236444,84.75288791751072,86.35553946609933,41.50680478626511,43.10945633485372,40
250.488,89.51800909090909,89.36665974665033,85.80241600041943,87.8103565837268,41.55630316292353,43.5642437462309,40
259.277,88.75690909090909,88.61693689321852,86.21058286773996,87.46167937780966,41.15525751540886,42.406354025478564,40
268.066,88.89300909090909,88.7199140212222,85.94638711323647,87.36987796129827,41.35003605992392,42.773526907985726,40
276.855,88.84190909090907,88.66591966936424,86.12020576651396,87.40285636718852,41.26306330217572,42.54571390285028,40
287.109,87.10630909090908,86.95700429831398,85.26872198578357,86.03298564579683,40.92401865251715,41.688282312530404,40
297.363,87.79680909090908,87.50954195458107,83.87871910097465,85.60026875549258,41.90927319908849,43.63082285360642,40
307.617,88.16640909090908,87.8898353994319,84.26070746000768,85.97795683330885,41.91187856612305,43.62912793942422,40
319.336,89.42700909090908,89.17776962722425,84.76306054055075,87.18980557908507,41.987964048139176,44.4147090866735,40
329.59,88.81850909090909,88.51838758702692,85.43979779856963,86.9100767222356,41.60831086479132,43.07858978845729,40
341.309,88.05560909090909,87.7312113222628,84.65906447783723,85.97242014190113,41.75879118036167,43.07214684442556,40
353.027,87.50010909090906,87.26352169931064,84.17393941474529,85.6720702332172,41.591451466093446,43.08958228456535,40
366.211,87.96460909090908,87.746861068954,84.05218916259427,85.92457869651255,41.82228237244145,43.69467190635973,40
379.395,88.30220909090909,87.92779603218575,84.04376836502885,86.04596587506079,41.881830157124966,43.8840276671569,40
392.578,88.60100909090909,88.26717786646698,83.79342390109487,86.11541360537252,42.151764261094456,44.47375396537211,40
405.762,88.45830909090908,88.14123863281773,83.87335934924704,85.94330398828946,42.197934644528274,44.26787928357069,40
420.41,89.96000909090908,89.57005174516914,83.86670940740245,86.70653284649042,42.86351889867872,45.703342337766685,40
435.059,88.2476090909091,88.05289284444528,84.37015962254634,86.37908933047555,41.67380351396973,43.68273322189894,40
451.172,87.05610909090909,86.53369688364577,82.60839360573112,84.36958754333178,42.164109340314,43.92530327791465,40
465.82,87.24950909090909,86.93270176410907,81.92110398126403,84.42015854719313,42.512543216915944,45.011597782845044,40
483.398,87.43830909090909,87.1628762965685,82.2975765325271,84.96940884149703,42.19346745507147,44.865299764041396,40
499.512,87.64440909090908,87.38609438228949,82.31253794429333,85.04995841286289,42.33613596942659,45.07355643799616,40
517.09,87.99050909090909,87.59094895421684,82.4734832103822,85.06338184619625,42.52756710802059,45.11746574383464,40
536.133,87.08880909090908,86.67859796365806,81.74906213258717,84.38051352850653,42.29808443515154,44.92953583107089,40
555.176,86.98410909090909,86.73392455109322,81.88912604649536,84.52724241805528,42.206682133037944,44.84479850459786,40
574.219,85.22930909090908,85.07630023714918,81.07027973165977,83.33844446792705,41.737855769222136,44.00602050548942,40
594.727,87.25700909090907,86.75734782423199,81.32506839830742,84.20546486431051,42.55188295992147,45.43227942592456,40
615.234,86.1013090909091,85.78663988977044,81.21338430918766,83.65766000326794,42.128979886502506,44.57325558058278,40
637.207,87.01050909090908,86.66322383463952,81.68541610523755,84.38287876512278,42.28034506951674,44.977807729401974,40
659.18,88.94170909090909,88.48178209925942,82.79484006695542,85.75906534273464,42.722716756524775,45.686942032304,40
682.617,87.7847090909091,87.3037831157616,81.99098912639316,84.94262875242626,42.361154363335345,45.312793989368444,40
707.52,87.72980909090907,87.27016005109712,81.95968245630466,84.71752791166611,42.55263213943101,45.31047759479246,40
732.422,87.49850909090908,86.9218513956986,82.15744101265577,84.632418193418,42.28943320228059,44.76441038304283,40
757.324,88.95520909090908,88.6382788154309,83.05530846206057,85.99573080291177,42.64254801251913,45.58297035337033,40
785.156,89.70820909090907,89.30360303220111,83.73043994830125,86.7743219211471,42.529281111054004,45.57316308389986,40
811.523,88.50530909090908,88.0377133542652,82.88525602647437,85.73921665626298,42.29849669800221,45.15245732779083,40
840.82,86.63940909090908,86.4900823474707,83.01624301840786,85.52566754793722,40.964414799533486,43.47383932906284,40
870.117,88.49390909090909,88.10438905279854,83.09581232032403,86.23087327264321,41.87351578015533,45.00857673247451,40
900.879,88.25290909090909,87.79795997778619,82.92589307656797,85.96770345859048,41.830256519195714,44.87206690121822,40
933.105,87.00380909090909,86.76308583180833,82.52647801620046,85.24544184118527,41.51764399062306,44.23660781560787,40
965.332,85.82520909090908,85.82708473979332,82.39658648439261,85.15216652445042,40.6749182153429,43.43049825540071,40
1000.49,88.5995090909091,88.08132271900753,82.34220947178616,85.5182968871299,42.563025831877624,45.73911324722137,40
1035.64,87.82660909090909,87.44952172131377,82.06715016300869,85.26191842584943,42.18760329546434,45.38237155830508,40
1072.27,87.19090909090909,86.95284788075642,81.96428864879196,85.14226497354164,41.81058290721478,44.98855923196446,40
1108.89,88.57280909090909,88.21983172865144,82.07740139720872,85.40494037245814,42.8148913561933,46.142430331442725,40
1148.44,87.82690909090908,87.54420143492156,81.82009794820515,85.14164355385218,42.402557881069384,45.724103486716416,40
1189.45,87.74920909090909,87.23736441181049,81.57674304171468,84.92934381201346,42.30802059979703,45.66062137009581,40
1230.47,88.20010909090908,87.4950735560816,81.64772542557172,84.94426629680696,42.55080725927465,45.847348130509886,40
1274.41,88.45390909090908,87.98446321764047,81.46777295153923,84.85030553110562,43.13415768653485,46.516690266101236,40
1319.82,87.90950909090908,87.34046853472236,80.91882395670964,84.40883888913632,42.93162964558604,46.42164457801272,40
1366.7,88.39240909090907,88.10405757809896,81.30463965345538,84.85719325105742,43.246864327041536,46.79941792464358,40
1413.57,88.73450909090909,87.84621062642927,80.40833976433126,84.23266074528735,43.61354988114192,47.43787086209801,40
1463.38,87.92120909090909,87.39364451027319,80.36345466753282,84.16177923044769,43.2318652798255,47.03018984274037,40
1516.11,88.04950909090908,86.88296231948914,79.45944727170209,83.42795761461878,43.45500470487036,47.42351504778705,40
1568.85,86.89900909090909,86.09951674048116,79.22116231736014,83.07346347005499,43.026053270426175,46.878354423121024,40
1624.51,87.63070909090908,86.611874969376,79.15971852433822,83.09681724487882,43.51505772449718,47.45215644503779,40
1681.64,87.93460909090908,86.94938793648838,79.57023190129374,83.51303036482717,43.436357571661205,47.37915603519464,40
1741.7,88.0493090909091,87.3337236132541,79.87771403480983,83.78123316253516,43.552490450718935,47.45600957844427,40
1803.22,87.73210909090908,86.89666944621445,79.84789774051228,83.63882820506188,43.25784124115256,47.048771705702165,40
1866.21,87.42610909090908,86.86729556085241,79.96944165043737,83.53421068706724,43.33308487378517,46.89785391041504,40
1932.13,87.60580909090908,86.63746132155318,79.87306762238902,83.30564593567176,43.33181538588141,46.76439369916416,40
1999.51,88.13590909090908,87.23424666254552,80.06704240501962,83.73309446700745,43.50115219553807,47.167204257525896,40
2069.82,88.03910909090908,87.52208375602514,80.22090839292596,84.05687953059345,43.46520422543169,47.301175363099176,40
2143.07,87.94420909090908,87.05895579193346,79.93290623257231,83.80687513284403,43.25208065908943,47.12604955936115,40
2219.24,88.05640909090909,87.267340991782,80.30986960326986,83.94913098464991,43.318210007132095,46.95747138851215,40
2296.88,89.70810909090909,88.35339629077238,80.93511324666105,84.8695186042889,43.48387768648348,47.418283044111334,40
2378.91,89.98140909090908,88.46944824708186,81.0130736291032,85.0184707713301,43.450977475751756,47.45637461797865,40
2462.4,89.19030909090908,87.7797637696495,80.72842355722523,84.74517735985685,43.03458640979265,47.05134021242428,40
2548.83,88.77510909090908,87.43599825453266,80.74461586903774,84.52447930203087,42.911518952501794,46.69138238549492,40
2639.65,90.08430909090907,88.51977332882765,80.89168848408707,84.8781231409844,43.641650187843254,47.628084844740584,40
2731.93,88.96400909090909,88.4042805455313,80.9740296603234,85.02367036726532,43.38061017826597,47.4302508852079,40
2828.61,88.78060909090908,88.73025369346651,81.38487445750329,85.39625944739606,43.333994246070446,47.34537923596322,40
2928.22,87.28210909090907,88.29429497208969,81.1171554530614,85.11355308351432,43.18074188857537,47.17713951902829,40
3030.76,86.10410909090909,88.53880623610013,81.6769675305474,85.48836483529648,43.05044140080365,46.86183870555273,40
3137.7,85.81480909090908,87.87585292748011,81.34175610165548,84.88462092355313,42.99123200392698,46.53409682582463,40
3249.02,83.43410909090909,86.18494160701376,80.90809194692055,84.16377041997987,42.021171187033886,45.276849660093205,40
3363.28,87.02500909090908,87.73526156677214,80.93279268287287,84.80003170314676,42.93522986362538,46.802468883899266,40
3481.93,89.27930909090907,88.60368647158683,81.0766135011331,85.17430154636168,43.42938492522515,47.52707297045373,40
3604.98,89.86010909090908,88.95955131316211,81.40809350782249,85.52847750368983,43.43107380947228,47.55145780533962,40
3732.42,90.15750909090909,89.3897574055159,81.67339391308688,85.85054308528652,43.53921432022938,47.71636349242901,40
3864.26,88.56920909090908,88.24407792942719,81.17748926974824,84.86801666536115,43.37606126406604,47.066588659678956,40
4000.49,88.06300909090909,87.76988625184798,80.38376280242878,84.0960274406174,43.67385881123057,47.3861234494192,40
4141.11,88.53570909090908,87.97518080315898,80.14324994807285,84.1359027703848,43.839278032774175,47.83193085508613,40
4287.6,88.6828090909091,87.85955439238722,79.85258405574747,83.95929525129374,43.900259141093485,48.00697033663975,40
4438.48,88.71730909090908,87.90633115161762,80.00663444980084,84.10252148386475,43.80380966775287,47.89969670181678,40
4595.21,87.65990909090908,87.03759187887485,80.0209772927399,83.94355802039611,43.09403385847874,47.01661458613495,40
4756.35,88.00240909090908,87.429389106135,80.64856962364088,84.60406278400205,42.82532632213295,46.780819482494124,40
4924.8,89.20090909090908,88.7563088012478,81.52012605457507,85.51613273182262,43.240176069425175,47.236182746672725,40
5097.66,90.34320909090908,89.60454544504502,82.01390922440089,86.33674751507132,43.267797929973696,47.59063622064413,40
5277.83,89.92490909090907,89.3897156239022,82.13452857374,86.24741049333088,43.14230513057133,47.255187050162206,40
5463.87,90.13710909090906,89.54234375229385,82.24081506147009,86.35365461157886,43.188689140714985,47.30152869082376,40
5657.23,90.41800909090908,89.19093524119896,81.95430704733928,86.062573751759,43.12836148943995,47.23662819385967,40
5856.45,91.47190909090908,90.12773937135778,82.30566257071976,86.42933808032672,43.69840129103106,47.822076800638015,40
6062.99,91.71990909090908,90.0135150505377,82.15934824794263,86.48570977976186,43.52780527077584,47.854166802595074,40
6276.86,91.08390909090909,89.73329437308234,82.11911547598763,86.16743920079698,43.56585517228537,47.61417889709472,40
6498.05,89.90220909090908,89.12781532760576,81.65368440406256,85.7905477658325,43.33726756177326,47.4741309235432,40
6726.56,90.24510909090908,89.33533507025673,81.64406357092639,85.83251961315048,43.50281545710625,47.69127149933034,40
6963.87,89.15060909090909,88.76488829099145,81.46956993719638,85.69051484198575,43.074373449005705,47.29531835379507,40
7209.96,89.44960909090908,89.16135941383132,81.73317920189349,85.9433032221821,43.218056191649225,47.42818021193783,40
7464.84,89.47600909090909,89.07569944247378,81.84836911737982,86.04453287690448,43.03116656556929,47.22733032509396,40
7727.05,90.36570909090909,89.12978692111463,81.95340768544762,86.12486621014789,43.00492071096674,47.176379235667014,40
7999.51,91.08380909090909,89.69739276973601,82.08485617592883,86.34637862659676,43.35101414313925,47.61253659380718,40
