Freq "Ceiling Bounce"
20.5078 57.266926737167324
21.9727 59.951983486746485
23.4375 62.30851248700898
24.9023 64.353826793157
26.3672 66.14367745454368
27.832 68.08111654907171
29.2969 69.53473373247797
30.7617 70.74808874481852
32.2266 71.97260477580856
33.6914 73.07823461691105
35.1562 74.03362018290724
36.6211 74.90035045520064
38.0859 75.66253712295962
39.5508 76.4576739224442
41.0156 77.15235756976772
42.4805 77.75601898651504
43.9453 78.42142290171643
45.4102 79.07673014562515
46.875 79.65558262665876
48.3398 80.1446190761565
51.2695 81.2541868850938
52.7344 81.79629392395327
54.1992 82.29113482459799
55.6641 82.74843031030814
58.5938 83.74128028573219
60.0586 84.20975136313714
62.9883 85.06807992326524
64.4531 85.57748486962177
67.3828 86.45502091003576
68.8477 86.85404852659265
71.7773 87.52936873990583
74.707 88.20854666147743
77.6367 88.68742988887628
79.1016 88.86208894872597
82.0312 89.15420926355898
84.9609 89.41602813566251
87.8906 89.52615500846018
90.8203 89.93963724151475
95.2148 90.38867273395014
98.1445 90.25957450960726
101.074 90.05081897761103
105.469 89.85614972433282
108.398 89.82031847665131
112.793 89.21053065726085
117.188 88.25324008175131
120.117 88.54088349864492
124.512 88.83028530489378
128.906 88.58074768844864
133.301 88.35520290405545
139.16 87.95632309138915
143.555 87.02013637071087
147.949 87.46647770119321
153.809 87.6098299692614
159.668 87.00926959971785
165.527 86.63328928740513
171.387 87.31978350715653
177.246 87.92316470561455
183.105 88.22020359829183
188.965 88.27015438025617
196.289 89.37698308047403
203.613 88.8226129650551
210.938 89.53403001294022
218.262 90.70825256321528
225.586 89.99245968302655
232.91 89.63193580806004
241.699 90.40714404106012
250.488 89.46996678721476
259.277 89.24639404942326
268.066 91.36903534666644
276.855 89.56546452204309
287.109 89.79111796162191
297.363 90.61654118864202
307.617 90.05117689999656
319.336 90.59460168355021
329.59 90.00425286119774
341.309 90.6903798091877
353.027 90.64290782563599
366.211 91.86805220808489
379.395 90.77989340523777
392.578 90.7316886966124
405.762 91.33467173197559
420.41 90.22235448197466
435.059 90.63357356526141
451.172 89.85701547327017
465.82 90.49784882625443
483.398 91.12697202280026
499.512 90.30581621727808
517.09 90.296917586968
536.133 90.53113603067183
555.176 91.76947380043558
574.219 90.75653096720998
594.727 89.82491851457215
615.234 89.36161301297338
637.207 88.4039739546368
659.18 89.3551597473666
682.617 89.12044650646004
707.52 88.91598719058132
732.422 87.68801639611229
757.324 88.01813665590491
785.156 87.11746304482479
811.523 87.38386409414719
840.82 87.26440670519727
870.117 88.24214764493607
900.879 87.33221073047797
933.105 87.45302925146905
965.332 87.36594265075895
1000.49 86.80543166678228
1035.64 85.62812459618144
1072.27 86.9133497035659
1108.89 88.0850824275038
1148.44 87.55238495898625
1189.45 86.52684431033725
1230.47 86.08617025980416
1274.41 85.15939407008966
1319.82 83.65066985286117
1366.7 82.49642296821004
1413.57 83.11315523778043
1463.38 83.3758839651892
1516.11 85.02881772425368
1568.85 85.87694766630274
1624.51 86.76833868036707
1681.64 87.31735259701533
1741.7 87.52273436188868
1803.22 88.02307199450236
1866.21 87.55193082825524
1932.13 87.04169491531825
1999.51 86.35415835919916
2069.82 87.04187893018731
2143.07 85.93327730022762
2219.24 85.29953136103501
2296.88 85.34685817864205
2378.91 84.10816610093397
2462.4 84.19445556782465
2548.83 82.85425982383887
2639.65 82.60070587162608
2731.93 81.25990887798397
2828.61 79.95621462087617
2928.22 79.18395105567474
3030.76 79.57424394862076
3137.7 79.49219070187601
3249.02 79.80529868167552
3363.28 80.382869021276
3481.93 80.49428763162408
3604.98 80.51294842321246
3732.42 81.20645941554989
3864.26 81.62997819529362
4000.49 81.66387155131092
4141.11 81.36684332954636
4287.6 81.42298599177438
4438.48 81.34229650733957
4595.21 81.17131845165888
4756.35 80.82176276156278
4924.8 80.4968368056415
5097.66 80.07644768828052
5277.83 79.64455609219581
5463.87 79.66451925651788
5657.23 79.49879522660173
5856.45 79.26847233295834
6062.99 79.51571888631312
6276.86 79.58000577210149
6498.05 78.94091083055585
6726.56 79.05361532622219
6963.87 78.9214426817014
7209.96 78.3670230840464
7464.84 78.04677732949813
7727.05 77.60983464277362
7999.51 77.75218689302964
8282.23 78.39556799535458
8573.73 79.0295090647299
8876.95 79.12349041592486
9188.96 79.27342078837492
9514.16 79.75431190793945
9849.61 80.29602804657277
10196.8 79.82780801956102
10555.7 79.43268319307177
10927.7 78.0272266803715
11313.0 78.2235321020311
11712.9 78.96547257526015
12126.0 78.80787711035818
12553.7 79.41759730240837
12996.1 79.9396888789148
13454.6 80.45100320234785
13929.2 81.00595822708254
14419.9 80.93453548580513
14928.2 80.56189944949831
15455.6 79.64210283804779
16000.5 80.65681612995755
16564.5 80.68191252690215
17148.9 81.20236333106821
17752.4 80.01235742666557
18379.4 76.53316252864927
19026.9 74.83447151408612
19697.8 73.69115668565095
19999.5 72.10716296647414
