Freq "Floor Bounce"
22.4 32.70265450340342
23.0 34.40265450340338
23.6 35.97641629732151
24.0 37.37641629732151
25.0 38.63546263134684
25.8 41.02179738688896
26.5 43.543148261094345
27.2 45.64314826109434
28.0 47.37082970284298
29.0 48.97082970284298
30.0 50.33257218046556
30.7 52.432572180465556
31.5 55.123496850659805
32.5 57.1865664631125
33.5 58.91592692226705
34.5 60.415926922267076
35.5 61.87977745790569
36.5 63.80986628672328
37.5 65.47449351030438
38.7 66.93964531976
40.0 68.23964531976003
41.2 69.70531806766472
42.5 71.3053180676647
43.7 72.67150800786938
45.0 73.93821129888744
46.2 74.97001488257477
47.5 75.90542400732662
48.7 76.73746771551315
50.0 77.53746771551315
51.5 78.13746771551315
53.0 78.73746771551313
54.5 79.23746771551315
56.0 79.77001488257476
58.0 80.27001488257477
60.0 80.63513059177983
61.5 80.97001488257477
63.0 81.23513059177982
65.0 81.43513059177984
67.0 81.63513059177983
69.0 81.90076749445562
71.0 82.10076749445562
73.0 82.30076749445561
75.0 82.50076749445562
77.5 82.60076749445561
80.0 82.76769521305296
82.5 82.83358982687999
85.0 82.90076749445562
87.5 82.93358982687998
90.0 83.00076749445562
92.5 83.00076749445562
95.0 83.00076749445562
97.5 82.96769521305295
100.0 83.00076749445562
103.0 83.00076749445562
106.0 83.03513059177983
109.0 83.03513059177983
112.0 83.03513059177983
115.0 83.03821129888742
118.0 83.03821129888742
122.0 82.97387961222819
125.0 82.97387961222819
128.0 82.90690501035459
132.0 82.90690501035459
136.0 82.84283030471973
140.0 82.77609175449221
145.0 82.7122717831562
150.0 82.67609175449222
155.0 82.61227178315617
160.0 82.57609175449221
165.0 82.51227178315618
170.0 82.51227178315618
175.0 82.41227178315619
180.0 82.41227178315619
185.0 82.41227178315619
190.0 82.41227178315619
195.0 82.48219967332305
200.0 82.48219967332305
206.0 82.58219967332303
212.0 82.58219967332303
218.0 82.68219967332304
224.0 82.68219967332304
230.0 82.71916705502754
236.0 82.75260953202216
240.0 82.75260953202216
250.0 82.71916705502754
258.0 82.66096514237184
265.0 82.52758719283592
272.0 82.37082970284298
280.0 82.17082970284298
290.0 82.00963256681621
300.0 81.78219812790056
307.0 81.62179738688894
315.0 81.4950645803583
325.0 81.40942248426019
335.0 81.38382334167595
345.0 81.3429397936019
355.0 81.35866027600835
365.0 81.41753803239935
375.0 81.45866027600835
387.0 81.4925701141361
400.0 81.53392832814568
412.0 81.46803106656235
425.0 81.46803106656235
437.0 81.40962251076206
450.0 81.30962251076207
462.0 81.28573781157955
475.0 81.22812100489948
487.0 81.17106744273919
500.0 81.11457895753308
515.0 80.99179815677407
530.0 80.8361070797735
545.0 80.6809849055068
560.0 80.54852015458806
580.0 80.38098490550679
600.0 80.2586572401787
615.0 80.13776734285541
630.0 80.01832544184971
650.0 79.85866027600834
670.0 79.76878033996792
690.0 79.67717895989803
710.0 79.56096514237183
730.0 79.52349685065981
750.0 79.52349685065981
775.0 79.62758719283593
800.0 79.70963256681621
825.0 79.83546263134683
850.0 79.86136837622765
875.0 79.75098823501217
900.0 79.67625435142638
925.0 79.41101842217599
950.0 79.16078125161694
975.0 78.79224640773785
1000.0 78.49990859618892
1030.0 78.32181948028217
1060.0 78.11468177419276
1090.0 77.82023581327294
1120.0 77.70076041269732
1150.0 77.80331549928647
1180.0 78.17238095780527
1220.0 78.70722417372366
1250.0 79.19471929119204
1280.0 79.48335937246298
1320.0 80.04136150423587
1360.0 80.33746771551316
1400.0 79.9053180676647
1450.0 79.1849349246085
1500.0 79.05016923070221
1550.0 79.16803106656234
1600.0 79.44805664755614
1650.0 79.72585044351925
1700.0 79.41638770313007
1750.0 79.10921140720404
1800.0 78.83638088039145
1850.0 78.43638088039144
1900.0 77.8137899675559
1950.0 77.06322504785602
2000.0 76.46382205324666
2060.0 76.44885135917308
2120.0 76.8840546157494
2180.0 77.3424510581996
2240.0 77.65206000485604
2300.0 77.80993626900296
2360.0 77.83509895460995
2400.0 77.79955698518822
2500.0 77.76959103308046
2580.0 77.66001009143439
2650.0 77.4600100914344
2720.0 77.41870232955291
2800.0 77.60996605888054
2900.0 77.83143825467694
3000.0 77.92536925857934
3070.0 77.90137892277062
3150.0 76.86649538425083
3250.0 74.63841347846599
3350.0 72.82332853367798
3450.0 73.26097559154805
3550.0 74.83781340417852
3650.0 75.58686427957848
3750.0 75.28910921343738
3870.0 74.95412591517942
4000.0 74.76226741403312
4120.0 74.99389595883675
4250.0 75.67269145322597
4370.0 76.46503937590752
4500.0 76.86503937590751
4620.0 76.88573603864207
4750.0 76.55412591517943
4870.0 75.62618710391504
5000.0 74.04053501177822
5150.0 71.17915446671192
5300.0 70.40252973822756
5450.0 73.74812097851897
5600.0 76.65556810457694
5800.0 78.1770543867723
6000.0 78.22621393128958
6150.0 77.68851310573937
6300.0 76.71551173950424
6500.0 75.92038938173239
6700.0 75.63158144041334
6900.0 75.53749266009874
7100.0 75.99692152274294
7300.0 77.1088462075806
7500.0 78.11185905036133
7750.0 78.46121515809666
8000.0 77.81845774937368
8250.0 76.05648687916907
8500.0 73.8277300866453
8750.0 74.83308937677079
9000.0 79.31330803851716
9250.0 82.67654672910747
9500.0 82.28781628002547
9750.0 79.55714739194282
10000.0 76.4276552612667
10300.0 75.0815332230073
10600.0 78.06687807668588
10900.0 79.89810190657838
11200.0 78.61657677405326
11500.0 75.47532051493634
11800.0 76.33646113987162
12200.0 79.71182730008752
12500.0 81.07669886108566
12800.0 79.98654214060011
13200.0 78.13149824232538
13600.0 78.0450276717732
14000.0 78.02966680069686
14500.0 76.09906608981301
15000.0 74.95528988291042
15500.0 76.3370488542527
16000.0 75.65863630136401
16500.0 72.19900213949674
17000.0 70.57392712036133
17500.0 71.04928220731213
18000.0 70.25084285466093
18500.0 68.38783902957334
19000.0 67.63862722572577
19500.0 65.10654890318095
