Freq "Estimated In-Room Response"
20.0 47.726776
20.290899 48.18977699999999
20.586 48.68377699999999
20.8855 49.216778000000005
21.189301 49.80477500000001
21.497499 50.446777
21.8102 51.13377800000001
22.127399 51.859779
22.4492 52.61077900000001
22.775801 53.373774999999995
23.1071 54.13377800000001
23.443199 54.875778
23.7841 55.586776999999984
24.1301 56.257778
24.4811 56.882778
24.8372 57.461776999999984
25.1984 57.995777000000004
25.564899 58.489777000000004
25.9368 58.95177799999999
26.3141 59.392776
26.6968 59.824780000000004
27.0851 60.259776999999985
27.479099 60.709778
27.878799 61.177775999999994
28.2843 61.662777000000006
28.6957 62.15778
29.1131 62.65078
29.536501 63.132778
29.966101 63.593777
30.402 64.029778
30.8442 64.44278
31.2929 64.843773
31.748 65.24677299999999
32.209801 65.668777
32.678299 66.126778
33.153599 66.626778
33.635899 67.16478
34.125099 67.732773
34.621498 68.312775
35.125 68.88678
35.635899 69.438774
36.154301 69.959778
36.680199 70.444778
37.213699 70.892776
37.755 71.321777
38.3041 71.740776
38.861301 72.059776
39.426498 72.415779
40.0 72.763779
40.581799 73.11077900000001
41.1721 73.460777
41.771 73.818779
42.378502 74.187775
42.9949 74.56778
43.6203 74.956779
44.254799 75.353775
44.898499 75.756775
45.551498 76.16478000000001
46.2141 76.580772
46.886299 77.005775
47.568298 77.443779
48.260201 77.893776
48.962101 78.352776
49.674301 78.815773
50.396801 79.278778
51.129902 79.735779
51.8736 80.18377700000002
52.628101 80.619774
53.3936 81.043777
54.1702 81.454773
54.958099 81.850777
55.7575 82.231773
56.568501 82.597771
57.391399 82.946777
58.226101 83.280777
59.073 83.596771
59.932301 83.897774
60.804 84.18377699999999
61.6884 84.452774
62.585701 84.708771
63.496 84.991776
64.419601 85.167778
65.356598 85.376778
66.307297 85.569771
67.271698 85.74577300000001
68.250198 85.907776
69.242897 86.055771
70.250099 86.19577800000002
71.271896 86.328773
72.308601 86.454773
73.360298 86.576775
74.427399 86.692772
75.509903 86.802773
76.608299 86.905777
77.722603 86.999771
78.853104 87.08577699999998
80.0 87.163773
81.163597 87.23277299999998
82.3442 87.293777
83.541901 87.347771
84.757 87.393776
85.989899 87.434776
87.240601 87.469772
88.509598 87.50377700000001
89.797 87.526772
91.103104 87.551773
92.4282 87.572777
93.772598 87.592773
95.136597 87.610771
96.520401 87.62777700000001
97.924301 87.641777
99.348602 87.652771
100.794 87.659775
102.26 87.661774
103.747 87.659775
105.256 87.65777599999998
106.787 87.65777599999998
108.34 87.659775
109.916 87.661774
111.515 87.660774
113.137 87.64577500000001
114.783 87.59977699999999
116.452 87.533775
118.146 87.441772
119.865 87.351776
121.608 87.279778
123.377 87.229774
125.171 87.197777
126.992 87.177773
128.839 87.165771
130.713 87.159775
132.615 87.151772
134.543 87.132774
136.5 87.09677099999999
138.486 87.047775
140.5 86.979774
142.544 86.894775
144.617 86.809776
146.721 86.738777
148.855 86.689774
151.02 86.662773
153.217 86.647774
155.445 86.63877099999999
157.706 86.634773
160.0 86.635773
162.327 86.637772
164.688 86.642776
167.084 86.647774
169.514 86.651772
171.98 86.647774
174.481 86.624771
177.019 86.56777199999999
179.594 86.47377800000001
182.206 86.364777
184.856 86.283775
187.545 86.248772
190.273 86.243774
193.041 86.25377700000001
195.849 86.251778
198.697 86.218773
201.587 86.140778
204.52 86.026772
207.494 85.916771
210.512 85.842773
213.574 85.809776
216.681 85.810776
219.833 85.826775
223.03 85.84077499999998
226.274 85.838776
229.565 85.810776
232.905 85.756775
236.292 85.68177800000001
239.729 85.579773
243.216 85.49977099999998
246.754 85.469772
250.343 85.472771
253.984 85.47377799999998
257.678 85.43377699999999
261.426 85.303772
265.229 85.104774
269.087 84.959778
273.001 84.893776
276.972 84.895775
281.0 84.94577800000002
285.088 85.029778
289.234 85.103775
293.441 85.135773
297.709 85.121773
302.04 85.00849717847976
306.433 84.84103124917124
310.89 84.72036724730123
315.412 84.68751391902762
320.0 84.70646916624221
324.655 84.71222404475338
329.377 84.63979896909773
334.168 84.47518098998823
339.028 84.26838871894287
343.959 84.13939659990248
348.962 84.2012294270973
354.038 84.315880136011
359.188 84.3253388010015
364.412 84.33163448557285
369.713 84.34274477801243
375.09 84.26668880868515
380.546 84.19745063022349
386.081 84.23204877551964
391.697 84.35947050258687
397.394 84.47473548668421
403.175 84.48482683409412
409.039 84.36576394825082
414.989 84.13853537013973
421.025 83.89815218130114
427.149 83.72561378926979
433.362 83.56291714898265
439.665 83.39608231763322
446.06 83.32908931915271
452.548 83.37595656204182
459.131 83.49267951944707
465.809 83.58926191840078
472.584 83.65571051574219
479.458 83.77002636100997
486.432 83.88521161695445
493.507 83.93826752750779
500.686 83.84119297469252
507.968 83.63001200396681
515.357 83.40670023558854
522.853 83.13028324257782
530.458 82.85474643169732
538.174 82.63210948144163
546.002 82.39036475225541
553.943 82.38952166695154
562.001 82.70057877572219
570.175 83.11655259837826
578.469 83.42342525681406
586.883 83.59522017072183
595.419 83.64693439240796
604.08 83.66757116840192
612.866 83.69614321878332
621.78 83.62064323613149
630.824 83.42808326569342
640.0 83.34746159443067
649.309 83.37778255569219
658.753 83.4030657625216
668.335 83.30329635435803
678.056 83.20449721703025
687.919 83.04765704868757
697.925 82.97879608962367
708.077 83.06290358427471
718.376 82.96400611551456
728.825 82.61509046069455
739.426 82.46017716855054
750.181 82.64826099583271
761.093 82.58134563677959
772.163 82.20545661563949
783.394 81.94558511851011
794.789 81.78473771493356
806.349 81.63192149950379
818.078 81.46815047642635
829.977 81.19342914125728
842.05 80.82375817368917
854.298 80.53315444471465
866.724 80.43761311705964
879.33 80.36015647813245
892.12 80.25578346959139
905.097 80.48150223372423
918.262 81.10932551782825
931.618 81.80425378951374
945.169 82.27130124806769
958.917 82.59247957384608
972.864 82.87679252701986
987.015 83.00524868160613
1001.95 83.00524868160613
1007.81 83.050049605127
1013.67 83.09208636842982
1019.53 83.1309956357362
1025.39 83.16642591899975
1031.25 83.19897258773722
1037.11 83.22822597023236
1042.97 83.25410362057139
1048.83 83.27694128491369
1054.69 83.29634476116483
1060.55 83.31308121466454
1066.41 83.32657204735446
1072.27 83.33699863931832
1078.12 83.34461725766238
1083.98 83.34911185647472
1089.84 83.35090078044843
1095.7 83.34992174554586
1101.56 83.34599773690145
1107.42 83.33959535237904
1113.28 83.33055775789936
1119.14 83.31852696113745
1125.0 83.30433537666909
1130.86 83.28711901396076
1136.72 83.26764723904995
1142.58 83.24531760179825
1148.44 83.22060382399198
1154.3 83.19345414234155
1160.16 83.16356884100753
1166.02 83.1310186547158
1171.88 83.09602743678747
1177.73 83.05826745153587
1183.59 83.01830244454027
1189.45 82.97571390465788
1195.31 82.93051033744541
1201.17 82.882782813033
1207.03 82.83267982900796
1212.89 82.78007254332908
1218.75 82.72520316388415
1224.61 82.66806470524688
1230.47 82.60878471560589
1236.33 82.54739125953735
1242.19 82.4839084935421
1248.05 82.41870474427418
1253.91 82.35178462662529
1259.77 82.28338845180251
1265.62 82.21349719906318
1271.48 82.14249798803334
1277.34 82.07041579703028
1283.2 81.99760552654216
1289.06 81.92419997740492
1294.92 81.8503777587758
1300.78 81.77636807707914
1306.64 81.70222648988042
1312.5 81.62836028339206
1318.36 81.5546828473993
1324.22 81.48161626822163
1330.08 81.40935450840936
1335.94 81.33776519271427
1341.8 81.26716430709146
1347.66 81.19778820807966
1353.52 81.1294697153899
1359.38 81.06269017940828
1365.23 80.99719054220175
1371.09 80.9333391290942
1376.95 80.87108519061096
1382.81 80.8104352727709
1388.67 80.7517714663951
1394.53 80.69489639478742
1400.39 80.64025090264357
1406.25 80.58766043460528
1412.11 80.53742479628434
1417.97 80.48978805784074
1423.83 80.44490804836647
1429.69 80.40304041142814
1435.55 80.36406998625846
1441.41 80.32879610403438
1447.27 80.29705402561689
1453.12 80.26932741771485
1458.98 80.24603298135622
1464.84 80.22730952287989
1470.7 80.21356624603791
1476.56 80.20481903366701
1482.42 80.20178720413072
1488.28 80.20447147252636
1494.14 80.21311985422828
1500.0 80.22785953053999
1505.86 80.24891786886897
1511.72 80.27657591593926
1517.58 80.31010830632346
1523.44 80.35022474380665
1529.3 80.39638987558922
1535.16 80.4485211408409
1541.02 80.50619366062418
1546.88 80.56915606101855
1552.73 80.63705347891145
1558.59 80.70933223697318
1564.45 80.78543025929366
1570.31 80.86510875261914
1576.17 80.94755144200407
1582.03 81.03217019251238
1587.89 81.11839546914862
1593.75 81.20575524658673
1599.61 81.29341908760334
1605.47 81.38156485572006
1611.33 81.4686730208466
1617.19 81.55482487262948
1623.05 81.63947960699349
1628.91 81.72235675465939
1634.77 81.8027457830831
1640.62 81.88071530030771
1646.48 81.95552774447262
1652.34 82.02757071237892
1658.2 82.09588249800287
1664.06 82.1608321438701
1669.92 82.22231418431392
1675.78 82.27986874040998
1681.64 82.33370053681527
1687.5 82.38391082840661
1693.36 82.43040787884703
1699.22 82.4732415018305
1705.08 82.51244868248295
1710.94 82.54796277634804
1716.8 82.58050623541155
1722.66 82.60954842372396
1728.52 82.6357838107791
1734.38 82.65926398561692
1740.23 82.68000709638815
1746.09 82.69844470783042
1751.95 82.7144349420674
1757.81 82.7287996645325
1763.67 82.74111045560888
1769.53 82.75199767133071
1775.39 82.7615051773141
1781.25 82.77005452638795
1787.11 82.77744448655284
1792.97 82.78415210456316
1798.83 82.7901862239022
1804.69 82.79562362533075
1810.55 82.80076829827246
1816.41 82.80547625842655
1822.27 82.81002640191758
1828.12 82.81440594363957
1833.98 82.81861741716682
1839.84 82.82244073773957
1845.7 82.8261319213325
1851.56 82.82954272618835
1857.42 82.83257110411428
1863.28 82.83515884159434
1869.14 82.8372792626495
1875.0 82.83870172678083
1880.86 82.83940580168269
1886.72 82.83928103309047
1892.58 82.83826946778906
1898.44 82.83607606131501
1904.3 82.83285798016396
1910.16 82.82829880502786
1916.02 82.8225473010016
1921.88 82.81512929638694
1927.73 82.80623809547458
1933.59 82.79598443810983
1939.45 82.7843362715696
1945.31 82.77097715844536
1951.17 82.75624735709069
1957.03 82.74010079275239
1962.89 82.7226638296368
1968.75 82.70390756224823
1974.61 82.68398483053754
1980.47 82.66270418277702
1986.33 82.64085005173939
1992.19 82.61792971220838
1998.05 82.59462306597423
2003.91 82.57069787166363
2009.77 82.54659025772955
2015.62 82.52239697289266
2021.48 82.49823249818648
2027.34 82.47411832462188
2033.2 82.45073814273819
2039.06 82.42789710292334
2044.92 82.40566749857896
2050.78 82.3844488978322
2056.64 82.3642321379676
2062.5 82.34502090030594
2068.36 82.32687056447907
2074.22 82.31013391019701
2080.08 82.29453638170897
2085.94 82.28002860709046
2091.8 82.26694515767738
2097.66 82.25492376465299
2103.52 82.24393872234162
2109.38 82.23419839403876
2115.23 82.22502398173764
2121.09 82.2168441167938
2126.95 82.20931749778306
2132.81 82.2022312857734
2138.67 82.19570141863302
2144.53 82.1895141372364
2150.39 82.1830875774901
2156.25 82.17678146728852
2162.11 82.17042426241609
2167.97 82.1641820642339
2173.83 82.15707883951958
2179.69 82.15004453175753
2185.55 82.14256327067505
2191.41 82.13445231492118
2197.27 82.1260732392014
2203.12 82.11709358283629
2208.98 82.1079485636026
2214.84 82.0982692989453
2220.7 82.08832492765731
2226.56 82.07818539046997
2232.42 82.06781519675476
2238.28 82.05739861982214
2244.14 82.04728124151276
2250.0 82.03737182618573
2255.86 82.0277089027267
2261.72 82.01862721759613
2267.58 82.0100870472024
2273.44 82.00225563539365
2279.3 81.99530544484506
2285.16 81.98943545847592
2291.02 81.98451111400561
2296.88 81.980795723422
2302.73 81.97812940950641
2308.59 81.97676160367541
2314.45 81.97667857643775
2320.31 81.97774799917849
2326.17 81.9799482214368
2332.03 81.98360660311326
2337.89 81.98817091966508
2343.75 81.99375917957772
2349.61 82.00012879325135
2355.47 82.0073948179743
2361.33 82.01553991764766
2367.19 82.02380590640617
2373.05 82.03257324520418
2378.91 82.04191427195256
2384.77 82.05107971342366
2390.62 82.06052012543199
2396.48 82.06936111357345
2402.34 82.07844617629179
2408.2 82.08688244795272
2414.06 82.09487480064094
2419.92 82.10240235920097
2425.78 82.10932382396354
2431.64 82.11564066499965
2437.5 82.12137417490938
2443.36 82.12639810528559
2449.22 82.13090639534944
2455.08 82.13475885143576
2460.94 82.13811617399921
2466.8 82.1407762027449
2472.66 82.14355860157352
2478.52 82.14550651967286
2484.38 82.14766081230319
2490.23 82.14956793367487
2496.09 82.15141275627165
2501.95 82.15382215504435
2507.81 82.1575768637744
2513.67 82.16041683567337
2519.53 82.16225837221431
2525.39 82.16589717457585
2531.25 82.17038368730054
2537.11 82.17561558982572
2542.97 82.18137569026946
2548.83 82.18796813829096
2554.69 82.19531585410797
2560.55 82.20351226171746
2566.41 82.2123369982103
2572.27 82.22220211515051
2578.12 82.23239426827834
2583.98 82.24325655374525
2589.84 82.25474076162091
2595.7 82.26664747824486
2601.56 82.27880780854366
2607.42 82.29139129730508
2613.28 82.30395649155224
2619.14 82.31634162114536
2625.0 82.32871309082924
2630.86 82.34074782551363
2636.72 82.35263117118893
2642.58 82.36406373785717
2648.44 82.37497546592554
2654.3 82.38545767804754
2660.16 82.39518799137701
2666.02 82.40432471179166
2671.88 82.41262201667463
2677.73 82.42053862585871
2683.59 82.42755572532758
2689.45 82.43418749130433
2695.31 82.4399418311358
2701.17 82.44544944442642
2707.03 82.45053948581817
2712.89 82.45540413025782
2718.75 82.4596217484871
2724.61 82.4640851891657
2730.47 82.46852247065956
2736.33 82.47330591513575
2742.19 82.47789313952413
2748.05 82.48303600838686
2753.91 82.48882929032891
2759.77 82.49513891784333
2765.62 82.50199809398397
2771.48 82.50947302817679
2777.34 82.51798377299025
2783.2 82.52719300084999
2789.06 82.53746711828367
2794.92 82.5483665632892
2800.78 82.5604718180721
2806.64 82.57318475070905
2812.5 82.58680876137774
2818.36 82.60112899698025
2824.22 82.61620253917438
2830.08 82.6314062365923
2835.94 82.64739111413239
2841.8 82.66360769697225
2847.66 82.68002989002113
2853.52 82.6964535715573
2859.38 82.712694093582
2865.23 82.72873852394548
2871.09 82.74438267391193
2876.95 82.75961373575913
2882.81 82.77413564100324
2888.67 82.78818089079553
2894.53 82.80124450558941
2900.39 82.81347961012075
2906.25 82.82488361387375
2912.11 82.83529735055495
2917.97 82.8448045855717
2923.83 82.85348008750566
2929.69 82.8610686601301
2935.55 82.86763335347266
2941.41 82.8737959142677
2947.27 82.8790746818919
2953.12 82.88379711503457
2958.98 82.88761761073972
2964.84 82.89149300039914
2970.7 82.89520209712737
2976.56 82.89876717766562
2982.42 82.90242171444368
2988.28 82.90623624329727
2994.14 82.910540361284
3000.0 82.9153056979071
3005.86 82.92090809490242
3011.72 82.92710265966602
3017.58 82.9343392470858
3023.44 82.94245244554172
3029.3 82.95168008493992
3035.16 82.96213193469163
3041.02 82.97361720958921
3046.88 82.98652319531891
3052.73 83.00040220099231
3058.59 83.01559533691535
3064.45 83.0315815240174
3070.31 83.04860052584817
3076.17 83.06664805926432
3082.03 83.08529749313473
3087.89 83.10452161640484
3093.75 83.1245080788206
3099.61 83.14466747640955
3105.47 83.16492587351053
3111.33 83.18531903541187
3117.19 83.20559882595114
3123.05 83.22535177811876
3128.91 83.2448224146662
3134.77 83.26379463943326
3140.62 83.28211175995622
3146.48 83.29953013876026
3152.34 83.31603084716023
3158.2 83.33173881490433
3164.06 83.34615486421671
3169.92 83.35986871127602
3175.78 83.37237067083119
3181.64 83.38389280695576
3187.5 83.3944970716484
3193.36 83.40410146700799
3199.22 83.41263856675212
3205.08 83.42050771724331
3210.94 83.42786860355513
3216.8 83.43467812465586
3222.66 83.44091305468015
3228.52 83.44705052818105
3234.38 83.45287823163844
3240.23 83.45874957780326
3246.09 83.46503613041578
3251.95 83.47132766985231
3257.81 83.47823759839244
3263.67 83.4855389981819
3269.53 83.49368651905672
3275.39 83.5024756860955
3281.25 83.51200901055721
3287.11 83.52286146745536
3292.97 83.53408472137868
3298.83 83.5467696219732
3304.69 83.56016051991446
3310.55 83.5745430121348
3316.41 83.59013891500067
3322.27 83.60603854542816
3328.12 83.6228097852754
3333.98 83.6403024691385
3339.84 83.65862372140603
3345.7 83.67733126506631
3351.56 83.69614293674735
3357.42 83.71513712530624
3363.28 83.73440788829798
3369.14 83.75373183573825
3375.0 83.77270781525458
3380.86 83.79128933455382
3386.72 83.80977729756846
3392.58 83.82753778137919
3398.44 83.8449660624862
3404.3 83.86182296243754
3410.16 83.87790265456368
3416.02 83.89332669657777
3421.88 83.90797701845415
3427.73 83.92191724385131
3433.59 83.93524806828022
3439.45 83.94787436163608
3445.31 83.96010041460909
3451.17 83.97153857773594
3457.03 83.9827357320715
3462.89 83.99336581864657
3468.75 84.00393407898076
3474.61 84.01435989998093
3480.47 84.02436838825764
3486.33 84.0347858891979
3492.19 84.04529477629578
3498.05 84.05576354812703
3503.91 84.06684047806968
3509.77 84.07827508054132
3515.62 84.09014382817149
3521.48 84.10266327763325
3527.34 84.11550789472345
3533.2 84.12919336090417
3539.06 84.1433892050873
3544.92 84.15829016926739
3550.78 84.17381841080368
3556.64 84.1899029100608
3562.5 84.2064142022593
3568.36 84.22341105014007
3574.22 84.24065202801998
3580.08 84.25820464763235
3585.94 84.2761805042277
3591.8 84.29406296749265
3597.66 84.31201032924962
3603.52 84.32965085236142
3609.38 84.34727217733472
3615.23 84.36435695111018
3621.09 84.38125401711939
3626.95 84.39747840197545
3632.81 84.41335636160072
3638.67 84.42837015838646
3644.53 84.44298996473665
3650.39 84.45660407525185
3656.25 84.46950086471008
3662.11 84.48192085666577
3667.97 84.4933754408109
3673.83 84.50418282551544
3679.69 84.51422288122839
3685.55 84.52381964384092
3691.41 84.53277429796441
3697.27 84.54109526074849
3703.12 84.54918983825574
3708.98 84.55679266550791
3714.84 84.56423047241407
3720.7 84.57166630838441
3726.56 84.57872153119443
3732.42 84.58575276779031
3738.28 84.59329571500552
3744.14 84.6008064076594
3750.0 84.60850925704275
3755.86 84.61659414018158
3761.72 84.62526402574025
3767.58 84.63413424294862
3773.44 84.64341958129127
3779.3 84.65322478245535
3785.16 84.66336592633408
3791.02 84.67416469572566
3796.88 84.68513902974594
3802.73 84.69628762899393
3808.59 84.70808580596501
3814.45 84.7198997122058
3820.31 84.73190513642466
3826.17 84.74378540950491
3832.03 84.7557032368177
3837.89 84.76742492460413
3843.75 84.77908715571596
3849.61 84.79034081374746
3855.47 84.80110372895003
3861.33 84.81122032810367
3867.19 84.82101455518321
3873.05 84.83030923273002
3878.91 84.83877680473954
3884.77 84.84674230264731
3890.62 84.8536639059247
3896.48 84.86015338049901
3902.34 84.86596735514031
3908.2 84.87101638085574
3914.06 84.87553097118487
3919.92 84.87978255934566
3925.78 84.8834651245593
3931.64 84.88697312762889
3937.5 84.89026770015636
3943.36 84.89350251669516
3949.22 84.8970352732949
3955.08 84.90081429690406
3960.94 84.90492585118449
3966.8 84.90974811400066
3972.66 84.91524219420415
3978.52 84.9216225826561
3984.38 84.92908683389548
3990.23 84.93769470533432
3996.09 84.94750997814037
4001.95 84.95855421963492
4007.81 84.97110941899042
4013.67 84.98508229133422
4019.53 85.00024277353322
4025.39 85.01715544533486
4031.25 85.03556044077612
4037.11 85.05509941941654
4042.97 85.07617523795271
4048.83 85.09826998202101
4054.69 85.12156755155134
4060.55 85.14564108588435
4066.41 85.17072458950382
4072.27 85.1963152633463
4078.12 85.22266117626108
4083.98 85.24865681516494
4089.84 85.27526168981873
4095.7 85.30174170650677
4101.56 85.3279867550292
4107.42 85.35398923367556
4113.28 85.37936411594524
4119.14 85.40387322444806
4125.0 85.42776620903072
4130.86 85.4509885837932
4136.72 85.47315658808951
4142.58 85.49418574187155
4148.44 85.51453930759972
4154.3 85.53374145402103
4160.16 85.55190384723375
4166.02 85.56934653955906
4171.88 85.58579018059987
4177.73 85.6087197995396
