Freq,Floor Bounce,Ceiling Bounce,Front Wall Bounce,Side Wall Bounce,Rear Wall Bounce,Total Early Reflection
22.4,41.06845083805433,41.933589826879995,41.45098335039171,41.18344428168055,40.52771767302596,41.25734614976972
23.0,41.246809835208126,41.73435140868503,41.070346970959946,40.84644370582362,42.069125834249206,41.416624366993574
23.6,40.97387961222819,40.60306957104251,40.64510093472825,39.979101622376476,40.33725369178785,40.52034178157106
24.0,40.60306957104251,39.668450838054326,40.171662753918895,39.852590137418986,39.453040995878666,39.968684437680054
25.0,39.870014882574765,39.36845083805434,39.5716627539189,39.191954438029825,39.273031756080485,39.46191374255989
25.8,39.43821129888744,38.80076749445561,39.02913392494287,38.77138957914963,38.79164364671064,38.97381067575088
26.5,38.870014882574765,38.30076749445561,38.51475531529209,38.12408069572993,37.758297403624795,38.32956922178656
27.2,39.13821129888743,38.13513059177984,38.5716627539189,38.20230232064051,37.90060592794657,38.41154319116731
28.0,40.206905010354575,39.06845083805433,39.55742449135815,39.27230633559577,39.111717846594786,39.464139501195916
29.0,41.54283030471976,40.30076749445561,40.8147553152921,40.571626762423676,40.464513946188276,40.76142636910495
30.0,44.4122717831562,43.00076749445563,43.5716627539189,43.340966417425875,43.22148603099393,43.53781200170451
30.7,47.04283030471973,45.36845083805434,46.14313939533781,45.98064597778591,45.84238624500816,46.11103531979202
31.5,48.442830304719735,46.53513059177982,47.471662753918906,47.32064343308079,47.24274628098834,47.44648444506663
32.5,50.676091754492205,48.80306957104253,49.69999999999999,49.560735335826536,49.458175038501025,49.682332307684845
33.5,52.81227178315618,50.868450838054315,51.80000000000001,51.710563697487515,51.55829740362478,51.79558384873869
34.5,54.27609175449223,52.26845083805432,53.30000000000001,53.190333770110556,53.01606410765791,53.258430818839315
35.5,56.54283030471974,54.60306957104254,55.599999999999994,55.48041467447777,55.27950318624663,55.54673581072538
36.5,58.106905010354595,56.20306957104253,57.2,57.09056454574895,56.869035300850214,57.137761780255175
37.5,59.106905010354595,57.26845083805432,58.2716627539189,58.15028781677847,57.94250905579412,58.188575102484066
38.7,60.8069050103546,58.96845083805432,59.900000000000006,59.8204142502958,59.5690353008502,59.854280062042136
40.0,62.3069050103546,60.435130591779824,61.400000000000006,61.32064343308079,61.058542123529634,61.346942843456006
41.2,63.506905010354586,61.668450838054326,62.671662753918895,62.54050486600762,62.24850574205995,62.56901973589969
42.5,64.20690501035459,62.40306957104252,63.400000000000006,63.270472872194375,62.92245911657936,63.28162371040071
43.7,65.33821129888743,63.53513059177983,64.54313939533782,64.41056369748753,64.07548872252801,64.42124468739752
45.0,66.37150800786938,64.63513059177983,65.6,65.48064597778591,65.12245911657935,65.48018766353442
46.2,67.37150800786937,65.63513059177981,66.6,66.48064597778591,66.09601273061459,66.47532868757102
47.5,68.67150800786938,66.93513059177982,67.9,67.76119474234181,67.33894070941439,67.76102753232267
48.7,69.57150800786937,67.80306957104251,68.79999999999998,68.63093379456438,68.19164923914238,68.64113268849506
50.0,70.30306957104251,68.56845083805433,69.5716627539189,69.38110328303979,68.9389407094144,69.39316481942855
51.5,71.00306957104252,69.26845083805433,70.2716627539189,70.09125154697414,69.59263212049291,70.08688901512299
53.0,71.90306957104252,70.13513059177983,71.18585448910238,70.97138957914964,70.46134764516175,70.97480938903203
54.5,72.67150800786938,70.90306957104252,71.95742449135815,71.74142791979742,71.20340948517658,71.73946850366754
56.0,73.20306957104252,71.46845083805432,72.5,72.29125154697414,71.77671328764492,72.28998493587116
58.0,74.00306957104252,72.20306957104253,73.28585448910238,73.04211223450294,72.4821902656181,73.04970155964392
60.0,74.80306957104253,73.13513059177981,74.18585448910237,73.9318483569237,73.37159834949993,73.92640679499591
61.5,75.50306957104252,73.80306957104251,74.85742449135815,74.62179462390773,74.07123230174518,74.61296985879527
63.0,76.16845083805433,74.40306957104252,75.4716627539189,75.24211223450294,74.71355881754208,75.24364128808202
65.0,76.90306957104252,75.23513059177984,76.27166275391889,76.03184835692369,75.48680073412903,76.02607915637532
67.0,77.66845083805433,76.00306957104252,76.98585448910238,76.74211223450294,76.22331437777444,76.7649856620364
69.0,78.33513059177983,76.67001488257478,77.68585448910237,77.44211223450293,76.89710742524062,77.44663425680314
71.0,78.96845083805432,77.30306957104253,78.35742449135815,78.05259013741897,77.49189780932888,78.0767159533375
73.0,79.56845083805433,77.86845083805433,78.90032894280355,78.63275244080887,78.06049699316381,78.64935142487325
75.0,80.13513059177983,78.43513059177982,79.48585448910238,79.21307979714132,78.65512079738116,79.22763700563468
77.5,80.70306957104252,79.03513059177983,80.0716627539189,79.8013815144318,79.30703224370717,79.82358045986194
80.0,81.10306957104251,79.40306957104252,80.4716627539189,80.17208501832341,79.68546301199046,80.20859627793618
82.5,81.50306957104252,79.80306957104253,80.87166275391891,80.50230232064051,79.98011765232242,80.57629398182871
85.0,81.76845083805433,80.00306957104252,81.10065786069426,80.7437351854229,80.17488760396927,80.80600357243176
87.5,81.90076749445561,80.20306957104252,81.28618450501949,80.8736809860833,80.12899354817048,80.93044719853174
90.0,82.03513059177982,80.27150800786939,81.40065786069427,80.94463679843109,80.1151664367288,81.01246728923809
92.5,82.06845083805433,80.30306957104251,81.44313939533782,81.01493278732161,80.12146824404427,81.05042449833402
95.0,82.06845083805433,80.30306957104251,81.4147553152921,81.01378463570722,80.19461161643896,81.05591113241627
97.5,81.96845083805431,80.20306957104252,81.30065786069426,80.90345351146745,80.23465110037282,80.97411547905378
100.0,81.86845083805434,80.00306957104252,81.17166275391892,80.74463679843107,80.10703224370717,80.83501407091956
103.0,81.56845083805433,79.60306957104252,80.87166275391891,80.41471363173002,79.75438296851797,80.5038858079667
106.0,81.23513059177982,79.23821129888744,80.52913392494288,80.06532867573782,79.42258817422889,80.16055915532336
109.0,80.83513059177983,78.83821129888743,80.12913392494286,79.64580337460791,79.00617383388409,79.7539777598798
112.0,80.36845083805433,78.33821129888742,79.64346508697898,79.13690372626691,78.48534714090275,79.26045114725179
115.0,79.86845083805433,77.83821129888743,79.18683695097147,78.61856450143834,77.92751747142333,78.75680245954982
118.0,79.46845083805431,77.37150800786937,78.7726484311316,78.13986435907715,77.43342054476885,78.31224134104122
122.0,79.10076749445562,76.97150800786937,78.4297799508283,77.78120043742467,76.9490049732324,77.92779427459078
125.0,78.80076749445563,76.70690501035459,78.12946066855591,77.4505915667244,76.62222365459812,77.6232636170364
128.0,78.63435140868503,76.40690501035459,77.91508314243885,77.17176591013619,76.38022818647312,77.39109971183842
132.0,78.50076749445562,76.14283030471974,77.75873795327732,76.95524221942038,76.01715912653265,77.18016849624286
136.0,78.30076749445561,75.94283030471972,77.60130813607779,76.72709101695466,75.75437732789176,76.97507452172275
140.0,78.16845083805433,75.64283030471972,77.40130813607779,76.48890826902394,75.38594108335558,76.74577257979047
145.0,77.9669218511605,75.4122717831562,77.24510093472827,76.2709896979909,75.07610111361303,76.53160622037979
150.0,77.76692185116049,75.21227178315618,77.05971162456001,76.04469555732959,74.73979852276844,76.31087402103525
155.0,77.5669218511605,74.94898514879551,76.84510093472826,75.77879914600068,74.32958722474689,76.05642542975049
160.0,77.3669218511605,74.81227178315619,76.65971162456,75.59955957669797,74.18207444077126,75.88074784303332
165.0,77.16692185116051,74.54898514879551,76.45971162456,75.31429073081927,73.93584236275353,75.64875649086402
170.0,77.06692185116049,74.38219967332304,76.35971162456,75.17715467156607,73.58984404053402,75.49909410640113
175.0,77.13435140868503,74.3489851487955,76.37461192973441,75.16818504532677,73.53729425114012,75.50871154715081
180.0,77.16692185116051,74.28623512455238,76.43175513861907,75.1225024750195,73.5977394284587,75.52202943392301
185.0,77.2,74.25667255930051,76.47461192973441,75.0751638406335,73.263445744536,75.48787705425872
190.0,77.2,74.32758719283592,76.56133449841815,75.08986380876813,73.02830448167825,75.49587574132653
195.0,77.23358982687998,74.35667255930049,76.61769047133515,75.1244001798367,72.98119572620456,75.52572322501291
200.0,77.2669218511605,74.42758719283592,76.64638849111074,75.11791522411346,72.94548087955489,75.54876662537848
206.0,77.33358982687997,74.4566725593005,76.70454428904085,75.13314191141203,72.90127789947292,75.58608064366433
212.0,77.5669218511605,74.29471929119204,76.79073576156003,75.07885843594715,72.77969780696182,75.63288799962586
218.0,77.53358982687998,74.03752777300028,76.83465014071751,74.96863408412295,72.36518323392107,75.53612376120756
224.0,77.43435140868502,73.84898359150841,76.82124978319366,74.7950809698159,71.79010781021269,75.39114218787677
230.0,77.20306957104253,73.57641629732152,76.79170996321623,74.611194411125,70.78658058155604,75.1580630912631
236.0,76.7404416794549,74.0094224842602,76.77848478147015,74.68463808338925,70.1404048100477,75.0446398169688
240.0,76.64044167945491,74.82179738688896,76.83338849099712,74.94095557224627,70.34277398462669,75.23062826893998
250.0,77.1098662867233,75.73752777300028,77.36264712636356,75.45965819732773,71.04753736287637,75.82616216450208
258.0,77.97609175449222,76.63752777300027,78.26264712636356,76.24917747380665,71.58198126705133,76.67341546754449
265.0,78.60690501035458,76.97082970284298,78.76325933618236,76.76740825145961,71.45693606404973,77.14416900033939
272.0,78.7404416794549,76.73752777300027,78.70454428904084,76.88763653844397,71.07995188815737,77.12438302899292
280.0,78.73663575667186,76.63752777300027,78.61834583164506,76.87127043323345,71.13882915301048,77.08026249383147
290.0,78.97150800786939,76.63752777300027,78.80489499373621,76.98618788441509,71.18002642807723,77.22706099255525
300.0,79.13663575667186,76.73752777300027,79.01834583164506,77.18476592428063,71.40242736002133,77.40407993155915
307.0,79.13663575667186,76.83752777300028,78.99073576156005,77.1524552990121,71.53570483196192,77.41411478993143
315.0,78.97150800786939,76.40963256681619,78.84931870409932,76.99032194187654,71.53865404306913,77.2204928470851
325.0,78.77150800786937,75.82179738688895,78.69165879006387,76.6934098597158,71.22026650187338,76.94618464105551
335.0,78.5457671943847,75.86194867563765,78.63465014071753,76.63528545224844,70.36701878494625,76.81416992320433
345.0,78.38219967332304,76.14898359150843,78.70489499373622,76.82851772596942,70.48668798530242,76.87848153742303
355.0,78.48219967332305,76.13546263134681,78.76264712636356,76.76855689794579,70.77229253512331,76.92404611615021
365.0,78.5457671943847,76.1094224842602,78.7929926436339,76.56256032532556,70.35080381085214,76.88889970451433
375.0,78.28219967332305,76.07641629732152,78.72124978319366,76.55722346629672,69.64121170922189,76.75433104185652
387.0,77.92758719283592,76.52179738688895,78.64963652984531,76.62662945985315,69.51663678371244,76.72390717717627
400.0,77.92758719283592,76.64898359150841,78.77780916640859,76.92358348849099,70.62777603149996,76.89398756940201
412.0,78.17082970284298,76.62179738688894,78.96713731749698,76.68221135839828,70.52881514903666,76.95966665119744
425.0,78.00963256681621,76.67641629732152,79.18301110634174,76.69790127041236,69.38969055963594,76.95564994537145
437.0,77.82179738688896,76.85062128010364,79.2228586333877,76.85739962490689,69.21819079397635,76.9801521368042
450.0,77.84898359150841,77.13546263134683,79.20942178676626,76.90500593938776,69.44136706309094,77.05573700207279
462.0,77.73752777300027,77.27641629732153,79.22574078364129,76.84105189179284,69.5900310709863,77.05684739408296
475.0,77.66588846059688,77.4687803399679,79.12574078364129,76.63346156321694,68.95832846012524,76.98884952644877
487.0,77.8566725593005,76.82179738688895,78.92737639911864,76.36544877339841,68.97827851735434,76.78474967931778
500.0,77.26588846059687,75.892378988098,78.60447969865261,75.58751771447113,68.57861355725461,76.19197840774477
515.0,76.82188682922214,76.66136837622764,78.68851908909143,75.66584359505666,67.46840004963389,76.24992369168507
530.0,78.06769521305296,77.18538710465899,79.01139323072618,76.40422658666394,68.80459449361743,76.942905815953
545.0,77.90231994589774,76.50982855556755,78.60447969865261,75.76479941623293,69.6712377587962,76.55067984725447
560.0,77.30076749445561,75.492378988098,77.80748583456003,74.52803323795874,67.39602423810153,75.64307198985587
580.0,77.83358982687999,75.07757950460713,77.96348107211655,74.57912852670194,66.60972206282176,75.76956340334374
600.0,77.93513059177982,75.40791075563449,78.64519973896455,75.61516961589052,67.46269512605787,76.27588802300951
615.0,77.94136150423586,75.20174601124772,78.3488830794205,75.07136006228619,67.31812258748974,76.0485001990218
630.0,77.8100779978029,74.92406634433557,77.89018441959904,74.26862423584916,66.17977395100223,75.65521615014889
650.0,77.45667255930051,75.34010271092207,77.17255056255925,73.42653944324752,66.06556132835843,75.26541094390068
670.0,77.90963256681621,76.01638770313008,76.60466960645226,72.23759282072287,65.07684661510979,75.24978698845301
690.0,78.85768127821953,75.88343461029552,77.13260978849058,72.37866143702144,64.62565771066372,75.74019746460144
710.0,80.0666855279002,76.02696820294229,77.7596578407575,72.84104718310994,64.92039686899159,76.50589694993015
730.0,81.29238562216104,76.20851320750933,78.01132757426443,73.38524532474322,65.0584005650005,77.23780235950719
750.0,80.97449351030437,75.5412772730039,77.78687311020498,73.1104079982414,64.54639137643382,76.89068344194604
775.0,80.67449351030439,74.93012177221655,77.60037979403407,72.9105606008911,63.944572314001306,76.58001396501288
800.0,80.37001488257475,73.7457722347965,77.65496037582864,72.85436090062512,63.371152114127156,76.28038866521467
825.0,80.21430637862282,73.0412305303684,77.60755390593789,72.64465920853888,63.33785223699387,76.0935373798238
850.0,79.8560388500297,71.86443680503089,77.62232710482168,72.238614419839,62.96947395520462,75.76726695421654
875.0,80.9404416794549,68.94412887807499,77.51645452682764,72.33292511004743,63.45943325611606,76.18668819389285
900.0,80.90690501035459,68.24472243308102,76.70752616348628,71.88469130468815,63.35503942411856,75.8961788793048
925.0,79.61430637862281,69.68623512455237,76.00043362312122,70.92131866516583,62.50005703377511,74.90692207370063
950.0,78.53268615537793,70.3623574294208,76.14595025247966,71.03273810232321,62.72424158637904,74.40682208085167
975.0,77.45159316859872,70.8012357262664,76.39307571721125,71.17242813438625,62.621378435456236,74.0190606552861
1000.0,77.23898164121286,71.06503937590752,76.72840194893702,71.18611887126399,62.445176102656546,74.07254939529832
1030.0,76.75522280896297,71.14520516099383,76.80381283737097,70.80184884032889,61.71829698036662,73.86704076479103
1060.0,76.30199903162156,71.27245249207645,76.58030092944402,70.29859759882373,59.657470760443715,73.54952294623797
1090.0,76.52990957385144,71.58318629029516,76.8966192414407,70.1128620312322,58.02616842996511,73.77355128214221
1120.0,77.27245249207644,71.5824675314633,77.415391648293,69.8139977452787,58.3685724850142,74.25457823262506
1150.0,77.92602452356691,72.32457993687896,77.5970888858615,70.44989950490036,59.77853842403782,74.73212823760184
1180.0,77.09389595883675,72.63638088039144,77.17337525682251,70.63039345747528,59.17906254675063,74.2850449282213
1220.0,76.68509485802375,71.92756634145692,77.31333681383691,69.96999712467364,58.452840884639,74.0380611001003
1250.0,77.65295536787777,71.99727311966745,77.59622920099964,69.94113193430465,57.97564757972441,74.53550039810104
1280.0,77.92526453928849,72.52924838946487,77.16544271681231,69.69304225850072,56.595138848358616,74.52587346804124
1320.0,76.62643297742508,70.6567134496405,76.16517048053431,67.15455647009648,51.46813036226919,73.19347390686347
1360.0,75.66382205324666,67.69898600207458,75.9689967376468,65.59555828523247,50.34260050965426,72.35504095618354
1400.0,75.45447715330636,68.13749164860505,76.4375953257043,66.33551089837471,53.10494077310045,72.56044913845358
1450.0,75.08456243414706,68.90146480937388,76.5199887166014,66.64702446044606,53.617697119004475,72.53990517205231
1500.0,74.60879341872709,68.44520516099382,76.72463706443146,66.96129683815204,55.16774286594614,72.46622464631052
1550.0,74.0467437153584,68.14805664755616,77.03904577475816,67.44304117278577,55.839333533099676,72.47601184462448
1600.0,73.53908542067755,68.32699787697726,77.52295425699431,67.91254813310579,56.063809887322776,72.67230507460627
1650.0,73.27075884571826,68.83696012594369,78.01319670991576,68.6164954430688,56.77283394171579,73.00691501744839
1700.0,73.14469593139022,70.6301206597481,78.00699641042985,68.77797558196721,56.678100956111535,73.1555172869742
1750.0,71.77266776373735,71.8094224842602,77.37262421801842,67.70844799416217,54.58142141419512,72.60095201273356
1800.0,69.66128845008046,71.26826674204793,76.37513019682801,66.14019351103127,53.64004125685415,71.48518523229045
1850.0,68.75245310552683,69.3254512340871,75.9333523144368,64.92493243001532,54.24763435384324,70.69246461792461
1900.0,69.4087097551311,69.21832710287035,76.4844743014628,65.81957825065231,56.113910279094185,71.19365768685708
1950.0,70.9882909079458,70.12136425855367,77.24226293016838,67.86014321534611,58.28854928803325,72.18097446044771
2000.0,72.50386349929798,70.6883633610619,77.56810615445985,69.4678490328013,59.4378255700023,72.84946897472018
2060.0,73.41330886278799,70.72842011477167,77.38631939159748,70.53661801327527,59.73306097970068,73.0452370166517
2120.0,73.2790493475812,71.0,76.71355604986304,70.75335009417556,59.57185502647934,72.7224107069176
2180.0,73.46640980126065,71.99075278653531,76.2148613173345,71.1061915366659,59.6167803312389,72.72659249989721
2240.0,74.87252120740993,73.61077364074336,76.56768746169307,72.07913916799822,60.14526227227172,73.66303448592774
2300.0,75.00464502318535,73.42873790694023,76.63736804143852,72.00181816518011,59.02829909117608,73.67126145961402
2360.0,73.56023818113064,71.25118017459572,76.05516209410177,70.53773439308,56.86554093260193,72.46313090903982
2400.0,73.14142122357896,69.60489348120858,76.06519897002669,69.37833309616708,55.883287690835246,71.99810917409486
2500.0,74.40191445428935,69.45299525824493,76.50641723753742,69.06025825341385,55.54625806304031,72.5294175067614
2580.0,75.02303060258373,69.7777505803554,76.90569187727691,69.14545844931499,56.1995545433205,72.9651082030694
2650.0,74.15510017661546,67.95664821100016,76.73775879673671,69.21314424040979,56.55451800657637,72.46775111607181
2720.0,72.98906514019566,63.80825537593668,76.15786968280935,68.84355038262542,55.920441729837904,71.56206475649324
2800.0,73.0646326145979,61.980175362258365,75.55034261279698,68.06724134514467,54.84988076556735,71.10171985400532
2900.0,73.76171008918142,63.940586732658616,75.8155560591684,68.20578222190343,54.75290412976082,71.54273967006971
3000.0,73.52621393128958,63.04415774934853,76.16268944994508,69.0978271044065,55.63453780707124,71.72363273712125
3070.0,73.1667330308201,64.55632382767521,76.47480918675404,70.17383126535668,56.77586110125438,71.98013838418028
3150.0,72.56024631163811,67.0263735567079,76.51896788970859,70.43085423721074,56.50475665850506,72.01001477503439
3250.0,71.86121515809667,67.75141723584596,76.23609896488516,69.86497514110654,55.971953378795746,71.6692327605798
3350.0,71.38854508842583,67.02012350463691,76.00386117043948,69.91135275209943,55.69268932880644,71.38729643316366
3450.0,70.90721172860908,65.95896041806931,75.7311019520909,69.5777025355932,54.15515326036174,71.00515590567608
