Freq "Total Early Reflection"
22.4 41.164941086478564
23.0 41.32421930370242
23.6 40.42793671827994
24.0 39.8762793743889
25.0 39.36950867926873
25.8 38.88140561245973
26.5 38.237164158495375
27.2 38.31913812787616
28.0 39.37173443790476
29.0 40.6690213058138
30.0 43.445406938413356
30.7 46.01863025650087
31.5 47.35407938177548
32.5 49.58992724439369
33.5 51.703178785447534
34.5 53.16602575554816
35.5 55.45433074743423
36.5 57.04535671696402
37.5 58.09617003919291
38.7 59.76187499875097
40.0 61.25453778016485
41.2 62.476614672608534
42.5 63.189218647109556
43.7 64.32883962410637
45.0 65.38778260024328
46.2 66.38292362427987
47.5 67.66862246903153
48.7 68.5487276252039
50.0 69.3007597561374
51.5 69.99448395183182
53.0 70.88240432574088
54.5 71.6470634403764
56.0 72.19757987258001
58.0 72.95729649635277
60.0 73.83400173170475
61.5 74.5205647955041
63.0 75.15123622479088
65.0 75.93367409308416
67.0 76.67258059874524
69.0 77.35422919351197
71.0 77.98431089004634
73.0 78.55694636158208
75.0 79.13523194234352
77.5 79.73117539657079
80.0 80.11619121464503
82.5 80.48388891853756
85.0 80.71359850914061
87.5 80.8380421352406
90.0 80.92006222594692
92.5 80.95801943504286
95.0 80.96350606912512
97.5 80.88171041576261
100.0 80.74260900762839
103.0 80.41148074467554
106.0 80.0681540920322
109.0 79.66157269658865
112.0 79.16804608396063
115.0 78.66439739625866
118.0 78.21983627775006
122.0 77.83538921129963
125.0 77.53085855374523
128.0 77.29869464854727
132.0 77.0877634329517
136.0 76.8826694584316
140.0 76.65336751649932
145.0 76.43920115708863
150.0 76.2184689577441
155.0 75.96402036645934
160.0 75.78834277974217
165.0 75.55635142757285
170.0 75.40668904310999
175.0 75.41630648385964
180.0 75.42962437063184
185.0 75.39547199096756
190.0 75.40347067803538
195.0 75.43331816172176
200.0 75.45636156208731
206.0 75.49367558037318
212.0 75.54048293633473
218.0 75.44371869791641
224.0 75.29873712458561
230.0 75.06565802797195
236.0 74.95223475367764
240.0 75.13822320564883
250.0 75.73375710121095
258.0 76.58101040425335
265.0 77.05176393704824
272.0 77.03197796570177
280.0 76.98785743054033
290.0 77.1346559292641
300.0 77.311674868268
307.0 77.32170972664028
315.0 77.12808778379394
325.0 76.85377957776436
335.0 76.72176485991316
345.0 76.78607647413187
355.0 76.83164105285906
365.0 76.79649464122318
375.0 76.66192597856536
387.0 76.63150211388512
400.0 76.80158250611086
412.0 76.86726158790628
425.0 76.8632448820803
437.0 76.88774707351305
450.0 76.96333193878162
462.0 76.96444233079183
475.0 76.89644446315765
487.0 76.69234461602663
500.0 76.09957334445362
515.0 76.1575186283939
530.0 76.85050075266184
545.0 76.4582747839633
560.0 75.5506669265647
580.0 75.67715834005257
600.0 76.18348295971836
615.0 75.95609513573065
630.0 75.56281108685774
650.0 75.17300588060951
670.0 75.15738192516183
690.0 75.64779240131028
710.0 76.41349188663898
730.0 77.14539729621603
750.0 76.79827837865489
775.0 76.48760890172171
800.0 76.18798360192352
825.0 76.00113231653265
850.0 75.67486189092537
875.0 76.0942831306017
900.0 75.80377381601366
925.0 74.81451701040947
950.0 74.31441701756052
975.0 73.92665559199494
1000.0 73.98014433200716
1030.0 73.77463570149988
1060.0 73.4571178829468
1090.0 73.68114621885105
1120.0 74.16217316933391
1150.0 74.63972317431069
1180.0 74.19263986493014
1220.0 73.94565603680914
1250.0 74.4430953348099
1280.0 74.4334684047501
1320.0 73.10106884357232
1360.0 72.26263589289239
1400.0 72.46804407516242
1450.0 72.44750010876118
1500.0 72.37381958301938
1550.0 72.38360678133334
1600.0 72.57990001131512
1650.0 72.91450995415724
1700.0 73.06311222368306
1750.0 72.50854694944239
1800.0 71.39278016899931
1850.0 70.60005955463346
1900.0 71.10125262356591
1950.0 72.08856939715656
2000.0 72.75706391142903
2060.0 72.95283195336054
2120.0 72.63000564362645
2180.0 72.63418743660606
2240.0 73.57062942263659
2300.0 73.57885639632288
2360.0 72.37072584574868
2400.0 71.90570411080371
2500.0 72.43701244347024
2580.0 72.87270313977825
2650.0 72.37534605278066
2720.0 71.46965969320209
2800.0 71.00931479071417
2900.0 71.45033460677854
3000.0 71.6312276738301
3070.0 71.88773332088913
3150.0 71.91760971174324
3250.0 71.57682769728865
3350.0 71.29489136987249
3450.0 70.91275084238492
3550.0 70.73194631579987
3650.0 71.52644127821063
3750.0 71.74928439921271
3870.0 70.86307919180018
4000.0 70.57598438079374
4120.0 70.81190607293111
4250.0 71.56136802148089
4370.0 72.19590805030137
4500.0 72.16130267198834
4620.0 72.27081573899
4750.0 72.17434479608274
4870.0 72.39096766663081
5000.0 71.94579928119494
5150.0 71.32018020305041
5300.0 71.53761918668344
5450.0 72.40462717801377
5600.0 73.48496847311806
5800.0 73.88169674287013
6000.0 73.79803329158116
6150.0 72.09887914430128
6300.0 70.80340985128466
6500.0 70.68260173953075
6700.0 70.284632148185
6900.0 70.84670186768277
7100.0 71.95928311339253
7300.0 72.09390721910617
7500.0 71.69794409904239
7750.0 71.01604248847273
8000.0 71.51411507150884
8250.0 73.2960487237005
8500.0 74.28162566493312
8750.0 73.15251071297234
9000.0 71.39469692898048
9250.0 70.73303635283474
9500.0 73.0570274314546
9750.0 74.36013328111487
10000.0 72.35982838740307
10300.0 70.77201082091719
10600.0 71.11881018989916
10900.0 73.67671800921673
11200.0 72.89490709563
11500.0 71.18241764573102
11800.0 71.13504636090357
12200.0 70.60781949716086
12500.0 71.30310220031204
12800.0 71.33007270748878
13200.0 71.02816878670323
13600.0 69.95030459819841
14000.0 69.66377132078429
14500.0 71.02474341127385
15000.0 69.65513971000456
15500.0 70.13803094885037
16000.0 71.32157657813792
16500.0 68.92556374682827
17000.0 71.65449857933882
17500.0 69.49659648381771
18000.0 64.99599395876041
18500.0 66.19543540405297
19000.0 63.69484747936143
19500.0 62.067777423738534
