Freq,On Axis,Listening Window,Sound Power,Early Reflections,Early Reflections DI,Sound Power DI,DI offset
22.4,45.45316455696198,45.35630137819041,44.712869357774196,45.333527728620226,40.02277364957018,40.64343202041621,40
23.0,45.95316455696198,45.97158405001531,45.21418141651728,45.923114285916114,40.048469764099195,40.75740263349803,40
23.6,46.853164556962014,46.901762930485376,45.947910571333864,46.73766505123555,40.16409787924982,40.95385235915151,40
24.0,47.853164556962014,47.894009726043095,46.77864770122366,47.659944197241884,40.23406552880121,41.11536202481943,40
25.0,49.353164556962014,49.54622110267624,48.306715705478155,49.28123542400715,40.26498567866909,41.23950539719809,40
25.8,50.75316455696199,50.96956068697747,49.63521875929413,50.63761485952156,40.33194582745591,41.33434192768334,40
26.5,52.653164556962,52.69259643307217,51.15296861939885,52.20405865483812,40.48853777823405,41.53962781367332,40
27.2,54.25316455696199,54.16104660185445,52.45897791231894,53.534024328674434,40.62702227318002,41.70206868953551,40
28.0,56.053164556962,55.94892838143886,54.13072470966378,55.23568902916256,40.713239352276304,41.81820367177508,40
29.0,57.653164556962,57.53147750825508,55.646461741519886,56.74749517815664,40.78398233009844,41.885015766735194,40
30.0,59.25316455696199,59.16993514697785,57.28532027363519,58.391158006983375,40.778777139994475,41.884614873342656,40
30.7,60.653164556962,60.5898686359383,58.70426106503666,59.79139050283459,40.798478133103714,41.88560757090164,40
31.5,61.95316455696198,61.85433810407886,60.032652139298705,61.08092103783261,40.77341706624625,41.82168596478016,40
32.5,63.053164556962,62.96194788907155,61.188616495387464,62.22136537355266,40.740582515518895,41.77333139368409,40
33.5,64.153164556962,64.04934358667228,62.285302589603845,63.27844380976828,40.770899776904,41.764040997068435,40
34.5,65.25316455696199,65.14703418386523,63.43648066895713,64.39761064558064,40.74942353828459,41.7105535149081,40
35.5,66.45316455696198,66.37894268930722,64.70824844072945,65.623505034625,40.755437654682225,41.670694248577774,40
36.5,67.653164556962,67.5570434571503,65.92903855603353,66.80078828267455,40.756255174475754,41.62800490111677,40
37.5,68.653164556962,68.56695353385696,66.98916784932788,67.83115712760859,40.73579640624837,41.577785684529076,40
38.7,69.553164556962,69.42162726447056,67.88189213460562,68.68020603629942,40.741421228171134,41.53973512986494,40
40.0,70.35316455696199,70.26592108396477,68.76989699839703,69.53819637363091,40.72772471033386,41.49602408556774,40
41.2,71.25316455696199,71.09941866761876,69.67209144757385,70.37674487740725,40.722673790211516,41.427327220044916,40
42.5,71.953164556962,71.86566003031628,70.56524180354998,71.20678505779073,40.65887497252555,41.3004182267663,40
43.7,72.553164556962,72.49839994304483,71.33321489757618,71.90224899832931,40.59615094471552,41.16518504546865,40
45.0,73.153164556962,73.02110579252701,71.99191299726675,72.4657706437252,40.55533514880182,41.02919279526026,40
46.2,73.453164556962,73.29941866761877,72.43049671706534,72.79155559550716,40.507863072111604,40.86892195055343,40
47.5,73.353164556962,73.21104814156601,72.47004418394916,72.75264559145458,40.45840255011143,40.741003957616854,40
48.7,73.053164556962,72.87889527549484,71.98381401807163,72.31033770123472,40.568557574260126,40.895081257423215,40
50.0,73.25316455696199,73.03721615491818,71.47751608849752,72.1010746916285,40.93614146328969,41.55970006642066,40
51.5,74.25316455696199,73.96199824562194,71.4744144107737,72.62271491659834,41.3392833290236,42.48758383484824,40
53.0,75.653164556962,75.36199824562195,72.35460433626139,73.86357692830245,41.4984213173195,43.00739390936056,40
54.5,76.953164556962,76.71406626657078,73.66934077639951,75.25626024576827,41.45780602080251,43.044725490171274,40
56.0,77.953164556962,77.7259262417452,74.87017162427918,76.36776365252916,41.358162589216036,42.85575461746602,40
58.0,78.353164556962,78.22392934105747,75.66936621631008,77.0164321123976,41.207497228659875,42.55456312474739,40
60.0,78.553164556962,78.40070215693763,76.06619466665165,77.27732507695667,41.123377079980955,42.33450749028597,40
61.5,78.553164556962,78.43497364306835,76.27615494668939,77.36497838245612,41.06999526061223,42.15881869637896,40
63.0,78.75316455696199,78.62392934105746,76.55238166618221,77.58328242199897,41.04064691905849,42.07154767487525,40
65.0,78.95316455696198,78.79136471978434,76.69288979709395,77.72095003678344,41.070414683000905,42.098474922690386,40
67.0,79.153164556962,78.94830368007014,76.7582616490227,77.83242682225125,41.11587685781889,42.19004203104744,40
69.0,79.453164556962,79.22650644762925,76.91446560500589,78.05256235831507,41.173944089314176,42.31204084262336,40
71.0,79.75316455696199,79.57209136787245,77.11731059815297,78.34606210056421,41.226029267308235,42.45478076971948,40
73.0,80.35316455696199,80.10606491999238,77.4290527906502,78.77999923631968,41.326065683672695,42.677012129342174,40
75.0,81.053164556962,80.79592618231464,77.90968873034386,79.38372907819729,41.412197104117354,42.886237451970786,40
77.5,81.953164556962,81.66342280290968,78.62877570536837,80.1987422032676,41.46468059964208,43.03464709754131,40
80.0,82.653164556962,82.39544777379798,79.43719326636094,80.98415925058737,41.411288523210615,42.95825450743705,40
82.5,83.453164556962,83.22859212981678,80.53078938216282,81.9337134244337,41.29487870538307,42.69780274765395,40
85.0,84.153164556962,83.9588037867745,81.5659333652626,82.79055232637901,41.16825146039548,42.3928704215119,40
87.5,84.653164556962,84.5146774536098,82.34895812313428,83.44384160460808,41.070835849001725,42.165719330475525,40
90.0,85.053164556962,84.91467745360983,82.79156341667493,83.85989230828437,41.054785145325454,42.12311403693489,40
92.5,85.553164556962,85.32859212981677,83.08814578044016,84.20502122971783,41.12357090009894,42.24044634937661,40
95.0,86.053164556962,85.8307253573796,83.33956214585243,84.57990114316657,41.25082421421304,42.49116321152718,40
97.5,86.853164556962,86.62064409378793,83.91742261723127,85.30423164242737,41.31641245136056,42.703221476556664,40
100.0,87.75316455696199,87.56475557904747,84.82383383082069,86.23457629398528,41.33017928506219,42.74092174822678,40
103.0,88.553164556962,88.3307253573796,85.61185992565923,87.01039316241368,41.32033219496593,42.718865431720374,40
106.0,89.053164556962,88.85378685012942,86.16313880681957,87.53729547782602,41.3164913723034,42.69064804330985,40
109.0,89.553164556962,89.25553831333151,86.48446994962529,87.89278818939863,41.362750123932884,42.77106836370622,40
112.0,89.95316455696201,89.73221694474165,86.9646062217915,88.38335355260514,41.34886339213651,42.76761072295015,40
115.0,90.35316455696199,90.14375903891168,87.41045703923623,88.79886982827949,41.34488921063219,42.73330199967545,40
118.0,90.653164556962,90.35842336827781,87.50898418394172,88.94217474323509,41.416248625042726,42.84943918433609,40
122.0,90.853164556962,90.5584233682778,87.49252838196205,89.06906496811429,41.48935840016351,43.065894986315755,40
125.0,91.35316455696201,91.03836068272797,87.82403078548566,89.49033679989762,41.54802388283035,43.21432989724231,40
128.0,91.75316455696199,91.53637336933768,88.31764635337812,89.98512066950946,41.551252699828225,43.21872701595956,40
132.0,91.953164556962,91.67934930157803,88.4254342552664,90.10241070494791,41.576938596630114,43.25391504631163,40
136.0,91.75316455696199,91.55740556045146,88.21486139994724,89.95893511645356,41.5984704439979,43.34254416050422,40
140.0,91.75316455696199,91.53637336933768,88.1756071881708,89.9517286579933,41.58464471134438,43.36076618116688,40
145.0,91.853164556962,91.60017488921075,88.29111065858945,90.04852251072299,41.55165237848776,43.3090642306213,40
150.0,91.553164556962,91.33683650380858,88.02536523748806,89.76344186234093,41.57339464146766,43.311471266320524,40
155.0,91.35316455696201,91.02631812931989,87.72487655603729,89.45710636733075,41.56921176198914,43.3014415732826,40
160.0,91.153164556962,90.79642441570579,87.41010437329552,89.18022037621007,41.61620403949571,43.38632004241026,40
165.0,91.053164556962,90.65453000431734,87.03083667830737,88.90727166830689,41.74725833601045,43.62369332600997,40
170.0,90.853164556962,90.52138517538697,86.64408164249649,88.70963997610586,41.811745199281106,43.87730353289048,40
175.0,90.853164556962,90.50806189964483,86.48559942190217,88.62653495639144,41.88152694325339,44.022462477742664,40
180.0,90.75316455696199,90.41694377911236,86.40659348905534,88.55715667799178,41.859787101120574,44.01035029005702,40
185.0,90.553164556962,90.20679784435406,86.25185880102194,88.36428067847406,41.84251716588,43.95493904333212,40
190.0,90.053164556962,89.742473171413,85.75491560433457,87.88257549878946,41.85989767262353,43.987557567078426,40
195.0,89.653164556962,89.32138517538696,85.2113040538036,87.4388211685197,41.88256400686727,44.11008112158336,40
200.0,90.35316455696199,90.06476335802431,85.8215477647028,88.12872503530498,41.93603832271933,44.24321559332151,40
206.0,90.853164556962,90.48332971220103,86.13531034849296,88.47004616517783,42.01328354702319,44.34801936370806,40
212.0,90.653164556962,90.30537911285981,85.86477594745928,88.24527208741192,42.06010702544789,44.44060316540053,40
218.0,90.553164556962,90.13888542588083,85.57604844758424,88.01871674093576,42.12016868494507,44.56283697829659,40
224.0,90.553164556962,90.13888542588083,85.53837156371478,87.96657224391565,42.17231318196518,44.60051386216605,40
230.0,90.453164556962,90.08244042703318,85.36186293273941,87.81002469198715,42.272415735046025,44.720577494293764,40
236.0,90.453164556962,90.03948948501137,85.08176226048263,87.56525707069504,42.47423241431633,44.95772722452874,40
240.0,89.95316455696201,89.6114032885703,85.01251370531371,87.27773098403459,42.33367230453571,44.59888958325659,40
250.0,89.053164556962,88.73283562591541,84.57449991224985,86.70792007879504,42.02491554712037,44.158335713665565,40
258.0,89.25316455696199,88.87098880487449,84.66860432497941,86.95720910241057,41.91377970246391,44.20238447989507,40
265.0,89.553164556962,89.14131342356298,84.86930623417621,87.22017475358408,41.9211386699789,44.27200718938677,40
272.0,89.75316455696199,89.36961247194635,84.89444513126017,87.34223846778053,42.02737400416582,44.475167340686184,40
280.0,89.95316455696201,89.53880262367528,84.8095978158596,87.38681883629832,42.15198378737696,44.72920480781568,40
290.0,89.75316455696199,89.29252334199417,84.4513994116373,87.09290559606788,42.19961774592629,44.84112393035687,40
300.0,89.653164556962,89.15940869012275,84.2091519609236,86.88901154064928,42.27039714947347,44.95025672919914,40
307.0,89.353164556962,88.874166096221,83.94918932183764,86.61632514832687,42.25784094789414,44.92497677438337,40
315.0,88.95316455696198,88.42689444009913,83.44493434020478,86.18419390531142,42.242700534787716,44.98196009989435,40
325.0,88.553164556962,88.04390775358327,82.94737311906671,85.78261356957597,42.2612941840073,45.09653463451656,40
335.0,88.353164556962,87.8459206765619,82.57596918033406,85.51921482890228,42.326705847659625,45.26995149622785,40
345.0,88.453164556962,87.90204846968577,82.28896479852962,85.36844152359333,42.53360694609243,45.61308367115615,40
355.0,89.25316455696199,88.68122540892877,82.91345167891652,86.08210993869028,42.59911547023849,45.76777373001225,40
365.0,90.35316455696199,89.72221783044037,83.76411242371154,87.00004660365158,42.72217122678879,45.95810540672883,40
375.0,90.653164556962,90.07639132818733,83.92078490615634,87.21995842367144,42.856432904515884,46.155606422030985,40
387.0,90.453164556962,89.77674807269582,83.42410113654223,86.74936589634186,43.02738217635397,46.35264693615359,40
400.0,90.053164556962,89.36813245493983,82.74740100394844,86.0582727638424,43.30985969109743,46.620731450991386,40
412.0,89.75316455696199,89.05645540085672,82.39554232646466,85.67433770427691,43.38211769657981,46.660913074392056,40
425.0,89.653164556962,88.9605036174332,82.25371704512213,85.53757058747321,43.42293302995999,46.706786572311074,40
437.0,89.553164556962,88.79968112468956,82.01065496309769,85.33014690922477,43.46953421546479,46.78902616159186,40
450.0,89.453164556962,88.69968112468956,81.80764363865546,85.1715538391175,43.52812728557207,46.8920374860341,40
462.0,89.553164556962,88.85645540085673,81.83557129530624,85.16105715858376,43.69539824227297,47.02088410555049,40
475.0,89.653164556962,88.98020184184303,82.24372896677762,85.50194651485512,43.478255326987906,46.7364728750654,40
487.0,89.553164556962,88.87699108141996,82.77219906833815,85.85624158159274,43.02074949982722,46.104792013081806,40
500.0,89.25316455696199,88.60641225371856,83.20110198891408,86.28264136665274,42.32377088706582,45.405310264804484,40
515.0,89.453164556962,88.8058996052217,83.52200964237113,86.72024067399596,42.08565893122574,45.283889962850566,40
530.0,89.453164556962,88.8191551948838,83.51053767626615,86.89681738860111,41.9223378062827,45.30861751861765,40
545.0,89.75316455696199,89.09886269895543,83.64750465114145,87.2181117236348,41.88075097532062,45.45135804781398,40
560.0,90.053164556962,89.26657191042273,83.64773560773759,87.4526043815483,41.81396752887443,45.61883630268514,40
580.0,90.053164556962,89.25797519670333,83.38908665998794,87.38684604183263,41.8711291548707,45.86888853671539,40
600.0,90.053164556962,89.17228049424428,83.04879468045465,87.26413585888241,41.908144635361865,46.12348581378963,40
615.0,89.75316455696199,88.96379317716654,82.64053429159397,87.02880252175353,41.934990655413,46.32325888557257,40
630.0,89.553164556962,88.66515244253974,82.0782330832709,86.52731434961787,42.13783809292187,46.58691935926883,40
650.0,89.25316455696199,88.38425557501498,81.65872249345213,86.18865385983003,42.19560171518495,46.725533081562844,40
670.0,89.25316455696199,88.51110051585378,81.64311955273227,86.2621652045041,42.24893531134968,46.86798096312151,40
690.0,89.453164556962,88.5909981614052,81.45617852231778,86.12936764937547,42.46163051202973,47.13481963908741,40
710.0,89.653164556962,88.70184005815108,81.14484446222725,85.78754762456043,42.914292433590646,47.55699559592382,40
730.0,90.053164556962,88.96705549558473,81.30129988703516,85.71859009086224,43.248465404722495,47.665755608549574,40
750.0,88.75316455696199,87.91878626880714,81.13872476769652,85.47179891278711,42.44698735602003,46.78006150111062,40
775.0,88.353164556962,87.81286110722483,81.06023844577777,85.60499148002677,42.207869627198065,46.75262266144706,40
800.0,88.453164556962,87.86384783916412,80.88356802640853,85.47183145481743,42.39201638434669,46.9802798127556,40
825.0,88.453164556962,87.85952408799905,80.66265480944963,85.26900472044814,42.59051936755091,47.196869278549414,40
850.0,88.653164556962,87.91108747348083,80.45989354416076,85.07422075103953,42.8368667224413,47.45119392932007,40
875.0,88.553164556962,87.74819586319546,80.08734464834788,84.69449206840665,43.05370379478882,47.66085121484758,40
900.0,88.653164556962,87.76726169384429,79.7530493816304,84.28684527697874,43.48041641686555,48.014212312213886,40
925.0,88.153164556962,87.2021324502845,78.96851515305933,83.50938514656112,43.69274730372338,48.233617297225166,40
950.0,88.053164556962,86.96707873688045,78.65096813403605,83.28873571818451,43.67834301869594,48.316110602844404,40
975.0,87.75316455696199,86.4942087530808,78.22176447706785,82.95517844280036,43.53903031028044,48.27244427601295,40
1000.0,87.75316455696199,86.46145017670807,78.1354191300097,83.0219227318355,43.43952744487257,48.326031046698375,40
1030.0,86.553164556962,86.21538072010868,79.13605126337083,83.87062413128115,42.344756588827536,47.07932945673785,40
1060.0,87.053164556962,86.73463047051794,79.70363950418246,84.47937597735171,42.255254493166234,47.03099096633548,40
1090.0,88.053164556962,87.2760386903714,79.41103898070523,84.24314428049489,43.032894409876505,47.864999709666165,40
1120.0,88.85316455696201,87.75125962512433,79.09098682541463,84.00761937259111,43.743640252533226,48.6602727997097,40
1150.0,88.75316455696199,87.40168877453232,78.29431959543041,83.35798547057851,44.043703303953805,49.10736917910191,40
1180.0,87.553164556962,86.46666854381789,77.50212377484769,82.4087662626041,44.057902281213785,48.9645447689702,40
1220.0,87.153164556962,85.55137669117983,76.22767712496935,81.36329907542708,44.188077615752746,49.32369956621048,40
1250.0,86.153164556962,84.38325716317279,75.02826505127437,80.272623885856,44.11063327731678,49.35499211189841,40
1280.0,86.35316455696201,84.2316710221535,74.50226213254021,79.58191152239327,44.649759499760236,49.729408889613296,40
1320.0,87.053164556962,84.76107831058656,74.40636074687511,79.41142297384201,45.34965533674455,50.354717563711446,40
1360.0,87.353164556962,85.04370643384186,74.74834143012848,79.86089898572543,45.182807448116435,50.295365003713385,40
1400.0,87.353164556962,85.25743425174298,75.06503738731212,80.25606777338986,45.00136647835312,50.19239686443086,40
1450.0,87.45316455696201,85.22551305204003,75.55441341285665,80.56423855781446,44.661274494225566,49.67109963918338,40
1500.0,87.553164556962,85.61078100457121,75.85762064757681,80.9267249951727,44.6840560093985,49.7531603569944,40
1550.0,87.75316455696199,85.64168092160142,75.79339472139301,80.90975029282612,44.7319306287753,49.848286200208406,40
1600.0,87.75316455696199,85.5661376595665,76.24268430238963,81.04160295570523,44.52453470386126,49.32345335717686,40
1650.0,88.153164556962,85.56745080227248,76.41604448985709,81.10610578637377,44.4613450158987,49.15140631241539,40
1700.0,87.75316455696199,85.37592370913421,76.37832493085936,81.04212306836723,44.33380064076698,48.99759877827485,40
1750.0,87.353164556962,85.1941158912133,76.50781273617997,81.36172572585576,43.83239016535754,48.68630315503333,40
1800.0,87.85316455696199,85.07903397761714,76.04380150367298,81.41555925407984,43.663474723537306,49.03523247394416,40
1850.0,87.75316455696199,84.80124002767312,75.62177114517965,81.00660368335645,43.79463634431667,49.17946888249347,40
1900.0,87.553164556962,84.97714965935306,76.27578408387699,81.36221951697307,43.61493014237999,48.701365575476075,40
1950.0,88.553164556962,85.42940155418164,76.91207470342644,82.15259264368981,43.27680891049182,48.5173268507552,40
2000.0,88.25316455696199,85.50857092890323,76.57314070402826,81.89227649859338,43.61629443030985,48.93543022487496,40
2060.0,88.553164556962,85.6532674499453,76.6442501368423,82.00971049960351,43.64355695034179,49.009017313103,40
2120.0,89.053164556962,85.9543929271118,76.72630926144993,82.18518789994243,43.76920502716936,49.22808366566187,40
2180.0,88.453164556962,85.83604821253164,76.24301492317869,81.88178351611464,43.954264696417,49.593033289352945,40
2240.0,88.85316455696201,86.38806995927175,77.0236376657101,82.61459229887576,43.77347766039598,49.36443229356165,40
2300.0,89.053164556962,86.59143734215256,77.09939254807577,82.77174068175695,43.81969666039561,49.49204479407679,40
2360.0,89.453164556962,86.94465339275382,77.22396458868722,82.89450846945218,44.050144923301644,49.7206888040666,40
2400.0,89.353164556962,87.1753277384172,77.48461282756205,83.09160789519382,44.08371984322338,49.69071491085515,40
2500.0,89.153164556962,87.13006407358236,77.41606945640797,82.9373966990088,44.19266737457356,49.71399461717439,40
2580.0,88.95316455696198,87.18853953916252,77.73210526816924,82.95730926749485,44.23123027166767,49.456434270993284,40
2650.0,88.553164556962,86.94539553856487,77.65583851381305,82.61017166203453,44.335223876530335,49.289557024751815,40
2720.0,89.25316455696199,87.383822477153,77.61039534262557,82.57948396206658,44.80433851508643,49.77342713452744,40
2800.0,89.153164556962,87.4151825354582,77.36291607845484,82.37906506242268,45.03611747303552,50.052266457003356,40
2900.0,89.353164556962,87.48786174460768,77.36764597867752,82.3448123221917,45.143049422415984,50.12021576593017,40
3000.0,89.653164556962,87.62459886667014,77.37187776471991,82.43073264548596,45.19386622118418,50.25272110195023,40
