Freq,Floor Bounce,Ceiling Bounce,Front Wall Bounce,Side Wall Bounce,Rear Wall Bounce,Total Early Reflection
22.4,14.535539445649277,13.543180362087156,14.494465006713597,13.605651030642917,11.587050383598864,13.67445828934953
23.0,17.83553944564926,16.156917174329664,17.67163289663577,16.09126140530205,12.333402247854366,16.400781742515022
23.6,23.634010458755455,21.90991891231468,23.332868835522703,22.17955541617573,21.37944753033767,22.572512930601988
24.0,29.367088607594923,28.534010458755432,29.081843922887032,28.758801718388497,29.604084437278487,29.08659117673278
25.0,35.167088607594934,34.400678434474884,34.910553694573906,34.67834149997611,35.12077263132292,34.86480497785598
25.8,39.76708860759493,39.13401045875543,39.58184392288703,39.33824638990586,39.713234678196955,39.513355026875104
26.5,44.26708860759493,43.70067843447492,44.09622253253784,43.858350781142576,44.014304745646115,43.991690739657514
27.2,47.967088607594945,47.46785610205055,47.810228002932746,47.61760933775963,47.64768208441575,47.70548544651595
28.0,51.26708860759493,50.86785610205055,51.152943096697314,50.99802240215932,50.88833344001907,51.03759014023471
29.0,54.300678434474904,53.96708860759493,54.167088607594934,54.07765230508247,53.89362844938336,54.08362177775905
30.0,57.00067843447491,56.73401045875542,56.93875136151382,56.81737642437341,56.56793970547082,56.81444194985308
30.7,59.53401045875543,59.33401045875543,59.46708860759492,59.38750285789072,59.11608215403889,59.370077698451865
31.5,61.800678434474904,61.63401045875543,61.76708860759493,61.67742258974501,61.35388084552031,61.64946073753529
32.5,63.734010458755435,63.600678434474915,63.667088607594934,63.657191589803546,63.322559892578624,63.5986384385279
33.5,65.33401045875544,65.26708860759493,65.29589576434022,65.29733111848817,64.95509392752803,65.23207575952934
34.5,66.63401045875543,66.56708860759494,66.5815160709924,66.60736533656541,66.30243308903624,66.54012562845506
35.5,67.7006784344749,67.63401045875543,67.61022800293276,67.68727366301081,67.35618247109713,67.59945901329361
36.5,68.4006784344749,68.36708860759492,68.38151607099239,68.43732963401652,68.08849201674235,68.33681028011782
37.5,68.83401045875544,68.76708860759493,68.7958957643402,68.84796587637051,68.48872464581365,68.74871931162777
38.7,69.06785610205054,69.03401045875543,69.02484528224025,69.06823979842189,68.67883913860419,68.9772716024899
40.0,69.2006784344749,69.16708860759493,69.15327311261441,69.20759347360256,68.76856172832345,69.10257835586663
41.2,69.40067843447491,69.30067843447492,69.3390824575691,69.34842315727175,68.83804890769208,69.25016614711798
42.5,69.60067843447491,69.53401045875542,69.5390824575691,69.53870997121223,69.01725004842959,69.45117735982609
43.7,69.90067843447491,69.83401045875543,69.8677464682892,69.85811466783497,69.32288588027811,69.76202264085796
45.0,70.23401045875542,70.13401045875543,70.18184392288703,70.18912289300161,69.69093862836989,70.09049351174835
46.2,70.6006784344749,70.53401045875542,70.5390824575691,70.54842315727176,70.0788391386042,70.464367692585
47.5,70.93401045875542,70.83401045875543,70.88184392288701,70.85811466783497,70.40018067673644,70.78585727248694
48.7,71.13401045875544,71.03401045875543,71.11022800293274,71.09755978322329,70.65679024456458,71.01009773209913
50.0,71.36708860759494,71.30067843447492,71.32451309895308,71.27765230508247,70.86188391826643,71.2302097994341
51.5,71.53401045875543,71.46785610205055,71.52451309895308,71.40806033830752,70.92499504107246,71.37772725924177
53.0,71.6006784344749,71.53401045875543,71.62451309895307,71.47811704935577,70.96772717665354,71.447592656866
54.5,71.66708860759493,71.63401045875543,71.68217175003377,71.52875340710168,70.96772717665354,71.50407638218385
56.0,71.66708860759493,71.63401045875543,71.68217175003377,71.52968267190349,70.94122951438669,71.49959141264664
58.0,71.6006784344749,71.63401045875543,71.66839674367272,71.5007975716264,70.8940618658398,71.4688665410849
60.0,71.56708860759494,71.63401045875543,71.63973703872652,71.43152524092447,70.85073430041557,71.43445108863631
61.5,71.53401045875543,71.56785610205054,71.61055369457391,71.41059582561232,70.77172366260102,71.38971701760624
63.0,71.5006784344749,71.53401045875543,71.56839674367272,71.31268004908368,70.65659026703679,71.32738574870353
65.0,71.43401045875544,71.43401045875544,71.51055369457391,71.25325269110323,70.55564296448156,71.2512033742858
67.0,71.40067843447491,71.36785610205055,71.46774646828919,71.11220824890631,70.43895954502679,71.17345933376544
69.0,71.23401045875542,71.26785610205056,71.35294309669732,70.97123244312712,70.28511247493017,71.03913876410596
71.0,71.16785610205054,71.16785610205054,71.28217175003377,70.80280740240778,70.0911462402859,70.92352780151454
73.0,71.20221919937475,71.06785610205054,71.33875136151384,70.81448835079202,69.97063355772357,70.90489189296956
75.0,71.16785610205054,70.96785610205055,71.28217175003377,70.7353322921098,69.88358200648251,70.83478199024059
77.5,71.10144001627997,70.83553944564926,71.2105536945739,70.62602870728125,69.76953291295837,70.73766441294164
80.0,71.03553944564926,70.77015817863744,71.16839674367272,70.46910777702423,69.54217544211474,70.63409475477305
82.5,71.10221919937476,70.77015817863744,71.25489295119846,70.45347276470903,69.29991312860273,70.62893766677563
85.0,71.13553944564927,70.67015817863745,71.22680023215494,70.55723673328407,69.14124653191308,70.60667215886563
87.5,71.13553944564927,70.63553944564926,71.21347709870567,70.57174146725421,69.20341356178119,70.60841437715314
90.0,71.13553944564927,70.60221919937476,71.24103101063521,70.4922750347075,69.14686670684974,70.58427523787267
92.5,71.03553944564926,70.47015817863746,71.16839674367272,70.36285535616503,68.96052525570445,70.46618821746317
95.0,70.93553944564925,70.37015817863744,71.08281986924315,70.21007362485662,68.72291219843211,70.3401067431246
97.5,70.8037243642668,70.13859661546431,70.92614369807009,69.88495616203429,68.5043944830583,70.13337948966534
100.0,70.67015817863745,69.93859661546432,70.76936091856442,69.7559504136953,68.31290516850342,69.97392988331777
103.0,70.50372436426679,69.7385966154643,70.64103101063523,69.65949156635398,68.2604241307027,69.83911104809197
106.0,70.37015817863744,69.67399361794952,70.57195401589394,69.63231446033825,68.21830895972403,69.76782864193598
109.0,70.2385966154643,69.67399361794952,70.57195401589394,69.48962846149428,67.98776179136733,69.67850041124947
112.0,70.24318036208714,69.33859661546431,70.54165585251661,69.40619791229241,67.72234843190435,69.55519284893646
115.0,70.24318036208714,69.20991891231468,70.62742712470201,69.40960231849776,67.60625462985641,69.53841380240479
118.0,70.14928828091797,69.27936039075111,70.64170053732934,69.24852181982308,67.28746857707416,69.46245839793609
122.0,69.74928828091797,69.07936039075112,70.35782436915497,68.84681074387417,66.87019533156497,69.1296473944181
125.0,69.71969813961711,69.01607375639043,70.34331785380932,68.78193403680933,66.74128818263887,69.07912286489196
128.0,70.0196981396171,69.20991891231468,70.5998011859643,69.12030058920323,66.81456512669395,69.3279728773911
132.0,70.84928828091796,69.61607375639043,71.20176155666773,69.62415868872218,67.56881663211676,69.9463314536954
136.0,72.24928828091797,70.8533237321473,72.60173874831244,70.9065826197038,68.94782743352886,71.29242055387081
140.0,73.14928828091797,71.79467580043085,73.60274063759638,71.7408978371073,69.46200813101807,72.17255087330793
145.0,73.41969813961711,72.0046163805952,73.94879322739317,71.90689779612393,69.3633953395729,72.39632824777122
150.0,73.41969813961711,72.07672117441112,73.98994724098263,71.94794645819093,69.126557567171,72.40586827521048
155.0,73.15691717432965,72.0046163805952,73.82973573395849,71.8251213968398,68.66076637552041,72.2154725477561
160.0,72.75691717432966,71.86606305890419,73.51479425108433,71.61374228577151,68.11681903021909,71.91336596657152
165.0,72.45691717432966,71.32376116689544,73.11640731169425,71.32756291146175,67.5426417512648,71.51798524061863
170.0,72.56606305890419,71.04371659013398,73.37198360133115,71.54003497812292,67.62046627949569,71.61647627688197
175.0,72.8379183104379,71.22903728323257,73.73100384265105,71.79546471220792,67.78834729655517,71.88828446264966
180.0,72.93791831043792,71.40255123894175,73.84623588735755,71.88775289378295,67.40451906733529,71.96850991510814
185.0,72.56606305890419,71.27651109185511,73.51479425108433,71.67397206027186,67.21210905478196,71.69681887154681
190.0,72.19467580043084,71.26215318795322,73.17101235316268,71.40013574857993,67.17945429129865,71.44447615149122
195.0,72.02805374996676,71.21607219910335,73.01540857063009,71.28515500063094,66.94520314780591,71.30971902332817
200.0,72.06606305890419,71.24371659013397,73.198843746214,71.37326881910558,66.73080882559458,71.38144661188124
206.0,72.08888599448389,71.08888599448389,73.37740854204478,71.49380037533466,66.5179378982964,71.42269780433344
212.0,71.96215318795322,70.78501650524345,73.37908820093946,71.38579798579495,66.4141618044801,71.30998343455052
218.0,71.56215318795323,70.45946759569293,73.11479425108432,71.25028564260674,66.20128888271499,71.03379535647296
224.0,71.28888599448389,70.37691716316249,72.92842310601307,71.3189356140524,66.02392832639521,70.90186961307643
230.0,71.36215318795324,70.50967134422508,73.04103101063521,71.45019947607794,65.63763003722276,70.98283648284175
236.0,71.40255123894175,70.70967134422507,73.11640731169425,71.454809213113,65.84847584767343,71.06568277785432
240.0,71.3290372832326,70.76742973699321,73.04693439242584,71.25257077043858,65.87272354175838,70.99622403111414
250.0,70.98888599448388,70.75091194927087,72.703371012467,70.9913380564096,65.39250495396148,70.72657793746302
258.0,70.61607219910334,70.60255123894176,72.31347709870568,70.8126594243718,64.85793085361126,70.42700330180594
265.0,70.51607219910335,70.4888859944839,72.21347709870568,70.58280047041787,64.66439774809396,70.29091544294484
272.0,70.24350490491646,70.28888599448389,72.14885104506432,70.42942986702774,64.42410062169168,70.1262605283416
280.0,69.76974311099833,70.20255123894175,71.94044623408686,70.18669642797701,64.2328059120241,69.88412814933204
290.0,69.1964293820115,70.20255123894175,71.54489777400352,69.87811691599684,64.05584305830274,69.57397051191752
300.0,69.12356855421099,70.20255123894175,71.4297357339585,69.63448623597161,63.70601219288466,69.45359740785224
307.0,69.2964293820115,70.00255123894175,71.51501678254027,69.48884351458774,63.53572018922813,69.42815511232094
315.0,69.52356855421101,70.12903728323258,71.79204849570783,69.67585289219238,63.73060663245906,69.6390220636159
325.0,69.57182390878069,70.46974311099834,71.86788843281431,69.85312231875835,64.02421275776521,69.80193172609387
335.0,69.80039884561168,70.5290372832326,71.93619295851269,70.00986421832346,64.0676422884903,69.91563565085465
345.0,69.93953687405337,70.36974311099831,72.03707727831289,69.83734247030968,64.0412825344118,69.90369856136415
355.0,69.51389844280308,70.08501650524343,71.52807264479338,68.97873022925629,63.59997383070265,69.40028819102
365.0,69.10221919937476,69.91770988769858,70.72934231336865,68.11679225820542,62.5987686129172,68.81659960007237
375.0,68.96940855349268,69.4110058562113,70.63707727831289,67.91557117843838,62.44005908191359,68.59033068482654
387.0,69.53478382064787,70.13954109967139,71.49007874108933,68.28104445982451,63.36508940640091,69.2742658328026
400.0,71.40144001627996,71.73201896100588,72.5298147651454,68.98237149078903,63.825546439657046,70.564348089656
412.0,73.03780593254902,72.90905883316978,73.4836775218732,69.78549976966785,64.45887488174402,71.71898236849867
425.0,73.70673392735495,73.28104512847767,73.89536238982478,70.17823451270831,64.41417357941882,72.17316709370604
437.0,74.10673392735494,72.94870069292915,73.94980914653635,70.0025985206538,64.49328365018499,72.20695942997622
450.0,74.5037243642668,72.23978006082088,74.04369599851056,69.9717377113924,64.83390137274634,72.21717814265385
462.0,75.0371034901697,72.05218346561868,73.89840032056176,69.69807973398503,64.32343200254368,72.27923599421612
475.0,75.50991891231466,71.7297705157839,73.55792645381706,68.94924299273487,64.0987925984751,72.23048042978472
487.0,75.44686606550061,71.91560876218298,73.11777926909936,68.55548440867693,62.940536901952854,72.05386092949213
500.0,75.38731171083745,71.74870069292913,73.05010180401439,68.38999587551609,62.47591889186084,71.95265097880815
515.0,75.42312745762463,71.36157729691783,72.64524961217462,67.73980532804724,61.38977365634665,71.71717509899264
530.0,75.5027280746877,71.13650847126223,72.43353814997229,67.7178313513428,60.49452101327796,71.64595972594167
545.0,75.61220417691248,70.65597724298145,72.40282047624251,67.74434426717019,60.131046028106,71.60824116259643
560.0,75.5256762088382,70.13201896100587,72.48987547561691,68.17847429969882,60.36574382052825,71.54751941812252
580.0,75.37431278131858,69.16883461884264,72.65911889443284,68.51709823509414,60.867333798182784,71.43028641113067
600.0,75.31368553564324,69.07039244588422,72.85133934474588,68.53279049906918,60.87926691569774,71.44282443195848
615.0,75.00488682420715,69.38462663999427,72.77929290990241,68.46655303709402,60.53664538956659,71.30062695707912
630.0,74.42231195748103,69.01023686868928,72.61264620982318,68.09889542400643,60.33396708322887,70.89418178816351
650.0,74.0395429194635,68.29058545825472,72.05404126436173,67.68376520443363,59.385380009827145,70.40417900565322
670.0,73.34522496915821,67.86194566642665,71.84995306381649,67.47501104366614,58.946410835966134,69.94774728451895
690.0,72.80972914661851,67.71124635694346,71.67069272727896,67.2750821917965,58.78587066376029,69.61785082073814
710.0,72.42181304452673,67.4037243642668,71.7527252226794,67.22704592064892,59.04419846532913,69.44686899641638
730.0,72.16512840515297,66.97615290775477,71.94688050177601,67.15213167562501,59.158551029416714,69.35691077348163
750.0,71.89164863081065,66.32805374996676,71.74321810737213,67.06509103428981,58.79450054035746,69.08871245081784
775.0,71.33546540535983,65.63744054546848,71.47558111623877,66.67391243337109,58.715309326712,68.65718536062764
800.0,70.70709265055825,65.07922472736354,70.980454928573,66.04028779223654,57.848133504299824,68.08195393186809
825.0,69.79611064568256,65.1006784344749,70.53997895396814,65.40261352287385,56.99193551608205,67.49295325114592
850.0,68.84196507653698,65.14023071895576,70.55033175369488,65.28103505249518,56.88367964230466,67.18303625393975
875.0,67.81007844399466,64.57399361794951,71.01728430580954,65.57795798911017,57.09051014634555,67.10455989836534
900.0,67.23407290037053,64.83045726544438,71.33241756398785,65.96994504908653,57.32429170637914,67.22880182418679
925.0,66.53429899679028,65.28367923452277,71.1151545901061,65.78054113863013,57.03344051204658,67.00625339593704
950.0,65.63014141723215,65.05947275734641,70.40953489273747,65.02688984291676,56.518023743642544,66.33090309049962
975.0,64.45436651340208,65.04426756749297,69.73474585218068,64.27833088405217,55.607060006369636,65.66624009636547
1000.0,63.36832910473443,64.68301399639475,70.15961171711544,64.74698852984916,55.8072537177687,65.76342484872458
1030.0,62.590782474886396,64.89389999597503,70.93676599997015,65.57682710705276,56.58259487335141,66.30952380563599
1060.0,62.46258614542715,64.92708822504484,71.09644492226806,65.81441477120227,56.95214832416643,66.44533906080878
1090.0,62.036053857057425,64.74497940210047,70.76740073551198,65.83188456411787,57.10847737246931,66.20272430886332
1120.0,61.95724625321756,64.94864209980116,70.61856449131416,65.97363088939716,57.17240204570146,66.17076832578167
1150.0,61.70924655882327,65.1507675635134,70.75548936304943,66.32116613384129,56.93758092398066,66.3219343738449
1180.0,62.222378490505335,63.81292007916892,70.49284513002534,66.49039829558464,56.805106372125664,66.06639710409064
1220.0,62.189396475721665,63.28204768269994,69.56820148248568,65.48636773372772,55.88605963190858,65.25383575374073
1250.0,61.66082496214358,62.861807898786964,68.15437349144379,64.25802387435655,54.74558553315394,64.11632010768301
1280.0,61.45142813436553,63.578817071968714,68.15430214409125,64.06545787925992,54.14824906048412,64.15783433384391
1320.0,62.08520790646911,64.70967134422509,68.86068519196834,64.43956104335527,54.23026726080987,64.86030739207452
1360.0,63.01435353263277,64.47651109185512,68.59111865540152,63.98685639047429,53.797765526057304,64.70665176185469
1400.0,63.792457866174274,64.09578106127287,67.99383506249822,62.95080121419561,52.18664994053506,64.28181130424966
1450.0,63.766997203783845,63.42903728323259,67.76231576000465,62.3319102835642,51.64187676887299,63.94919360817498
1500.0,63.832014060060686,62.774312781318585,67.81884061977169,62.28715104858112,50.81116682802565,63.86547498646826
1550.0,64.12335054394032,62.525748883603285,67.27238586085211,61.847651539521195,50.54176943006081,63.56138061296943
1600.0,64.65672571226098,62.658041510217316,66.74462785825428,60.852906089779566,49.607631828348445,63.34460071242543
1650.0,64.68127644872968,62.59701412997808,67.31920532618479,61.29282182212923,49.80936838988883,63.65245427726674
1700.0,65.5353473293354,63.00542360443566,67.96708186197736,61.921509512372154,50.17470016134456,64.31280968199081
1750.0,66.47908337129229,63.756248000517346,67.86777911697077,61.80972726279204,49.99980698508753,64.64116377705803
1800.0,67.27087475458237,63.841151877632484,68.01746266671188,61.48249432252655,49.93478586166533,64.940558736047
1850.0,68.23212798350245,64.55424080230733,69.53792443541805,62.599864247907476,50.647612822402564,66.11430112587786
1900.0,69.05091021592644,64.77652814424721,70.41787823026931,63.12292585433468,51.653163599346044,66.85732804855434
1950.0,69.82312984124025,64.81807867141549,70.68307854151642,63.076672138178395,52.19532802004474,67.24821913266642
2000.0,70.34714272541653,64.95237607516567,71.09957805745063,63.23786950069723,52.93039308443224,67.65595874774985
2060.0,70.66064387102182,64.91048711167053,71.62617907137007,63.74229371427897,53.9956431898151,68.04829537383753
2120.0,70.67359537094933,63.62135381439137,71.70312771849075,63.89374698451704,54.83714546872051,67.99856233565819
2180.0,70.46210129269346,61.66795245829795,70.86814997978097,62.987016831443555,55.08802809660202,67.34251357409397
2240.0,69.16533102130668,60.422552692798774,70.47169563248053,62.46660130822151,55.00676830499786,66.54799413929747
2300.0,67.48681885943542,60.2861367969078,69.85550452757461,61.886142349607,54.54149885641618,65.60520273657377
2360.0,66.42498962177305,60.7299046210712,68.78251356984248,60.97703133813826,54.45193465671923,64.6715444644644
2400.0,65.04893898749273,60.96179079380519,69.06270881974791,61.46033615369245,54.62138497435646,64.5314530498675
2500.0,63.9674605822711,61.66761821813982,69.5529668537327,62.48631638653018,55.05419608391415,64.7931652560849
2580.0,63.72594891634621,62.69246563836805,70.2274752298952,64.28412079543327,56.47952889544686,65.53425992654937
2650.0,64.10376779824577,63.421863869439846,70.59499874075604,65.74120339345734,56.92474172829806,66.12425642773317
2720.0,64.865043384869,64.10309905743136,70.89528269891855,66.96093811640894,57.00908762790216,66.70177489327455
2800.0,65.52997640574323,64.41368553564325,70.86123498069199,67.56724164120166,56.98446932737089,66.94421780703243
2900.0,65.49832231250288,64.57825863356723,70.3622328107484,66.98721467998122,55.24308602659404,66.55480518686178
3000.0,65.30095319363143,64.36406328565356,71.15947667252757,67.35155011309575,53.99908714925351,66.96643454542837
3070.0,65.83082588715297,64.34188230908713,70.08316678152639,66.26749247894485,52.307543897114556,66.26217973223791
3150.0,66.22944603701572,64.28107817133625,70.9461929645818,66.18346925192095,49.92896317156034,66.7324884851551
3250.0,67.02992477761029,64.33784139358546,70.27103620980755,65.24987439234499,48.41932481291002,66.39976957566185
3350.0,67.46861971353303,64.55363074819503,71.01730063396312,64.83964706338668,47.04388969575675,66.84380490530452
