Freq "Front Wall Bounce"
22.4 14.494465006713597
23.0 17.67163289663577
23.6 23.332868835522703
24.0 29.081843922887032
25.0 34.910553694573906
25.8 39.58184392288703
26.5 44.09622253253784
27.2 47.810228002932746
28.0 51.152943096697314
29.0 54.167088607594934
30.0 56.93875136151382
30.7 59.46708860759492
31.5 61.76708860759493
32.5 63.667088607594934
33.5 65.29589576434022
34.5 66.5815160709924
35.5 67.61022800293276
36.5 68.38151607099239
37.5 68.7958957643402
38.7 69.02484528224025
40.0 69.15327311261441
41.2 69.3390824575691
42.5 69.5390824575691
43.7 69.8677464682892
45.0 70.18184392288703
46.2 70.5390824575691
47.5 70.88184392288701
48.7 71.11022800293274
50.0 71.32451309895308
51.5 71.52451309895308
53.0 71.62451309895307
54.5 71.68217175003377
56.0 71.68217175003377
58.0 71.66839674367272
60.0 71.63973703872652
61.5 71.61055369457391
63.0 71.56839674367272
65.0 71.51055369457391
67.0 71.46774646828919
69.0 71.35294309669732
71.0 71.28217175003377
73.0 71.33875136151384
75.0 71.28217175003377
77.5 71.2105536945739
80.0 71.16839674367272
82.5 71.25489295119846
85.0 71.22680023215494
87.5 71.21347709870567
90.0 71.24103101063521
92.5 71.16839674367272
95.0 71.08281986924315
97.5 70.92614369807009
100.0 70.76936091856442
103.0 70.64103101063523
106.0 70.57195401589394
109.0 70.57195401589394
112.0 70.54165585251661
115.0 70.62742712470201
118.0 70.64170053732934
122.0 70.35782436915497
125.0 70.34331785380932
128.0 70.5998011859643
132.0 71.20176155666773
136.0 72.60173874831244
140.0 73.60274063759638
145.0 73.94879322739317
150.0 73.98994724098263
155.0 73.82973573395849
160.0 73.51479425108433
165.0 73.11640731169425
170.0 73.37198360133115
175.0 73.73100384265105
180.0 73.84623588735755
185.0 73.51479425108433
190.0 73.17101235316268
195.0 73.01540857063009
200.0 73.198843746214
206.0 73.37740854204478
212.0 73.37908820093946
218.0 73.11479425108432
224.0 72.92842310601307
230.0 73.04103101063521
236.0 73.11640731169425
240.0 73.04693439242584
250.0 72.703371012467
258.0 72.31347709870568
265.0 72.21347709870568
272.0 72.14885104506432
280.0 71.94044623408686
290.0 71.54489777400352
300.0 71.4297357339585
307.0 71.51501678254027
315.0 71.79204849570783
325.0 71.86788843281431
335.0 71.93619295851269
345.0 72.03707727831289
355.0 71.52807264479338
365.0 70.72934231336865
375.0 70.63707727831289
387.0 71.49007874108933
400.0 72.5298147651454
412.0 73.4836775218732
425.0 73.89536238982478
437.0 73.94980914653635
450.0 74.04369599851056
462.0 73.89840032056176
475.0 73.55792645381706
487.0 73.11777926909936
500.0 73.05010180401439
515.0 72.64524961217462
530.0 72.43353814997229
545.0 72.40282047624251
560.0 72.48987547561691
580.0 72.65911889443284
600.0 72.85133934474588
615.0 72.77929290990241
630.0 72.61264620982318
650.0 72.05404126436173
670.0 71.84995306381649
690.0 71.67069272727896
710.0 71.7527252226794
730.0 71.94688050177601
750.0 71.74321810737213
775.0 71.47558111623877
800.0 70.980454928573
825.0 70.53997895396814
850.0 70.55033175369488
875.0 71.01728430580954
900.0 71.33241756398785
925.0 71.1151545901061
950.0 70.40953489273747
975.0 69.73474585218068
1000.0 70.15961171711544
1030.0 70.93676599997015
1060.0 71.09644492226806
1090.0 70.76740073551198
1120.0 70.61856449131416
1150.0 70.75548936304943
1180.0 70.49284513002534
1220.0 69.56820148248568
1250.0 68.15437349144379
1280.0 68.15430214409125
1320.0 68.86068519196834
1360.0 68.59111865540152
1400.0 67.99383506249822
1450.0 67.76231576000465
1500.0 67.81884061977169
1550.0 67.27238586085211
1600.0 66.74462785825428
1650.0 67.31920532618479
1700.0 67.96708186197736
1750.0 67.86777911697077
1800.0 68.01746266671188
1850.0 69.53792443541805
1900.0 70.41787823026931
1950.0 70.68307854151642
2000.0 71.09957805745063
2060.0 71.62617907137007
2120.0 71.70312771849075
2180.0 70.86814997978097
2240.0 70.47169563248053
2300.0 69.85550452757461
2360.0 68.78251356984248
2400.0 69.06270881974791
2500.0 69.5529668537327
2580.0 70.2274752298952
2650.0 70.59499874075604
2720.0 70.89528269891855
2800.0 70.86123498069199
2900.0 70.3622328107484
3000.0 71.15947667252757
3070.0 70.08316678152639
3150.0 70.9461929645818
3250.0 70.27103620980755
3350.0 71.01730063396312
3450.0 71.07848116756782
3550.0 71.74202942167074
3650.0 71.69211857899651
3750.0 72.29634932552082
3870.0 71.83501529897046
4000.0 72.72473769419202
4120.0 72.81687379297826
4250.0 72.6635579152551
4370.0 72.79175484010634
4500.0 72.35116355747445
4620.0 72.1882757980328
4750.0 72.23691222113607
4870.0 72.03761247512367
5000.0 71.69603058618166
5150.0 70.96103993001634
5300.0 70.65443423984769
5450.0 70.39559618052431
5600.0 70.21922921525345
5800.0 70.74193594224876
6000.0 71.18400777207039
6150.0 71.36085972067295
6300.0 70.71998945152946
6500.0 69.79668623710008
6700.0 68.9813730854444
6900.0 68.66902363438612
7100.0 68.43815522127282
7300.0 68.75024766322574
7500.0 69.15092374301958
7750.0 69.14060333098705
8000.0 69.2783538442156
8250.0 69.08571693503018
8500.0 69.37628748237756
8750.0 69.89212091432454
9000.0 70.54610945324634
9250.0 70.9116871189298
9500.0 70.28345634630011
9750.0 70.76681303927673
10000.0 70.64329038700474
10300.0 70.21908531589801
10600.0 71.22108726869408
10900.0 71.36165472810585
11200.0 70.93523539619017
11500.0 70.75872169646047
11800.0 71.06061515913643
12200.0 70.89039590100957
12500.0 70.59591515719569
12800.0 70.36403494566662
13200.0 71.02459301280683
13600.0 71.53348427578862
14000.0 70.64829062506912
14500.0 69.83172040498933
15000.0 69.92964954757001
15500.0 68.43815630834304
16000.0 64.11454874587363
16500.0 64.21312949272154
17000.0 66.6957511579571
17500.0 67.11607386514189
18000.0 66.2345000874465
18500.0 64.53616205524953
19000.0 64.03999451450447
19500.0 62.79279224193873
