Freq "Rear Wall Bounce"
22.4 11.587050383598864
23.0 12.333402247854366
23.6 21.37944753033767
24.0 29.604084437278487
25.0 35.12077263132292
25.8 39.713234678196955
26.5 44.014304745646115
27.2 47.64768208441575
28.0 50.88833344001907
29.0 53.89362844938336
30.0 56.56793970547082
30.7 59.11608215403889
31.5 61.35388084552031
32.5 63.322559892578624
33.5 64.95509392752803
34.5 66.30243308903624
35.5 67.35618247109713
36.5 68.08849201674235
37.5 68.48872464581365
38.7 68.67883913860419
40.0 68.76856172832345
41.2 68.83804890769208
42.5 69.01725004842959
43.7 69.32288588027811
45.0 69.69093862836989
46.2 70.0788391386042
47.5 70.40018067673644
48.7 70.65679024456458
50.0 70.86188391826643
51.5 70.92499504107246
53.0 70.96772717665354
54.5 70.96772717665354
56.0 70.94122951438669
58.0 70.8940618658398
60.0 70.85073430041557
61.5 70.77172366260102
63.0 70.65659026703679
65.0 70.55564296448156
67.0 70.43895954502679
69.0 70.28511247493017
71.0 70.0911462402859
73.0 69.97063355772357
75.0 69.88358200648251
77.5 69.76953291295837
80.0 69.54217544211474
82.5 69.29991312860273
85.0 69.14124653191308
87.5 69.20341356178119
90.0 69.14686670684974
92.5 68.96052525570445
95.0 68.72291219843211
97.5 68.5043944830583
100.0 68.31290516850342
103.0 68.2604241307027
106.0 68.21830895972403
109.0 67.98776179136733
112.0 67.72234843190435
115.0 67.60625462985641
118.0 67.28746857707416
122.0 66.87019533156497
125.0 66.74128818263887
128.0 66.81456512669395
132.0 67.56881663211676
136.0 68.94782743352886
140.0 69.46200813101807
145.0 69.3633953395729
150.0 69.126557567171
155.0 68.66076637552041
160.0 68.11681903021909
165.0 67.5426417512648
170.0 67.62046627949569
175.0 67.78834729655517
180.0 67.40451906733529
185.0 67.21210905478196
190.0 67.17945429129865
195.0 66.94520314780591
200.0 66.73080882559458
206.0 66.5179378982964
212.0 66.4141618044801
218.0 66.20128888271499
224.0 66.02392832639521
230.0 65.63763003722276
236.0 65.84847584767343
240.0 65.87272354175838
250.0 65.39250495396148
258.0 64.85793085361126
265.0 64.66439774809396
272.0 64.42410062169168
280.0 64.2328059120241
290.0 64.05584305830274
300.0 63.70601219288466
307.0 63.53572018922813
315.0 63.73060663245906
325.0 64.02421275776521
335.0 64.0676422884903
345.0 64.0412825344118
355.0 63.59997383070265
365.0 62.5987686129172
375.0 62.44005908191359
387.0 63.36508940640091
400.0 63.825546439657046
412.0 64.45887488174402
425.0 64.41417357941882
437.0 64.49328365018499
450.0 64.83390137274634
462.0 64.32343200254368
475.0 64.0987925984751
487.0 62.940536901952854
500.0 62.47591889186084
515.0 61.38977365634665
530.0 60.49452101327796
545.0 60.131046028106
560.0 60.36574382052825
580.0 60.867333798182784
600.0 60.87926691569774
615.0 60.53664538956659
630.0 60.33396708322887
650.0 59.385380009827145
670.0 58.946410835966134
690.0 58.78587066376029
710.0 59.04419846532913
730.0 59.158551029416714
750.0 58.79450054035746
775.0 58.715309326712
800.0 57.848133504299824
825.0 56.99193551608205
850.0 56.88367964230466
875.0 57.09051014634555
900.0 57.32429170637914
925.0 57.03344051204658
950.0 56.518023743642544
975.0 55.607060006369636
1000.0 55.8072537177687
1030.0 56.58259487335141
1060.0 56.95214832416643
1090.0 57.10847737246931
1120.0 57.17240204570146
1150.0 56.93758092398066
1180.0 56.805106372125664
1220.0 55.88605963190858
1250.0 54.74558553315394
1280.0 54.14824906048412
1320.0 54.23026726080987
1360.0 53.797765526057304
1400.0 52.18664994053506
1450.0 51.64187676887299
1500.0 50.81116682802565
1550.0 50.54176943006081
1600.0 49.607631828348445
1650.0 49.80936838988883
1700.0 50.17470016134456
1750.0 49.99980698508753
1800.0 49.93478586166533
1850.0 50.647612822402564
1900.0 51.653163599346044
1950.0 52.19532802004474
2000.0 52.93039308443224
2060.0 53.9956431898151
2120.0 54.83714546872051
2180.0 55.08802809660202
2240.0 55.00676830499786
2300.0 54.54149885641618
2360.0 54.45193465671923
2400.0 54.62138497435646
2500.0 55.05419608391415
2580.0 56.47952889544686
2650.0 56.92474172829806
2720.0 57.00908762790216
2800.0 56.98446932737089
2900.0 55.24308602659404
3000.0 53.99908714925351
3070.0 52.307543897114556
3150.0 49.92896317156034
3250.0 48.41932481291002
3350.0 47.04388969575675
3450.0 47.31808476765738
3550.0 47.747418050713804
3650.0 48.597622601967544
3750.0 49.41273912022386
3870.0 49.7128445577537
4000.0 50.24848303172351
4120.0 51.18286833083752
4250.0 51.194615477289915
4370.0 50.783372934814125
4500.0 50.776298912756005
4620.0 49.08147314222529
4750.0 48.6851603893619
4870.0 47.29283018625023
5000.0 46.684401589023395
5150.0 46.23157131758046
5300.0 46.70693785813151
5450.0 46.25026524254915
5600.0 45.35186644873016
5800.0 45.228386987117574
6000.0 44.9831497594258
6150.0 44.30747922730154
6300.0 43.1492623447476
6500.0 40.80505000147821
6700.0 39.98613551898316
6900.0 40.81281934481515
7100.0 42.010012830888286
7300.0 43.04666241234165
7500.0 43.86972919932242
7750.0 44.16037821088989
8000.0 43.39377658693607
8250.0 42.08186397267232
8500.0 41.37322942884785
8750.0 40.831083577502454
9000.0 40.01312633564868
9250.0 38.19467885713706
9500.0 38.42620586835321
9750.0 41.59654877141725
10000.0 42.09975146138143
10300.0 42.28991196478998
10600.0 42.119430310509415
10900.0 40.87714497738742
11200.0 36.186609778289835
11500.0 32.93320507029338
11800.0 34.91373063708559
12200.0 36.839801508615466
12500.0 38.23710373694004
12800.0 40.61912243143993
13200.0 39.42912285284038
13600.0 36.188003042162364
14000.0 33.92900934344971
14500.0 32.83883186043292
15000.0 35.23120661070604
15500.0 36.43657071504364
16000.0 34.29475146556612
16500.0 32.06181724440506
17000.0 35.1097864883817
17500.0 37.17028257851783
18000.0 36.71023394655444
18500.0 34.65094918552856
19000.0 36.76378306014337
19500.0 36.69791003082753
