Freq "Rear Wall Bounce"
22.4 10.619961776003933
23.0 11.366313640259435
23.6 20.41235892274274
24.0 28.636995829683556
25.0 34.15368402372799
25.8 38.74614607060202
26.5 43.04721613805118
27.2 46.68059347682082
28.0 49.92124483242414
29.0 52.926539841788426
30.0 55.60085109787589
30.7 58.14899354644396
31.5 60.38679223792538
32.5 62.35547128498369
33.5 63.988005319933094
34.5 65.33534448144131
35.5 66.3890938635022
36.5 67.12140340914742
37.5 67.52163603821872
38.7 67.71175053100926
40.0 67.80147312072852
41.2 67.87096030009715
42.5 68.05016144083466
43.7 68.35579727268318
45.0 68.72385002077496
46.2 69.11175053100926
47.5 69.43309206914151
48.7 69.68970163696964
50.0 69.8947953106715
51.5 69.95790643347753
53.0 70.00063856905861
54.5 70.00063856905861
56.0 69.97414090679176
58.0 69.92697325824487
60.0 69.88364569282064
61.5 69.80463505500609
63.0 69.68950165944186
65.0 69.58855435688663
67.0 69.47187093743186
69.0 69.31802386733524
71.0 69.12405763269096
73.0 69.00354495012864
75.0 68.91649339888758
77.5 68.80244430536344
80.0 68.57508683451981
82.5 68.3328245210078
85.0 68.17415792431815
87.5 68.23632495418626
90.0 68.1797780992548
92.5 67.99343664810952
95.0 67.75582359083718
97.5 67.53730587546337
100.0 67.34581656090849
103.0 67.29333552310777
106.0 67.2512203521291
109.0 67.0206731837724
112.0 66.75525982430942
115.0 66.63916602226148
118.0 66.32037996947923
122.0 65.90310672397004
125.0 65.77419957504394
128.0 65.84747651909902
132.0 66.60172802452183
136.0 67.98073882593393
140.0 68.49491952342314
145.0 68.39630673197797
150.0 68.15946895957607
155.0 67.69367776792548
160.0 67.14973042262416
165.0 66.57555314366986
170.0 66.65337767190076
175.0 66.82125868896024
180.0 66.43743045974036
185.0 66.24502044718703
190.0 66.21236568370372
195.0 65.97811454021098
200.0 65.76372021799965
206.0 65.55084929070146
212.0 65.44707319688517
218.0 65.23420027512006
224.0 65.05683971880028
230.0 64.67054142962783
236.0 64.8813872400785
240.0 64.90563493416344
250.0 64.42541634636655
258.0 63.890842246016334
265.0 63.69730914049903
272.0 63.45701201409675
280.0 63.265717304429174
290.0 63.08875445070781
300.0 62.738923585289726
307.0 62.5686315816332
315.0 62.763518024864126
325.0 63.05712415017028
335.0 63.10055368089537
345.0 63.074193926816875
355.0 62.63288522310772
365.0 61.631680005322266
375.0 61.47297047431866
387.0 62.39800079880598
400.0 62.858457832062115
412.0 63.49178627414909
425.0 63.447084971823884
437.0 63.52619504259006
450.0 63.86681276515141
462.0 63.35634339494875
475.0 63.13170399088017
487.0 61.97344829435792
500.0 61.50883028426591
515.0 60.42268504875172
530.0 59.52743240568303
545.0 59.16395742051107
560.0 59.39865521293332
580.0 59.90024519058785
600.0 59.91217830810281
615.0 59.569556781971656
630.0 59.36687847563394
650.0 58.418291402232214
670.0 57.9793222283712
690.0 57.81878205616536
710.0 58.0771098577342
730.0 58.19146242182178
750.0 57.82741193276253
775.0 57.74822071911707
800.0 56.88104489670489
825.0 56.02484690848712
850.0 55.916591034709725
875.0 56.12342153875062
900.0 56.35720309878421
925.0 56.06635190445165
950.0 55.55093513604761
975.0 54.639971398774705
1000.0 54.84016511017377
1030.0 55.61550626575648
1060.0 55.9850597165715
1090.0 56.14138876487438
1120.0 56.20531343810653
1150.0 55.97049231638573
1180.0 55.83801776453073
1220.0 54.91897102431365
1250.0 53.77849692555901
1280.0 53.18116045288919
1320.0 53.263178653214936
1360.0 52.83067691846237
1400.0 51.21956133294013
1450.0 50.67478816127806
1500.0 49.84407822043072
1550.0 49.57468082246588
1600.0 48.640543220753514
1650.0 48.8422797822939
1700.0 49.20761155374963
1750.0 49.0327183774926
1800.0 48.9676972540704
1850.0 49.68052421480763
1900.0 50.68607499175111
1950.0 51.22823941244981
2000.0 51.96330447683731
2060.0 53.02855458222017
2120.0 53.870056861125576
2180.0 54.120939489007085
2240.0 54.03967969740293
2300.0 53.57441024882125
2360.0 53.4848460491243
2400.0 53.65429636676153
2500.0 54.08710747631922
2580.0 55.51244028785193
2650.0 55.95765312070313
2720.0 56.04199902030723
2800.0 56.01738071977596
2900.0 54.27599741899911
3000.0 53.03199854165858
3070.0 51.340455289519625
3150.0 48.96187456396541
3250.0 47.45223620531509
3350.0 46.076801088161815
3450.0 46.35099616006245
3550.0 46.78032944311887
3650.0 47.63053399437261
3750.0 48.44565051262893
3870.0 48.74575595015877
4000.0 49.28139442412858
4120.0 50.21577972324259
4250.0 50.227526869694984
4370.0 49.81628432721919
4500.0 49.80921030516107
4620.0 48.11438453463036
4750.0 47.718071781766966
4870.0 46.3257415786553
5000.0 45.717312981428464
5150.0 45.26448270998553
5300.0 45.73984925053658
5450.0 45.283176634954216
5600.0 44.38477784113523
5800.0 44.26129837952264
6000.0 44.01606115183087
6150.0 43.34039061970661
6300.0 42.18217373715267
6500.0 39.837961393883276
6700.0 39.01904691138823
6900.0 39.84573073722022
7100.0 41.042924223293355
7300.0 42.079573804746715
7500.0 42.90264059172749
7750.0 43.19328960329496
8000.0 42.42668797934114
8250.0 41.11477536507739
8500.0 40.40614082125292
8750.0 39.86399496990752
9000.0 39.04603772805375
9250.0 37.22759024954213
9500.0 37.459117260758276
9750.0 40.629460163822316
10000.0 41.1326628537865
10300.0 41.32282335719505
10600.0 41.152341702914484
10900.0 39.910056369792485
11200.0 35.219521170694904
11500.0 31.96611646269845
11800.0 33.94664202949066
12200.0 35.872712901020535
12500.0 37.27001512934511
12800.0 39.652033823845
13200.0 38.46203424524545
13600.0 35.22091443456743
14000.0 32.961920735854775
14500.0 31.871743252837987
15000.0 34.26411800311111
15500.0 35.46948210744871
16000.0 33.32766285797119
16500.0 31.09472863681013
17000.0 34.14269788078677
17500.0 36.2031939709229
18000.0 35.74314533895951
18500.0 33.68386057793363
19000.0 35.79669445254844
19500.0 35.7308214232326
