Freq "Side Wall Bounce"
22.4 13.605651030642917
23.0 16.09126140530205
23.6 22.17955541617573
24.0 28.758801718388497
25.0 34.67834149997611
25.8 39.33824638990586
26.5 43.858350781142576
27.2 47.61760933775963
28.0 50.99802240215932
29.0 54.07765230508247
30.0 56.81737642437341
30.7 59.38750285789072
31.5 61.67742258974501
32.5 63.657191589803546
33.5 65.29733111848817
34.5 66.60736533656541
35.5 67.68727366301081
36.5 68.43732963401652
37.5 68.84796587637051
38.7 69.06823979842189
40.0 69.20759347360256
41.2 69.34842315727175
42.5 69.53870997121223
43.7 69.85811466783497
45.0 70.18912289300161
46.2 70.54842315727176
47.5 70.85811466783497
48.7 71.09755978322329
50.0 71.27765230508247
51.5 71.40806033830752
53.0 71.47811704935577
54.5 71.52875340710168
56.0 71.52968267190349
58.0 71.5007975716264
60.0 71.43152524092447
61.5 71.41059582561232
63.0 71.31268004908368
65.0 71.25325269110323
67.0 71.11220824890631
69.0 70.97123244312712
71.0 70.80280740240778
73.0 70.81448835079202
75.0 70.7353322921098
77.5 70.62602870728125
80.0 70.46910777702423
82.5 70.45347276470903
85.0 70.55723673328407
87.5 70.57174146725421
90.0 70.4922750347075
92.5 70.36285535616503
95.0 70.21007362485662
97.5 69.88495616203429
100.0 69.7559504136953
103.0 69.65949156635398
106.0 69.63231446033825
109.0 69.48962846149428
112.0 69.40619791229241
115.0 69.40960231849776
118.0 69.24852181982308
122.0 68.84681074387417
125.0 68.78193403680933
128.0 69.12030058920323
132.0 69.62415868872218
136.0 70.9065826197038
140.0 71.7408978371073
145.0 71.90689779612393
150.0 71.94794645819093
155.0 71.8251213968398
160.0 71.61374228577151
165.0 71.32756291146175
170.0 71.54003497812292
175.0 71.79546471220792
180.0 71.88775289378295
185.0 71.67397206027186
190.0 71.40013574857993
195.0 71.28515500063094
200.0 71.37326881910558
206.0 71.49380037533466
212.0 71.38579798579495
218.0 71.25028564260674
224.0 71.3189356140524
230.0 71.45019947607794
236.0 71.454809213113
240.0 71.25257077043858
250.0 70.9913380564096
258.0 70.8126594243718
265.0 70.58280047041787
272.0 70.42942986702774
280.0 70.18669642797701
290.0 69.87811691599684
300.0 69.63448623597161
307.0 69.48884351458774
315.0 69.67585289219238
325.0 69.85312231875835
335.0 70.00986421832346
345.0 69.83734247030968
355.0 68.97873022925629
365.0 68.11679225820542
375.0 67.91557117843838
387.0 68.28104445982451
400.0 68.98237149078903
412.0 69.78549976966785
425.0 70.17823451270831
437.0 70.0025985206538
450.0 69.9717377113924
462.0 69.69807973398503
475.0 68.94924299273487
487.0 68.55548440867693
500.0 68.38999587551609
515.0 67.73980532804724
530.0 67.7178313513428
545.0 67.74434426717019
560.0 68.17847429969882
580.0 68.51709823509414
600.0 68.53279049906918
615.0 68.46655303709402
630.0 68.09889542400643
650.0 67.68376520443363
670.0 67.47501104366614
690.0 67.2750821917965
710.0 67.22704592064892
730.0 67.15213167562501
750.0 67.06509103428981
775.0 66.67391243337109
800.0 66.04028779223654
825.0 65.40261352287385
850.0 65.28103505249518
875.0 65.57795798911017
900.0 65.96994504908653
925.0 65.78054113863013
950.0 65.02688984291676
975.0 64.27833088405217
1000.0 64.74698852984916
1030.0 65.57682710705276
1060.0 65.81441477120227
1090.0 65.83188456411787
1120.0 65.97363088939716
1150.0 66.32116613384129
1180.0 66.49039829558464
1220.0 65.48636773372772
1250.0 64.25802387435655
1280.0 64.06545787925992
1320.0 64.43956104335527
1360.0 63.98685639047429
1400.0 62.95080121419561
1450.0 62.3319102835642
1500.0 62.28715104858112
1550.0 61.847651539521195
1600.0 60.852906089779566
1650.0 61.29282182212923
1700.0 61.921509512372154
1750.0 61.80972726279204
1800.0 61.48249432252655
1850.0 62.599864247907476
1900.0 63.12292585433468
1950.0 63.076672138178395
2000.0 63.23786950069723
2060.0 63.74229371427897
2120.0 63.89374698451704
2180.0 62.987016831443555
2240.0 62.46660130822151
2300.0 61.886142349607
2360.0 60.97703133813826
2400.0 61.46033615369245
2500.0 62.48631638653018
2580.0 64.28412079543327
2650.0 65.74120339345734
2720.0 66.96093811640894
2800.0 67.56724164120166
2900.0 66.98721467998122
3000.0 67.35155011309575
3070.0 66.26749247894485
3150.0 66.18346925192095
3250.0 65.24987439234499
3350.0 64.83964706338668
3450.0 64.56466360728295
3550.0 64.81103224821419
3650.0 64.46054195685686
3750.0 64.79644148969432
3870.0 64.1305414364945
4000.0 64.73021270316669
4120.0 63.66673171314477
4250.0 63.595114857973925
4370.0 63.166642142494624
4500.0 63.079404541327165
4620.0 62.62159017319779
4750.0 62.66375263027744
4870.0 62.409919060958856
5000.0 62.12658156970949
5150.0 61.87349453065656
5300.0 62.42070304357854
5450.0 62.51407000665925
5600.0 62.455964617293574
5800.0 63.32659849951678
6000.0 63.773598196205995
6150.0 63.94317041330612
6300.0 63.35643168578956
6500.0 62.49531238340809
6700.0 61.55288517120174
6900.0 61.39788770356205
7100.0 61.486401561078964
7300.0 61.75792969505554
7500.0 61.91577056107491
7750.0 61.52974201665771
8000.0 60.80225242291975
8250.0 59.52182352032082
8500.0 58.57565422954015
8750.0 58.51897334960053
9000.0 59.146714606378936
9250.0 59.8181799148074
9500.0 60.44835298897412
9750.0 62.22545059158978
10000.0 62.47659977713484
10300.0 62.35654775567194
10600.0 62.29450122572953
10900.0 61.26462870147681
11200.0 59.182799608023046
11500.0 57.96804150074303
11800.0 57.786021182202774
12200.0 57.157464832304726
12500.0 55.832013684791264
12800.0 56.38514125679042
13200.0 57.454506500806716
13600.0 56.83533566029001
14000.0 55.53418019411201
14500.0 56.10639924084046
15000.0 56.45338592458481
15500.0 55.170814156010465
16000.0 53.03577396534317
16500.0 52.39803779359943
17000.0 53.62386766907579
17500.0 55.47502157296283
18000.0 55.16615128245736
18500.0 54.57512853806317
19000.0 56.05175333711358
19500.0 56.30617222139287
