Freq "Rear Wall Bounce"
20.5078 63.637579488538194
21.9727 64.45018173130775
23.4375 66.2321753397849
24.9023 67.23642334819326
26.3672 68.73856268994898
27.832 68.71174958813367
29.2969 70.29032882680893
30.7617 71.60529105704464
32.2266 72.59050587873051
33.6914 73.73991664666994
35.1562 74.76646970929036
36.6211 75.55454901315667
38.0859 76.93938111151343
39.5508 77.84953093037744
41.0156 78.56732445857071
42.4805 79.3305528205056
43.9453 79.99990512146425
45.4102 80.61539419946766
46.875 81.129362062117
48.3398 81.54651019470802
51.2695 82.01565426502773
52.7344 82.1828184409051
54.1992 82.23597861942193
55.6641 82.23555242355036
58.5938 82.18038785672199
60.0586 82.1156480115122
62.9883 81.90257679251572
64.4531 81.82827478668943
67.3828 81.78449583631755
68.8477 81.77828190881476
71.7773 81.68530203455462
74.707 81.5774208741906
77.6367 81.4157552514041
79.1016 81.3749648635134
82.0312 81.32903964337956
84.9609 81.3210591167335
87.8906 81.50746163116544
90.8203 81.38578279030085
95.2148 81.26864940870064
98.1445 81.16651444447095
101.074 81.03527115913312
105.469 81.0018196187713
108.398 81.00579405034102
112.793 80.93114575570469
117.188 80.8744546727956
120.117 81.21092054085848
124.512 81.36106683438601
128.906 81.1812374445633
133.301 80.6732778443819
139.16 80.72275453659557
143.555 80.51452475111545
147.949 80.68219360491764
153.809 80.3541212589512
159.668 80.0364025052761
165.527 79.89436983596937
171.387 80.32173033668496
177.246 79.74803603477434
183.105 80.1762446571712
188.965 80.35447618017137
196.289 79.77161044914536
203.613 80.02983308957376
210.938 78.90628024223132
218.262 80.00699276307664
225.586 80.28587013284815
232.91 79.50573538063615
241.699 78.87737303225293
250.488 79.56840691524764
259.277 78.9856211643749
268.066 80.85162573936182
276.855 79.3983620915678
287.109 78.7044578983137
297.363 78.4523426262149
307.617 79.636633528347
319.336 79.09725650523534
329.59 78.97715539060016
341.309 79.74329731466531
353.027 78.93189671613415
366.211 77.66060033378028
379.395 78.25009019411043
392.578 77.68760234135101
405.762 77.46219205428136
420.41 75.9018211529139
435.059 76.71818858583242
451.172 75.87740622494685
465.82 75.2297694406662
483.398 76.1476070246568
499.512 77.76503367028795
517.09 75.15914372014892
536.133 75.73357287504648
555.176 75.39768482469371
574.219 74.20319636238439
594.727 74.43117351702384
615.234 73.84354660318459
637.207 71.81115243327454
659.18 71.10186725901549
682.617 72.05721111778722
707.52 70.77843295234024
732.422 70.10500732918518
757.324 70.78338913531832
785.156 72.20101723479169
811.523 70.45576078446922
840.82 72.22379560392419
870.117 69.69723019338784
900.879 73.12400284725753
933.105 71.3366141525014
965.332 71.88439936748573
1000.49 71.45083013938331
1035.64 71.96328341039889
1072.27 73.16155698578041
1108.89 72.03564767560542
1148.44 72.62079957173582
1189.45 72.77770090754791
1230.47 73.05174425316265
1274.41 71.24310279771834
1319.82 71.51516028136655
1366.7 71.51837255191161
1413.57 68.94298163139516
1463.38 67.25972551771478
1516.11 67.21339314033935
1568.85 67.37688947054639
1624.51 66.17750388036941
1681.64 66.00597438053533
1741.7 66.11563176616976
1803.22 66.9793941917886
1866.21 70.65526237140573
1932.13 70.15533622703347
1999.51 72.08426477561274
2069.82 69.93804213259148
2143.07 71.77430529222364
2219.24 71.48779143040001
2296.88 71.60092762737133
2378.91 71.36382324940406
2462.4 71.50940844671388
2548.83 71.91776405331113
2639.65 70.88232840597271
2731.93 68.75796842614434
2828.61 67.21064547921513
2928.22 64.96459394421763
3030.76 63.14869995785811
3137.7 63.903804318945845
3249.02 64.91624064810104
3363.28 65.72018599502826
3481.93 66.53891261740304
3604.98 66.24515367087001
3732.42 65.35515538158035
3864.26 64.31074586675798
4000.49 65.11979974800127
4141.11 66.01110078078915
4287.6 65.52582490393291
4438.48 66.16416732034602
4595.21 66.56331997867261
4756.35 66.70943842505496
4924.8 67.05393105587882
5097.66 68.6744099674823
5277.83 69.72539753026692
5463.87 70.15110521507222
5657.23 69.56745882547814
5856.45 69.04856227327592
6062.99 68.93332670639535
6276.86 68.91041815777993
6498.05 68.61770326131287
6726.56 67.04058254047476
6963.87 66.40611853069309
7209.96 67.58130004346904
7464.84 66.23593684018277
7727.05 64.31610285067372
7999.51 65.38100635336839
8282.23 67.03638250145985
8573.73 65.22070631837893
8876.95 63.78136571928296
9188.96 63.81619560986188
9514.16 62.21241652855953
9849.61 63.01146139705506
10196.8 62.467293494848505
10555.7 59.07403167671359
10927.7 59.51605374793559
11313.0 59.42386151616756
11712.9 60.97500894268711
12126.0 60.362511311334686
12553.7 57.62918322165069
12996.1 57.09347546646802
13454.6 56.498504631865615
13929.2 55.81205121062558
14419.9 56.674138621112974
14928.2 56.79522996324272
15455.6 53.493407099191074
16000.5 52.09344615009985
16564.5 52.06363884657097
17148.9 52.64178642184328
17752.4 50.59088075381089
18379.4 48.96773919173921
19026.9 46.409027399624335
19697.8 47.633563277692446
19999.5 47.63945766249202
