Freq "Side Wall Bounce"
20.5078 57.67667176464897
21.9727 57.64341512012987
23.4375 57.53760778000964
24.9023 59.05214342884864
26.3672 59.88542242012407
27.832 60.503367956342956
29.2969 61.34591946978885
30.7617 62.19604289449727
32.2266 62.8358837553651
33.6914 63.48826335665524
35.1562 64.24624564789758
36.6211 64.75247155962495
38.0859 65.63406106722772
39.5508 66.16856133148568
41.0156 66.75597171136027
42.4805 67.37469367459434
43.9453 67.95285835461159
45.4102 68.45085702633932
46.875 69.00655466993074
48.3398 69.40664427016569
51.2695 70.67892134678628
52.7344 71.1868186478125
54.1992 71.63778261024382
55.6641 72.05043991593843
58.5938 72.95194147355431
60.0586 73.38112297723994
62.9883 74.16287206919128
64.4531 74.53259747514856
67.3828 75.37853950715416
68.8477 75.75791601586245
71.7773 76.43579649538762
74.707 77.02944251399163
77.6367 77.5738461747526
79.1016 77.84980347627993
82.0312 78.31862749884849
84.9609 78.70227784463404
87.8906 79.04878954529113
90.8203 79.40900459531734
95.2148 79.79903046897323
98.1445 80.0239268255961
101.074 80.1849501726329
105.469 80.36222775680939
108.398 80.4023136667866
112.793 80.43407194375621
117.188 80.44121312566686
120.117 80.5366533385619
124.512 80.61049503448731
128.906 80.5882285312782
133.301 80.53925299720242
139.16 80.38690909011278
143.555 80.31071476583598
147.949 80.31472832810819
153.809 80.2734844042742
159.668 80.1195414404801
165.527 79.74341356669163
171.387 79.8594794143083
177.246 79.6698626383602
183.105 79.68491432329503
188.965 79.70041698224028
196.289 79.47062338609037
203.613 79.42846225724045
210.938 79.37605001094175
218.262 79.39256580771584
225.586 79.25161227376343
232.91 79.15790003407184
241.699 78.91476145242376
250.488 79.06100455505094
259.277 79.38533613817903
268.066 79.29835406858521
276.855 78.85981684349188
287.109 79.22439637037782
297.363 79.23179677926183
307.617 79.11053533202833
319.336 78.43064048908907
329.59 78.46134151895599
341.309 78.9755221624859
353.027 78.83615983027013
366.211 78.59825237000902
379.395 78.66681489166943
392.578 79.32359296068385
405.762 79.37538649353658
420.41 79.56819971169452
435.059 79.76656570761077
451.172 79.55065282563851
465.82 79.82936238824921
483.398 80.17450498456779
499.512 80.05192210051032
517.09 80.0537635541774
536.133 80.08353236262806
555.176 80.18796523074818
574.219 80.40876691470402
594.727 81.09054963752305
615.234 80.7786036272821
637.207 80.95319003530504
659.18 80.16400137395576
682.617 80.05734712765224
707.52 80.51970016179673
732.422 80.03030580172603
757.324 79.96907138705521
785.156 80.12687109417776
811.523 79.36248926203865
840.82 79.50083013682317
870.117 79.80732103736162
900.879 81.19700970487521
933.105 81.32236258744908
965.332 81.38551723619607
1000.49 80.92589385222985
1035.64 80.82804943966258
1072.27 81.12036621321857
1108.89 81.07172701295968
1148.44 81.04507948648619
1189.45 80.83920186372418
1230.47 80.11073682068981
1274.41 79.55934155011388
1319.82 79.32317827112342
1366.7 79.57067911348238
1413.57 79.83025620285238
1463.38 79.3767829990985
1516.11 78.9438099348567
1568.85 78.5675684039427
1624.51 78.87871860679964
1681.64 78.94248206362043
1741.7 78.26930901255767
1803.22 77.94905540478698
1866.21 78.85752863683726
1932.13 79.25374589477029
1999.51 78.22043409122074
2069.82 78.66842882481973
2143.07 79.56838937994507
2219.24 79.25748738385815
2296.88 78.95822620305673
2378.91 79.60398093575692
2462.4 79.80394189090602
2548.83 79.41711692434181
2639.65 79.77031058606414
2731.93 80.1383868424057
2828.61 80.26395673203696
2928.22 79.97040114178789
3030.76 80.38722972965496
3137.7 80.14700524000358
3249.02 79.92520069913954
3363.28 80.16139973214779
3481.93 80.21113940243359
3604.98 80.06395863324849
3732.42 80.36400511068052
3864.26 80.05177498500609
4000.49 80.10549651837067
4141.11 80.01252750820788
4287.6 79.79628386994106
4438.48 80.00747578534146
4595.21 79.86424175078884
4756.35 80.23965906165444
4924.8 79.8631481404712
5097.66 79.92161280451406
5277.83 79.37048540482371
5463.87 78.96592988077735
5657.23 78.20555418756358
5856.45 78.2337051817041
6062.99 78.86395694318787
6276.86 79.1420120870095
6498.05 79.2575820666221
6726.56 78.91954786498653
6963.87 78.6910239181715
7209.96 78.626912663794
7464.84 78.54411783332942
7727.05 78.2082016580447
7999.51 77.79909885419019
8282.23 77.48779643497781
8573.73 77.3632314801767
8876.95 77.39269140610955
9188.96 77.40711667698606
9514.16 77.34229763051088
9849.61 77.12071419914543
10196.8 76.72684073967324
10555.7 76.25626940712921
10927.7 75.45095284950281
11313.0 74.64359822920166
11712.9 74.03697104286107
12126.0 73.81479262736349
12553.7 73.84634307763933
12996.1 74.02264737132968
13454.6 73.34294087604607
13929.2 72.27407829537498
14419.9 71.9897535703587
14928.2 73.6785635661841
15455.6 71.99337577124777
16000.5 68.88894942984452
16564.5 67.14646553546102
17148.9 65.96058335499299
17752.4 65.14519674668085
18379.4 64.2484788398609
19026.9 63.468414921830686
19697.8 63.17653219011275
19999.5 63.140787746949286
