Freq,Floor Bounce,Ceiling Bounce,Front Wall Bounce,Side Wall Bounce,Rear Wall Bounce,Total Early Reflection
20.5078,54.1192748154851,51.79187832181951,53.62551881699871,52.50879684886779,60.27587945976613,55.75987826647507
23.4375,57.489823719345154,55.95907594638139,57.044683167512304,56.65079500151781,63.7798403712151,59.357045359304706
26.3672,61.49495010595949,60.81293042038466,61.1634424587926,61.38181393315067,67.07130684050713,63.17788036880253
29.2969,65.49302958326714,65.13176763653706,65.22084790066783,65.63690281998399,70.23432505720105,66.87449056464874
32.2266,69.23579075908701,68.97835811726307,68.98772399469455,69.45889476018316,73.17732299395688,70.32004592448376
35.1563,72.74574278796992,72.46884523877587,72.4861690586931,72.9504323574594,75.961133086039,73.55574813678585
38.0859,75.74631498055493,75.4947121474444,75.49470696738798,75.96026350091722,78.46330355155669,76.39636237635496
41.0156,78.285850469907,77.97397297717673,78.02586627914475,78.43187572250947,80.39467367928276,78.72489522522382
43.9453,79.90907095096307,79.56246208819111,79.6442746373561,80.01671568027395,81.66258567084253,80.23258664793747
46.875,81.0261022281327,80.63304939646096,80.75060471578092,81.09209902457319,82.45138736624992,81.24275930239139
49.8047,81.7024931491817,81.28030809554163,81.41968836133991,81.74231756865863,82.8841160970601,81.84452462217733
52.7344,82.17142617546178,81.73719101556246,81.89045015020623,82.18773875405547,83.13172032818785,82.25183149491792
55.6641,82.53012110834152,82.07375412710205,82.24639791420951,82.52113472064447,83.30489154779583,82.55631005213608
58.5938,82.85975224359635,82.37096557864984,82.56748624013068,82.82520940468861,83.47503281749817,82.83601941176308
61.5234,83.11150484637515,82.59068640182574,82.81355766938536,83.04587710337239,83.56135456205789,83.03688368158583
64.4531,83.37328214147733,82.81802125741153,83.0701994699383,83.27606084839086,83.66367515214769,83.2495771929531
67.3828,83.66051947305476,83.07394151708752,83.35559196066951,83.52714922455074,83.78800015489563,83.48811597222529
70.3125,83.91106512696304,83.31633444064752,83.59720952754888,83.77907739339238,84.03796217950877,83.73560351783358
73.2422,84.1513233608871,83.5678325361334,83.84262480404442,84.02194785997587,84.24555078864068,83.97245292232616
76.1719,84.46286146502491,83.86431692990217,84.15518461277327,84.30923058347578,84.43621051396858,84.25104379470916
79.1016,84.67271835810065,84.06671885563877,84.36143347419669,84.51606883475777,84.63538580820244,84.45599126577025
82.0313,84.98338459731035,84.34768142834828,84.6788844033507,84.78341297221586,84.76728041417056,84.71704396563504
84.9609,85.22827795251543,84.55394061475918,84.92398919560203,84.98228038100254,84.80677987823917,84.90465077289792
87.8906,85.2852604040328,84.62177202471058,84.97009236162826,85.06285271443913,84.98099454907654,84.98941760210796
90.8203,85.28137762839545,84.62830223705058,84.95247557394666,85.09411339508995,85.15915778768293,85.02879281393479
93.75,85.72334602249464,85.0772781568527,85.44509481827502,85.4618631943873,85.25620713751361,85.3981719926315
96.6797,85.84688880610086,85.08245268666296,85.52184249522017,85.54950524749329,85.28737577282185,85.46530144885803
102.539,86.14188543430008,85.3772495158433,85.82132569490388,85.79379284917725,85.49894963822398,85.73495502092835
105.469,86.21765800795197,85.43830554462657,85.89976615446243,85.85782963147152,85.52438329916656,85.79668718374522
108.398,86.36479911694235,85.57608383087283,86.04941637797653,85.98775575075504,85.63347340284996,85.93200247357971
111.328,86.51063738121145,85.70075198056745,86.19318992540077,86.11353667060226,85.72439124794893,86.05924165226948
117.188,86.68971502329175,85.87042457076588,86.37610238745123,86.26899148727937,85.85554796528781,86.2237609202039
120.117,86.8340265532034,85.99767479573858,86.52499822840736,86.37364597892625,85.89449550280584,86.33867902640714
125.977,86.86246437333786,85.97650408078614,86.54989926010502,86.36312606217918,85.80722447612591,86.32865321428592
128.906,86.86014893401125,85.94234033754087,86.54752410226654,86.33063464174964,85.64637769892964,86.28661771684911
134.766,86.57575986669914,85.60166364987545,86.21851136216274,86.04443146253429,85.54301920067046,86.01398869128447
137.695,86.55324257248463,85.52579939053815,86.17760738518429,85.97953549651142,85.53016625507001,85.97117617641695
143.555,86.60515069201986,85.45003531330818,86.20488202610797,85.92323963284821,85.35027300531091,85.93207507740865
149.414,86.4975355498667,85.26383065433653,86.0950839725781,85.76368603631046,85.1080248345472,85.77629481520015
155.273,86.48679458157896,85.21657041131267,86.10482138658351,85.69736697430376,84.92802074379462,85.72382940158423
158.203,86.49518297347649,85.17098370046877,86.09684257119522,85.66884547006299,84.87508475956689,85.7015517397118
164.063,86.61479262322406,85.2486310520562,86.22970037227145,85.71098938371843,84.7247922686892,85.7577067176155
169.922,85.93327285883787,84.76461134232525,85.5925070597727,85.20569994792292,84.36035381888654,85.20750641911373
175.781,85.84388115505108,84.60655980526201,85.49353600258141,84.99114178687613,84.34035749608795,85.09047814507316
181.641,85.81580958507756,84.32827677228498,85.39455098477906,84.80618746289112,83.89662750484185,84.90378720055966
190.43,85.56967128602737,84.0613066148467,85.1742221044655,84.52734380410143,83.45096681079853,84.62236119512086
196.289,85.46004926220847,83.99502386858286,85.09370939418483,84.39676709800406,83.373340949342,84.52781548422604
202.148,85.42897773384044,83.81077381335847,85.0594910335737,84.24112277805445,83.13063255766444,84.41310092561484
210.938,85.31349098222442,83.62400427725358,84.96739379472463,84.0863056925805,82.7233981888506,84.240849124376
216.797,85.03227470233186,83.5867074472115,84.75365715795209,83.88759527951615,82.71922697522241,84.07414251989387
225.586,85.01823001665478,83.48495077285713,84.76169390778229,83.70390569895913,82.34509850859088,83.96628095290905
234.375,85.14538737844634,83.45923055357866,84.80192147905862,83.76637051795369,82.00237076722534,83.97074438138459
240.234,84.88428708457432,83.12989338728589,84.4893983862636,83.45403992686305,81.77941063009764,83.68028026966151
249.023,84.9551053316378,82.72081940085324,84.45756326882896,83.3306655654434,81.13003608010602,83.51876306794071
257.813,84.8903044361469,82.94904769890526,84.47168874415836,83.4186154218757,81.44026908838363,83.59678678770945
266.602,84.51278056288142,82.17665729043088,83.95430821419747,82.79358409162111,80.60631790845618,83.01700485236945
278.32,84.12362256319422,82.43862874055641,83.91457464452448,82.79721578375978,80.71811671254355,82.95995724104547
287.109,84.11171938531967,82.48394161754501,83.90812036132472,82.72507691427954,80.51431270841289,82.92564093635316
295.898,84.2206006529227,82.34542447190815,83.88896244006988,82.66776864791989,80.12507637922664,82.8712465422859
307.617,83.93715155045521,82.42181944116875,83.67349408940775,82.55255441575177,79.99327596882755,82.71874057934323
319.336,83.79938492166909,82.18650992448768,83.49617273750816,82.33875619160722,79.41251496411877,82.49277905773867
331.055,83.52524964004029,81.70255129684145,83.04759910224523,82.0652874086809,79.16074997441231,82.1389916114003
342.773,83.51601925033296,80.70528755125036,82.86505272161368,80.95221705011805,79.41725831870038,81.74764458969862
354.492,85.0075760445351,82.1590563683806,84.62393874522142,82.09448876835918,79.7229064764924,83.12588971993978
366.211,84.79541483448654,82.42755620630932,84.5463649408829,82.64890438409257,78.96606441025864,83.11445022778751
377.93,84.754286605155,82.58633749636827,84.48383100167067,82.80265463868587,79.51375988272805,83.1851953950907
392.578,84.09029707299456,82.12044680733759,83.73857952261919,82.21939143693757,78.63325093182148,82.53157971860738
407.227,83.49856164489641,81.20374974652644,83.09699488142275,81.55042243499268,78.48386799974212,81.89324919731077
421.875,84.13389037212139,81.58335223005285,83.5243471394597,82.64277674523005,78.23229676920614,82.44776063517736
436.523,83.57924006588314,82.01326414253684,83.60234018670589,82.19134254110905,78.4466118517341,82.31335242600662
451.172,83.64985615897713,82.40754461190545,83.84641353466472,82.76546316663806,77.93277080091752,82.55001245497343
465.82,83.61327542822904,82.18002803553236,83.67792807446425,82.48124900657751,78.26979745671643,82.41756317551798
483.398,83.57649815129035,81.7621708353853,83.3485556858033,82.22935899313212,77.54416748097765,82.13776482882456
500.977,83.76381908538157,81.13537207500337,83.37262840799252,82.44318519201644,78.04583483974976,82.17197038447766
518.555,83.26023994249375,80.71271673808621,82.99884118261748,82.2255469969227,78.16845218532254,81.82804859370017
536.133,82.86098415918907,79.79420219539806,83.39659670914016,82.20411879134006,77.54963106219964,81.64480078121012
553.711,83.57463226716985,80.46213474202527,83.82829820273072,82.28337682284776,77.03637869197108,82.04200163407752
574.219,83.61231287709255,81.05003463086138,83.88378961448136,82.34395038572623,77.26779522480864,82.1827442474959
594.727,82.9724916637705,81.03416440267226,83.46914050094593,81.78691464961277,77.60038362427072,81.79488631231335
615.234,82.81598191654328,80.73153707824703,83.57652695014804,81.64152520575637,76.46204574278859,81.62957829652466
638.672,83.68160867063263,80.69588859217764,84.03739069214215,81.76996306106933,76.8702903879809,82.05814937889075
659.18,83.22283365708579,81.01661149391852,84.3063597497738,82.61644888703185,77.14159814180347,82.25513057211411
682.617,84.66833790805434,82.61216368023409,85.53322562346206,83.36414092107914,79.17856785048959,83.55160249770603
706.055,85.25289721033435,82.41049795374188,85.97626284749825,82.90243353144288,78.91948119096259,83.7232061210984
732.422,83.72337383843389,82.04036756616397,84.83230629439514,81.95468435606251,77.35425335047351,82.60610236019618
758.789,83.41736924936663,81.99810166041,84.49455269461676,80.99399537270993,77.11202804598476,82.23602325052791
785.156,82.93998353254351,81.9526500622877,84.4969449859314,81.03851662244567,76.21821204764296,82.06326482997683
811.523,82.82689671616372,81.54329396997112,84.60227180210329,80.97624991651496,76.32262310007708,81.99228168887367
840.82,82.52539106710596,82.11175604306199,84.75677035531685,81.50493938811944,75.78198110799272,82.14722719156237
870.117,83.03044511950954,82.52165827969381,84.83991977842652,81.51294877872486,75.5004112108821,82.363311325857
902.344,83.57868166062978,83.08215219379268,84.95342953396116,81.75394223096667,74.75256946725924,82.66601969627261
931.641,84.31937751522428,82.41881758586844,85.55001197925053,81.72090787832789,75.54761669336902,82.95923989418776
966.797,84.21506694832324,82.11041619404641,86.10525353183787,82.24851830198553,76.72632431829699,83.21915492724044
999.023,84.3863070923018,82.78884626887366,85.66753772693208,82.63408591496962,77.90934935533139,83.33881529552916
1034.18,85.22083955554417,83.56149557157376,85.71542996579363,82.67593172032984,76.08948564556096,83.64913011426214
1072.27,85.81844630641723,83.38394496566376,85.56851341919013,82.29933141473275,74.51305873156866,83.64850564832706
1110.35,85.84750594613094,83.03666410388433,85.02602640084437,81.65372367970842,73.82537614375434,83.3211085005402
1148.44,85.96962024863126,82.4058572518221,84.83464864124632,81.37451596874591,73.13686478881344,83.14534199365768
1189.45,86.74803880700875,82.21585434467322,85.0649090976698,81.97133509453397,73.33618492799339,83.5774357336956
1230.47,86.79286780684978,81.7629895890713,85.09764097128094,81.50164554932653,73.67475648475437,83.48673994834944
1274.41,86.74668842088838,81.66254909145123,85.2788835810764,80.94551408236818,73.56663803669169,83.43876474669379
1318.36,87.21142592096963,82.16118144207029,85.2372044368096,80.55574324604504,73.305799178588,83.65379909779162
1365.23,86.55386747696024,81.42601667419096,84.83959109923462,80.88492019493121,72.2139923982054,83.16027832949383
1415.04,86.13781821484275,80.92968919543506,84.62090873212756,80.41717893450767,71.43548870917607,82.78117012219842
1464.84,85.61644703352185,80.65882763008905,84.78715717811896,80.29968557751496,71.40724426069491,82.56675106207847
1514.65,85.36332494476991,79.85085414775476,84.99345582581135,80.45000963806936,71.0309987587582,82.45410963603068
1570.31,84.50636990098748,79.24136973055266,85.48001404122613,80.87538461908605,71.15881020165598,82.32893717640202
1623.05,84.4701471645515,79.52702524649219,84.78642796210575,80.42302846711823,70.35123155936415,81.99598895480493
1681.64,83.16447837759827,78.09488529753392,84.38258854977275,79.62048975861984,70.64597671241822,81.13458094891517
1740.23,80.92328333804058,77.85825441675823,84.57257707567118,79.68741766068412,70.32650682395027,80.60835212744183
1801.76,78.5829209424106,76.76481595087883,85.13509529180031,80.26767496675754,70.17514636605907,80.51248379592617
1866.21,78.74076143622644,72.28493274724535,84.78723007961032,79.86502458342724,70.0119785329217,79.99852036017631
1930.66,78.58747365838782,69.62716599144971,83.89717724655382,78.64297235974588,69.00429604241423,79.11518524356994
2000.98,79.73999552029848,72.86752524048981,84.92298477660815,79.45109866247188,69.17231111475122,80.17537000109287
2071.29,80.59257076283355,76.87647517583277,85.4332325542036,79.88304847660557,69.16263060041491,80.92244768550252
2144.53,81.93349880844815,78.64679591166659,84.67702505237072,79.13376694905305,69.07348425993243,80.88397993270884
2217.77,83.01628750996892,79.66894456230249,83.67455017197601,78.10317990544665,68.53572668595713,80.77542468103888
2296.88,83.21952335857996,79.32870757690378,84.23285731803837,78.36983169861843,68.39068112502781,81.0461084107136
2378.91,83.66694394882641,80.49206980312273,84.35040098020231,78.60159679684902,68.94816207187769,81.4442291180759
2460.94,84.21510336377087,79.71624076411736,83.43788645090743,78.03576089773574,68.61418930510062,81.13406320382276
2548.83,83.95148009665176,79.75214828907608,82.80524190094012,77.24733620072574,67.96527295252028,80.74042328136665
2639.65,83.71477569862004,80.17865285609209,83.07328446488799,77.58142791649175,67.70911763003804,80.83174371494455
2733.4,84.08649143810547,80.10947399401306,82.90531574233708,77.29283210789048,67.21921761625642,80.8842196387671
2827.15,84.0959857858408,80.27090971130819,83.17665664557215,77.6055866517377,67.66095324840487,81.03463075420794
2926.76,84.37683124947301,80.39282797354257,83.04205314241777,77.85287110638401,67.42760274690964,81.14888713437755
3032.23,84.41641904481692,80.36000154920612,83.1058550870141,77.79278204693168,67.24989694054874,81.1728626151175
3137.7,84.18332166470243,80.0701659887301,83.4927920380492,78.14752397858287,67.17630176937398,81.19020585597193
3249.02,84.20773856137141,79.53923336370953,83.54088676108483,77.99089495427121,67.10820393643091,81.12284119366666
3363.28,84.02338475180905,79.65050552989605,83.6137038571727,77.71839487973426,66.25064725229012,81.05833914711128
3483.4,83.7939600364145,79.77027397747926,83.84228062413037,77.83584307923125,66.39159840240852,81.08389004515044
3606.45,83.25342059433034,79.90006066585157,83.91130386141957,77.58392650309638,65.79629754264349,80.9094985050658
3732.42,83.01801110559546,80.04802047367356,83.64030841877306,77.42878180922266,65.80737969461649,80.73218184201824
3864.26,82.88092489738627,79.6710154068766,83.8982659074573,77.61195091321017,66.39757920532013,80.75015823319369
3999.02,82.65157306142878,79.35871794591502,84.13203163929255,77.96465020083724,66.29292156072826,80.76423249852645
4139.65,82.4673790311569,78.80285519797515,83.87880235383263,78.35884040694887,66.48148266557084,80.56644893745859
4286.13,82.29733305878487,78.82104878601173,84.47177493300698,78.86798857884709,66.83515703943758,80.84818429130878
4438.48,82.72170042256545,78.57553086994028,84.35901164987749,78.9268076344123,66.22007171587069,80.89415519356932
4593.75,82.53366771706735,78.27468965047524,84.36543635058392,78.4968839352586,66.27431807079269,80.75292397037221
4757.81,82.88970912916501,78.53402854650463,84.50615508281676,78.69365507833787,66.3222675896903,80.97897673839168
4924.8,83.14120199137778,78.70857433876928,84.5784815385078,78.2092888153723,66.0063181116084,81.05559868248493
5097.66,82.71236398971499,78.66442709535973,84.25507315911172,77.88840815499564,65.92741892585734,80.73395437750148
5279.3,82.20632048588634,78.36407874021947,83.69426751950573,77.87871473030793,65.46646145980789,80.28413578487418
5463.87,81.9271134504268,78.32952370369807,83.95751059792038,78.03611213570886,65.34583445542839,80.33191403158081
5657.23,81.48338827238676,78.15427465310391,83.67785741420427,78.07797637083493,65.29367377995548,80.05990771308844
5856.45,81.24671204508961,77.81609788105813,83.96283344149744,78.43282715461743,64.91501613093241,80.1333290026205
6061.52,81.13474804561224,77.77673896228053,84.53657054174764,78.53273505728015,65.40787912723401,80.40459425173549
6275.39,81.16660330016651,77.3821801354773,84.7996243115858,79.11290297076152,65.6972384146935,80.58996492876885
6498.05,80.89136638676142,77.0385931495529,84.6294301831674,79.4758659405693,66.14060191065143,80.46460868857845
6726.56,80.86033555363194,77.03344520303015,84.60570683468062,79.30042759272992,65.85797616645904,80.41528562657199
6963.87,81.26504219334912,76.8173459049063,84.60876163222294,79.28025841516758,66.06917471549667,80.4892921907246
7209.96,81.18184024675139,76.49511312863153,84.29782738565753,79.18257377139543,65.43341321333938,80.26328972062656
7464.84,80.74675427792702,76.26393880506446,84.28001967042088,79.03180345092245,64.6998362467958,80.10259608880249
7728.52,80.98057915329855,76.63159741400287,84.48442531772893,79.39155304465233,64.82815729583419,80.3516508702196
8000.98,80.85752177267176,77.08021490108764,84.89852477021826,79.93909906256664,64.99859958107079,80.6712725749617
8282.23,81.01369391761934,76.940026560178,85.33532671596068,80.51904634041834,65.27284324432513,81.02704942070585
8575.2,81.29948195057128,76.88421861667828,85.42520431008661,80.66577938682991,65.74220138726184,81.15779984289226
8876.95,81.38610002714462,76.51868566040646,84.94923493823617,80.48664837850755,65.76614472420765,80.86815929836871
9190.43,81.05617122634119,76.12898365533542,84.23277122369197,80.07216351389066,64.86247044263548,80.32054772579941
9512.7,80.65889548443432,75.78046978579356,83.77995177106823,79.43175730569125,63.78761058041502,79.85100657363151
9849.61,79.68481281452007,74.80522815571074,82.81786685822239,78.35997766554128,62.548797706350555,78.86393672096581
10195.3,77.89019062982209,73.33874615355431,81.37114221833029,76.79157326173036,61.06322258960118,77.31207409607708
10555.7,77.34274002372894,72.24250246399603,80.89983786332307,76.40280154044824,60.59604535757886,76.79141643975076
10927.7,79.2931852244146,74.03936758051901,82.56458313694547,78.18665327813524,62.59170372143957,78.5552271098145
11314.5,79.88012714631944,74.27684410471498,82.66517465031,78.14357768986493,62.246847940267074,78.75831224968734
11712.9,79.64588024056938,73.92516254484822,82.32175709615835,77.76019706607151,61.271721534389755,78.4333634541686
12126.0,79.4820098127909,73.66238309321893,82.72668661436947,78.01551610032585,61.47950328691188,78.62227636384706
12553.7,80.0115424250313,73.44066749791624,83.18893593362343,78.43527677086597,61.89612982847392,79.05301823081687
12996.1,79.9419080957229,72.81671523299524,82.95449850450919,77.88027696075667,60.85870525505719,78.78343450983162
13453.1,80.04022424559354,72.5425455123965,83.1602939008133,77.88997057660342,60.26083843432231,78.904161832984
13927.7,80.59100440177782,72.79550423726181,83.598841476338,78.25264197321069,60.51592574610116,79.35143905335211
14419.9,80.39381970512211,72.56483344159031,83.4137897003531,77.66112153229564,59.950786393076996,79.09943495975703
14929.7,80.35809309487858,70.76971920463728,83.36916815213455,77.14376025404759,59.15109045802929,78.92529183756149
