Freq "Front Wall Bounce"
20.5078 53.5161685230141
23.4375 56.9353328735277
26.3672 61.054092164808
29.2969 65.11149760668323
32.2266 68.87837370070994
35.1563 72.37681876470849
38.0859 75.38535667340338
41.0156 77.91651598516015
43.9453 79.5349243433715
46.875 80.64125442179632
49.8047 81.3103380673553
52.7344 81.78109985622163
55.6641 82.1370476202249
58.5938 82.45813594614607
61.5234 82.70420737540076
64.4531 82.9608491759537
67.3828 83.24624166668491
70.3125 83.48785923356428
73.2422 83.73327451005981
76.1719 84.04583431878866
79.1016 84.25208318021208
82.0313 84.56953410936609
84.9609 84.81463890161743
87.8906 84.86074206764366
90.8203 84.84312527996205
93.75 85.33574452429042
96.6797 85.41249220123557
102.539 85.71197540091927
105.469 85.79041586047782
108.398 85.94006608399192
111.328 86.08383963141617
117.188 86.26675209346662
120.117 86.41564793442275
125.977 86.44054896612042
128.906 86.43817380828193
134.766 86.10916106817814
137.695 86.06825709119968
143.555 86.09553173212336
149.414 85.98573367859349
155.273 85.9954710925989
158.203 85.98749227721062
164.063 86.12035007828685
169.922 85.4831567657881
175.781 85.3841857085968
181.641 85.28520069079445
190.43 85.0648718104809
196.289 84.98435910020022
202.148 84.9501407395891
210.938 84.85804350074002
216.797 84.64430686396749
225.586 84.65234361379768
234.375 84.69257118507402
240.234 84.380048092279
249.023 84.34821297484436
257.813 84.36233845017375
266.602 83.84495792021286
278.32 83.80522435053987
287.109 83.79877006734012
295.898 83.77961214608527
307.617 83.56414379542315
319.336 83.38682244352356
331.055 82.93824880826062
342.773 82.75570242762907
354.492 84.51458845123682
366.211 84.43701464689829
377.93 84.37448070768606
392.578 83.62922922863459
407.227 82.98764458743814
421.875 83.4149968454751
436.523 83.49298989272128
451.172 83.73706324068011
465.82 83.56857778047964
483.398 83.2392053918187
500.977 83.26327811400792
518.555 82.88949088863288
536.133 83.28724641515555
553.711 83.71894790874612
574.219 83.77443932049675
594.727 83.35979020696132
615.234 83.46717665616343
638.672 83.92804039815755
659.18 84.1970094557892
682.617 85.42387532947745
706.055 85.86691255351364
732.422 84.72295600041053
758.789 84.38520240063215
785.156 84.3875946919468
811.523 84.49292150811868
840.82 84.64742006133224
870.117 84.73056948444192
902.344 84.84407923997655
931.641 85.44066168526592
966.797 85.99590323785327
999.023 85.55818743294748
1034.18 85.60607967180903
1072.27 85.45916312520552
1110.35 84.91667610685977
1148.44 84.72529834726171
1189.45 84.9555588036852
1230.47 84.98829067729633
1274.41 85.1695332870918
1318.36 85.127854142825
1365.23 84.73024080525002
1415.04 84.51155843814296
1464.84 84.67780688413436
1514.65 84.88410553182675
1570.31 85.37066374724152
1623.05 84.67707766812114
1681.64 84.27323825578814
1740.23 84.46322678168657
1801.76 85.0257449978157
1866.21 84.67787978562572
1930.66 83.78782695256922
2000.98 84.81363448262354
2071.29 85.323882260219
2144.53 84.56767475838612
2217.77 83.5651998779914
2296.88 84.12350702405377
2378.91 84.2410506862177
2460.94 83.32853615692282
2548.83 82.69589160695551
2639.65 82.96393417090339
2733.4 82.79596544835248
2827.15 83.06730635158755
2926.76 82.93270284843317
3032.23 82.9965047930295
3137.7 83.3834417440646
3249.02 83.43153646710023
3363.28 83.50435356318809
3483.4 83.73293033014576
3606.45 83.80195356743496
3732.42 83.53095812478846
3864.26 83.7889156134727
3999.02 84.02268134530794
4139.65 83.76945205984802
4286.13 84.36242463902238
4438.48 84.24966135589288
4593.75 84.25608605659932
4757.81 84.39680478883216
4924.8 84.4691312445232
5097.66 84.14572286512711
5279.3 83.58491722552112
5463.87 83.84816030393577
5657.23 83.56850712021966
5856.45 83.85348314751283
6061.52 84.42722024776303
6275.39 84.6902740176012
6498.05 84.5200798891828
6726.56 84.49635654069601
6963.87 84.49941133823833
7209.96 84.18847709167292
7464.84 84.17066937643628
7728.52 84.37507502374433
8000.98 84.78917447623365
8282.23 85.22597642197607
8575.2 85.31585401610201
8876.95 84.83988464425157
9190.43 84.12342092970736
9512.7 83.67060147708362
9849.61 82.70851656423778
10195.3 81.26179192434569
10555.7 80.79048756933847
10927.7 82.45523284296087
11314.5 82.55582435632539
11712.9 82.21240680217375
12126.0 82.61733632038487
12553.7 83.07958563963882
12996.1 82.84514821052458
13453.1 83.0509436068287
13927.7 83.48949118235339
14419.9 83.3044394063685
14929.7 83.25981785814994
15454.1 83.01247440350042
15999.0 82.272834175083
16564.5 81.9354242547412
17147.5 82.21969289557148
17753.9 85.36699665012188
18377.9 87.7986899033879
19028.3 90.77598425271805
19699.2 92.41508726488111
19998.0 92.25467253317481
