Freq,On Axis,Listening Window,Sound Power,Early Reflections,Early Reflections DI,Sound Power DI,DI offset
20.5078,58.50670606060608,58.59848446069073,61.62422481805261,60.32143984385486,38.277044616835866,36.97425964263812,40
21.9727,60.665006060606075,60.71035721555681,63.64588578363555,62.34866112713702,38.36169608841979,37.06447143192126,40
23.4375,63.61170606060608,63.71973445393064,67.28382001712814,65.81968289295945,37.90005156097119,36.435914436802506,40
24.9023,66.94100606060609,67.05182032549254,70.39476272128873,69.00120225058701,38.05061807490553,36.657057604203814,40
26.3672,71.22880606060608,71.30793286642623,73.76060893953753,72.67766747053393,38.630265395892295,37.547323926888694,40
27.832,74.34930606060608,74.4168076141439,76.58634406363926,75.61337815780537,38.803429456338534,37.830463550504646,40
29.2969,76.87010606060608,76.93566968843514,78.92946660616515,78.03304429248345,38.90262539595169,38.00620308226999,40
30.7617,79.17570606060606,79.23775584766837,81.04622872500155,80.22600774396241,39.011748103705955,38.19152712266681,40
32.2266,81.11270606060609,81.17408223545009,82.85277185918206,82.08890914653134,39.08517308891875,38.32131037626803,40
33.6914,82.40380606060607,82.46204417152941,83.9877369042702,83.28850742353022,39.173536747999194,38.47430726725922,40
35.1562,83.26810606060607,83.32157921622651,84.67302521700542,84.04878719096467,39.272792025261836,38.64855399922109,40
36.6211,83.72200606060609,83.77126478476923,84.98730087979247,84.42338154570616,39.347883239063066,38.78396390497676,40
38.0859,83.8935060606061,83.93912545240521,85.03868389505152,84.52565248635099,39.413472966054215,38.90044155735369,40
39.5508,83.96720606060607,84.0110059700684,85.033989967439,84.55604165500236,39.454964315066036,38.9770160026294,40
41.0156,84.08740606060609,84.12825393237107,85.06130652395254,84.62569843350398,39.50255549886708,39.06694740841853,40
42.4805,84.16510606060608,84.20290560654098,85.04586967250454,84.65080672006916,39.552098886471825,39.15703593403644,40
43.9453,84.23910606060609,84.27414394952439,85.04171591865556,84.68215384554647,39.59199010397792,39.23242803086883,40
45.4102,84.20370606060608,84.2369985938247,84.94899079111528,84.61558759994396,39.62141099388073,39.288007802709416,40
46.875,84.24630606060607,84.27790639812346,84.9268323911931,84.62333881860009,39.65456757952337,39.35107400693036,40
48.3398,84.32070606060608,84.35020467028063,84.93964838041438,84.66320465095245,39.68700001932818,39.41055628986625,40
51.2695,84.40560606060608,84.43006929312683,84.9117449869728,84.68514605929455,39.74492323383228,39.51832430615403,40
52.7344,84.40660606060608,84.42937905238065,84.86400088815539,84.66004369215516,39.7693353602255,39.565378164225265,40
54.1992,84.38720606060608,84.40839058168181,84.80669432074568,84.62011918162038,39.78827140006143,39.60169626093614,40
55.6641,84.35040606060608,84.36904709167534,84.72303188981147,84.55665013622742,39.81239695544792,39.646015201863875,40
58.5938,84.32030606060609,84.33576017588858,84.63429774196537,84.49233660061115,39.84342357527743,39.70146243392321,40
60.0586,84.27370606060607,84.28744733633552,84.55687927593415,84.4281716273339,39.85927570900162,39.73056806040137,40
62.9883,84.10420606060607,84.11426255245546,84.32588797750478,84.2227366525517,39.891525899903755,39.78837457495068,40
64.4531,84.01410606060607,84.02344322325015,84.22784920458498,84.12706860846075,39.89637461478941,39.79559401866517,40
67.3828,83.87710606060607,83.88314796849482,84.04293128602619,83.96168343805464,39.92146453044019,39.840216682468636,40
68.8477,83.82800606060609,83.83207063296754,83.96889687795317,83.89797651025488,39.934094122712665,39.86317375501437,40
71.7773,83.79760606060609,83.79711469076742,83.87738561627233,83.83234679070254,39.96476790006487,39.91972907449508,40
74.707,83.81700606060608,83.81350509435585,83.85988355079182,83.82919532491289,39.98430976944296,39.953621543564026,40
77.6367,83.89690606060609,83.8904199812756,83.91340375028155,83.89460183952951,39.995818141746085,39.97701623099405,40
79.1016,83.9499060606061,83.94183555307889,83.95364459962313,83.94055758546105,40.00127796761784,39.98819095345576,40
82.0312,84.11160606060608,84.09985923571358,84.0746857657116,84.07840069304353,40.02145854267005,40.025173470001974,40
84.9609,84.27930606060607,84.26516174909591,84.23880931076008,84.24164346337649,40.02351828571942,40.026352438335834,40
87.8906,84.47620606060607,84.45701871795349,84.36264516151071,84.39827911179451,40.05873960615898,40.094373556442775,40
90.8203,84.59440606060608,84.57013187090807,84.43248088741983,84.48693786160129,40.08319400930678,40.13765098348824,40
95.2148,84.76010606060608,84.73306540094194,84.60646651736789,84.64977836183358,40.083287039108356,40.12659888357405,40
98.1445,84.84460606060607,84.813208281334,84.66492092404359,84.71744358212885,40.09576469920515,40.148287357290414,40
101.074,84.86810606060608,84.8307265412539,84.62637532105482,84.70417961548728,40.12654692576662,40.20435122019907,40
105.469,85.11280606060608,85.06083595786477,84.6480031153796,84.82272503055317,40.238110927311595,40.41283284248517,40
108.398,85.23110606060608,85.1764961520959,84.73896749149652,84.92563682370186,40.25085932839403,40.43752866059937,40
112.793,85.28130606060608,85.22548029471682,84.83025059700535,84.99835996731828,40.22712032739854,40.39522969771147,40
117.188,85.38180606060608,85.3158334702164,84.81425296634124,85.03153279300194,40.28430067721446,40.50158050387516,40
120.117,85.42550606060608,85.35436000457261,84.83278602298434,85.05552106084566,40.29883894372695,40.521573981588276,40
124.512,85.49790606060608,85.42241157793289,84.91544501741286,85.12429290050117,40.29811867743172,40.50696656052003,40
128.906,85.51380606060609,85.43259807919704,84.90808593674406,85.12263178437772,40.30996629481932,40.52451214245298,40
133.301,85.57820606060609,85.48975484521642,84.90035259355753,85.1505741999963,40.339180645220125,40.589402251658896,40
139.16,85.62390606060607,85.5233022204046,84.8518613464618,85.14016628110083,40.38313593930377,40.6714408739428,40
143.555,85.59580606060608,85.48742872988838,84.79384664769795,85.08143072720522,40.40599800268316,40.69358208219043,40
147.949,85.63520606060608,85.51609704349713,84.71900359800371,85.0512553650229,40.46484167847423,40.79709344549342,40
153.809,85.80240606060607,85.66885747971752,84.70376255127205,85.12462467088841,40.54423280882911,40.96509492844547,40
159.668,85.82330606060607,85.68596796919475,84.78268387949181,85.16858469340077,40.517383275793975,40.903284089702936,40
165.527,85.92020606060608,85.77347084110959,84.84095087769732,85.23455792109014,40.53891292001944,40.93251996341226,40
171.387,85.91330606060608,85.7491621029212,84.6628850300156,85.12920887382747,40.61995322909374,41.0862770729056,40
177.246,85.7488060606061,85.57282815637026,84.42053145381543,84.9140778003355,40.65875035603476,41.152296702554835,40
183.105,85.44310606060608,85.25723606589435,84.08025846384038,84.58749320716716,40.66974285872719,41.17697760205397,40
188.965,85.36400606060607,85.16350338036014,83.82286706422784,84.41907713009788,40.744426250262265,41.340636316132304,40
196.289,85.43690606060606,85.2229696835909,83.71221777676557,84.40278538112638,40.820184302464526,41.510751906825334,40
203.613,85.34150606060608,85.11081086830247,83.35252330377953,84.16716304333893,40.943647824963534,41.75828756452293,40
210.938,85.44910606060608,85.19465959953723,83.3760654351738,84.20175823336528,40.99290136617195,41.81859416436343,40
218.262,85.22090606060608,84.96782846665052,83.35149196915299,84.0706762281128,40.897152238537714,41.61633649749753,40
225.586,85.42390606060609,85.13780347380293,83.40221597243034,84.18383222546855,40.95397124833438,41.73558750137259,40
232.91,85.72440606060609,85.42245702913002,83.2717992191585,84.30464370298321,41.1178133261468,42.15065780997152,40
241.699,85.68240606060608,85.37323441311806,83.19545232359604,84.2288100150591,41.14442439805896,42.17778208952201,40
250.488,85.86080606060608,85.54062733438711,83.29612521300992,84.36517491295147,41.17545242143564,42.244502121377195,40
259.277,86.11790606060607,85.78984068332615,83.27774922202691,84.52179551562647,41.26804516769968,42.512091461299235,40
268.066,85.77320606060609,85.44266227513614,82.93952120899577,84.16442770029572,41.278234574840425,42.50314106614037,40
276.855,85.78560606060609,85.45230036824968,82.71721191426572,84.09938664261087,41.352913725638814,42.73508845398396,40
287.109,85.73870606060608,85.38509618103912,82.59824664782779,84.03227059238783,41.352825588651285,42.786849533211324,40
297.363,86.14330606060608,85.75493253524822,82.56917483280755,84.2565853996106,41.498347135637616,43.18575770244067,40
307.617,86.40610606060608,86.0210593241833,82.57914465154899,84.41711641179023,41.603942912393066,43.44191467263431,40
319.336,86.36340606060608,85.98222559729416,82.31376505395023,84.29854279099979,41.68368280629437,43.668460543343926,40
329.59,85.99510606060608,85.63608913502115,82.09591923531688,84.10395488786793,41.53213424715322,43.54016989970427,40
341.309,86.04420606060609,85.6723221139151,82.14601325578268,84.07689768889183,41.59542442502327,43.526308858132424,40
353.027,85.86800606060608,85.50489743879632,81.8754058493538,83.96065159189315,41.544245846903166,43.62949158944252,40
366.211,85.82470606060608,85.44713389426526,81.66751722926735,83.80570018794499,41.64143370632027,43.77961666499792,40
379.395,86.51120606060609,86.12766824220083,82.14309682708067,84.42518691447599,41.70248132772484,43.98457141512016,40
392.578,85.57460606060609,85.30638185423133,81.89331974439494,83.93665004870077,41.36973180553056,43.41306210983639,40
405.762,86.04380606060609,85.67773278647037,81.88099909209514,84.06240205926112,41.615330727209255,43.796733694375234,40
420.41,86.10190606060608,85.76008199858515,81.98866703539572,84.18991355836978,41.57016844021537,43.77141496318943,40
435.059,85.55400606060608,85.20234839826055,81.778069942382,83.7869060082423,41.415442390018256,43.42427845587855,40
451.172,86.0322060606061,85.70467353811775,82.13947120931803,84.26117448373414,41.44349905438361,43.565202328799714,40
465.82,85.59200606060608,85.26924442677122,81.9036606868058,83.78625489874729,41.482989528023936,43.36558373996543,40
483.398,85.54760606060609,85.14616726147574,81.78349859384424,83.73532678617939,41.410840475296354,43.362668667631496,40
499.512,86.06380606060608,85.57471130044452,81.74459648340996,83.88429729246437,41.69041400798015,43.830114817034556,40
517.09,86.10500606060607,85.77391875551724,82.43063698453501,84.38941454210715,41.384504213410096,43.34328177098223,40
536.133,85.7864060606061,85.36265564788903,81.72435774179378,83.56189024694652,41.80076540094251,43.63829790609525,40
555.176,85.97330606060608,85.6429165161402,81.82642090000355,83.77678299962506,41.86613351651515,43.81649561613665,40
574.219,85.83460606060608,85.60176287591999,81.90653104267646,83.87718013947189,41.7245827364481,43.695231833243525,40
594.727,86.11060606060607,85.95896864180641,81.98417639459417,83.91626912911256,42.042699512693844,43.974792247212235,40
615.234,86.42750606060609,86.15435677593332,81.63008064972675,83.96808203081359,42.18627474511973,44.52427612620657,40
637.207,85.85710606060609,85.55234192261038,81.45817657917489,83.5304640343895,42.021877888220885,44.09416534343549,40
659.18,85.82530606060608,85.72853133942145,81.325655665328,83.5418268563992,42.186704483022254,44.40287567409345,40
682.617,85.69520606060608,85.63421120731552,81.1304746480554,83.37410539238408,42.260105814931435,44.50373655926012,40
707.52,85.54390606060606,85.47250330685706,80.80619229233737,83.22314403220373,42.24935927465333,44.66631101451969,40
732.422,85.86420606060608,85.7041917881194,80.68458238234653,83.30008692235589,42.404104865763514,45.01960940577287,40
757.324,85.76800606060608,85.36562740598204,80.21543090835665,82.91157782950363,42.45404957647841,45.15019649762539,40
785.156,85.61950606060608,85.30582814409406,80.06988796441584,83.0079012362925,42.29792690780157,45.235940179678224,40
811.523,85.81230606060608,85.22372971374828,79.94928986649141,82.87627296525484,42.34745674849344,45.27443984725687,40
840.82,85.47280606060608,84.84792791949049,79.50644488449363,82.58601294359559,42.261914975894896,45.341483034996855,40
870.117,85.88840606060607,85.18155172882803,79.79234660714783,82.86182617393544,42.319725554892585,45.38920512168019,40
900.879,85.83020606060607,85.0459390025953,79.46591076390307,82.71308796111406,42.33285104148125,45.580028238692236,40
933.105,86.55740606060608,85.60674392098011,79.8149087492995,83.17784314649138,42.428900774488724,45.7918351716806,40
965.332,86.27520606060608,85.49235747279268,79.38627065638644,82.8609891336089,42.63136833918378,46.10608681640623,40
1000.49,86.30690606060608,85.69777452469505,79.50165170542199,82.8677015143815,42.830073010313555,46.19612281927306,40
1035.64,85.95010606060607,85.38398540073499,79.1154026771318,82.51184683692678,42.87213856380821,46.26858272360319,40
1072.27,85.74340606060609,85.22171822184707,78.99129462439869,82.29976100718007,42.921957214667,46.23042359744838,40
1108.89,85.09090606060607,84.85591397150735,78.68749308288182,82.02626996908033,42.82964400242702,46.16842088862553,40
1148.44,85.23190606060608,84.7389056279741,78.53788676746676,81.78726987947893,42.95163574849518,46.20101886050735,40
1189.45,85.79530606060608,84.84926081419833,78.65117094950224,81.92664343237746,42.92261738182087,46.19808986469609,40
1230.47,86.17420606060608,85.16201068804678,78.71647583723745,82.10402336632723,43.05798732171955,46.445534850809324,40
1274.41,86.45680606060607,85.38020121244101,78.86982692157373,82.30788308867834,43.07231812376267,46.510374290867276,40
1319.82,86.54210606060609,85.49277566533895,78.95120702754399,82.5259537790818,42.96682188625715,46.54156863779497,40
1366.7,86.76990606060608,85.76412731790818,79.17753222570484,82.79846754781526,42.96565977009291,46.58659509220334,40
1413.57,86.18180606060608,85.59185586658624,79.2471727708069,82.6537338463012,42.93812202028505,46.344683095779345,40
1463.38,85.19190606060607,85.31140575411867,78.82585672617621,82.12230565283208,43.189100101286584,46.485549027942454,40
1516.11,84.77490606060609,84.97893777092864,78.60315871759958,81.70740328155934,43.2715344893693,46.375779053329055,40
1568.85,84.61590606060608,84.38673550181589,77.8958917788139,81.25213986575714,43.13459563605875,46.49084372300199,40
1624.51,84.49010606060608,84.20323031555974,77.9111498601197,81.13508371793428,43.06814659762546,46.29208045544003,40
1681.64,85.70060606060606,84.98968018331978,78.39756233533575,81.88963124063329,43.100048942686485,46.59211784798403,40
1741.7,85.66460606060609,85.37052466886075,78.75042660068682,82.30199505350193,43.06852961535883,46.62009806817393,40
1803.22,85.66190606060609,85.7910774847088,78.85085619096962,82.52777935865333,43.26329812605546,46.94022129373917,40
1866.21,84.81400606060608,85.57755433971398,78.6743638193253,82.20285700482974,43.374697334884246,46.90319052038869,40
1932.13,84.76400606060606,85.16899631578534,78.44907166874547,81.97861261409115,43.19038370169419,46.71992464703986,40
1999.51,85.69220606060608,85.25510811708408,78.67889480698484,82.25345732398124,43.00165079310284,46.576213310099234,40
2069.82,85.88870606060608,85.25964316926799,78.69771629787917,82.34607968260357,42.913563486664415,46.56192687138882,40
2143.07,85.76140606060608,85.17086109049534,78.40003720694163,82.18823762699124,42.9826234635041,46.7708238835537,40
2219.24,84.49850606060606,84.79610360278332,77.66839380437544,81.59439764001549,43.20170596276783,47.12770979840788,40
2296.88,83.65390606060608,84.66329018492704,77.53216734415757,81.19219104354725,43.47109914137978,47.131122840769464,40
2378.91,83.96190606060608,84.53993699463207,77.57768935590003,81.33982967145478,43.20010732317729,46.96224763873204,40
2462.4,85.72210606060607,84.9307482895121,78.05856745874057,81.9838073162405,42.946940973271595,46.872180830771526,40
2548.83,86.64070606060608,85.2838881722768,78.06440381822004,82.07598902454374,43.20789914773306,47.21948435405676,40
2639.65,85.56830606060608,84.81905078815048,77.50999065747202,81.45914706607445,43.35990372207603,47.30906013067846,40
2731.93,84.54860606060608,83.8555146017133,76.78469321143429,80.67373959886022,43.18177500285307,47.07082139027901,40
2828.61,84.48680606060609,83.61065549271129,76.70145991804687,80.62841637430388,42.982239118407406,46.90919557466442,40
2928.22,85.09180606060607,84.16579270465174,76.99027640837467,81.03021645738299,43.135576247268745,47.17551629627707,40
3030.76,85.35710606060609,84.27198832460265,77.15463717030501,81.18746970843313,43.08451861616952,47.11735115429764,40
3137.7,85.57090606060608,84.35183699324243,77.1407664266273,81.16018395535849,43.19165303788394,47.211070566615135,40
3249.02,85.57720606060607,84.56615578883459,77.16022933905273,81.11815888381985,43.44799690501475,47.40592644978186,40
3363.28,85.88880606060609,84.60362291164948,77.11869674694661,81.16368045157824,43.43994246007124,47.48492616470287,40
3481.93,85.49670606060609,84.93373577482954,77.59983862372503,81.66277724568921,43.27095852914033,47.33389715110451,40
3604.98,86.16410606060607,85.33312001184116,77.93783512995776,82.04630668513192,43.286813326709236,47.3952848818834,40
3732.42,86.72830606060607,85.61403303777304,78.15620202519364,82.33099277170898,43.28304026606406,47.457831012579405,40
3864.26,85.64720606060608,85.4277728844127,77.78359002144822,81.97979331814489,43.44797956626782,47.644182862964485,40
4000.49,85.39370606060608,85.0165885561083,77.48435807987005,81.66791702392833,43.34867153217998,47.532230476238254,40
4141.11,85.59370606060608,85.4154022552492,77.90888443767692,82.1271909436343,43.2882113116149,47.50651781757229,40
4287.6,85.41790606060609,85.32225187486036,77.75008167830283,81.89499019848145,43.427261676378905,47.57217019655752,40
4438.48,86.04290606060609,85.39932562567517,77.52607730424226,81.86104457861477,43.53828104706041,47.87324832143291,40
4595.21,85.6109060606061,85.0510900946944,77.29434677916414,81.38685509864835,43.66423499604605,47.75674331553026,40
4756.35,86.16160606060608,85.37010137646782,77.29478169030752,81.57488443890921,43.79521693755861,48.0753196861603,40
4924.8,86.25220606060607,85.19291447401973,77.16221576109338,81.59720483915218,43.595709634867546,48.03069871292635,40
5097.66,85.53450606060606,84.72154187183618,76.73884291296528,81.01283718802907,43.70870468380711,47.9826989588709,40
5277.83,85.68360606060607,84.63614857736646,76.54124676968227,80.92687143420862,43.709277143157834,48.09490180768418,40
5463.87,85.82960606060608,84.85217138822354,76.78428933371255,81.19191603638204,43.6602553518415,48.06788205451099,40
5657.23,85.9798060606061,84.94253895174772,76.8035184112141,81.11730063688624,43.82523831486148,48.13902054053362,40
5856.45,85.14210606060608,84.67957345764023,76.58473651575187,80.93951454036998,43.74005891727025,48.09483694188836,40
6062.99,86.54370606060608,85.39838720553512,77.20790676581774,81.61364761949453,43.78473958604059,48.190480439717376,40
6276.86,85.88840606060607,85.06808108403378,76.73949296677068,81.10141824659273,43.96666283744105,48.328588117263095,40
6498.05,85.67470606060608,84.62021855985354,76.38205503395353,80.76405298941654,43.856165570437,48.238163525900006,40
6726.56,86.19460606060608,84.57208365209449,76.2944162566506,80.66815875989792,43.90392489219657,48.277667395443885,40
6963.87,85.05230606060609,84.11123479364672,75.7897085851651,80.22336468253707,43.88787011110965,48.321526208481615,40
7209.96,85.83450606060607,84.55214607575793,76.15826777191607,80.63802065852181,43.91412541723612,48.39387830384186,40
7464.84,85.55320606060607,84.3401002540993,75.93576781974396,80.3922920015628,43.947808252536504,48.40433243435534,40
7727.05,86.06150606060608,84.58499957569784,76.14134251044985,80.65688870715918,43.92811086853865,48.44365706524799,40
7999.51,85.83480606060608,84.63920800573432,76.46134402210845,80.84210503587265,43.79710296986167,48.17786398362587,40
