Freq "Floor Bounce"
20.5078 54.503808849510094
21.9727 56.42033949721052
23.4375 57.8322966017579
24.9023 57.79470170025358
26.3672 58.47765423434116
27.832 59.846775903192096
29.2969 60.4636291534019
30.7617 61.65623835960294
32.2266 62.63728848383961
33.6914 63.49935345064725
35.1562 64.68266956429717
36.6211 65.43258063719543
38.0859 66.87534702374647
39.5508 67.89687716013918
41.0156 68.68506573430939
42.4805 69.57683820653958
43.9453 70.65478202987948
45.4102 71.62470123791609
46.875 72.61687995389515
48.3398 73.42690339292362
51.2695 75.09963982185995
52.7344 75.8556034910767
54.1992 76.6705973960602
55.6641 77.32319951514017
58.5938 78.4438171777135
60.0586 79.14218687047652
62.9883 80.33652702639016
64.4531 80.8622680613549
67.3828 81.82091577351333
68.8477 82.2631858240736
71.7773 83.17042456532343
74.707 83.96730633534213
77.6367 84.55465106647618
79.1016 84.85060124232756
82.0312 85.46828504063866
84.9609 85.94624678076659
87.8906 86.26827121967513
90.8203 86.70653706799281
95.2148 87.18830894684397
98.1445 87.35075906724597
101.074 87.49664946644688
105.469 87.66318598916752
108.398 87.68694312113256
112.793 87.70766574066285
117.188 87.66238311077666
120.117 87.66225833973262
124.512 87.71172473505656
128.906 87.56699489865393
133.301 87.38921248037728
139.16 87.24922796926553
143.555 87.21798229978785
147.949 87.27753771661237
153.809 87.31757331317982
159.668 87.05769376230786
165.527 86.89556734591139
171.387 86.8599635702945
177.246 86.63983166710469
183.105 86.47335145823085
188.965 86.44648018966772
196.289 86.47192269790838
203.613 86.34791996082772
210.938 86.20467021052394
218.262 86.19096297175975
225.586 85.86758088155304
232.91 85.91447192565916
241.699 85.90793704794085
250.488 86.27518184346395
259.277 86.08215358761011
268.066 86.0419949393739
276.855 85.78745135163356
287.109 86.06979950173199
297.363 85.74277771878646
307.617 85.20395090153104
319.336 86.0858611346911
329.59 86.7775055564506
341.309 86.4574233513544
353.027 86.17593056735069
366.211 86.49305860710534
379.395 86.51347397601936
392.578 87.07187703107171
405.762 86.89462892460183
420.41 86.37636189169613
435.059 85.68935752985543
451.172 85.03699102651291
465.82 86.28944195451137
483.398 86.61041330789523
499.512 86.19373401739627
517.09 85.11207090000183
536.133 85.06906727492868
555.176 85.35766282747326
574.219 85.31347001255396
594.727 85.87426637466751
615.234 86.15042660285776
637.207 85.13139762024903
659.18 84.95820710688322
682.617 84.80255835003842
707.52 84.48255592585458
732.422 84.60405179038514
757.324 83.30244611647959
785.156 81.68799179362104
811.523 86.3374418687102
840.82 88.04855408700574
870.117 87.83781654767755
900.879 87.5691244931181
933.105 86.18690388457325
965.332 84.05920072088333
1000.49 82.37101481014453
1035.64 83.59910649029327
1072.27 84.31622121905203
1108.89 84.30528996851992
1148.44 84.67051507453134
1189.45 84.51827268359283
1230.47 85.25227304357915
1274.41 86.17286919624622
1319.82 86.6602426309687
1366.7 86.47920421977243
1413.57 86.70675019731058
1463.38 86.42641214923376
1516.11 86.65934259439659
1568.85 86.46560569405392
1624.51 85.70245867771969
1681.64 85.00827753600241
1741.7 84.64145674580384
1803.22 85.01888065293141
1866.21 85.61818359337127
1932.13 84.4957684932665
1999.51 83.29588439308061
2069.82 82.3653047995379
2143.07 81.37942260057602
2219.24 79.93530355887482
2296.88 79.56091282923462
2378.91 79.78099524561682
2462.4 78.70970527176564
2548.83 78.49558017396645
2639.65 79.45406971350344
2731.93 78.90347214484687
2828.61 79.21529812838737
2928.22 79.44417115060712
3030.76 79.43024498423931
3137.7 79.69794353975291
3249.02 80.01825213993536
3363.28 80.71895961433066
3481.93 81.26656610986082
3604.98 81.64091601674792
3732.42 81.60830362197262
3864.26 82.54211036973369
4000.49 82.89015517207078
4141.11 82.98876026074163
4287.6 83.30498274873722
4438.48 83.69311809541811
4595.21 84.30723711096157
4756.35 84.80183339283168
4924.8 84.79450404042612
5097.66 84.4069444788055
5277.83 84.58082756220703
5463.87 84.76445375433048
5657.23 85.17247264123897
5856.45 85.33054329917753
6062.99 85.28845363007817
6276.86 84.87541219587733
6498.05 84.46702303227954
6726.56 84.127559895046
6963.87 84.37778198786508
7209.96 83.85289015942128
7464.84 83.1034458411615
7727.05 83.09282171286445
7999.51 83.21981762998452
8282.23 83.39306705282628
8573.73 83.66257973304
8876.95 84.13140837411338
9188.96 84.58635314914643
9514.16 84.41245683031963
9849.61 83.77694631896308
10196.8 83.83830616779552
10555.7 84.28787414647086
10927.7 84.43335613908779
11313.0 84.83946790113787
11712.9 85.32922992261199
12126.0 85.6398368851963
12553.7 85.56334777017214
12996.1 85.56598753720208
13454.6 85.56215140371788
13929.2 85.54001376191036
14419.9 84.71969281455466
14928.2 84.18470509144893
15455.6 83.59951310091044
16000.5 82.8037925930207
16564.5 81.38324897949227
17148.9 79.90229029180186
17752.4 78.65280307933294
18379.4 77.75116233979804
19026.9 76.62737298568192
19697.8 75.16729435661871
19999.5 74.72567556997733
