Freq,Floor Bounce,Ceiling Bounce,Front Wall Bounce,Side Wall Bounce,Rear Wall Bounce,Total Early Reflection
20.5078,55.65830482865617,52.85019208408694,55.31154610682957,52.81301190656505,50.32394953724422,53.79977678419094
21.9727,55.16016350172909,52.49587429474734,54.982239508148794,51.924742082381655,50.49100620939073,53.378345713994165
23.4375,56.25704080176173,54.33524452133206,55.99851058809669,54.64759974986596,57.706179989582594,55.96148650173383
24.9023,58.044514628788775,56.793313799176374,57.80001895336427,57.241930738275144,60.06198518989807,58.145389492431335
26.3672,60.94644210476413,60.19604044537472,60.635033158406586,60.83521110763577,63.34383340773073,61.34739481973682
27.832,64.2198576950922,63.61181396539435,63.916256955902924,64.18461196363658,66.0473806857943,64.48677015437563
29.2969,66.8885942979614,66.26444758692328,66.56056889348766,66.8672753996123,68.43209745234624,67.07164304777218
30.7617,69.59938401549492,68.9727115742401,69.25719962242488,69.56008746638517,70.84021930164563,69.69522444748723
32.2266,72.13761453906788,71.48660542342023,71.78660456080276,72.0685316555825,73.1339215539034,72.1594695220471
33.6914,74.38373035789482,73.70737511336553,74.0300221071234,74.27222365575061,75.14213359208901,74.3339576680797
35.1562,76.39110315820665,75.69392174930647,76.03592793895132,76.2440130439785,76.96308349117893,76.28616333828315
36.6211,78.01803979267576,77.29847796412854,77.66123117556411,77.83667858650087,78.42437569854616,77.86386922818579
38.0859,79.39214457861381,78.65660369761903,79.0354681224094,79.18358336076211,79.66171110134353,79.19899796691396
39.5508,80.41231948357753,79.65487217051077,80.05390453815708,80.1737599603886,80.55694531188074,80.18145841796472
41.0156,81.16509965197517,80.39384040498653,80.80654382924301,80.89989416333218,81.19360110332595,80.90135380868489
42.4805,81.6804439852451,80.87466219612365,81.31589499220566,81.38802687377112,81.62112913873372,81.38527348246642
43.9453,81.96621047193595,81.13807902931528,81.59885346147557,81.65042912529586,81.82244482993637,81.64411648239788
45.4102,82.1508107874304,81.3151713529664,81.78364586718037,81.82171896211871,81.94893213792251,81.812699024476
46.875,82.25452269943162,81.40500167515675,81.88496245248082,81.90844526152723,81.99224559357866,81.89764698090536
48.3398,82.33008350241415,81.47171426057332,81.96718924276315,81.96067510712035,81.95867589812232,81.94618186789526
51.2695,82.35875735494156,81.46192517778955,81.98584749202568,81.95950334988652,81.90035976506338,81.94261675951522
52.7344,82.4101231664866,81.50881765413367,82.03855066972311,82.00182562425702,81.92132951061471,81.98563102853761
54.1992,82.45093741944298,81.56593938441992,82.0867104424626,82.0441036976146,81.94831212199081,82.02843363585141
55.6641,82.45637719545424,81.57574058849919,82.0949078487009,82.04689467387449,81.94251295224797,82.03248154470833
58.5938,82.58479143813786,81.67028914797565,82.2198399976631,82.14152192398657,81.96703930061257,82.1271216497017
60.0586,82.70071708687182,81.77602328436402,82.34213013390436,82.23643855987721,81.97833038542606,82.21831154514753
62.9883,82.77751890139895,81.79095314023165,82.39195127900237,82.28163972795925,82.01872422242694,82.26519368770929
64.4531,82.77606981146751,81.81624512834033,82.39806122753507,82.29897758294588,82.08075996389795,82.28591995849301
67.3828,82.96198700104318,81.96398757867507,82.58050010924606,82.44855508427382,82.16013128530953,82.4368224506731
68.8477,83.02547291831947,82.00976613363166,82.64192526284803,82.49927545875393,82.19041159789882,82.48793145014695
71.7773,83.13728829289145,82.13845050475906,82.76448352113655,82.60482379118415,82.26028606415838,82.59595112618992
74.707,83.25486564813602,82.25723531881859,82.88275489182892,82.71666996598658,82.35970967623416,82.70938668248546
77.6367,83.35097472355987,82.32892958396023,82.97098143453675,82.79870896482643,82.4558115171154,82.7966441940663
79.1016,83.41766249773049,82.38048278062728,83.03474117904285,82.85027778427987,82.49285743487745,82.85151115798324
82.0312,83.49681955540788,82.42845027481442,83.10418638246432,82.91105074460994,82.56428617308468,82.91795923295548
84.9609,83.69973923309553,82.58769665143055,83.31536159342092,83.04378642116001,82.59522402631181,83.06954880189194
87.8906,83.89395649327473,82.82486248708699,83.55408135375205,83.2289381548567,82.33127644762703,83.20073611010686
90.8203,83.50890599606286,82.39405293763998,83.06987860634364,82.94883978178616,82.87269933958527,82.9736158046908
95.2148,83.97905798462426,82.84310074230945,83.61541871402017,83.26731460615225,82.6127594858481,83.29205430665887
98.1445,84.05740204512873,82.94111605566665,83.69723136241213,83.35242553774643,82.54506913961721,83.35144474638426
101.074,83.71803460226779,82.69766938974143,83.34897672811792,83.16667827606295,82.79114386201586,83.16062106723085
105.469,84.04229949455834,82.81975438788587,83.64207957267591,83.30081501330845,82.87241359955995,83.36045371044426
108.398,84.14844471438924,82.94439468558375,83.76355510897373,83.40575215422628,82.86124401381751,83.45219864636728
112.793,84.15916193014478,82.95248896723132,83.77563641861342,83.39693502798349,82.92126277649571,83.46753826551112
117.188,84.30043002774065,83.11285406837125,83.95109462878344,83.48715315557592,82.75686861789454,83.55723063553043
120.117,84.37267539134099,83.1894097688709,84.0134887018136,83.57063320335011,82.80639181903605,83.62654289169971
124.512,84.17523312021585,82.87782328284895,83.77064262338202,83.36105286929134,82.78326349159447,83.42590743528508
128.906,84.2372586106714,82.88750642166117,83.83289029034273,83.36584048758814,82.76454174890651,83.45367095550635
133.301,84.3367100172925,82.89192006003256,83.90776880251964,83.39728188311408,82.68329464393653,83.48734564754939
139.16,84.28349255118073,82.9038983877931,83.89956359772022,83.33301490338123,82.52639516378161,83.43636162521615
143.555,84.3450543777508,82.89583541091545,83.94272769230123,83.3254701599534,82.38942263663097,83.43631801754735
147.949,84.33261800406429,82.8355418872175,83.91618579895076,83.29492784287861,82.19273710449109,83.38021959695554
153.809,84.07883019354188,82.6252656696891,83.69196965967392,83.12269541356973,82.1908089070044,83.19590161691842
159.668,84.11133773147823,82.64668776718608,83.72978456385701,83.15087157080644,82.29984892974281,83.23904553405532
165.527,84.05480716156306,82.58758280954568,83.66576500700047,83.02742998396333,82.33148128471517,83.18172619745046
171.387,84.22759805456299,82.54413277321213,83.78463438170421,83.05420680723144,82.13354249246389,83.21745271036433
177.246,84.06851914603854,82.39790297518111,83.63949942041329,82.90087133007238,81.92083322973217,83.05656183957034
183.105,83.96597060563748,82.22594215445507,83.55738428145396,82.7403822313102,81.77913563274383,82.92968919838209
188.965,83.9321427351853,82.38217718497584,83.61216853367155,82.76607914391361,81.63214269241278,82.94366413904494
196.289,84.1669314512985,82.49768670215103,83.79893933787955,82.84312148356274,81.70193705846529,83.09210088379567
203.613,83.97765303856603,82.34276886835167,83.70472999260245,82.72167627494132,81.3148639857225,82.91627231696708
210.938,83.91871592364286,82.4047152001091,83.63798155919531,82.68011363734077,81.17747693122267,82.86950543725092
218.262,83.66668916657669,81.97289641509947,83.30672096766183,82.30833343611629,81.18330362645656,82.58030054541821
225.586,83.74130504611718,81.89105734821041,83.42727051053154,82.2316655438171,80.80959636848375,82.54811879876327
232.91,83.75239734453972,81.84767824118333,83.39479282690264,82.21860250441878,80.46937491879864,82.48901579630024
241.699,83.93501071355,81.60762136859539,83.42086730005234,82.22884623971481,80.52425502611125,82.51385311150514
250.488,84.44680066426913,81.76451960568286,83.96256935182369,82.49469454491815,80.29578902485092,82.84305963545273
259.277,84.01433845126685,82.03336483838213,83.69071675552382,82.44127051129955,79.82830337573503,82.63501758104383
268.066,83.54846584378116,81.12823729707632,83.12353576321651,82.0015838233394,79.4753764170632,82.0871074252821
276.855,83.70604717208444,81.14152516438942,83.20838440660187,82.00610350927654,79.55931690913445,82.1653981827484
287.109,83.80754457986134,81.26721551421387,83.3910227647101,82.14573013260961,79.5701897324776,82.28903950262412
297.363,84.07416852981272,82.10130783783451,83.93578577627508,82.59508723072224,79.72577155059463,82.74569902118942
307.617,83.89511343283597,82.1458171130501,83.78591982859426,82.55508216394905,79.49996699313152,82.63600499004858
319.336,83.8176058992506,81.9931966520081,83.67268263703848,82.3597699574548,79.2184755639662,82.49325889456561
329.59,83.49993747411759,81.86991450391312,83.35426594147677,82.26638413615537,79.15487432958264,82.27885298315361
341.309,83.7839342630747,81.7528234279503,83.58825655937376,82.1803089204257,78.8751478738272,82.35314409906954
353.027,83.76898961425688,81.84167485367855,83.66918417130071,82.51850928039825,78.8673783597767,82.45210888411263
366.211,84.28231956047264,82.02040269097573,84.23581662715188,82.72963192509202,78.5136279539227,82.79211066024702
379.395,83.84416400064751,81.98310181764931,83.7428062299251,82.78080536470475,78.94654281516489,82.57736507348574
392.578,83.28080928143558,81.53627116269382,83.37348136620041,82.30625769031164,78.67192219556996,82.12964307227742
405.762,83.01858220750343,81.22056095088492,83.26289145045237,81.88090666175417,78.13383174407177,81.84170431650263
420.41,83.13651845872742,81.56409711738397,83.23721793812717,82.4024272308825,78.0415140284024,82.02792599492487
435.059,82.72311382259227,80.92838899634862,82.87327829976229,81.73892643016119,77.6505057707309,81.53683288320117
451.172,82.8961461544292,80.52574902445508,83.05790301943497,82.19528893616068,77.83473682487197,81.68145803214946
465.82,82.29844578696661,80.49054999438447,82.74955932344925,81.77228128931527,77.33095280152631,81.30042749068915
483.398,82.3460061926717,80.18889682591582,82.45881518457357,81.10412686132126,76.95562848680581,81.00911119534565
499.512,82.39940652526771,79.98442744703577,82.4258109419818,80.74046131628884,76.702880496639,80.88921286312082
517.09,81.7886187139373,79.20519188307105,82.00157232402738,80.79727273182688,76.67207588570967,80.48758109254622
536.133,81.90816267113614,78.45735658250202,82.34325094403437,80.43206789044012,76.43605229152655,80.4239897802069
555.176,82.52787334414862,78.24520419519443,82.4923871353222,80.21232534126548,75.59281455948992,80.52700315955651
574.219,82.57324379658512,78.9857819331788,82.85391711596843,80.75110927414096,76.04348419805314,80.87812623742471
594.727,82.5029941891179,78.9162170862641,82.79978592763821,80.65566637242271,76.60661566226466,80.85274431384995
615.234,83.0698664198303,78.91067866436481,83.2742828101155,80.53019875232353,76.69479676026545,81.15819491409951
637.207,83.87614964460865,79.21904670338643,84.4444281108268,80.91049708868876,76.73454697503614,81.91112750659144
659.18,83.08329567489201,79.11575082888596,83.92123724639305,80.96120000542774,75.94231076546046,81.43452485335449
682.617,83.23526804313529,79.06382116813631,83.89674529508065,80.21723393308747,76.91057801657317,81.40354319177641
707.52,83.71984787571203,79.57485785412862,84.51365585043007,81.05448825411763,75.65745521287559,81.89305283094701
732.422,83.19365306964586,78.72427970639326,83.84505774435151,80.74369316777246,75.61485309527082,81.33964108706083
757.324,83.13880664334994,78.46202885547986,84.04214319087737,80.80072827592524,75.03804750721713,81.34795471538037
785.156,82.34902281172559,77.07151125960426,83.55098058066334,80.81055689923785,75.2096249823066,80.81292711118813
811.523,82.31624333302543,76.75007615897806,83.11248155997944,80.28075671262927,74.62347066564405,80.47829871838096
840.82,81.54834314364881,76.40600411518014,83.29535670463059,80.52456050613283,73.92269083531339,80.31512252003957
870.117,81.74040160938091,75.60563107673995,83.28545397064498,80.20542919057911,74.21818776983928,80.25294714086839
900.879,81.52969364879324,74.95846404970925,83.7622276960162,81.10211655298252,74.05872005054341,80.53615525161243
933.105,81.59923805658853,74.68989026751576,84.18922846055204,81.06681004294822,74.25243089173402,80.72473180714539
965.332,81.26559325381389,75.21187072372845,84.015834341887,81.01549463294243,74.10457965978166,80.57829804250736
1000.49,80.99519511883571,74.91764871032838,83.8781643418729,80.42887209583,73.97839802678725,80.30515000446682
1035.64,80.78058903291014,75.84498588969089,83.65846716262871,80.28909305233664,72.67730403655581,80.13430309250077
1072.27,80.17610160881992,75.50879410744791,83.36311103864209,79.9209710241754,72.54666898286366,79.7569726163953
1108.89,79.65043600455031,76.09172510231778,83.79068644482341,79.95965531031682,72.88796232595175,79.91948795608417
1148.44,79.63605056649938,75.55881724553947,84.08548390102119,80.11052313586974,72.45545800538864,80.03707930073708
1189.45,79.41192706687137,75.49156968713272,84.16334621182922,80.16079841235543,72.72123803651581,80.05222325895862
1230.47,79.69722885134168,76.72296328298444,84.37159301560301,80.4663478357803,72.5068900686275,80.35878947867957
1274.41,79.83367812538026,76.87216846516445,84.17142293418614,80.02558881723331,72.87433810946634,80.22167606504318
1319.82,79.86863082586224,77.41646325797952,83.82443309099997,79.5571726887852,71.89938609405606,79.99314997941893
1366.7,79.85432237176384,77.08929868821897,82.98110900688694,78.75335856114698,70.58696221916671,79.3753391403366
1413.57,79.89589356300566,76.28462892243869,83.09685745056719,78.56497446010879,71.03036797930135,79.33187527761454
1463.38,79.74923785787558,77.56210826884232,83.68146228834748,78.9954345975208,70.07173191341785,79.77150807792812
1516.11,79.38547384509228,78.46247809136605,84.26884616201168,79.48481318967188,70.55432767690574,80.2068947326216
1568.85,79.94847584948516,77.86882709121775,83.74292537534772,78.80368977307326,70.50039900110646,79.85816100027189
1624.51,80.14753141449128,76.7015267719383,82.76654584782442,77.77264156159083,69.50190081958043,79.11821331026985
1681.64,80.10983094591134,77.21963101525996,82.72480101645026,77.858373046486,68.26827251341561,79.14171492475903
1741.7,79.88104227878472,77.67374142727222,83.02110810295876,77.88744626621151,68.52154943596706,79.29339243998011
1803.22,79.78888343355331,77.25234346652958,83.1084043327529,78.16599647956049,69.41802336838971,79.31703360078772
1866.21,80.11867155909782,77.44452813079802,82.43520487514695,77.46166964459697,68.01102191269607,78.98232189126566
1932.13,80.03521291423236,78.039599799762,82.17592841506747,77.06365929990714,67.85408053452612,78.88167182394376
1999.51,80.0767435299001,77.08933364296512,82.57967422657764,77.47324050976518,67.67461503769951,78.98512775124853
2069.82,79.96059159413028,77.56094595046113,82.84002686412293,77.5860248817966,67.66194263637473,79.1553921449405
2143.07,80.25386690802453,77.67659625571592,82.34085718191595,77.19665425038558,67.10249976256912,78.96073043365978
2219.24,80.40952865419219,77.38408921596653,82.23078456936273,77.06089933246615,67.15179473563724,78.89635167882442
2296.88,80.04466462199069,77.38687214748516,82.99304460314598,77.60037120710525,67.21040318115315,79.22038430870573
2378.91,80.72135317290228,77.80500326053854,82.88771395879489,77.25119383949456,66.86444998966991,79.35294396236249
2462.4,80.59832621829491,77.51157310405027,81.8598689022356,76.32512643703913,66.18190785038506,78.71186572716435
2548.83,80.23082891906957,78.07637648667638,82.74978736509225,76.84051132357462,66.22040012462834,79.14374433690816
2639.65,80.25385627865022,77.97715709109404,83.0931061573333,77.24199076021456,66.28633278922605,79.34374387128206
2731.93,80.3562655131672,78.09239436046047,82.28329890501506,76.42777860703191,66.0315416922853,78.92223708487732
2828.61,80.55211690358894,78.21288305469365,82.37200576957484,76.4746196897414,65.66160612869463,79.03715234277787
2928.22,81.08807770422298,77.82889910908332,82.96361348978222,77.03299707599096,66.0777626355301,79.46005490517896
3030.76,81.11903882265594,77.53758848421506,82.76313392007994,76.98436419635891,65.80330557660336,79.33277397470998
3137.7,81.0187223370125,77.16903948624612,82.40455373684075,76.60482229441433,64.85312038503965,79.04524574915082
3249.02,80.84220562666835,76.92724514232346,82.7132271332414,76.52325856831473,64.79321776723741,79.08899597551402
3363.28,80.99751600592734,77.011788713697,82.57656360389639,76.364175441607,64.48419100885891,79.06515381728747
3481.93,80.81193882463913,76.86235718974412,82.47989353136849,76.0269078096366,64.60189576134837,78.91049465439339
3604.98,80.83574047216962,76.982804278555,82.25172293261495,75.36064538978565,63.55661316086163,78.75890402672711
3732.42,80.61438925382687,76.67498355889614,82.842904811557,75.90935456982385,63.72533695968784,78.98160515705199
3864.26,80.7004090427619,76.90619862945617,82.27573891031689,75.13708216035609,63.7153881609773,78.69720171813057
4000.49,80.6749841962504,76.72266725802837,82.53784999958275,75.47956068580831,63.71579182768707,78.81824178676301
4141.11,80.69435190110048,76.73088026443865,81.99346649403168,76.1305813288216,64.51636999550497,78.65163613179178
4287.6,80.56681931253387,76.78374740172352,82.57016231544121,76.36971768257389,64.210676199988,78.90236423592724
4438.48,80.49225166732832,77.08500799759331,82.36187703235011,76.73917937401244,64.14884093532942,78.8668175961718
4595.21,80.55517635621548,77.05526109134176,82.7689136846244,76.86690669320579,63.52796096521685,79.07887611668869
4756.35,80.94773849537043,76.83997162443816,83.1062720958124,76.36457765076626,63.06495842669686,79.26839685410094
4924.8,81.02741653196745,76.98042383330636,83.15289208094265,76.47525804634938,62.174262195833634,79.33814256979873
5097.66,81.07186699405112,77.40894792781468,83.63800880794079,76.4143327306912,61.88769165351104,79.63316817940955
5277.83,81.26574772858419,77.76524953772787,83.09924229177925,76.4417230165482,61.94874022538893,79.47815636892466
5463.87,81.35876969275922,77.47822247786493,83.47181353771391,76.34969692500775,61.061270902003955,79.63350059963754
5657.23,80.98934949886592,77.24505859019668,82.89437060433035,75.70836477909211,61.59574115593662,79.15941247747865
5856.45,80.78480324199963,76.8565009642893,82.44732434785014,75.66117208024046,60.72141707887927,78.83075033052914
6062.99,80.59534181813349,76.51697283006685,82.16393815758947,75.15794770505981,60.81274313798765,78.55060664915261
6276.86,80.71797284261245,76.4170515836934,82.23060623192818,75.34878174882486,60.56017556371749,78.62533891950268
6498.05,80.86450098014065,76.24822835208822,82.00865945128398,75.01663488448172,60.378784973630545,78.52258799810265
6726.56,81.1039943407594,76.31456344714196,81.98502512991652,75.214479059297,60.77124291958236,78.62258464580654
6963.87,81.23686820932083,76.40132180746691,82.35329846288174,75.6176835794888,61.07930304742794,78.87925290710078
7209.96,81.28114189858442,76.44797683144638,82.45319353931649,75.54640359450057,60.6289756297824,78.93637816974868
7464.84,81.28359744292932,76.19775839742816,82.5853795157578,75.53888544312589,60.24601247985733,78.96824221975557
7727.05,81.24790993097854,75.64545423960676,82.90323352738208,75.6065550778189,60.26295390265379,79.0583099413852
7999.51,81.3399751215493,75.65805939736214,82.68567161609404,75.48073638308294,59.901086740071335,78.97448177756094
8282.23,81.22233332743954,75.86241297535258,82.57889689822852,75.61893223429682,59.88608393822075,78.91652433622555
8573.73,81.24032809447765,76.03467344836459,82.69703168980801,75.79996715091076,60.349788243688195,79.01315900889438
8876.95,81.47644937851685,76.46171218490981,82.80466634863531,76.28033893322298,60.33348839195189,79.23308419232104
9188.96,81.63040945074391,76.42382216179111,82.85871213152177,76.09821736111387,59.51046572272024,79.2860636424568
9514.16,81.58528189739266,76.18655437358932,82.76608575961971,76.0117430703089,59.66182892000786,79.19622459005085
