Freq "Ceiling Bounce"
20.5078 39.54605642428278
21.9727 48.960455228333885
23.4375 50.14679043319707
24.9023 52.66730715192297
26.3672 54.24397880660645
27.832 56.253314791166915
29.2969 58.445933496752005
30.7617 60.156264335654285
32.2266 61.68722933596432
33.6914 63.39541409749536
35.1562 64.77045383087706
36.6211 66.44733387501712
38.0859 67.75631169305025
39.5508 69.05608197078571
41.0156 70.0443940781973
42.4805 71.20189088064147
43.9453 72.38171804352962
45.4102 73.47096557542245
46.875 74.52775642765664
48.3398 75.50994254758031
51.2695 77.13127417338156
52.7344 77.87808238860751
54.1992 78.54346206121622
55.6641 79.14505422192241
58.5938 80.14975269951675
60.0586 80.5405097725117
62.9883 81.2572573612323
64.4531 81.49342300681599
67.3828 81.89020334938766
68.8477 82.02490637303471
71.7773 82.45543550830389
74.707 82.81861273897503
77.6367 83.0132128376117
79.1016 83.17738466337649
82.0312 83.43875808285775
84.9609 83.3531775731183
87.8906 83.56005559820863
90.8203 84.08890192324091
95.2148 84.32236636606876
98.1445 84.50116156945231
101.074 84.62845612609377
105.469 84.7866977653169
108.398 84.93272770014651
112.793 85.40411714067731
117.188 85.54179489045883
120.117 85.88747364169569
124.512 86.0944313030004
128.906 86.1639893253641
133.301 86.30357415193271
139.16 86.4329463583697
143.555 86.54577064218769
147.949 86.64022686554738
153.809 86.74694440485509
159.668 86.97333393919652
165.527 87.22125562186345
171.387 87.1821195266415
177.246 87.20153957663639
183.105 87.07276952722226
188.965 87.18666902823846
196.289 87.44021203691916
203.613 87.35278393862173
210.938 87.36652712425057
218.262 87.18965924913184
225.586 87.10145235235863
232.91 86.98693599731533
241.699 86.91718979433334
250.488 86.33341121375408
259.277 86.9174381501222
268.066 86.26695114814217
276.855 86.03411800744202
287.109 86.59839800444105
297.363 86.30015401520022
307.617 86.41330277307584
319.336 86.34834781198751
329.59 86.45831246222829
341.309 86.3464254950743
353.027 86.03554789466556
366.211 86.12297932630607
379.395 86.58386545444563
392.578 86.22046613385548
405.762 85.77949909374199
420.41 86.20653662718402
435.059 86.20206731160064
451.172 85.70854811263285
465.82 86.00003979806513
483.398 85.99057950775833
499.512 85.96116039325895
517.09 86.84198913710216
536.133 85.87467916470418
555.176 85.2664525643436
574.219 85.53950686289899
594.727 85.09630287337718
615.234 85.01493224014887
637.207 84.94235774458622
659.18 84.98070664604808
682.617 84.69173605762305
707.52 84.67642767960572
732.422 84.84235046127033
757.324 84.62841256846356
785.156 85.0935641668405
811.523 85.46818040493872
840.82 85.64616545636837
870.117 85.0347176892777
900.879 84.96378317052448
933.105 84.43625661828567
965.332 84.2364221233904
1000.49 84.38448299643092
1035.64 86.63688175055294
1072.27 85.58109759329325
1108.89 85.38611619433108
1148.44 86.28103482685184
1189.45 85.45936208643205
1230.47 85.59316961458399
1274.41 84.70814262566483
1319.82 83.44651308250778
1366.7 82.94500226302902
1413.57 82.52415024098053
1463.38 81.23364283341071
1516.11 79.55448000698989
1568.85 79.70436567554626
1624.51 83.26035360495688
1681.64 82.69573457616491
1741.7 85.37350151602038
1803.22 84.69692808270543
1866.21 79.86101877836877
1932.13 76.6491417052603
1999.51 77.53494616241713
2069.82 79.9325081794669
2143.07 78.8985523638394
2219.24 79.19231020945763
2296.88 81.59903080241192
2378.91 82.17357966894338
2462.4 83.30239805849087
2548.83 83.3199543177224
2639.65 82.88226899573421
2731.93 82.93620457027109
2828.61 81.1875154567358
2928.22 79.23626524868416
3030.76 79.53474191944115
3137.7 80.82721702681829
3249.02 81.73333975180857
3363.28 82.07222297941914
3481.93 81.9012288656787
3604.98 80.95626278520089
3732.42 81.36515033153091
3864.26 82.51004471359316
4000.49 83.37475484452649
4141.11 84.11119526951072
4287.6 84.46412374606896
4438.48 84.37741104368718
4595.21 84.08951354345247
4756.35 83.89395457087086
4924.8 84.4327614630242
5097.66 84.61494324856123
5277.83 84.81552378871828
5463.87 84.87818977008276
5657.23 84.55805998793625
5856.45 83.61656948012971
6062.99 83.49275124113109
6276.86 83.59628628028996
6498.05 83.78616376784807
6726.56 83.57660209057944
6963.87 83.38673015112043
7209.96 83.37447977328058
7464.84 82.75579119816575
7727.05 82.50695857678899
7999.51 81.9448788246022
8282.23 81.10167031198152
8573.73 81.24172131134067
8876.95 81.7755483749146
9188.96 82.008276239522
9514.16 81.75180347581522
9849.61 81.04001715599927
10196.8 80.29177238132199
10555.7 79.60455845515233
10927.7 78.76114114783557
11313.0 77.27993158912855
11712.9 76.20037625918563
12126.0 74.83704860992337
12553.7 74.41999941504643
12996.1 75.35336667928422
13454.6 76.44570407047486
13929.2 77.29549973303384
14419.9 76.71931012002428
14928.2 75.7911468422149
15455.6 74.64926126987926
16000.5 73.53504112687064
16564.5 72.44413318676884
17148.9 70.07689031319194
17752.4 67.14784026228769
18379.4 67.82591033420515
19026.9 69.50055254254461
19697.8 70.15686317040719
19999.5 70.21840792417903
