Freq "Rear Wall Bounce"
20.5078 34.955352818242105
21.9727 43.24473061690664
23.4375 45.9854451623231
24.9023 49.85124168307429
26.3672 52.24822150408663
27.832 54.54645249356237
29.2969 56.75112205948709
30.7617 58.55504289435869
32.2266 60.207091964605056
33.6914 62.021819864257466
35.1562 63.52031482185602
36.6211 65.20277650916793
38.0859 66.52191118067283
39.5508 67.89777251498654
41.0156 69.01955026582722
42.4805 69.96949732884293
43.9453 71.20052064638706
45.4102 72.34405027589644
46.875 73.3774132100311
48.3398 74.36859168830232
51.2695 76.01084269064812
52.7344 76.76189554985098
54.1992 77.43000294427272
55.6641 78.0260729004022
58.5938 79.0365875326864
60.0586 79.45476511378767
62.9883 80.16235769871703
64.4531 80.40036278784453
67.3828 80.80096286122078
68.8477 80.94736963143161
71.7773 81.38118286500307
74.707 81.73929454622342
77.6367 81.90211163909031
79.1016 82.02097439668441
82.0312 82.34746451774615
84.9609 82.50937417596592
87.8906 82.95559949409511
90.8203 82.97652777547249
95.2148 83.14172840994557
98.1445 83.34784987512498
101.074 83.5200268913497
105.469 83.74171127950804
108.398 83.86563267139529
112.793 84.25189574530825
117.188 84.53888252343744
120.117 84.77446676741222
124.512 84.9250492558708
128.906 84.92073319964894
133.301 85.18891211905587
139.16 85.28107235938693
143.555 85.39835499279634
147.949 85.48241656032693
153.809 85.5698568237605
159.668 85.7153591399644
165.527 85.9384918237588
171.387 85.93975503226514
177.246 85.9440195795178
183.105 85.90340862750107
188.965 85.91794738955211
196.289 85.96969671328064
203.613 85.78879569424954
210.938 85.68856664178466
218.262 85.65388534318178
225.586 85.63329214645644
232.91 85.40462880136609
241.699 85.16664901463214
250.488 84.71622978804645
259.277 84.97020273269298
268.066 84.707063797266
276.855 84.67884546487623
287.109 84.89155888238373
297.363 84.7966441025888
307.617 84.67801608233567
319.336 84.1478420175162
329.59 83.82542720729876
341.309 83.95481307409915
353.027 83.1230125629448
366.211 82.84379446042286
379.395 83.20246654476864
392.578 82.95590395679054
405.762 82.7216722760601
420.41 82.202134596074
435.059 82.34370555733888
451.172 81.94334203667037
465.82 81.55978639561162
483.398 81.51981306210605
499.512 81.17069995028744
517.09 81.86090648738667
536.133 81.59078917077528
555.176 80.94996267349356
574.219 80.87436043070544
594.727 81.0050993075496
615.234 80.2744874541559
637.207 80.75977654346991
659.18 79.75733562790691
682.617 79.8392179386285
707.52 80.12713848010974
732.422 79.70036953312605
757.324 80.00365111140272
785.156 79.90898541545947
811.523 79.7179918801531
840.82 79.40221429278535
870.117 79.02182560828808
900.879 78.4988187446076
933.105 77.35383278374066
965.332 76.18596982587587
1000.49 77.15255442976498
1035.64 78.71198903150483
1072.27 78.00303089534593
1108.89 77.34646586262515
1148.44 77.52613965895233
1189.45 76.77270312966013
1230.47 75.45306092763407
1274.41 74.96444140531788
1319.82 73.64809580631491
1366.7 72.0564867164237
1413.57 70.46171531534394
1463.38 69.79959670581063
1516.11 71.20083542337301
1568.85 70.07732047581747
1624.51 71.16750636146232
1681.64 71.22528736735042
1741.7 75.19484154061153
1803.22 72.04393057057925
1866.21 67.43533436252469
1932.13 66.6346085952464
1999.51 67.98504897270955
2069.82 69.30506648063367
2143.07 70.26025761430428
2219.24 70.78545289981324
2296.88 70.48983740678739
2378.91 69.17337689425982
2462.4 70.65573871524526
2548.83 70.97360480694674
2639.65 71.15513579012213
2731.93 70.55091260868515
2828.61 70.32543685697921
2928.22 69.63502878822096
3030.76 69.81955129359103
3137.7 70.86364473198077
3249.02 71.38435019040857
3363.28 70.65807210336492
3481.93 70.86774599883316
3604.98 71.48181714476897
3732.42 71.43663548451822
3864.26 72.6804903074817
4000.49 73.2456345963255
4141.11 73.33410267581647
4287.6 72.37019265001447
4438.48 72.35200216842625
4595.21 72.40192149535694
4756.35 71.63164342132511
4924.8 70.97082017034138
5097.66 71.0284135204888
5277.83 70.38701185160006
5463.87 69.75236106358504
5657.23 69.59968181584811
5856.45 69.75073243666526
6062.99 69.4280734163761
6276.86 69.74144144871643
6498.05 69.1567331315753
6726.56 69.43112199658027
6963.87 68.24322126467628
7209.96 68.13620216708368
7464.84 67.65555628184906
7727.05 67.6323339462249
7999.51 67.01928936751064
8282.23 67.22244793916128
8573.73 66.51003388570291
8876.95 65.07641365126973
9188.96 62.85826292144584
9514.16 62.065501437383304
9849.61 61.976402103088915
10196.8 61.884590030610795
10555.7 60.61410366520188
10927.7 59.87193476633554
11313.0 58.70468238328162
11712.9 57.842966634499234
12126.0 59.10508719528498
12553.7 59.652704583694955
12996.1 60.72926852129363
13454.6 61.28013904288868
13929.2 61.772760345080755
14419.9 62.59416856950615
14928.2 62.29755585233066
15455.6 62.169746191868924
16000.5 61.76054850027067
16564.5 60.280539178399565
17148.9 57.933792830508125
17752.4 54.95535984308749
18379.4 54.01372973158162
19026.9 54.432765687977124
19697.8 54.00408005422243
19999.5 54.077509649751065
