Freq "Estimated In-Room Response"
20.5078 62.21596518225438
21.9727 60.8906283002441
23.4375 63.08520667777425
24.9023 64.51238365999744
26.3672 66.98691043286031
27.832 69.2768712906562
29.2969 71.45014467100788
30.7617 73.21748253789644
32.2266 74.90152345260937
33.6914 76.36696576937848
35.1562 77.39081301394482
36.6211 78.26089473226845
38.0859 78.89423710480104
39.5508 79.2836035425256
41.0156 79.5237645038203
42.4805 79.72838986621638
43.9453 79.95481701405559
45.4102 79.92276486802977
48.3398 80.27946559490059
49.8047 80.31267894052047
51.2695 80.43689746563611
54.1992 80.53569298888475
55.6641 80.65286651926156
58.5938 80.51114430352744
60.0586 80.47825415225263
62.9883 80.93128878502749
64.4531 80.97284277029839
67.3828 80.89276083141947
70.3125 81.05653212441479
73.2422 80.9858681634879
76.1719 81.0828458646376
79.1016 81.22990502680084
82.0312 81.1335914536457
84.9609 81.31685004766433
87.8906 81.24588530123226
92.2852 81.20374125592802
95.2148 81.23671723907982
99.6094 81.2136410914989
102.539 81.2091730192272
106.934 81.25662385618811
111.328 81.37677085503141
115.723 81.43910546956512
120.117 81.32034891396674
124.512 81.28048889303979
130.371 81.22813802823559
134.766 81.28769027319616
140.625 81.34534707438517
146.484 81.31611572287714
150.879 81.23864572369772
158.203 81.15868509984567
164.062 81.0946448501273
169.922 81.0482671871413
177.246 80.86391473466547
183.105 81.14095691787344
190.43 81.06691660608122
197.754 80.96261335907009
206.543 80.8307509236995
213.867 80.74320481278409
222.656 80.6102640383305
231.445 80.6109228897481
240.234 80.52432083763934
250.488 80.34869419549379
259.277 80.36203824592464
269.531 80.2922264856651
281.25 80.33764971410764
291.504 80.41477979498697
303.223 80.3362912921849
314.941 80.14337180270482
326.66 79.84972697209447
339.844 79.67191006582038
353.027 79.84839920680166
367.676 80.005058344672
382.324 79.97117681259625
396.973 79.65726417485166
413.086 79.40808020621344
429.199 79.35120568630748
445.312 79.25862727595134
462.891 79.14771812821006
480.469 79.19853917822319
499.512 79.19360788795319
520.02 78.75317916897859
540.527 78.53846187886883
561.035 78.76096944686711
583.008 78.85218351133454
606.445 78.42894014142551
629.883 78.35610722797699
654.785 78.39884807393297
679.688 78.08552882872705
707.52 77.95662141431326
735.352 78.18342358473514
763.184 78.2661647844244
793.945 78.37715245758001
824.707 78.01266578964042
856.934 78.14204820772188
890.625 78.33002417716641
925.781 77.98276904654765
962.402 78.1708115626722
1000.49 77.61655283871237
1038.57 77.42428230604777
1079.59 77.53222494215589
1122.07 77.3525976549464
1166.02 77.31942651235472
1212.89 77.01606435409059
1259.77 77.00444581732253
1309.57 76.79574977213751
1360.84 76.94518047857791
1413.57 77.1572407072899
1469.24 76.97066189193903
1527.83 76.62962427880653
1587.89 76.38420236589393
1649.41 77.19403652401022
1713.87 77.33374052184496
1781.25 77.16775740310081
1851.56 76.88715695749958
1924.8 76.76283419105373
1999.51 77.05044571297097
2078.61 76.7081805109163
2160.64 76.63429059109298
2245.61 77.13525061151897
2333.5 76.70609532237849
2424.32 76.6389593478736
2519.53 76.97170047423448
2619.14 76.59268173704899
2721.68 76.82763930128705
2828.61 76.62254967602878
2939.94 76.48318822920419
3054.2 76.31355409258839
3174.32 76.1252236936251
3298.83 76.02628770535583
3429.2 75.94732351735514
3563.96 76.13391126873559
3703.12 76.25689197749581
3849.61 76.30690914633242
4000.49 76.12627389096002
4157.23 75.99304703845897
4319.82 75.7913149257926
4489.75 75.29475164641828
4665.53 75.31033645653028
4848.63 75.59276308860446
5039.06 75.47757704767386
5236.82 75.67851932295558
5443.36 75.50976416935843
5657.23 75.04584103341644
5878.42 75.24616474135642
6109.86 75.59796004107447
6350.1 75.33128620746788
6599.12 74.94859404400201
6858.4 75.158515764596
7126.46 75.15285843453637
7407.71 75.04709889886526
7697.75 75.17949462858166
7999.51 75.1655877832374
8314.45 75.17834639607182
8641.11 75.01742863892221
8979.49 74.8478716119263
9332.52 74.73314335064968
9698.73 74.45407136514787
10079.6 74.72352018651823
10475.1 74.25630302221951
10886.7 74.3257743681055
11313.0 74.26413403531335
11758.3 74.0188476969579
12219.7 74.35646049338817
12698.7 73.97622539502557
13198.2 74.26954488061378
13715.3 74.11073257933496
14254.4 74.1576063031673
14814.0 73.90346197461217
15395.5 73.94282107621638
16000.5 73.67133617008247
16627.4 73.37641162941235
17280.8 72.0828972096115
17959.0 70.89287518395354
18665.0 69.95088202266119
19397.5 69.80944486767338
19999.5 69.52822178592247
