Freq "Listening Window"
22.4 29.66950000850929
23.0 31.648085384378305
23.6 33.71933688768095
24.0 36.880547523281194
25.0 39.53384370232098
25.8 41.68951489542681
26.5 43.67849019712909
27.2 46.55583957685775
28.0 49.03358982687996
29.0 51.03358982687996
30.0 53.23358982687998
30.7 56.022422059205184
31.5 58.25583957685777
32.5 60.2447289505772
33.5 62.95583957685777
34.5 65.21122549985841
35.5 67.2
36.5 69.61122549985842
37.5 71.71122549985841
38.7 73.57797591781377
40.0 75.52293110248064
41.2 77.16743157327173
42.5 78.7114806859839
43.7 80.02267658830112
45.0 81.08925841531061
46.2 81.97823306508388
47.5 82.6452412839341
48.7 83.03410347591829
50.0 83.30102925400232
51.5 83.36795897349256
53.0 83.3229370306997
54.5 83.15609803813524
56.0 82.87901040403636
58.0 82.56821084780401
60.0 82.15789521213452
61.5 81.68234644179788
63.0 81.18414624982749
65.0 80.94181132087837
67.0 81.24592320123145
69.0 82.0329578588278
71.0 82.94074830936202
73.0 83.75010412124858
75.0 84.20460401773215
77.5 84.35965703905293
80.0 84.34855618724367
82.5 84.29155492536354
85.0 84.13768053944418
87.5 83.81531356459266
90.0 83.34960401101912
92.5 82.73768053944417
95.0 82.19359480348793
97.5 81.63920401851169
100.0 81.01702469738012
103.0 80.36368041256779
106.0 79.76368041256778
109.0 79.16510943768452
112.0 78.58878046826534
115.0 78.05402253161212
118.0 77.53070539154226
122.0 77.04041520673971
125.0 76.6497929179591
128.0 76.40353485787529
132.0 76.35710833638908
136.0 76.33410347591828
140.0 76.38951489542683
145.0 76.4784843442585
150.0 76.62369469045713
155.0 76.81275652700279
160.0 76.94651917646058
165.0 77.22447592572395
170.0 77.40228488204563
175.0 77.53664206983703
180.0 77.72522186844651
185.0 77.8361518267824
190.0 77.83795231520773
195.0 77.73897879334305
200.0 77.61837449687582
206.0 77.5775630813469
212.0 77.569783899643
218.0 77.55112956106132
224.0 77.48463714350893
230.0 77.41524768026152
236.0 77.26831105284745
240.0 77.11366266358134
250.0 76.9447930556894
258.0 76.8019140094568
265.0 76.67614440941225
272.0 76.58667919734995
280.0 76.52794014909546
290.0 76.7162301074327
300.0 77.08275027090221
307.0 77.68125995325792
315.0 78.26743157327174
325.0 78.65862969143629
335.0 78.62906054173928
345.0 78.45656141425357
355.0 78.15511370294489
365.0 78.11312649982156
375.0 78.1708299010879
387.0 78.08786235095072
400.0 77.88688959564254
412.0 77.79160025715696
425.0 78.0650112729935
437.0 78.57844281857118
450.0 79.05839436855935
462.0 79.43536100122721
475.0 79.72571873171363
487.0 80.14599506285657
500.0 80.7137654781959
515.0 81.18376621645623
530.0 81.18769422433276
545.0 80.65208614415207
560.0 80.1895236935075
580.0 80.30371674939728
600.0 80.28970956650863
615.0 79.85388367813448
630.0 79.58370500638452
650.0 79.85548126512738
670.0 79.67996344562913
690.0 78.99635535186987
710.0 78.87724337872888
730.0 79.15638933163012
750.0 78.79203012971587
775.0 78.5203193378134
800.0 78.86436835278045
825.0 78.94565950724201
850.0 79.24447965394428
875.0 79.25973330625553
900.0 79.2548274597998
925.0 80.07999922248237
950.0 80.30199701043242
975.0 79.86082806971547
1000.0 79.34062150056917
1030.0 79.00461883855053
1060.0 78.56260092926752
1090.0 78.20664997028334
1120.0 78.05844589321715
1150.0 78.24734292944095
1180.0 77.85189926354883
1220.0 77.71199116802148
1250.0 77.12783585984731
1280.0 76.82187676600932
1320.0 76.84849106419867
1360.0 76.88064060378652
1400.0 77.05611425992545
1450.0 77.50447755694408
1500.0 77.81140108516821
1550.0 78.16982908234765
1600.0 78.27116525547595
1650.0 78.2589527942251
1700.0 78.01184435225667
1750.0 77.67245704829149
1800.0 77.33852253272288
1850.0 77.42971246010116
1900.0 77.47065238417545
1950.0 78.0315156189196
2000.0 78.49318979199977
2060.0 78.63091753844914
2120.0 78.91666692828247
2180.0 78.72756455913918
2240.0 78.79938630773091
2300.0 79.2169524308515
2360.0 79.18405221255784
2400.0 79.5648984775232
2500.0 80.11481475860712
2580.0 80.69330477139061
2650.0 80.75009867450937
2720.0 80.89078308158346
2800.0 80.941404140664
2900.0 80.79157726833137
3000.0 80.27229649663583
3070.0 79.88199187373083
3150.0 79.56695838350825
3250.0 79.08004727224923
3350.0 78.24763600161488
3450.0 77.9819667892763
3550.0 77.69136644757617
3650.0 77.37248449616305
3750.0 76.84341031319734
3870.0 76.46359675173684
4000.0 76.3660611024384
4120.0 76.41714827437973
4250.0 76.56379778794044
4370.0 76.84423982635373
4500.0 76.76424769003349
4620.0 76.84189012105607
4750.0 77.11372257910058
4870.0 77.05139671373499
5000.0 76.69340210246148
5150.0 76.35500685860856
5300.0 76.04700671240751
5450.0 75.720368325365
5600.0 75.47390846473843
5800.0 75.31853813333225
6000.0 74.87283642447595
6150.0 75.30628778261503
6300.0 75.87142825487773
6500.0 75.73819354072201
6700.0 75.47849717061021
6900.0 75.41402035655591
7100.0 74.89365532544853
7300.0 74.5665983680224
7500.0 74.62063753362457
7750.0 74.8113574797823
8000.0 74.88371889356875
8250.0 74.49431056913191
8500.0 74.50841315895883
8750.0 75.14873419845898
9000.0 76.04286757945594
9250.0 76.09649956375185
9500.0 75.22131681866583
9750.0 73.70878314860815
10000.0 72.36071978532875
10300.0 70.95207332463836
10600.0 70.38399271940706
10900.0 71.0913329146223
11200.0 71.77369827389737
11500.0 71.49225076479925
11800.0 71.65150216501169
12200.0 73.3570924660608
12500.0 75.18676660134733
12800.0 75.591862930836
13200.0 76.01041666765167
13600.0 76.96195639198086
14000.0 77.55837666738503
14500.0 78.39474202555785
15000.0 79.33606818231597
15500.0 79.49829209085019
16000.0 78.81580564218078
16500.0 79.04400637001721
17000.0 80.32454341603082
17500.0 80.80534972409018
18000.0 80.22048904633179
18500.0 79.61796621827315
19000.0 78.11945638852697
19500.0 76.80621986769681
