Freq,On Axis,Listening Window,Sound Power,Early Reflections,Early Reflections DI,Sound Power DI,DI offset
20.5078,55.13789999999999,54.96005708711344,56.83376723376004,55.86000322339724,39.1000538637162,38.1262898533534,40
21.9727,56.3729,56.16176556024298,58.00076294777263,57.030840522166486,39.1309250380765,38.161002612470355,40
23.4375,57.6195,57.406183303875295,59.33206780731642,58.32705550250283,39.079127801372465,38.074115496558875,40
24.9023,58.596699999999984,58.401048045146965,61.00039767401263,59.76947709958007,38.63157094556689,37.40065037113433,40
26.3672,60.51979999999999,60.356125153793826,62.742499987679636,61.5923916871302,38.76373346666362,37.61362516611419,40
27.832,62.1803,62.047868107721825,64.37411145798792,63.25904064726937,38.78882746045245,37.6737566497339,40
29.2969,62.8043,62.70061445386902,65.71164377283655,64.37149707330418,38.32911738056484,36.98897068103247,40
30.7617,64.7546,64.69611591029006,67.38218938640588,66.17629270472126,38.5198232055688,37.31392652388418,40
32.2266,66.74740000000001,66.71111964713714,69.07325914775892,67.997187316541,38.71393233059614,37.63786049937822,40
33.6914,68.5403,68.51126023186002,70.53653002637155,69.59132412151224,38.91993611034778,37.97473020548847,40
35.1562,70.0611,70.04190371109193,71.90510835077474,71.02834626047137,39.01355745062057,38.136795360317194,40
36.6211,71.3993,71.39005837873873,73.15695534898597,72.3249561786174,39.06510220012133,38.233103029752755,40
38.0859,72.8473,72.84498757930936,74.43322353394552,73.67758060399079,39.16740697531857,38.41176404536384,40
39.5508,74.0093,74.01294884370724,75.50060223158461,74.79006900769028,39.22287983601696,38.51234661212263,40
41.0156,75.145,75.15414781421481,76.54401607824305,75.87806193683105,39.276085877383764,38.61013173597176,40
42.4805,76.11970000000001,76.13272464075074,77.42786946007404,76.80495407123465,39.32777056951609,38.7048551806767,40
43.9453,77.0263,77.04282966328901,78.25285549263273,77.66928648123276,39.37354318205625,38.78997417065628,40
45.4102,77.7838,77.80303141086114,78.93892754248253,78.38951351688702,39.41351789397412,38.864103868378606,40
46.875,78.411,78.43255243313781,79.50411643871993,78.9845493649575,39.44800306818031,38.92843599441788,40
48.3398,78.9937,79.01797723166074,80.04141215114721,79.54466209454753,39.473315137113204,38.976565080513524,40
51.2695,79.9238,79.95024246937601,80.84388318684023,80.40659666358158,39.54364580579443,39.10635928253578,40
52.7344,80.3285,80.35567072714262,81.18995566396015,80.78097500947982,39.574695717662806,39.165715063182475,40
54.1992,80.6524,80.67992804793998,81.46402987324214,81.07812439905653,39.60180364888345,39.21589817469784,40
55.6641,80.9128,80.94185668287847,81.7071998019067,81.33095995431131,39.610896728567155,39.23465688097177,40
58.5938,81.458,81.48795775161338,82.16288704123662,81.82963210312298,39.658325648490404,39.325070710376764,40
60.0586,81.69100000000002,81.72053282936818,82.34540889001093,82.03574654114853,39.684786288219655,39.37512393935725,40
62.9883,82.11829999999999,82.14793153932816,82.70324537624336,82.4269492311669,39.720982308161254,39.444686163084796,40
64.4531,82.3098,82.33926433215042,82.85874210327171,82.59947447556287,39.73978985658755,39.48052222887871,40
67.3828,82.6472,82.6762202566859,83.13244461824165,82.90283262589116,39.77338763079473,39.543775638444245,40
68.8477,82.7908,82.8202009593512,83.25898814067833,83.03751397931653,39.78268698003467,39.56121281867287,40
71.7773,83.0534,83.08194147289893,83.45849889100992,83.2666572684993,39.81528420439963,39.62344258188901,40
74.707,83.3281,83.35595039975398,83.68327657307485,83.51466986132596,39.84128053842802,39.67267382667913,40
77.6367,83.54289999999999,83.570046060855,83.85257336027058,83.70558233551655,39.86446372533845,39.71747270058442,40
79.1016,83.6183,83.64518942180858,83.90870949524789,83.77088114511132,39.87430827669726,39.73647992656069,40
82.0312,83.7832,83.80939920752914,84.03596061672702,83.91565483362473,39.89374437390441,39.773438590802115,40
84.9609,83.9323,83.9580571482342,84.15883716376354,84.05039409835472,39.90766304987949,39.79921998447067,40
87.8906,84.0284,84.05282061447538,84.21827257970308,84.12594687253004,39.92687374194534,39.8345480347723,40
90.8203,84.22249999999998,84.24375846542819,84.34006033007375,84.28319273007756,39.96056573535063,39.90369813535443,40
95.2148,84.4344,84.45496376021724,84.517399015447,84.47702458463016,39.97793917558708,39.93756474477024,40
98.1445,84.4966,84.51607051127523,84.55257056752053,84.5244828334044,39.991587677870825,39.9634999437547,40
101.074,84.5228,84.54138966321516,84.55723369103485,84.53923182175988,40.00215784145527,39.984155972180304,40
105.469,84.5665,84.5821629255905,84.54582021234883,84.55303666647374,40.02912625911675,40.036342713241666,40
108.398,84.6064,84.62100359968197,84.56454682163213,84.58081850558094,40.040185094101034,40.056456778049835,40
112.793,84.58410000000002,84.59680626338707,84.51577153314273,84.54162707973384,40.05517918365322,40.08103473024434,40
117.188,84.502,84.51117732716509,84.37581862830181,84.42460177642185,40.086575550743234,40.13535869886327,40
120.117,84.5451,84.55158076964766,84.3695500332965,84.44029927300636,40.1112814966413,40.18203073635115,40
124.512,84.6113,84.61732346629947,84.43484995106586,84.50762433898743,40.10969912731204,40.18247351523361,40
128.906,84.5347,84.53937624413062,84.35413245353298,84.4296888516099,40.109687392520726,40.18524379059764,40
133.301,84.4244,84.42445325735942,84.17224238503557,84.27956522502801,40.14488803233141,40.25221087232384,40
139.16,84.4044,84.39867136176606,84.06888228889541,84.21089231856288,40.18777904320318,40.32978907287065,40
143.555,84.4228,84.41297215410492,84.0293826596223,84.19444589598518,40.21852625811974,40.38358949448262,40
147.949,84.6244,84.6100469898131,84.19007539767901,84.36984401030276,40.24020297951034,40.41997159213409,40
153.809,84.7143,84.69959783434496,84.2749118938069,84.46391491286685,40.2356829214781,40.424685940538055,40
159.668,84.45870000000001,84.44142637301734,83.989871423803,84.19359395167238,40.24783242134495,40.45155494921434,40
165.527,84.4024,84.3782060337478,83.79997066790015,84.06941809830813,40.30878793543967,40.57823536584765,40
171.387,84.3472,84.32298770374399,83.71954054241213,84.00387691068023,40.31911079306376,40.60344716133186,40
177.246,84.1564,84.13097952099399,83.56263834155305,83.82887046356682,40.302109057427174,40.568341179440935,40
183.105,84.0353,84.00224444215897,83.32799250589693,83.64721207545752,40.35503236670145,40.67425193626204,40
188.965,84.0711,84.03143837495328,83.24031171085129,83.62338368691735,40.40805468803593,40.791126664101995,40
196.289,83.8738,83.834429536712,83.06380630385459,83.43098937595241,40.40344016075959,40.7706232328574,40
203.613,83.7334,83.68968203006365,82.89252687317568,83.26515033276765,40.424531697296004,40.79715515688797,40
210.938,83.6599,83.60713804957766,82.72568633469182,83.13633057481674,40.47080747476092,40.88145171488584,40
218.262,83.4161,83.3621881598935,82.49051605927693,82.90133586794067,40.46085229195283,40.87167210061658,40
225.586,83.0921,83.02619238048864,82.1697766052132,82.5593890711488,40.46680330933984,40.85641577527544,40
232.91,83.01279999999998,82.93098158943434,81.86340344696038,82.36094818724331,40.57003340219103,41.06757814247396,40
241.699,82.8644,82.75955861886935,81.30252329473429,81.99433167614362,40.76522694272573,41.45703532413506,40
250.488,83.7953,83.68047502319766,81.33337813021295,82.51532834678757,41.16514667641009,42.34709689298471,40
259.277,84.2924,84.22738304753528,82.54343194928848,83.41694211252337,40.81044093501191,41.68395109824681,40
268.066,83.4619,83.39249592089156,82.06099207919046,82.73067292837989,40.661822992511674,41.33150384170111,40
276.855,83.2243,83.13584622474895,81.79122715455979,82.45850497010287,40.67734125464608,41.344619070189154,40
287.109,83.42450000000001,83.32316387146126,81.41060207854242,82.40182863780998,40.92133523365128,41.91256179291884,40
297.363,83.0385,82.96542384970847,81.29450519101418,82.17624991340158,40.789173936306895,41.67091865869429,40
307.617,82.8903,82.79084595795828,81.19199006889505,82.02441347364737,40.76643248431091,41.59885588906323,40
319.336,82.6474,82.54739590201157,80.52219263747136,81.60990356136945,40.93749234064212,42.02520326454021,40
329.59,82.7927,82.68452146994711,80.68514542174417,81.7304826665869,40.95403880336022,41.99937604820295,40
341.309,82.5939,82.50869806848993,80.83882835513205,81.74358402432829,40.76511404416165,41.66986971335788,40
353.027,82.07439999999998,81.94695253332517,80.51392008858751,81.21772452266718,40.72922801065799,41.43303244473766,40
366.211,82.3849,82.20412189300835,79.91818845794131,81.04510304397542,41.15901884903293,42.28593343506704,40
379.395,82.7752,82.61964935474414,80.00005490954148,81.36649902783923,41.253150326904915,42.619594445202665,40
392.578,83.1821,83.02610754221153,80.4583828400959,81.86417216975197,41.16193537245957,42.56772470211564,40
405.762,82.9284,82.74682876339126,80.36287230800225,81.59146934957204,41.15535941381923,42.38395645538901,40
420.41,82.6076,82.43023401491003,80.00188784276892,81.24685594914885,41.183378065761175,42.428346172141104,40
435.059,82.421,82.16373267329138,79.81441779371727,80.93354520016354,41.23018747312784,42.34931487957411,40
451.172,82.4511,82.11798118508722,79.17149789331827,80.52543454014194,41.59254664494527,42.94648329176894,40
465.82,83.7,83.37678818379489,79.4242387902405,81.40062524837641,41.97616293541847,43.95254939355439,40
483.398,84.5629,84.3024311565407,79.94393459494161,82.27294332231087,42.02948783422984,44.3584965615991,40
499.512,83.892,83.65131095016598,80.07583101341628,81.90451018110798,41.746800769058,43.5754799367497,40
517.09,83.8677,83.5957912931555,79.74204415200809,81.66050054612303,41.93529074703247,43.85374714114741,40
536.133,84.0087,83.7670443326466,79.45743081386033,81.65176454411643,42.115279788530174,44.30961351878628,40
555.176,83.514,83.38137602807276,79.62248918941816,81.60248137897857,41.7788946490942,43.758886838654604,40
574.219,83.0205,82.91427398938573,79.25709517311094,81.11223047972346,41.80204350966227,43.657178816274794,40
594.727,82.334,82.3496361534849,79.70776028258695,81.36864564580573,40.98099050767917,42.64187587089795,40
615.234,81.2725,81.0597834140697,79.44900662784707,80.61888253655644,40.44090087751326,41.61077678622263,40
637.207,83.5516,82.9694531201553,79.95693773715014,81.65568215645514,41.31377096370015,43.01251538300515,40
659.18,85.1642,84.56631107708935,80.65232022260983,82.59771563283836,41.968595444250994,43.91399085447952,40
682.617,85.4068,84.97976571187064,80.73123352621543,82.56152683862061,42.41823887325003,44.24853218565521,40
707.52,85.09059999999998,84.85676550247507,80.42655521577491,82.05390263900806,42.80286286346701,44.43021028670016,40
732.422,84.3402,84.32291275174953,80.37797494592365,81.88587577056285,42.43703698118668,43.94493780582587,40
757.324,84.5568,84.42272673845818,80.0719900733601,81.94838456779547,42.47434217066271,44.35073666509808,40
785.156,83.76269999999998,83.55751802969883,79.8888339892416,81.55893621952559,41.998581810173235,43.66868404045722,40
811.523,83.71299999999998,83.41534653117816,79.38917264779856,81.38113423366134,42.03421229751682,44.0261738833796,40
840.82,84.7829,84.35565866348927,79.4703659129481,82.00777898919921,42.347879674290056,44.88529275054117,40
870.117,85.42980000000001,85.01593231596304,79.4524641563534,82.25663462592469,42.75929769003835,45.56346815960964,40
900.879,85.0552,84.6258222978053,79.28024763402452,81.92285887497735,42.70296342282795,45.34557466378078,40
933.105,85.2589,84.84965582758281,79.34154991150483,81.9516772976132,42.897978529969606,45.50810591607798,40
965.332,85.5848,85.12415952859672,79.62374311040345,82.3564435044789,42.76771602411782,45.50041641819327,40
1000.49,85.82780000000001,85.38615828711397,79.52938455004558,82.37689483208429,43.00926345502968,45.856773737068394,40
1035.64,85.1033,84.569908174044,78.90531052749436,81.70084724469947,42.86906092934453,45.66459764654964,40
1072.27,84.5758,84.02482490168498,77.86906642791602,81.0901436707483,42.934681230936675,46.155758473768955,40
1108.89,83.0272,82.42109008243419,76.13210398846309,79.4852612562598,42.93582882617439,46.288986093971104,40
1148.44,82.12769999999999,81.50026013458638,74.83595491211598,77.96918371391689,43.53107642066949,46.664305222470404,40
1189.45,80.4885,79.98105518107448,73.56179688703979,76.60266626321591,43.37838891785857,46.41925829403469,40
1230.47,81.0909,80.64604659095612,73.95776969145726,77.16193379774995,43.484112793206165,46.68827689949886,40
1274.41,81.2719,80.89982969030707,74.34132508005436,77.42725378256675,43.47257590774032,46.55850461025271,40
1319.82,81.80579999999999,81.36047447678958,74.54729927955565,77.63922394331682,43.721250533472755,46.81317519723393,40
1366.7,81.2881,81.01902056941154,74.55525294751001,77.39852738988068,43.620493179530854,46.463767621901525,40
1413.57,81.3496,80.83030431293064,74.55424082569627,77.32860699626123,43.50169731666941,46.27606348723437,40
1463.38,82.8739,82.26773959298984,75.25564140159868,78.25092992993375,44.016809663056094,47.01209819139116,40
1516.11,83.0228,82.56686480386075,75.75934480054319,78.69160484012106,43.875259963739694,46.80752000331756,40
1568.85,83.58120000000001,82.99198995988529,76.07177725547058,78.98371987626666,44.008270083618626,46.92021270441471,40
1624.51,83.0966,82.43301879997135,75.38155612310014,78.19776277674886,44.23525602322249,47.05146267687121,40
1681.64,83.6664,82.88760856991536,75.55364812913679,78.3683770556887,44.51923151422666,47.33396044077857,40
1741.7,83.8233,83.03876814822813,75.61976892844305,78.5735345174693,44.46523363075883,47.41899921978508,40
1803.22,84.4439,83.61984269201001,76.18868178632194,79.0630808318871,44.556761860122904,47.431160905688074,40
1866.21,83.7498,83.13978714846164,76.18191216896572,78.72095638479377,44.41883076366787,46.95787497949591,40
1932.13,83.2177,82.71345067095174,76.05407405113408,78.37635316177149,44.33709750918025,46.659376619817664,40
1999.51,83.3661,82.93884727093406,76.55360500776459,78.73995956301441,44.19888770791965,46.385242263169474,40
2069.82,84.1465,83.66127806912812,76.90016312519947,79.27274236665421,44.3885357024739,46.761114943928646,40
2143.07,84.082,83.24358816472159,77.09386030409526,78.98794906130958,44.25563910341201,46.14972786062633,40
2219.24,83.586,82.99326363045185,77.13152465983863,79.03434413891166,43.958919491540186,45.86173897061322,40
2296.88,84.4824,84.05609174253316,78.10801641743414,80.18064536749434,43.87544637503882,45.94807532509901,40
2378.91,83.9741,83.77075599861989,78.25038369844886,80.20306112529262,43.56769487332727,45.52037230017103,40
2462.4,83.4625,83.26552987606871,78.01418647691185,79.77321206838783,43.49231780768088,45.251343399156866,40
2548.83,84.3626,84.22291016414933,78.75939550765422,80.61746814644304,43.60544201770628,45.46351465649511,40
2639.65,84.5566,84.31989007759724,79.2886570176115,81.20554815650917,43.11434192108807,45.03123305998574,40
2731.93,84.8633,84.47000850219541,79.14751846471329,81.07502306548305,43.39498543671236,45.322490037482126,40
2828.61,84.7309,84.38642724365845,79.32528766470134,81.41707186066618,42.96935538299226,45.06113957895711,40
2928.22,84.3256,84.45917690145185,79.50976722809845,81.75270007326436,42.70647682818749,44.9494096733534,40
3030.76,84.7335,84.82079201335132,79.66339281697293,82.194399736887,42.62639227646433,45.15739919637839,40
3137.7,84.3102,84.30444372782415,79.26763677298051,82.04397910112885,42.260464626695295,45.03680695484364,40
3249.02,84.4458,84.28096807997139,78.97111045617433,81.87464504255415,42.40632303741724,45.30985762379706,40
3363.28,83.3946,83.58037870650399,78.86468745956675,81.58107324947618,41.999305457027816,44.71569124693724,40
3481.93,83.2768,83.26931591109951,78.4342635384888,81.15546227778871,42.1138536333108,44.835052372610704,40
3604.98,83.13949999999998,82.97653169640553,78.15959249235095,80.9109789799338,42.06555271647173,44.81693920405458,40
3732.42,83.51289999999999,82.99548228634973,78.08342085877972,80.7527074109623,42.242774875387425,44.91206142757001,40
3864.26,83.6376,82.84044255643457,77.70701037908715,80.58994260427029,42.250499952164276,45.133432177347416,40
4000.49,83.7098,82.59745428924606,77.20398160844515,80.26921384027564,42.32824044897042,45.39347268080091,40
4141.11,83.7985,82.55758053083737,76.72811704510845,79.87913408664384,42.678446444193526,45.82946348572892,40
4287.6,83.0148,81.79450263625095,76.38079131551571,79.29854583787059,42.49595679838036,45.413711320735246,40
4438.48,82.9577,81.64593426476961,75.94584588869215,79.03458983964826,42.611344425121345,45.70008837607746,40
4595.21,82.2104,81.14243988764947,75.95366819755873,78.89173341755838,42.25070647009109,45.188771690090746,40
4756.35,82.9635,81.60346088713125,76.13115898998369,79.25343869654024,42.350022190591005,45.47230189714756,40
4924.8,83.228,81.74916141181372,76.52602956007092,79.50813244057541,42.24102897123831,45.22313185174279,40
5097.66,83.6161,82.22375713184226,76.41481629626742,79.71965927754857,42.50409785429369,45.808940835574845,40
5277.83,84.0236,82.57102493808605,76.53538506392769,79.97279996575334,42.598224972332716,46.03563987415836,40
5463.87,83.90220000000001,82.56313123144486,76.3943690992461,79.99040116986546,42.57273006157939,46.16876213219875,40
5657.23,84.1227,82.93873408399892,76.42337923270372,80.09357501235874,42.84515907164018,46.5153548512952,40
5856.45,84.12669999999999,83.05790281642959,76.42167553677156,80.15932596213514,42.89857685429445,46.63622727965803,40
6062.99,83.6544,82.9471051666893,76.42601316879411,80.11322834287164,42.83387682381766,46.521091997895184,40
6276.86,83.63509999999998,83.0411447906511,76.48157259372215,80.13102508387288,42.91011970677822,46.559572196928954,40
6498.05,83.20039999999999,82.84974258750766,76.34308621603627,79.94923718218926,42.9005054053184,46.506656371471394,40
6726.56,83.0599,82.84815360826899,76.38591154741844,79.94677963401526,42.90137397425373,46.46224206085054,40
6963.87,82.64879999999998,82.53947600209777,76.12486379745468,79.72782691856582,42.81164908353195,46.41461220464309,40
7209.96,82.1366,82.3031278404266,75.93139880754148,79.50484351561813,42.79828432480846,46.37172903288511,40
7464.84,82.2147,82.32142535053258,75.73703132742455,79.28900120853942,43.03242414199316,46.58439402310803,40
7727.05,82.4289,82.29877463433597,75.5131725192472,79.17618188307972,43.12259275125625,46.785602115088764,40
7999.51,82.3251,82.25501201716713,75.25366741845521,79.04869288971636,43.20631912745077,47.001344598711924,40
8282.23,82.5847,82.44299398830402,75.14990313121773,79.02987051275954,43.41312347554448,47.2930908570863,40
8573.73,83.2239,82.75760090035182,75.16811322961945,79.14828080810084,43.60932009225098,47.58948767073237,40
8876.95,83.37170000000002,82.8749220215158,75.04379227179565,79.09671912444334,43.77820289707246,47.83112974972015,40
9188.96,83.3042,82.86616095810636,74.87184206365987,78.95522960057437,43.91093135753199,47.994318894446494,40
9514.16,83.6334,82.9132700006759,74.75330368381027,78.95326926456133,43.960000736114566,48.15996631686562,40
9849.61,84.0048,83.05475335597343,74.6901755784313,79.01381148678173,44.0409418691917,48.36457777754214,40
10196.8,84.0771,83.23713642854192,74.6463532805719,79.12490156551162,44.112234863030295,48.590783147970015,40
10555.7,84.4514,83.41790045777417,74.65561565767202,79.37750772502851,44.04039273274566,48.76228480010215,40
10927.7,84.9788,83.66738532008291,74.69651524944507,79.50687489474755,44.16051042533536,48.970870070637844,40
11313.0,85.11569999999999,83.70085715740308,74.51727681998295,79.32622221668446,44.37463494071862,49.183580337420125,40
11712.9,84.7204,83.56048934876159,74.26741357318453,79.03298168266684,44.52750766609475,49.293075775577066,40
12126.0,85.0173,83.57625116836253,74.01821316500953,78.87088804117116,44.705363127191376,49.558038003353005,40
