Freq "On Axis"
20.5078 55.44173181818182
21.9727 56.676731818181835
23.4375 57.923331818181836
24.9023 58.90053181818182
26.3672 60.82363181818182
27.832 62.48413181818182
29.2969 63.10813181818182
30.7617 65.05843181818182
32.2266 67.05123181818182
33.6914 68.84413181818182
35.1562 70.3649318181818
36.6211 71.7031318181818
38.0859 73.15113181818182
39.5508 74.31313181818182
41.0156 75.44883181818182
42.4805 76.42353181818181
43.9453 77.33013181818183
45.4102 78.08763181818182
46.875 78.71483181818182
48.3398 79.29753181818182
51.2695 80.22763181818182
52.7344 80.63233181818183
54.1992 80.95623181818182
55.6641 81.21663181818182
58.5938 81.76183181818182
60.0586 81.99483181818182
62.9883 82.42213181818182
64.4531 82.61363181818182
67.3828 82.95103181818182
68.8477 83.09463181818181
71.7773 83.35723181818183
74.707 83.63193181818183
77.6367 83.84673181818182
79.1016 83.92213181818182
82.0312 84.08703181818181
84.9609 84.23613181818182
87.8906 84.33223181818182
90.8203 84.52633181818182
95.2148 84.73823181818182
98.1445 84.80043181818182
101.074 84.82663181818184
105.469 84.87033181818182
108.398 84.91023181818181
112.793 84.88793181818183
117.188 84.80583181818182
120.117 84.84893181818182
124.512 84.91513181818182
128.906 84.83853181818182
133.301 84.72823181818183
139.16 84.70823181818182
143.555 84.72663181818181
147.949 84.92823181818183
153.809 85.01813181818181
159.668 84.76253181818181
165.527 84.70623181818182
171.387 84.65103181818182
177.246 84.46023181818182
183.105 84.33913181818183
188.965 84.37493181818182
196.289 84.17763181818181
203.613 84.03723181818182
210.938 83.96373181818181
218.262 83.71993181818182
225.586 83.39593181818181
232.91 83.31663181818182
241.699 83.16823181818182
250.488 84.09913181818182
259.277 84.5962318181818
268.066 83.7657318181818
276.855 83.52813181818182
287.109 83.72833181818181
297.363 83.34233181818182
307.617 83.19413181818182
319.336 82.95123181818182
329.59 83.09653181818182
341.309 82.89773181818182
353.027 82.37823181818182
366.211 82.68873181818182
379.395 83.07903181818182
392.578 83.48593181818181
405.762 83.23223181818182
420.41 82.91143181818182
435.059 82.72483181818181
451.172 82.75493181818182
465.82 84.00383181818182
483.398 84.86673181818182
499.512 84.19583181818182
517.09 84.17153181818182
536.133 84.31253181818182
555.176 83.81783181818182
574.219 83.32433181818182
594.727 82.63783181818182
615.234 81.57633181818181
637.207 83.85543181818181
659.18 85.46803181818181
682.617 85.71063181818182
707.52 85.39443181818181
732.422 84.64403181818182
757.324 84.86063181818183
785.156 84.06653181818182
811.523 84.01683181818181
840.82 85.08673181818183
870.117 85.73363181818182
900.879 85.35903181818182
933.105 85.56273181818182
965.332 85.88863181818182
1000.49 86.13163181818182
1035.64 85.40713181818182
1072.27 84.8796318181818
1108.89 83.33103181818181
1148.44 82.43153181818182
1189.45 80.79233181818184
1230.47 81.39473181818182
1274.41 81.57573181818182
1319.82 82.10963181818182
1366.7 81.59193181818183
1413.57 81.6534318181818
1463.38 83.17773181818184
1516.11 83.32663181818182
1568.85 83.88503181818182
1624.51 83.40043181818181
1681.64 83.97023181818182
1741.7 84.12713181818182
1803.22 84.74773181818182
1866.21 84.05363181818181
1932.13 83.52153181818183
1999.51 83.66993181818181
2069.82 84.45033181818182
2143.07 84.38583181818181
2219.24 83.88983181818182
2296.88 84.78623181818182
2378.91 84.27793181818181
2462.4 83.76633181818183
2548.83 84.66643181818182
2639.65 84.86043181818182
2731.93 85.16713181818182
2828.61 85.03473181818183
2928.22 84.62943181818181
3030.76 85.03733181818183
3137.7 84.61403181818181
3249.02 84.74963181818184
3363.28 83.69843181818182
3481.93 83.58063181818183
3604.98 83.44333181818182
3732.42 83.81673181818182
3864.26 83.94143181818183
4000.49 84.01363181818182
4141.11 84.10233181818182
4287.6 83.31863181818181
4438.48 83.26153181818182
4595.21 82.51423181818184
4756.35 83.26733181818182
4924.8 83.53183181818183
5097.66 83.91993181818182
5277.83 84.32743181818184
5463.87 84.20603181818181
5657.23 84.4265318181818
5856.45 84.43053181818182
6062.99 83.9582318181818
6276.86 83.93893181818181
6498.05 83.50423181818182
6726.56 83.36373181818182
6963.87 82.95263181818181
7209.96 82.44043181818182
7464.84 82.51853181818181
7727.05 82.73273181818182
7999.51 82.62893181818183
8282.23 82.88853181818182
8573.73 83.52773181818182
8876.95 83.67553181818182
9188.96 83.60803181818181
9514.16 83.93723181818181
9849.61 84.30863181818184
10196.8 84.38093181818182
10555.7 84.75523181818183
10927.7 85.28263181818183
11313.0 85.41953181818182
11712.9 85.0242318181818
12126.0 85.32113181818183
12553.7 85.32723181818182
12996.1 85.31843181818182
13454.6 84.96253181818182
13929.2 84.65573181818182
14419.9 83.36663181818183
14928.2 83.3520318181818
15455.6 84.64263181818184
16000.5 85.22993181818183
16564.5 84.98623181818182
17148.9 84.16963181818181
17752.4 83.61163181818182
18379.4 82.80043181818182
19026.9 81.94563181818184
19697.8 80.86083181818184
19999.5 80.3564318181818
