Freq "Sound Power"
20.5078 56.83376723376006
21.9727 58.000762947772614
23.4375 59.332067807316406
24.9023 61.000397674012646
26.3672 62.74249998767965
27.832 64.37411145798792
29.2969 65.71164377283655
30.7617 67.38218938640588
32.2266 69.07325914775892
33.6914 70.53653002637157
35.1562 71.90510835077475
36.6211 73.15695534898597
38.0859 74.43322353394552
39.5508 75.50060223158462
41.0156 76.54401607824303
42.4805 77.42786946007404
43.9453 78.25285549263273
45.4102 78.93892754248253
46.875 79.50411643871993
48.3398 80.04141215114723
51.2695 80.84388318684023
52.7344 81.18995566396015
54.1992 81.46402987324214
55.6641 81.7071998019067
58.5938 82.16288704123662
60.0586 82.34540889001093
62.9883 82.70324537624334
64.4531 82.85874210327171
67.3828 83.13244461824164
68.8477 83.25898814067833
71.7773 83.45849889100992
74.707 83.68327657307483
77.6367 83.85257336027058
79.1016 83.90870949524788
82.0312 84.03596061672701
84.9609 84.15883716376354
87.8906 84.21827257970308
90.8203 84.34006033007375
95.2148 84.517399015447
98.1445 84.55257056752052
101.074 84.55723369103485
105.469 84.54582021234884
108.398 84.56454682163213
112.793 84.51577153314273
117.188 84.37581862830181
120.117 84.36955003329652
124.512 84.43484995106584
128.906 84.35413245353298
133.301 84.17224238503559
139.16 84.06888228889542
143.555 84.0293826596223
147.949 84.19007539767901
153.809 84.2749118938069
159.668 83.98987142380301
165.527 83.79997066790015
171.387 83.71954054241215
177.246 83.56263834155305
183.105 83.32799250589693
188.965 83.24031171085127
196.289 83.06380630385458
203.613 82.89252687317568
210.938 82.72568633469182
218.262 82.49051605927693
225.586 82.1697766052132
232.91 81.86340344696038
241.699 81.3025232947343
250.488 81.33337813021295
259.277 82.54343194928848
268.066 82.06099207919047
276.855 81.79122715455979
287.109 81.41060207854242
297.363 81.2945051910142
307.617 81.19199006889505
319.336 80.52219263747136
329.59 80.68514542174417
341.309 80.83882835513205
353.027 80.51392008858751
366.211 79.9181884579413
379.395 80.00005490954148
392.578 80.45838284009591
405.762 80.36287230800227
420.41 80.00188784276892
435.059 79.81441779371727
451.172 79.17149789331827
465.82 79.4242387902405
483.398 79.94393459494162
499.512 80.07583101341628
517.09 79.7420441520081
536.133 79.45743081386033
555.176 79.62248918941816
574.219 79.25709517311093
594.727 79.70776028258695
615.234 79.44900662784707
637.207 79.95693773715014
659.18 80.65232022260983
682.617 80.73123352621545
707.52 80.42655521577491
732.422 80.37797494592365
757.324 80.0719900733601
785.156 79.8888339892416
811.523 79.38917264779856
840.82 79.4703659129481
870.117 79.4524641563534
900.879 79.28024763402452
933.105 79.34154991150481
965.332 79.62374311040344
1000.49 79.52938455004556
1035.64 78.90531052749438
1072.27 77.86906642791602
1108.89 76.13210398846309
1148.44 74.83595491211598
1189.45 73.56179688703979
1230.47 73.95776969145726
1274.41 74.34132508005436
1319.82 74.54729927955565
1366.7 74.55525294751001
1413.57 74.55424082569627
1463.38 75.25564140159868
1516.11 75.75934480054319
1568.85 76.07177725547058
1624.51 75.38155612310015
1681.64 75.5536481291368
1741.7 75.61976892844305
1803.22 76.18868178632194
1866.21 76.18191216896572
1932.13 76.05407405113408
1999.51 76.55360500776459
2069.82 76.90016312519947
2143.07 77.09386030409524
2219.24 77.13152465983863
2296.88 78.10801641743414
2378.91 78.25038369844884
2462.4 78.01418647691183
2548.83 78.75939550765423
2639.65 79.2886570176115
2731.93 79.14751846471329
2828.61 79.32528766470132
2928.22 79.50976722809845
3030.76 79.66339281697293
3137.7 79.26763677298051
3249.02 78.97111045617433
3363.28 78.86468745956677
3481.93 78.4342635384888
3604.98 78.15959249235095
3732.42 78.0834208587797
3864.26 77.70701037908717
4000.49 77.20398160844515
4141.11 76.72811704510843
4287.6 76.38079131551572
4438.48 75.94584588869215
4595.21 75.95366819755871
4756.35 76.13115898998369
4924.8 76.52602956007092
5097.66 76.41481629626742
5277.83 76.53538506392768
5463.87 76.39436909924612
5657.23 76.42337923270372
5856.45 76.42167553677155
6062.99 76.42601316879411
6276.86 76.48157259372215
6498.05 76.34308621603627
6726.56 76.38591154741846
6963.87 76.12486379745467
7209.96 75.93139880754148
7464.84 75.73703132742455
7727.05 75.5131725192472
7999.51 75.25366741845521
8282.23 75.14990313121773
8573.73 75.16811322961945
8876.95 75.04379227179565
9188.96 74.87184206365987
9514.16 74.75330368381026
9849.61 74.69017557843131
10196.8 74.64635328057189
10555.7 74.65561565767203
10927.7 74.69651524944507
11313.0 74.51727681998295
11712.9 74.26741357318451
12126.0 74.01821316500953
12553.7 73.82233979145133
12996.1 73.53778034511379
13454.6 73.195694617414
13929.2 72.74318323899867
14419.9 71.9425532767599
14928.2 71.65022362716296
15455.6 72.18053354483251
16000.5 72.00950659291286
16564.5 71.16753022429123
17148.9 69.91533260428582
17752.4 68.70545329415123
18379.4 67.46515098461795
19026.9 66.15570871342553
19697.8 64.84105447174997
19999.5 64.41205851820153
