Freq "Sound Power"
22.4 -13.133058377296905
23.0 -11.517628457289376
23.6 -9.914395667361944
24.0 -8.341543386403359
25.0 -6.763208963968069
25.8 -5.217291951041304
26.5 -3.6769113297545317
27.2 -2.1592282897752995
28.0 -0.6443894298831054
29.0 0.8630945694745407
30.0 2.3494310884887994
30.7 3.8235950765142803
31.5 5.29805119842446
32.5 6.739502102969439
33.5 8.18236700952842
34.5 9.621224983080097
35.5 11.02751196168849
36.5 12.447091551739064
37.5 13.837647292688942
38.7 15.227866352402927
40.0 16.597529344440844
41.2 17.95063934111552
42.5 19.29836028736021
43.7 20.62814808149109
45.0 21.93871232936546
46.2 23.23543741069095
47.5 24.520699751461578
48.7 25.786236203033113
50.0 27.040008610387318
51.5 28.266761366422955
53.0 29.47940442785024
54.5 30.668054738365342
56.0 31.81917429492097
58.0 32.975489681399665
60.0 34.06654486980929
61.5 35.172285587181264
63.0 36.21218490178968
65.0 37.256263413761786
67.0 38.25185176581388
69.0 39.21574319006483
71.0 40.22216898868686
73.0 41.155464980910864
75.0 42.03291139240507
77.5 42.867454211640634
80.0 43.69058710026111
82.5 44.4685906426089
85.0 45.23185564595333
87.5 45.96163386193889
90.0 46.577315665038455
92.5 47.18122876662777
95.0 47.81660869109339
97.5 48.436103156288254
100.0 49.02253815845911
103.0 49.59461604527972
106.0 50.12936438480811
109.0 50.65181053477997
112.0 51.107851268166016
115.0 51.54300195280412
118.0 52.00645968251915
122.0 52.446852531465524
125.0 52.84900463874126
128.0 53.24906080679108
132.0 53.65569182943753
136.0 54.018924804326915
140.0 54.482668482185346
145.0 54.88735948317397
150.0 55.19874877266916
155.0 55.505214780820765
160.0 55.78842620411302
165.0 56.03632723351804
170.0 56.309924774128675
175.0 56.53022225864052
180.0 56.71663899359815
185.0 56.905864455271725
190.0 57.0903541882399
195.0 57.263309815219856
200.0 57.406263276186266
206.0 57.54198607818181
212.0 57.64773300952076
218.0 57.75922271307638
224.0 57.81181281380147
230.0 57.84515636781964
236.0 57.866086366211434
240.0 57.87081131230467
250.0 57.843821244569156
258.0 57.78137086942887
265.0 57.67244293824919
272.0 57.56336176542018
280.0 57.39399230292459
290.0 57.216557972524086
300.0 57.00050242630476
307.0 56.77709400388126
315.0 56.52153123578168
325.0 56.27434267849483
335.0 56.05587064733611
345.0 55.855407985474486
355.0 55.64865334981479
365.0 55.47702726183556
375.0 55.34915434580212
387.0 55.2115076903428
400.0 55.058666385945614
412.0 54.87001956231322
425.0 54.654225803980154
437.0 54.393545033965026
450.0 54.14465750040419
462.0 53.87572114026655
475.0 53.577344431268145
487.0 53.28669306703368
500.0 53.03660611242351
515.0 52.82267287993672
530.0 52.61596086997686
545.0 52.45900180341003
560.0 52.33087018370533
580.0 52.241771751012536
600.0 52.260430797307876
615.0 52.31469644982836
630.0 52.42159806042376
650.0 52.53610954095112
670.0 52.624728401069135
690.0 52.68709896647121
710.0 52.72873913134414
730.0 52.760930149550504
750.0 52.845773389676395
775.0 52.96052784394686
800.0 53.10235380274379
825.0 53.190577282685226
850.0 53.12095858359665
875.0 52.829239328561
900.0 52.41135919800256
925.0 51.968364200120405
950.0 51.76560451431179
975.0 51.92516504585272
1000.0 52.072558167344695
1030.0 51.779700858059314
1060.0 51.206833602872805
1090.0 50.97359723279702
1120.0 51.106778965233204
1150.0 51.077921790998644
1180.0 50.60441693745379
1220.0 50.41458651401685
1250.0 51.194410580950134
1280.0 51.88788820016927
1320.0 51.81211226715607
1360.0 51.315553729915635
1400.0 50.96905529261092
1450.0 50.59139637644152
1500.0 50.34555503617278
1550.0 50.31952659952414
1600.0 50.126981026856484
1650.0 49.78530182595084
1700.0 49.648969256034576
1750.0 49.82253698681198
1800.0 49.72836687593811
1850.0 48.89129081871205
1900.0 48.055662284934996
1950.0 47.52911836834872
2000.0 46.288148005960835
2060.0 44.85991472352397
2120.0 43.821110362845005
2180.0 43.00739369563358
2240.0 42.20143592977935
2300.0 41.655173820190285
2360.0 41.36628580066436
2400.0 41.24706531703541
2500.0 40.76624303829301
2580.0 40.384157354014235
2650.0 40.098163821466784
2720.0 39.844773184915496
2800.0 40.06620356433281
2900.0 40.30740123101758
3000.0 41.07771162913534
3070.0 42.193426387945806
3150.0 43.35317347111352
3250.0 44.43391458362785
3350.0 45.14602360728756
3450.0 46.035305547117275
3550.0 46.81044430027231
3650.0 47.28367233421638
3750.0 47.46233273500317
3870.0 47.90596626442736
4000.0 47.72122299843883
4120.0 47.9333107289993
4250.0 47.68331504020804
4370.0 47.73818727237074
4500.0 48.03207902733688
4620.0 48.78890317427887
4750.0 49.55657497793773
4870.0 50.23145496505616
5000.0 50.632805109531944
5150.0 50.484422663949815
5300.0 50.5461463704373
5450.0 49.964364832156846
5600.0 50.828794991700576
5800.0 51.316034498849845
6000.0 52.43646434406635
6150.0 53.38355599622278
6300.0 54.27027209655088
6500.0 55.182858955642914
6700.0 54.57267855044468
6900.0 54.3184897877765
7100.0 52.80654673084962
7300.0 52.488247948724464
7500.0 52.154384330331965
7750.0 51.67391339881381
8000.0 51.49993199530222
8250.0 52.29674362492106
8500.0 53.26391228347201
8750.0 52.507748946071004
9000.0 52.456949827662285
9250.0 52.77078604580991
9500.0 52.87403722261186
9750.0 52.60683445201006
10000.0 53.40510848324665
10300.0 54.39567347578368
10600.0 55.098273513958745
10900.0 54.96690639318764
11200.0 54.94365237068827
11500.0 55.67770397497563
11800.0 56.76343161306934
12200.0 57.737833443432834
12500.0 58.686169307590205
12800.0 60.00577907873851
13200.0 60.653154499657305
13600.0 61.97327565921577
14000.0 58.18919761952826
14500.0 52.169869029702
15000.0 54.51791287764023
15500.0 56.87962789835328
16000.0 58.89534826565044
16500.0 62.14131831463641
17000.0 62.26760846778829
17500.0 51.7740943031048
18000.0 49.22578490781932
18500.0 51.23542916065121
19000.0 54.80499516979641
19500.0 58.10950493282441
