Freq "Ceiling Bounce"
20.507813 64.70115074674584
21.972656 69.00952412471544
23.4375 70.99377460355034
24.902344 72.62545913512277
26.367188 74.41667509699207
27.832031 75.92334803810391
29.296875 76.97850741683956
30.761719 78.04793121384428
32.226563 79.00307385640357
33.691406 79.86299295563487
35.15625 80.54184162428632
36.621094 81.13076350752554
38.085938 81.64339877852971
39.550781 82.10394617913501
41.015625 82.50708840481516
42.480469 82.88306203918498
43.945313 83.20711907461586
45.410156 83.51126086869789
46.875 83.79633029632676
48.339844 84.06076429875333
51.269531 84.5237671110001
52.734375 84.74713574451576
54.199219 84.96272899388143
55.664063 85.16596724172577
58.59375 85.53411609144604
60.058594 85.69197052151915
62.988281 86.00032845421256
64.453125 86.15564117648202
67.382813 86.45565897417745
68.847656 86.57736570662232
71.777344 86.78070802666804
74.707031 86.95486666563006
77.636719 87.12763741686794
79.101563 87.18771533400167
82.03125 87.26096055078773
84.960938 87.30499055492993
87.890625 87.35352217886229
90.820313 87.36811811727952
95.214844 87.4208568817427
98.144531 87.50854202967753
101.07422 87.52988494650558
105.46875 87.50197483197402
108.39844 87.52357697737635
112.79297 87.54541417442405
117.1875 87.39229830427347
120.11719 87.27117238294964
124.51172 87.14311856394819
128.90625 87.0774975946299
133.30078 87.0611432356929
139.16016 86.89854746881024
143.55469 86.61010545155469
147.94922 86.39305288949862
153.80859 86.33285854563742
159.66797 86.41990371102099
165.52734 86.52634760992795
171.38672 86.4339127411865
177.24609 86.12173314599296
183.10547 86.217206941809
188.96484 86.63955043041646
196.28906 86.57204654413187
203.61328 86.09429406702354
210.9375 85.61820631320012
218.26172 85.47878721729737
225.58594 85.77072654496376
232.91016 85.78344658365123
241.69922 85.29687451239667
250.48828 85.46550952303468
259.27734 85.77796629136849
268.06641 85.14442078556185
276.85547 85.28587014908297
287.10938 85.80485820386775
297.36328 85.76783446881994
307.61719 86.19389697679156
319.33594 85.94177441389412
329.58984 86.24212138987055
341.30859 86.29102584999025
353.02734 85.88565754629155
366.21094 85.43813553775561
379.39453 85.65028495858121
392.57813 86.02423294562179
405.76172 85.26876131274108
420.41016 84.69653771245325
435.05859 84.12995451194752
451.17188 81.76813161955104
465.82031 82.30540285365939
483.39844 82.37088530646588
499.51172 82.4023218309762
517.08984 81.74044172145526
536.13281 81.80844436035845
555.17578 83.22190844880954
574.21875 83.91884948446994
594.72656 84.77276100067228
615.23438 84.74525389124025
637.20703 84.32849346985401
659.17969 83.8901107489317
682.61719 84.1302537979264
707.51953 84.20440625088963
732.42188 84.3772545288397
757.32422 84.01037879575937
785.15625 83.99144641491317
811.52344 83.20616151426455
840.82031 82.86549214712379
870.11719 81.63991509891792
900.87891 81.20919087324644
933.10547 79.65894024993524
965.33203 77.20117588003083
1000.4883 77.06512088806674
1035.6445 79.26240183229436
1072.2656 81.37534019410043
1108.8867 81.65400132794156
1148.4375 80.84698845358524
1189.4531 81.02052889003212
1230.4688 81.4858514168653
1274.4141 81.88930619081384
1319.8242 81.52125704788179
1366.6992 81.53860350517489
1413.5742 81.53315813661757
1463.3789 80.22505333989741
1516.1133 78.59398617203162
1568.8477 79.59033845153832
1624.5117 80.01736839502414
1681.6406 80.33761784710995
1741.6992 79.92293080403932
1803.2227 79.13178327654185
1866.2109 78.10916863038031
1932.1289 78.03429147657948
1999.5117 75.69707148739118
2069.8242 74.91616378949969
2143.0664 71.30011309236679
2219.2383 70.29669941986838
2296.875 73.3338335593669
2378.9063 75.29425524224926
2462.4023 78.83510676451476
2548.8281 79.3728584909687
2639.6484 77.29804159673496
2731.9336 80.45570860895594
2828.6133 80.23479046448385
2928.2227 80.11229635711196
3030.7617 79.92293914404677
3137.6953 79.72602916308986
3249.0234 80.06639563593171
3363.2813 80.31674360014748
3481.9336 80.26021790611927
3604.9805 80.32032314338996
3732.4219 80.07059817334918
3864.2578 79.59853790365939
4000.4883 78.77842063897319
4141.1133 77.96723632532995
4287.5977 77.86678520531451
4438.4766 78.37737793693623
4595.2148 79.13907538929661
4756.3477 78.98398346194709
4924.8047 78.17449125074076
5097.6563 76.61369761740042
5277.832 74.59908544549626
5463.8672 73.76120826780867
5657.2266 73.49518346650532
5856.4453 74.46084625481939
6062.9883 74.79336233203419
6276.8555 75.1318251241946
6498.0469 75.39064281876378
6726.5625 75.45836717700988
6963.8672 75.50363842179691
7209.9609 74.93351482288521
7464.8438 73.45638442856222
7727.0508 71.52060340231324
7999.5117 70.09705463881522
8282.2266 69.91427474098046
8573.7305 69.89811407256721
8876.9531 69.33954207120648
9188.9648 68.0432889289409
9514.1602 66.94320115404697
9849.6094 65.51287978208912
10196.777 64.33786673792821
10555.664 64.85261070771378
10927.734 67.79236051281579
11312.988 70.29388223098618
11712.891 71.68807990484797
12125.977 72.02110257217268
12553.711 72.11383234591187
12996.094 72.07501993436736
13454.59 71.95599758754392
13929.199 71.65148018929962
14419.922 71.35931350004019
14928.223 71.18864942913082
15455.566 70.58062428571859
16000.488 69.59352645264629
16564.453 68.69668146466692
17148.926 67.10907706107257
17752.441 64.56438172127281
18379.395 63.08609368347979
19026.855 63.08155014044192
19697.754 62.62082147148047
19999.512 62.90987563751639
