Freq "Floor Bounce"
20.507813 66.20906542301704
21.972656 70.21871980328375
23.4375 71.9492633519823
24.902344 73.63224993271669
26.367188 75.2759007666052
27.832031 76.69575086778454
29.296875 77.70876374908201
30.761719 78.72216835700995
32.226563 79.628301234497
33.691406 80.44676011941569
35.15625 81.08949674666431
36.621094 81.64857578374756
38.085938 82.1349794135464
39.550781 82.57418077539063
41.015625 82.95739097181963
42.480469 83.31529113997509
43.945313 83.62746176983227
45.410156 83.91942971692428
46.875 84.1935306873146
48.339844 84.45044093751514
51.269531 84.89979111058165
52.734375 85.11422711567916
54.199219 85.32131442778122
55.664063 85.51989969734467
58.59375 85.901396373552
60.058594 86.08213679157205
62.988281 86.4073490233894
64.453125 86.53375687046476
67.382813 86.7886613664449
68.847656 86.904469149709
71.777344 87.11486689367466
74.707031 87.29749952967389
77.636719 87.47067736561169
79.101563 87.53107129065549
82.03125 87.61983450234649
84.960938 87.71149259653289
87.890625 87.81450839792751
90.820313 87.88951623700275
95.214844 87.9963122949442
98.144531 88.08122554174687
101.07422 88.10071303027584
105.46875 88.08327226043777
108.39844 88.14190074632457
112.79297 88.26884541635957
117.1875 88.21760631272787
120.11719 88.1272339269631
124.51172 88.03576923986189
128.90625 88.1067821017721
133.30078 88.20375958379543
139.16016 87.9398033735632
143.55469 87.69509209351887
147.94922 87.61463343150734
153.80859 87.73776013497766
159.66797 87.86276273534654
165.52734 87.88387168306588
171.38672 87.70749277522984
177.24609 87.36067013510923
183.10547 87.23930841038478
188.96484 87.47014983934463
196.28906 87.66963624952608
203.61328 87.21915074145667
210.9375 87.0068517254262
218.26172 87.15354007230437
225.58594 87.63227785097044
232.91016 87.73093305713101
241.69922 87.81728273867164
250.48828 88.06968802488824
259.27734 88.35324513261818
268.06641 87.6534076207557
276.85547 87.36394062363587
287.10938 87.62363175173994
297.36328 87.69132026199716
307.61719 87.77955013075832
319.33594 87.38831950542253
329.58984 87.9386531392326
341.30859 88.31113164553696
353.02734 88.36013251229721
366.21094 88.41509574662656
379.39453 88.86058213518673
392.57813 88.99898871887717
405.76172 88.40589724093411
420.41016 88.38313544609775
435.05859 88.43588875606108
451.17188 88.14033359389907
465.82031 88.14105827870215
483.39844 86.94847167781545
499.51172 86.44950329113564
517.08984 86.94456442669254
536.13281 87.52242748742464
555.17578 88.63761801268114
574.21875 88.58527490621368
594.72656 88.76420948487336
615.23438 88.77240119675812
637.20703 88.1411461087065
659.17969 88.32396396908221
682.61719 88.45649439859436
707.51953 87.40410834543978
732.42188 87.9500339314535
757.32422 87.1108260625487
785.15625 87.37420738464833
811.52344 86.5844460590202
840.82031 86.37806276710477
870.11719 86.95612685193507
900.87891 86.83012984228661
933.10547 86.27020135096461
965.33203 86.00147306909957
1000.4883 86.02849845086216
1035.6445 86.1274062592801
1072.2656 86.05219168526062
1108.8867 86.4682614491291
1148.4375 86.74594379983725
1189.4531 87.32413962580463
1230.4688 87.26478726271787
1274.4141 87.0716317272449
1319.8242 87.44768812009124
1366.6992 87.13937688475234
1413.5742 86.99829071467906
1463.3789 86.63993405580081
1516.1133 85.42477588543461
1568.8477 84.03704592466745
1624.5117 83.10340131770346
1681.6406 82.5877324386552
1741.6992 81.69958330923947
1803.2227 80.28720614590803
1866.2109 78.2897425981684
1932.1289 76.10684857693725
1999.5117 76.1930866256202
2069.8242 78.72106192620046
2143.0664 80.05185619843857
2219.2383 80.11023553705184
2296.875 79.96885768584525
2378.9063 80.06062549535616
2462.4023 77.72458226603148
2548.8281 76.95680628298228
2639.6484 77.54393014624647
2731.9336 77.89014842811231
2828.6133 78.62083335546991
2928.2227 78.9760820916782
3030.7617 79.41077908496693
3137.6953 80.33638926329186
3249.0234 80.8729084084861
3363.2813 81.26628718142294
3481.9336 81.33410054637669
3604.9805 81.96531043464049
3732.4219 82.52471522140013
3864.2578 82.74497930525857
4000.4883 82.59669106785744
4141.1133 82.20971082048435
4287.5977 81.74077221529913
4438.4766 81.71784546896507
4595.2148 82.1899768877521
4756.3477 82.78335686832094
4924.8047 82.78084987409255
5097.6563 82.32621407661091
5277.832 82.18001174743526
5463.8672 82.10570402493533
5657.2266 82.5535267130386
5856.4453 82.76059892950214
6062.9883 82.99786572442014
6276.8555 82.88921856629412
6498.0469 82.82238065349487
6726.5625 82.4819364312701
6963.8672 82.10731128350389
7209.9609 81.76376611757289
7464.8438 81.28651920880807
7727.0508 80.76828809009659
7999.5117 80.32589482735283
8282.2266 80.2858958120548
8573.7305 80.11173649963649
8876.9531 80.03649948931488
9188.9648 80.13668802814071
9514.1602 79.9756280894325
9849.6094 79.35606244337762
10196.777 78.89593522778765
10555.664 79.0001496365889
10927.734 79.456162047347
11312.988 79.76787830065308
11712.891 79.24677840625226
12125.977 78.21455805292942
12553.711 77.11735045333884
12996.094 76.16842662745908
13454.59 75.27332423489472
13929.199 74.65500856267987
14419.922 74.0872849302572
14928.223 74.00232803031484
15455.566 73.78290023708736
16000.488 73.31477272050762
16564.453 72.36832557976686
17148.926 71.13188479720235
17752.441 69.936056767563
18379.395 68.6647036786799
19026.855 67.49590332894071
19697.754 66.73019354328252
19999.512 67.40737959253553
