Freq "Front Wall Bounce"
20.507813 65.61058349346175
21.972656 69.78826428844712
23.4375 71.6103794554426
24.902344 73.30228412039509
26.367188 75.00108529394913
27.832031 76.45937837572937
29.296875 77.49510789798661
30.761719 78.53353529827606
32.226563 79.46325709830991
33.691406 80.30573784436723
35.15625 80.96721208800999
36.621094 81.54172127430115
38.085938 82.04105831972788
39.550781 82.49118177442858
41.015625 82.88426315317976
42.480469 83.2516082095175
43.945313 83.57089783568321
45.410156 83.86904054354494
46.875 84.14908038809429
48.339844 84.41111105946
51.269531 84.86990576837681
52.734375 85.0899137194576
54.199219 85.30213956950652
55.664063 85.50497600686019
58.59375 85.8875643558942
60.058594 86.06362117074217
62.988281 86.39077609401305
64.453125 86.52751394095569
67.382813 86.79198719450332
68.847656 86.90747717627823
71.777344 87.11465823925116
74.707031 87.29586265368579
77.636719 87.47289937200154
79.101563 87.53509726428352
82.03125 87.62098662664033
84.960938 87.69809917980074
87.890625 87.78618050209894
90.820313 87.84340315309998
95.214844 87.93580490157913
98.144531 88.02614405569506
101.07422 88.05021317783394
105.46875 88.04291856513774
108.39844 88.09746585160461
112.79297 88.1850474738321
117.1875 88.10433475203202
120.11719 88.01234223761867
124.51172 87.92650547995817
128.90625 87.9697971567279
133.30078 88.03384225582053
139.16016 87.76693148131194
143.55469 87.50793734655244
147.94922 87.39976373915053
153.80859 87.48324791843501
159.66797 87.60931216276546
165.52734 87.65178530412484
171.38672 87.46731803788697
177.24609 87.14319717770448
183.10547 87.13709143227176
188.96484 87.44290392203135
196.28906 87.51159222553045
203.61328 87.02009385101596
210.9375 86.7035885669124
218.26172 86.77032299270707
225.58594 87.16833221404747
232.91016 87.13199353823106
241.69922 87.04218909728239
250.48828 87.32396709214119
259.27734 87.57962065812733
268.06641 86.8088938222565
276.85547 86.6656150262157
287.10938 86.91793652956162
297.36328 86.80166982133873
307.61719 87.0598920945057
319.33594 86.73958936301062
329.58984 87.14435419164198
341.30859 87.1976176133349
353.02734 87.05716472878412
366.21094 87.08389875097151
379.39453 87.45486141139232
392.57813 87.38520981764137
405.76172 86.75449394137596
420.41016 86.91405617209833
435.05859 86.90406442858347
451.17188 86.3228747419781
465.82031 86.39779281187961
483.39844 85.1764221036733
499.51172 84.82025262857509
517.08984 85.97032135746207
536.13281 86.85203692695154
555.17578 87.82845177438779
574.21875 87.67865196331013
594.72656 87.75873859468928
615.23438 87.87950411341882
637.20703 87.26113611114953
659.17969 87.82585306395137
682.61719 87.98615778844686
707.51953 86.9303976114716
732.42188 87.20417100174359
757.32422 86.42996301775845
785.15625 86.9148824728552
811.52344 86.48449859137276
840.82031 86.6854577120171
870.11719 86.67695402982781
900.87891 86.04805508295108
933.10547 85.70531266516713
965.33203 85.29619836944518
1000.4883 84.78011070393947
1035.6445 84.67847048499425
1072.2656 84.94548928218154
1108.8867 85.47240642701271
1148.4375 86.01337600784427
1189.4531 86.41250184893592
1230.4688 86.43810648442718
1274.4141 86.69960836411221
1319.8242 86.73764943420889
1366.6992 86.39169925528695
1413.5742 86.45452069920499
1463.3789 86.6940268747877
1516.1133 85.8915851904895
1568.8477 85.36690604438118
1624.5117 85.66095829028137
1681.6406 86.42546922562344
1741.6992 86.83534925380144
1803.2227 86.53249439588134
1866.2109 86.25210037259654
1932.1289 86.96506910187016
1999.5117 87.5916164660645
2069.8242 87.53668537514181
2143.0664 86.7730075876399
2219.2383 86.99895148789642
2296.875 87.34801049548406
2378.9063 86.92467282700628
2462.4023 86.92220324963377
2548.8281 87.03718748003352
2639.6484 86.07456664025413
2731.9336 86.47308469415022
2828.6133 86.63063822505697
2928.2227 85.9079310478509
3030.7617 85.84185476859787
3137.6953 86.14763448860243
3249.0234 85.94035386659519
3363.2813 86.16835047624943
3481.9336 86.31634065908263
3604.9805 86.90697828731007
3732.4219 86.98937288813907
3864.2578 87.28731375388271
4000.4883 87.2412465991872
4141.1133 86.9614018872108
4287.5977 86.72277143721948
4438.4766 86.61843816818325
4595.2148 86.28251366523219
4756.3477 86.74031928097178
4924.8047 86.3227444992524
5097.6563 86.3109822213415
5277.832 86.24412575956048
5463.8672 86.2741728644975
5657.2266 86.5198918010174
5856.4453 86.65465040325854
6062.9883 86.48114364342966
6276.8555 86.76723184803083
6498.0469 86.59702954486498
6726.5625 86.82759580988687
6963.8672 86.43833788809538
7209.9609 86.17165240725555
7464.8438 86.41118268230129
7727.0508 86.2981117213492
7999.5117 86.23546946448974
8282.2266 86.64794673830676
8573.7305 86.91101471895321
8876.9531 86.95733183000237
9188.9648 86.96428876146645
9514.1602 87.02283397083815
9849.6094 87.05631639695035
10196.777 86.84958563211573
10555.664 86.43696234624531
10927.734 86.13079865357034
11312.988 85.77392219238
11712.891 85.9441922272469
12125.977 86.35081927735312
12553.711 86.49448398880118
12996.094 86.4461020865878
13454.59 86.37408883505199
13929.199 86.24527629459683
14419.922 86.08370869989072
14928.223 85.94860949836453
15455.566 85.87029069540101
16000.488 86.00097582405877
16564.453 86.28654060018395
17148.926 86.53466728466398
17752.441 86.6050656129521
18379.395 86.46311021021232
19026.855 86.4250709415482
19697.754 86.64759435342259
19999.512 86.98930272957028
