Freq "Rear Wall Bounce"
20.507813 65.5140716094314
21.972656 69.40029905144468
23.4375 71.31170438676881
24.902344 72.74296262704216
26.367188 74.52222765354153
27.832031 75.97851599272482
29.296875 76.97376297078661
30.761719 78.0182999554544
32.226563 78.94430443574937
33.691406 79.73621373735325
35.15625 80.37363138807471
36.621094 80.92975970668583
38.085938 81.41955038941421
39.550781 81.8597788714823
41.015625 82.24736395528478
42.480469 82.60461609702782
43.945313 82.90978593739038
45.410156 83.20404743366556
46.875 83.47703316950962
48.339844 83.72637987582677
51.269531 84.16453662356878
52.734375 84.37103299492028
54.199219 84.57168135837844
55.664063 84.75539394626486
58.59375 85.08173908919268
60.058594 85.21342052318698
62.988281 85.43581502510754
64.453125 85.5682211356072
67.382813 85.89496708771014
68.847656 86.03966651729067
71.777344 86.26850167310928
74.707031 86.44798135852594
77.636719 86.597222892871
79.101563 86.64197644001537
82.03125 86.69047850081145
84.960938 86.73450871005988
87.890625 86.76129413203626
90.820313 86.75929489956664
95.214844 86.78751174535897
98.144531 86.8324583127197
101.07422 86.83138530999697
105.46875 86.72295612043938
108.39844 86.63807813105615
112.79297 86.62869033908552
117.1875 86.48187821237256
120.11719 86.31491854854212
124.51172 86.05080897249255
128.90625 85.79174180509771
133.30078 85.49855611412515
139.16016 85.44091396330302
143.55469 85.26006948053595
147.94922 84.98222441884768
153.80859 84.72261274329881
159.66797 84.5693876714398
165.52734 84.30581837147372
171.38672 84.31536819223285
177.24609 84.12887285912583
183.10547 83.75141712780865
188.96484 83.55506775211995
196.28906 83.40707566863068
203.61328 82.81343136884203
210.9375 82.48847478143568
218.26172 82.09725330234568
225.58594 81.34815366046195
232.91016 81.20646012959035
241.69922 81.14526808974762
250.48828 80.95632392809162
259.27734 80.67670201672271
268.06641 80.80781986765066
276.85547 80.59627955212405
287.10938 80.09992121876203
297.36328 79.60546285284147
307.61719 78.94481274501827
319.33594 78.55490364014562
329.58984 78.45070326672005
341.30859 79.35635068190325
353.02734 79.95068975370253
366.21094 79.52404368484864
379.39453 78.56615311860429
392.57813 78.15393642877694
405.76172 78.84080024689976
420.41016 78.6904653069284
435.05859 77.52625345918166
451.17188 77.71720501984487
465.82031 76.72670541167177
483.39844 75.89699195498964
499.51172 77.18914246352291
517.08984 77.77274168711654
536.13281 77.58328500941869
555.17578 77.09151128791835
574.21875 76.40936314797085
594.72656 77.04777150264015
615.23438 77.28622905899122
637.20703 77.10844783610916
659.17969 77.58581985999643
682.61719 78.36406265901027
707.51953 77.39203510693646
732.42188 78.6489828149746
757.32422 77.30673195702474
785.15625 77.48895799424278
811.52344 77.6493619117307
840.82031 78.17968578022793
870.11719 77.08226828483936
900.87891 77.35325694821553
933.10547 77.03311895080498
965.33203 76.01557803909361
1000.4883 74.9828723496207
1035.6445 74.44907608586838
1072.2656 74.43725191776767
1108.8867 74.1007976053413
1148.4375 73.58098141203544
1189.4531 74.09118587819142
1230.4688 74.29797052869209
1274.4141 75.0679243371114
1319.8242 75.42330480855671
1366.6992 75.689865293552
1413.5742 75.90684852673647
1463.3789 75.55833873518822
1516.1133 75.46505277381989
1568.8477 74.97804111377513
1624.5117 75.05248141453141
1681.6406 75.38433309167793
1741.6992 75.58280497429632
1803.2227 75.60051144876289
1866.2109 75.03220852117911
1932.1289 74.31362506519845
1999.5117 74.7693122030076
2069.8242 74.38602832970813
2143.0664 74.13334177092145
2219.2383 73.04451536617283
2296.875 72.98554036106039
2378.9063 73.47911935569248
2462.4023 73.84883088527374
2548.8281 73.585517034061
2639.6484 72.60933617946826
2731.9336 71.83307918825872
2828.6133 72.34668762567503
2928.2227 72.4522741817944
3030.7617 72.40620891075196
3137.6953 72.00300328725697
3249.0234 71.2573232524814
3363.2813 70.03956333392074
3481.9336 69.61444399547804
3604.9805 70.63162353309943
3732.4219 70.77953098249347
3864.2578 70.89167012056552
4000.4883 70.38743026504127
4141.1133 71.08083534154775
4287.5977 70.83947577545376
4438.4766 71.52610017028668
4595.2148 70.40048154029003
4756.3477 70.21371959814314
4924.8047 70.30326356008551
5097.6563 70.01573904605236
5277.832 70.4649538659539
5463.8672 69.6634049214974
5657.2266 69.79750325693998
5856.4453 68.93282440008926
6062.9883 68.46916430841819
6276.8555 68.04983137081169
6498.0469 68.13549548214436
6726.5625 67.15853178272184
6963.8672 66.75196052714819
7209.9609 65.8830743530671
7464.8438 65.10645150919109
7727.0508 65.04689653507472
7999.5117 64.25639804931376
8282.2266 63.44982660223806
8573.7305 62.82413442267503
8876.9531 63.225405506846585
9188.9648 63.37994285465544
9514.1602 62.516282565433215
9849.6094 62.104472356644635
10196.777 61.98509537496358
10555.664 61.78032797141768
10927.734 61.48745957228002
11312.988 61.89133539204687
11712.891 61.94235241907046
12125.977 62.079472480536424
12553.711 62.551464488672394
12996.094 62.509129836862286
13454.59 61.84577033398867
13929.199 61.46554544522863
14419.922 60.96634910194547
14928.223 59.98787620707455
15455.566 59.20991677242549
16000.488 58.38970484589106
16564.453 57.992260782471874
17148.926 57.230520704204366
17752.441 56.544878800991086
18379.395 55.60262555523866
19026.855 54.381745889935644
19697.754 53.46686470183545
19999.512 53.62143491056747
