Freq "Ceiling Bounce"
20.5078 72.51210304835176
21.9727 73.29857066512393
23.4375 74.11600219100961
24.9023 75.27606078748077
26.3672 75.98755012535824
27.832 76.64278932040257
29.2969 77.41783471307828
30.7617 77.97910787094484
32.2266 78.41578746807072
33.6914 79.04780425142222
35.1562 79.55340762246801
36.6211 80.38224666850486
38.0859 80.81908714122322
39.5508 81.22561980361951
41.0156 81.62447729080432
42.4805 82.21256351034226
43.9453 82.62322830010207
45.4102 83.05288578097039
46.875 83.3498168037711
48.3398 83.6466202703403
51.2695 84.44069104736461
52.7344 84.81498981306682
54.1992 85.14871084270858
55.6641 85.44249057757993
58.5938 86.05957828010547
60.0586 86.3439938150421
62.9883 86.88375535137568
64.4531 87.1920632431678
67.3828 87.8139008308078
68.8477 88.03829181922536
71.7773 88.40363754501892
74.707 88.78736199871364
77.6367 89.1198186533312
79.1016 89.27632652936444
82.0312 89.64803953899236
84.9609 89.89277064252568
87.8906 90.44477085787761
90.8203 90.90771126311272
95.2148 91.21767796418433
98.1445 91.30991125555278
101.074 91.43602613443893
105.469 91.67415419272581
108.398 91.68191766680049
112.793 91.47657841914413
117.188 91.25479198241052
120.117 91.61996319403983
124.512 92.22887765764169
128.906 91.98177751385501
133.301 91.94825097007866
139.16 91.68659573837861
143.555 91.22605248138909
147.949 91.41466735517916
153.809 91.6563674735854
159.668 91.26635793053883
165.527 90.46828169788931
171.387 90.88999389068684
177.246 90.40544955300687
183.105 90.01501302967522
188.965 89.93354569206167
196.289 89.67756880556962
203.613 88.96415376485892
210.938 89.2475242650805
218.262 88.73933621087241
225.586 87.92453174049137
232.91 87.27778025505965
241.699 88.81541329051743
250.488 87.46389204178448
259.277 88.13142919279314
268.066 89.03566997246567
276.855 86.69725352605332
287.109 84.38559550143161
297.363 84.69223457280417
307.617 81.09325091004861
319.336 77.91512182535705
329.59 81.47474640443527
341.309 79.82400816062746
353.027 82.46662473715995
366.211 81.51796024409606
379.395 79.8331444764943
392.578 79.41102790404699
405.762 77.4081553548216
420.41 77.09974916723537
435.059 79.3231581335084
451.172 81.15806845575513
465.82 83.17596700317979
483.398 84.90013887587799
499.512 87.07891198809334
517.09 89.26495751759845
536.133 89.41806547343076
555.176 90.3042726369644
574.219 90.97189064492336
594.727 89.88750272450054
615.234 91.2739162045735
637.207 90.90744156028359
659.18 89.41566703174651
682.617 90.29700803943508
707.52 89.20002287040849
732.422 87.9524111546739
757.324 86.89924116559709
785.156 86.32820212182487
811.523 86.40934892146936
840.82 87.72448230412051
870.117 86.3880968440327
900.879 86.25101165231337
933.105 85.91624405498185
965.332 84.95148495714871
1000.49 82.98031796582852
1035.64 79.88022634534951
1072.27 78.01715387018623
1108.89 77.69198862480785
1148.44 79.55816957471815
1189.45 80.97660645298399
1230.47 82.34561571183274
1274.41 83.42220158016681
1319.82 83.5873008364959
1366.7 83.45250905128835
1413.57 83.63135011162545
1463.38 83.42150025708884
1516.11 82.7250834785328
1568.85 81.77708286482661
1624.51 82.03304492124047
1681.64 83.32365326359239
1741.7 83.94861848808935
1803.22 83.12877987644374
1866.21 83.60252014423246
1932.13 84.4412295786236
1999.51 84.77000921013972
2069.82 84.40239724592776
2143.07 84.55592683527253
2219.24 85.02539481481712
2296.88 83.90744741652234
2378.91 84.00407124615606
2462.4 84.41732783850422
2548.83 83.55703147928607
2639.65 83.27000887846401
2731.93 84.32252298122764
2828.61 84.29704622317344
2928.22 83.93083081703459
3030.76 84.38570420164893
3137.7 84.8996052176291
3249.02 83.98430878132156
3363.28 84.82836159340351
3481.93 84.02422922585907
3604.98 84.7351356759598
3732.42 84.25591203045956
3864.26 84.71440063533085
4000.49 83.41805897517952
4141.11 84.08437652808463
4287.6 83.92619684257716
4438.48 84.53337253969467
4595.21 83.6802852256806
4756.35 83.4145945746081
4924.8 82.78855432691081
5097.66 83.33005197251808
5277.83 83.08626726117264
5463.87 83.02344387275805
5657.23 83.30093088157872
5856.45 83.64638038587374
6062.99 84.01136009044835
6276.86 83.85632335361522
6498.05 83.70252951555268
6726.56 83.67267159079304
6963.87 84.13627936558886
7209.96 84.42408183660442
7464.84 84.31661032194262
7727.05 84.71998911533595
7999.51 85.28282400027241
8282.23 85.49604214146494
8573.73 84.70378351992261
8876.95 83.81732442438567
9188.96 82.43176156756944
9514.16 82.2560088028982
9849.61 83.53574450911906
10196.8 84.8715896703829
10555.7 84.36226681307734
10927.7 84.0891678139004
11313.0 83.36471432819167
11712.9 82.26168539061793
12126.0 81.55862613916283
12553.7 82.44180904516445
12996.1 82.1455912942604
13454.6 81.54300054861328
13929.2 81.33394817778931
14419.9 79.86248931120821
14928.2 78.09886577849049
15455.6 82.26253244785381
16000.5 82.06150953375074
16564.5 81.56235912149748
17148.9 79.46744980253955
17752.4 80.29564718862004
18379.4 81.25565842322455
19026.9 77.7505299541847
19697.8 75.78950866002776
19999.5 75.51216950735046
