Freq "Side Wall Bounce"
20.5078 72.6051190462841
21.9727 73.35784490179222
23.4375 74.21538656041191
24.9023 75.3416762169429
26.3672 76.02786917192836
27.832 76.71751902532101
29.2969 77.497160923607
30.7617 78.0750789709222
32.2266 78.51475196626168
33.6914 79.14126538140607
35.1562 79.67690970340341
36.6211 80.47465172291378
38.0859 80.91343805466914
39.5508 81.34053735154637
41.0156 81.73270604688788
42.4805 82.30597173871743
43.9453 82.73409643096129
45.4102 83.16087446882149
46.875 83.49191243947776
48.3398 83.83051463212514
51.2695 84.62592024405893
52.7344 85.00029863232703
54.1992 85.34883360165504
55.6641 85.64551559649098
58.5938 86.28132283362093
60.0586 86.57886328646678
62.9883 87.13259311644777
64.4531 87.45290745990351
67.3828 88.08379981613876
68.8477 88.33184365994377
71.7773 88.74406823683164
74.707 89.13340640455799
77.6367 89.51316942186752
79.1016 89.69484411955297
82.0312 90.08485529387491
84.9609 90.39397971290266
87.8906 90.92534336680585
90.8203 91.39740908920477
95.2148 91.7584591554314
98.1445 91.88041281931959
101.074 92.00255957100467
105.469 92.29914968514791
108.398 92.4326710167215
112.793 92.26515883862425
117.188 92.05845490153341
120.117 92.37427492869111
124.512 93.08896967888568
128.906 92.89077477126067
133.301 92.83147396923546
139.16 92.6616568635264
143.555 92.3840381489929
147.949 92.64227806357987
153.809 92.89904251133188
159.668 92.73214464372872
165.527 92.21310331152252
171.387 92.80266445630042
177.246 92.47803448787089
183.105 92.25921379039738
188.965 92.23758783686021
196.289 92.14528253926525
203.613 91.61188831028572
210.938 92.0553607401783
218.262 92.33074287957271
225.586 91.90847841089487
232.91 91.05418733955682
241.699 92.53377365394647
250.488 91.6364967662203
259.277 92.67773225923953
268.066 93.96793504937274
276.855 92.61968658865582
287.109 91.5390875562763
297.363 92.41093118375598
307.617 91.64371778318748
319.336 90.0165427449979
329.59 90.51306427644055
341.309 90.684340000949
353.027 91.05310592118592
366.211 91.62651775852963
379.395 91.382887205027
392.578 91.6038443154485
405.762 91.20761628253744
420.41 88.71421742220527
435.059 88.75038940415465
451.172 88.93191501615267
465.82 87.19621901960366
483.398 87.72468328101608
499.512 85.50104456690003
517.09 85.7758761779401
536.133 88.53355035797021
555.176 89.34840666146555
574.219 90.62709366832327
594.727 91.18261482977097
615.234 91.60535878549562
637.207 92.18584645836927
659.18 90.81272136826898
682.617 91.76605090621877
707.52 89.95604904510921
732.422 89.86988875772111
757.324 88.88360063044303
785.156 87.30480228464197
811.523 86.70192146131934
840.82 86.55498234174478
870.117 86.32400972704885
900.879 86.98719858362111
933.105 86.12079633840905
965.332 86.17040561466433
1000.49 86.06762898692598
1035.64 86.71331943489831
1072.27 87.16100273019096
1108.89 87.24221446091511
1148.44 87.2684304162378
1189.45 86.22053870049376
1230.47 84.56676459673957
1274.41 82.95764068609192
1319.82 81.61519939531202
1366.7 80.71726653928626
1413.57 79.48852768127001
1463.38 78.94128640387981
1516.11 79.22070089941364
1568.85 78.67858830757525
1624.51 78.97825370219343
1681.64 79.70714314395138
1741.7 80.97398649341419
1803.22 81.06745496252508
1866.21 81.72602446438519
1932.13 81.90557809591492
1999.51 81.83293687492896
2069.82 81.85922334295326
2143.07 81.68281403372826
2219.24 80.92649268274366
2296.88 80.73767109554586
2378.91 80.22889953166815
2462.4 80.88556107115453
2548.83 80.84839349109707
2639.65 81.46737261433246
2731.93 81.59834486926586
2828.61 81.66962982715039
2928.22 81.68861081149258
3030.76 82.02531094425514
3137.7 82.09391245257511
3249.02 82.28006369211194
3363.28 82.90351406419744
3481.93 82.84544521756422
3604.98 82.65222121657699
3732.42 82.5849041742069
3864.26 82.51431679026236
4000.49 81.98806391604512
4141.11 81.52523658992186
4287.6 81.69169224013623
4438.48 82.33022245312901
4595.21 82.76506716083625
4756.35 81.9443330379847
4924.8 81.5082218982913
5097.66 81.57427430251815
5277.83 82.01359748982686
5463.87 82.04579976390504
5657.23 82.69587235638488
5856.45 82.7593305676688
6062.99 82.8015492402072
6276.86 82.06586399204973
6498.05 81.34465223434292
6726.56 81.17899256538229
6963.87 81.38070059704825
7209.96 81.7585225821844
7464.84 82.20011053210611
7727.05 82.55480900267395
7999.51 82.67876927764996
8282.23 82.79741400820764
8573.73 82.34776489155412
8876.95 81.33232542671827
9188.96 80.2550439943269
9514.16 80.472159289563
9849.61 82.02370489399348
10196.8 82.46788495814363
10555.7 82.07297612018486
10927.7 81.08664450730372
11313.0 80.61700902418765
11712.9 79.63138340509839
12126.0 79.05732518585536
12553.7 79.13373477319395
12996.1 79.48163541828647
13454.6 78.9028389426945
13929.2 77.85309543821067
14419.9 77.06614537803851
14928.2 76.89127172053166
15455.6 78.46554668701792
16000.5 77.59158211602042
16564.5 78.58580447699391
17148.9 76.87850248189552
17752.4 76.52914884749548
18379.4 78.24237794066003
19026.9 77.00953392472563
19697.8 75.26250296678933
19999.5 73.95399637773973
