Freq "Front Wall Bounce"
22.4 48.20000000000002
23.0 49.243139395337835
23.6 50.17166275391892
24.0 51.0
25.0 52.0716627539189
25.8 53.0716627539189
26.5 53.971662753918906
27.2 54.400000000000006
28.0 53.70000000000002
29.0 52.64313939533784
30.0 51.27166275391889
30.7 51.79999999999998
31.5 52.77166275391892
32.5 53.54313939533782
33.5 53.471662753918906
34.5 53.17166275391892
35.5 53.400000000000006
36.5 55.67166275391892
37.5 57.314427463397436
38.7 60.17166275391891
40.0 62.67166275391891
41.2 64.27166275391892
42.5 65.37166275391891
43.7 66.4
45.0 68.37166275391891
46.2 70.0716627539189
47.5 72.9716627539189
48.7 75.0
50.0 76.4716627539189
51.5 77.81442746339746
53.0 79.87166275391891
54.5 81.54313939533782
56.0 82.94313939533782
58.0 84.0716627539189
60.0 85.0716627539189
61.5 86.04313939533782
63.0 86.5716627539189
65.0 86.5716627539189
67.0 86.67166275391891
69.0 86.64313939533781
71.0 86.2861845050195
73.0 86.0716627539189
75.0 85.94313939533782
77.5 85.84313939533781
80.0 85.67166275391892
82.5 85.5716627539189
85.0 86.0716627539189
87.5 85.51508314243884
90.0 85.8861845050195
92.5 85.5861845050195
95.0 85.41508314243883
97.5 85.51508314243884
100.0 85.41508314243883
103.0 85.5861845050195
106.0 85.61508314243885
109.0 85.42979499755904
112.0 85.48748929892041
115.0 85.41508314243883
118.0 85.52979499755905
122.0 85.28748929892042
125.0 85.22979499755904
128.0 84.98748929892041
132.0 85.18748929892041
136.0 84.98748929892041
140.0 85.1590700361194
145.0 85.20229476693692
150.0 85.2590700361194
155.0 85.20229476693692
160.0 85.21834583164505
165.0 85.47788361157316
170.0 85.5477056434894
175.0 85.44675150375353
180.0 85.38879404668057
185.0 85.48748929892041
190.0 85.74412398190061
195.0 85.98683695097148
200.0 86.04346508697898
206.0 85.85742449135816
212.0 85.35742449135815
218.0 84.82880715674528
224.0 84.57626691117765
230.0 85.20054466906268
236.0 85.12737639911865
240.0 84.85839917314667
250.0 84.62124129132604
258.0 84.66952202684904
265.0 84.76896449293784
272.0 84.50840531031672
280.0 83.90198234838043
290.0 84.04041664080357
300.0 84.15406835304984
307.0 84.09872877741277
315.0 83.95923008489721
325.0 83.72062312920022
335.0 83.53538013559191
345.0 83.43628713343702
355.0 83.41053927635811
365.0 83.23923677204516
375.0 82.90077486363643
387.0 82.54878381113575
400.0 82.2421812975326
412.0 81.97783162771121
425.0 81.71172399843907
437.0 81.51719910787327
450.0 81.16573363004048
462.0 80.41065141851257
475.0 79.64990428165719
487.0 80.49992355379808
500.0 81.50654780856618
515.0 81.53115943234643
530.0 81.0930657945145
545.0 80.77227549667502
560.0 80.73295297664748
580.0 80.81502103061675
600.0 80.88122617079723
615.0 80.70732548722061
630.0 80.5040613263841
650.0 80.34291765615929
670.0 80.09295058605665
690.0 80.06701299695236
710.0 80.43403794617572
730.0 80.98655401295228
750.0 81.28819683221536
775.0 81.30973935495024
800.0 81.03927428217861
825.0 81.36583990597885
850.0 82.15354065498238
875.0 82.09284325867529
900.0 81.46147814864719
925.0 81.0964781185996
950.0 80.83978385925495
975.0 80.28657483225997
1000.0 80.09571384999039
1030.0 80.40735525833188
1060.0 80.44698800975671
1090.0 79.8391342134272
1120.0 79.44891590858494
1150.0 79.10450592514272
1180.0 78.43647247152765
1220.0 77.81110288902758
1250.0 77.48378610549241
1280.0 77.48243987838177
1320.0 77.39763086690337
1360.0 77.3160104628964
1400.0 77.67658354115649
1450.0 77.88914861072718
1500.0 78.16592194054954
1550.0 78.01586776099435
1600.0 78.06919840993761
1650.0 78.88054591002624
1700.0 78.8540716564593
1750.0 78.90140158073055
1800.0 78.29249225791696
1850.0 77.10010666462863
1900.0 76.18358251492222
1950.0 75.49483082267669
2000.0 76.41468999382434
2060.0 75.96019440826934
2120.0 76.10880428340887
2180.0 77.62583597521233
2240.0 78.91580450740788
2300.0 79.87031173822113
2360.0 80.49346829001573
2400.0 80.10837618243173
2500.0 79.2430647324846
2580.0 77.24338643704729
2650.0 76.2000834871337
2720.0 78.1504534333564
2800.0 77.68204654345367
2900.0 77.33763669924907
3000.0 76.19367865030259
3070.0 71.63435348275367
3150.0 70.80715770120761
3250.0 75.42507267762616
3350.0 77.90234363813558
3450.0 79.04657433226546
3550.0 79.66327055622713
3650.0 79.57685801403895
3750.0 80.14809518621884
3870.0 81.04136938087206
4000.0 81.42644830123959
4120.0 80.44644357895072
4250.0 78.32475946549995
4370.0 75.3845414982139
4500.0 75.89944938966914
4620.0 73.21969383694292
4750.0 67.91107307328444
4870.0 72.02668920527078
5000.0 76.94612258374286
5150.0 79.1900871452396
5300.0 78.13187235213363
5450.0 76.54513425417
5600.0 78.38079862871214
5800.0 81.49308125122144
6000.0 82.10705871976013
6150.0 81.73380368614258
6300.0 81.66002746666838
6500.0 81.01010045466849
6700.0 80.27636716096839
6900.0 76.5501801045784
7100.0 70.32104328188746
7300.0 75.67477396049952
7500.0 73.99354722667636
7750.0 72.56517917687229
8000.0 73.81990650756543
8250.0 75.31298793181402
8500.0 76.04892812926141
8750.0 79.75034975112075
9000.0 82.19595863316651
9250.0 84.35241741485893
9500.0 85.86529219311613
9750.0 83.71652808879017
10000.0 83.98382452623218
10300.0 83.97430470375619
10600.0 84.97110288895189
10900.0 85.17233355382088
11200.0 85.0874253330343
11500.0 84.49950795321337
11800.0 83.02394299714089
12200.0 83.89012859256096
12500.0 83.79911194792622
12800.0 83.36445682813034
13200.0 79.20243191844469
13600.0 82.9662895178225
14000.0 82.22040362442797
14500.0 82.05351728898839
15000.0 80.70257815080657
15500.0 75.31490658888671
16000.0 76.16600095221648
16500.0 78.6989076239477
17000.0 77.63263843795951
17500.0 74.7067486122769
18000.0 70.1846137344227
18500.0 68.00169569200884
19000.0 62.551150407313514
19500.0 55.44747008217067
