Freq "Side Wall Bounce"
22.4 51.232035838144085
23.0 52.25259223630816
23.6 53.17258714740514
24.0 53.97258714740515
25.0 55.072587147405144
25.8 56.072587147405144
26.5 56.97258714740512
27.2 57.392952945208535
28.0 56.69295294520852
29.0 55.652592236308166
30.0 54.27258714740513
30.7 54.77258714740513
31.5 55.77258714740513
32.5 56.51231338213539
33.5 56.45259223630815
34.5 56.11231338213538
35.5 56.372587147405156
36.5 58.65259223630814
37.5 60.29295294520854
38.7 63.152592236308166
40.0 65.65259223630817
41.2 67.25259223630816
42.5 68.30264395203744
43.7 69.35259223630815
45.0 71.29295294520853
46.2 73.0329631225183
47.5 75.89295294520852
48.7 77.93296312251827
50.0 79.4136947257038
51.5 80.73296312251829
53.0 82.8136947257038
54.5 84.4136947257038
56.0 85.81369472570381
58.0 87.0136947257038
60.0 88.0136947257038
61.5 88.91369472570379
63.0 89.47305179336551
65.0 89.4136947257038
67.0 89.5136947257038
69.0 89.5136947257038
71.0 89.11369472570381
73.0 88.91369472570379
75.0 88.73481758890634
77.5 88.61369472570381
80.0 88.45536085554774
82.5 88.33481758890635
85.0 88.83481758890635
87.5 88.25536085554775
90.0 88.57534305325827
92.5 88.27676864946159
95.0 88.09665281534876
97.5 88.19665281534874
100.0 88.09665281534876
103.0 88.19665281534874
106.0 88.158129177478
109.0 88.02059851686738
112.0 88.02059851686738
115.0 87.92059851686739
118.0 88.02059851686738
122.0 87.68185492933448
125.0 87.64267929996417
128.0 87.34580925523463
132.0 87.49596569613277
136.0 87.2682725912646
140.0 87.3682725912646
145.0 87.3682725912646
150.0 87.43209428627573
155.0 87.27656080843418
160.0 86.8883752361089
165.0 86.91375977313615
170.0 86.98971478654529
175.0 86.95042176242337
180.0 86.982857285234
185.0 87.1985074591244
190.0 87.62603576747266
195.0 88.05453536622366
200.0 88.37350378917593
206.0 88.47608043167564
212.0 88.34487930421817
218.0 88.08593824174383
224.0 87.61300410883943
230.0 87.14443207277984
236.0 86.85489786700205
240.0 86.40914262605195
250.0 85.82843268407439
258.0 85.39504741480272
265.0 84.97298746042482
272.0 84.33160674624831
280.0 83.64778890435369
290.0 83.9197220175821
300.0 84.24890638634014
307.0 84.55649345108104
315.0 84.66675862225665
325.0 84.48924372554272
335.0 84.08435977278599
345.0 83.54264846414792
355.0 83.0290568448507
365.0 82.82050254326055
375.0 82.86493476140076
387.0 82.98114838966114
400.0 82.82964478980377
412.0 82.20175221319148
425.0 81.14277388769004
437.0 79.73921751178425
450.0 78.12025477247151
462.0 77.5117837109466
475.0 79.25475711461242
487.0 80.93518569565346
500.0 81.1500274785648
515.0 80.72275423774214
530.0 80.222182830406
545.0 79.74181191746234
560.0 79.73795039158539
580.0 80.01689823796312
600.0 79.68159529867543
615.0 78.20522861908854
630.0 76.81526698949263
650.0 76.26684218679294
670.0 75.91070886594281
690.0 75.96098707503089
710.0 76.39681318191622
730.0 77.28689822676688
750.0 78.23341612488686
775.0 79.1140838456868
800.0 79.63454397831102
825.0 80.15879857378316
850.0 80.89855203246078
875.0 81.15443807623781
900.0 80.88001464761872
925.0 80.23912534560792
950.0 79.2479575442179
975.0 77.85179729914803
1000.0 76.23321502327133
1030.0 76.55001804242302
1060.0 78.95572200505038
1090.0 80.4268158061784
1120.0 80.53835961992093
1150.0 79.62207272260015
1180.0 77.41609680303033
1220.0 74.14392287660803
1250.0 72.38559128128712
1280.0 73.02701834861627
1320.0 74.02265691390788
1360.0 74.39459192209758
1400.0 74.14677155878864
1450.0 73.98518817502095
1500.0 74.32520991291042
1550.0 74.14289528120902
1600.0 74.0363591662573
1650.0 74.45060927785698
1700.0 74.63313971628652
1750.0 75.75552729760686
1800.0 76.69735931384928
1850.0 76.3001930876509
1900.0 76.37238129473079
1950.0 76.93779928199962
2000.0 75.83256891572564
2060.0 74.91718155351252
2120.0 74.50813758904796
2180.0 74.24591152167592
2240.0 74.83639071210379
2300.0 74.99076330439719
2360.0 74.86702114550462
2400.0 73.35793010355104
2500.0 73.43206655281296
2580.0 74.08394660821388
2650.0 76.40433184651353
2720.0 77.25482675463776
2800.0 77.65843315983135
2900.0 78.81479169241182
3000.0 79.20606219607883
3070.0 78.69132919781146
3150.0 76.98615505416146
3250.0 73.96118943741341
3350.0 71.32159024259938
3450.0 71.73318376005739
3550.0 74.36084819518784
3650.0 75.93904371295217
3750.0 77.5063154916369
3870.0 79.69477733903425
4000.0 79.83069565125633
4120.0 78.39927181942252
4250.0 76.19720584947267
4370.0 75.16236592064136
4500.0 76.81237726376708
4620.0 77.33078041592415
4750.0 76.0140631758843
4870.0 73.80660962944135
5000.0 72.35244567598532
5150.0 74.52449076986235
5300.0 74.754109464423
5450.0 77.54370346496229
5600.0 77.01002863007155
5800.0 79.73062123946029
6000.0 81.62475650068431
6150.0 79.67015685031676
6300.0 78.75614306161982
6500.0 78.2742083191265
6700.0 78.1755844561557
6900.0 77.70820046445074
7100.0 78.25072980345563
7300.0 78.08836671854105
7500.0 75.69458282361408
7750.0 74.77127990127899
8000.0 71.98660085607693
8250.0 74.0915144288633
8500.0 73.22967140915536
8750.0 77.84293835596411
9000.0 79.9813998410859
9250.0 80.6703511939207
9500.0 83.10789823187633
9750.0 85.21685659475526
10000.0 86.55257126174574
10300.0 85.89919761497052
10600.0 85.51340997215594
10900.0 81.67416301899793
11200.0 81.62977092082913
11500.0 82.59568039236429
11800.0 82.88242900107436
12200.0 84.75110546934245
12500.0 84.19371277554578
12800.0 81.4621916921976
13200.0 82.257197716042
13600.0 81.71814004469333
14000.0 79.25750222423424
14500.0 79.93709080408337
15000.0 79.50330052336383
15500.0 76.9896803882601
16000.0 76.11576011141672
16500.0 76.61140763763608
17000.0 72.34952912696927
17500.0 73.36996788642092
18000.0 67.36915714046178
18500.0 63.80604734530989
19000.0 59.45930323018506
19500.0 51.815104591005465
