Freq "Total Early Reflection"
22.4 47.97122761679917
23.0 49.0026625271946
23.6 49.90895573594604
24.0 50.718908688147835
25.0 51.81084949934767
25.8 52.8128777873239
26.5 53.698491899015195
27.2 54.13489844953331
28.0 53.41449163730185
29.0 52.36761306611719
30.0 50.991671522991695
30.7 51.50360524019801
31.5 52.48642328442652
32.5 53.24165854378286
33.5 53.16678820959815
34.5 52.837767666576
35.5 53.085712169975395
36.5 55.34133934275086
37.5 56.998109566997115
38.7 59.83463525145565
40.0 62.34050270729331
41.2 63.93091673300397
42.5 64.99611428884218
43.7 66.0184037853531
45.0 67.9734268191078
46.2 69.69029806195432
47.5 72.54064132207503
48.7 74.57428205543361
50.0 76.04726012078144
51.5 77.3652019046562
53.0 79.41105680509101
54.5 81.05035035353855
56.0 82.4293154268802
58.0 83.58925745830251
60.0 84.57108359970024
61.5 85.4963754951339
63.0 86.02948514729997
65.0 85.9881594381507
67.0 86.07972927474226
69.0 86.01340708201626
71.0 85.64093238203928
73.0 85.41435004036715
75.0 85.2396401115288
77.5 85.10725507230067
80.0 84.91712848881023
82.5 84.79009423118227
85.0 85.2585301068173
87.5 84.68184470472623
90.0 85.00434517166975
92.5 84.67335622387445
95.0 84.47178154517341
97.5 84.56228132822304
100.0 84.42840505305956
103.0 84.5279155380431
106.0 84.499055296954
109.0 84.33709511366042
112.0 84.31659148643054
115.0 84.20326156500579
118.0 84.29298052597915
122.0 83.97819581267642
125.0 83.88722688732182
128.0 83.5929091093246
132.0 83.75028361175369
136.0 83.51180699294639
140.0 83.61866316711807
145.0 83.62082441363522
150.0 83.64474620269935
155.0 83.51573876963768
160.0 83.32135319346848
165.0 83.45061231874027
170.0 83.45474252649541
175.0 83.30388550548479
180.0 83.22301509033679
185.0 83.3176464870577
190.0 83.61531688322508
195.0 83.92196708409038
200.0 84.08051485509205
206.0 84.0523974006075
212.0 83.7893365819813
218.0 83.49554474484837
224.0 83.25597884540971
230.0 83.45624024824758
236.0 83.29254786698247
240.0 82.9728215859384
250.0 82.60472241800515
258.0 82.40099025588067
265.0 82.25583845788492
272.0 81.79531175155621
280.0 81.04445541553697
290.0 81.08476845984198
300.0 81.16498561341835
307.0 81.17773346876207
315.0 81.13081872178897
325.0 80.9940229161252
335.0 80.82952557413151
345.0 80.67328479471563
355.0 80.48554205579605
365.0 80.24685710682037
375.0 79.9664422803823
387.0 79.84759061861205
400.0 79.79699046949648
412.0 79.72227363531671
425.0 79.52017788827105
437.0 79.22237173030811
450.0 78.67445334516675
462.0 77.83877976106889
475.0 77.26043487587347
487.0 78.00751221847632
500.0 78.72728856109073
515.0 78.8256937450372
530.0 78.42328772512819
545.0 78.01511597011961
560.0 77.9025787362065
580.0 78.06852705052263
600.0 78.17508464502872
615.0 77.78686506714978
630.0 77.37220423211092
650.0 77.11386991563305
670.0 76.76276517334759
690.0 76.54567057034787
710.0 76.68820146433981
730.0 77.1930714394296
750.0 77.4966946502081
775.0 77.61682735041313
800.0 77.37804222086716
825.0 77.53033235820803
850.0 78.08918697692592
875.0 77.95797415623464
900.0 77.35333437630615
925.0 76.97671843668326
950.0 76.72184926838459
975.0 76.24735580645046
1000.0 76.18325131981739
1030.0 76.78936150146522
1060.0 77.10735879117486
1090.0 76.67553454293781
1120.0 76.55447507839753
1150.0 76.70645552170829
1180.0 76.39568645660337
1220.0 75.95407408145432
1250.0 75.7706684170585
1280.0 75.79008760587455
1320.0 75.67754574474797
1360.0 75.3546969092873
1400.0 75.3326262200069
1450.0 75.36453816076526
1500.0 75.68125576754173
1550.0 75.62504550691642
1600.0 75.75836530195643
1650.0 76.30074376305895
1700.0 75.90799006583298
1750.0 75.86031085881332
1800.0 75.55669017715908
1850.0 74.78822845977689
1900.0 74.28113523335493
1950.0 73.92285412814788
2000.0 74.24372064306334
2060.0 73.89477221254774
2120.0 74.31057225686574
2180.0 75.66292105330034
2240.0 76.1063158626543
2300.0 76.18181162987084
2360.0 76.4422015269773
2400.0 75.5249010380126
2500.0 74.35174347010313
2580.0 73.25296979121863
2650.0 73.69560356562559
2720.0 74.83726722002895
2800.0 74.57470193585074
2900.0 75.17745715401257
3000.0 75.39656211990702
3070.0 75.25621803261096
3150.0 75.48272653656088
3250.0 75.1987118114844
3350.0 74.82610554690389
3450.0 74.54836434327079
3550.0 74.42044597500582
3650.0 74.10287993891542
3750.0 74.78190984929545
3870.0 75.93496236015754
4000.0 76.64388451055
4120.0 75.72859176738403
4250.0 74.1002706366799
4370.0 73.22886108393257
4500.0 75.17896564464766
4620.0 75.88944692940883
4750.0 75.56543758612405
4870.0 75.37559116033863
5000.0 76.00164250551546
5150.0 77.42179764526968
5300.0 76.79280193155476
5450.0 75.76152258897424
5600.0 75.05548110243438
5800.0 77.42034849119328
6000.0 78.39169275631183
6150.0 77.8598285449775
6300.0 77.45387076703068
6500.0 77.17599715995898
6700.0 77.08793051505045
6900.0 75.45266810809034
7100.0 74.53255493147905
7300.0 74.78249527440492
7500.0 73.24146008557092
7750.0 72.95513951914778
8000.0 74.84546448502785
8250.0 74.14182999937228
8500.0 75.04904555308214
8750.0 76.90925558601417
9000.0 77.54654335984037
9250.0 79.02341936882709
9500.0 81.35270192747446
9750.0 80.79281007047375
10000.0 81.8108933527948
10300.0 81.31910797573671
10600.0 81.93104385287556
10900.0 81.25656520022066
11200.0 79.70516328661442
11500.0 79.82564150747918
11800.0 78.65864418901938
12200.0 79.64218050834909
12500.0 79.12774204677872
12800.0 79.16728627608732
13200.0 77.48827243312765
13600.0 78.54342193042854
14000.0 77.47665658799495
14500.0 78.5736934030786
15000.0 78.55554070810932
15500.0 73.87855039405149
16000.0 76.6475979130499
16500.0 76.53601107247506
17000.0 73.79861185045878
17500.0 69.62764257706783
18000.0 66.20502735833415
18500.0 63.390706028680654
19000.0 59.10485954450634
19500.0 54.22566128522756
