Freq "Rear Wall Bounce"
20.5078 45.36691350162613
21.9727 48.01817534657687
23.4375 54.02902007792002
24.9023 57.671130367591985
26.3672 60.60023224748656
27.832 64.07476616466738
29.2969 68.63073964248913
30.7617 70.95640393997424
32.2266 73.1506530717385
33.6914 75.11644305089412
35.1562 76.8779880612982
36.6211 78.24158937208993
38.0859 78.95860023585519
39.5508 79.55580993850269
41.0156 80.10868178697089
42.4805 80.76627272722064
43.9453 81.26044753500813
45.4102 82.0329246530544
46.875 82.26123352332702
48.3398 82.47010437610987
51.2695 82.94956469872263
52.7344 83.14024795214513
54.1992 83.35099453880258
55.6641 83.40761865102235
58.5938 83.88958389882796
60.0586 83.95833621410088
62.9883 84.1226133363498
64.4531 84.20879425037697
67.3828 84.35209461940215
68.8477 84.5220676881201
71.7773 84.53012747868557
74.707 84.69437596419735
77.6367 84.8779013936008
79.1016 84.92394895726414
82.0312 85.10698400960928
84.9609 85.4181956591645
87.8906 85.73299782039246
90.8203 85.97212024628513
95.2148 86.33097209205724
98.1445 86.47789408788952
101.074 86.6019616589135
105.469 86.80448195775784
108.398 86.97027367311047
112.793 87.09648459474074
117.188 87.05738814600431
120.117 87.21809590784906
124.512 87.41352044276184
128.906 87.47925917726201
133.301 87.35837658607471
139.16 86.90046574767709
143.555 86.49012480205202
147.949 86.11505305001248
153.809 85.84807471257535
159.668 85.59392894786465
165.527 85.28708630116861
171.387 85.28017727858588
177.246 84.83883929572741
183.105 84.59453009707882
188.965 84.36112134557501
196.289 84.01820881382999
203.613 83.83423532889702
210.938 83.66455454594808
218.262 83.64733786586292
225.586 84.00287980266131
232.91 83.61770206598646
241.699 84.22625373694359
250.488 84.27047284477999
259.277 83.88686541778856
268.066 84.30058362152803
276.855 83.97975816925972
287.109 83.55160347464576
297.363 82.79843585570063
307.617 82.95558134463107
319.336 83.11079762689896
329.59 82.78099625784905
341.309 82.69755158589207
353.027 82.70725734761265
366.211 82.46989441500716
379.395 81.89243737752591
392.578 81.98322947466367
405.762 81.87709567045722
420.41 81.63161961230522
435.059 82.1301790303928
451.172 82.00742158310337
465.82 81.51803153287129
483.398 80.87455042363646
499.512 80.78263115050511
517.09 80.84987789087111
536.133 80.7423669139386
555.176 80.82327099202739
574.219 80.53615562295924
594.727 79.81075200266893
615.234 79.92217505581011
637.207 80.41658344160705
659.18 78.85623429756183
682.617 79.53202476491968
707.52 78.19521560439718
732.422 78.95751579605582
757.324 78.20022063189151
785.156 77.14727048567923
811.523 78.4683621998101
840.82 77.01669658637776
870.117 80.25713557765897
900.879 77.25186949852065
933.105 77.83520435421069
965.332 79.00037606024854
1000.49 77.12254413547751
1035.64 78.12112800127659
1072.27 77.06137347800689
1108.89 77.81953735400967
1148.44 75.84774065375792
1189.45 74.613936073784
1230.47 75.45772320777743
1274.41 75.73849621419863
1319.82 75.42284232889216
1366.7 74.83724062376024
1413.57 74.71500200728252
1463.38 77.13366206426696
1516.11 76.80434662096296
1568.85 76.7852029701821
1624.51 75.18645544296719
1681.64 76.5239074787973
1741.7 76.44466393236613
1803.22 76.27911160421957
1866.21 75.69800154299074
1932.13 75.51769580539438
1999.51 74.80131473271179
2069.82 76.12986210706632
2143.07 75.36778841325685
2219.24 74.58109534745304
2296.88 75.32308776318158
2378.91 75.45104223495059
2462.4 74.69176044798056
2548.83 75.55842919152437
2639.65 75.1488727854249
2731.93 75.39899314442745
2828.61 74.57739214067739
2928.22 75.21264291018218
3030.76 73.71632135336931
3137.7 74.92477190524386
3249.02 73.75648996545927
3363.28 73.7808161353139
3481.93 74.29996236638249
3604.98 74.21260595513874
3732.42 73.91947312539664
3864.26 73.84514012214444
4000.49 73.58409102515895
4141.11 73.21214634874426
4287.6 72.85168093201257
4438.48 71.72808517381674
4595.21 71.87292953971385
4756.35 70.52239371230066
4924.8 71.37682432243973
5097.66 70.90800741834516
5277.83 71.57371099143481
5463.87 70.50372277478073
5657.23 70.84792478951294
5856.45 69.64843605006722
6062.99 68.77202248659454
6276.86 68.58549460497893
6498.05 68.9172103719357
6726.56 68.80682119678498
6963.87 68.64544680232606
7209.96 68.24291233879941
7464.84 67.0866207013593
7727.05 66.32960879302739
7999.51 65.53820807648094
8282.23 65.0405533438555
8573.73 63.607654899882874
8876.95 62.849522351109755
9188.96 62.92392485177834
9514.16 62.45245461345792
9849.61 62.39259134209669
10196.8 63.14692196802801
10555.7 62.7348763989491
10927.7 62.429897881416366
11313.0 62.557028049387554
11712.9 62.67782520566371
12126.0 62.29375437698056
12553.7 61.58587705359193
12996.1 61.2727388708754
13454.6 61.33499336038457
13929.2 61.15185249991916
14419.9 60.75678096774337
14928.2 60.1380632345666
15455.6 58.870490563885426
16000.5 57.6474073976143
16564.5 56.71384557646536
17148.9 56.51997655679159
17752.4 55.859146085057034
18379.4 53.84396379643667
19026.9 52.62056698002539
19697.8 52.2424814794567
19999.5 53.11179723660828
