Freq "Listening Window"
22.4 60.96811781042895
23.0 61.14561764188507
23.6 61.33406027207006
24.0 61.50191624849971
25.0 61.64561764188507
25.8 61.79102203188994
26.5 61.934060272070056
27.2 62.03406027207005
28.0 62.15662024195923
29.0 62.26811781042899
30.0 62.35662024195925
30.7 62.411382499388836
31.5 62.51138249938883
32.5 62.577657937497506
33.5 62.621047934791775
34.5 62.71138249938882
35.5 62.72104793479177
36.5 62.78739863629495
37.5 62.82104793479179
38.7 62.92104793479179
40.0 63.09830193453003
41.2 63.39830193453004
42.5 63.95349255422373
43.7 64.82104793479179
45.0 65.9309162889998
46.2 67.2309162889998
47.5 68.6309162889998
48.7 70.0409913469961
50.0 71.45201163053632
51.5 72.84099134699609
53.0 74.20698465569639
54.5 75.4069846556964
56.0 76.5069846556964
58.0 77.4069846556964
60.0 78.15127694432054
61.5 78.78468546782891
63.0 79.36227119186447
65.0 80.01735101237058
67.0 80.67274469903079
69.0 81.42793327929743
71.0 82.2057416693829
73.0 82.97274469903078
75.0 83.6389867055376
77.5 84.18343608197199
80.0 84.64976141371751
82.5 85.08343608197201
85.0 85.52768134483138
87.5 86.08343608197201
90.0 86.62768134483137
92.5 87.22768134483138
95.0 87.75001790898149
97.5 88.22768134483137
100.0 88.53873541148465
103.0 88.83873541148465
106.0 89.05001790898149
109.0 89.25001790898149
112.0 89.45001790898151
115.0 89.6500179089815
118.0 89.82844297184224
122.0 89.99485705659298
125.0 90.01710421214321
128.0 90.01710421214321
132.0 89.92844297184224
136.0 89.82844297184224
140.0 89.77350427166124
145.0 89.82844297184224
150.0 89.93975220485983
155.0 90.06228270317267
160.0 90.17350427166126
165.0 90.28495728668
170.0 90.34125966459547
175.0 90.34125966459547
180.0 90.3525356147665
185.0 90.37552194515996
190.0 90.37552194515996
195.0 90.2983872538086
200.0 90.27552194515995
206.0 90.17552194515994
212.0 90.05504126068317
218.0 89.89838725380858
224.0 89.72166120327965
230.0 89.55504126068315
236.0 89.45504126068316
240.0 89.45504126068316
250.0 89.51277724678057
258.0 89.61277724678057
265.0 89.71277724678056
272.0 89.80113203369122
280.0 89.80113203369122
290.0 89.71277724678056
300.0 89.61277724678057
307.0 89.43651327027978
315.0 89.2133128246093
325.0 89.01331282460929
335.0 88.80219377711518
345.0 88.60219377711516
355.0 88.3713595916968
365.0 88.22544739076123
375.0 88.12544739076125
387.0 88.0713595916968
400.0 88.09130025753362
412.0 88.11461211556623
425.0 88.11461211556623
437.0 88.0713595916968
450.0 88.01461211556621
462.0 87.99130025753362
475.0 87.99130025753362
487.0 88.02377498030245
500.0 88.13533628146344
515.0 88.2250128167697
530.0 88.25841358303909
545.0 88.27017375127421
560.0 88.30581338520437
580.0 88.28593939773943
600.0 88.30138780985418
615.0 88.32631094171488
630.0 88.36971495304918
650.0 88.39360296329455
670.0 88.3787561127447
690.0 88.29129734498373
710.0 88.13941629080323
730.0 88.06622706364739
750.0 88.00062457334086
775.0 88.00831084593007
800.0 88.01186687501392
825.0 88.08983813638189
850.0 88.15144300950153
875.0 88.26611875122914
900.0 88.38504512603251
925.0 88.54334533890973
950.0 88.71510450537053
975.0 88.97385760552085
1000.0 89.21587959301212
1030.0 89.39033549410506
1060.0 89.49990651651443
1090.0 89.47695571648826
1120.0 89.28013597936321
1150.0 89.04053793575258
1180.0 88.66791773397675
1220.0 88.27409280535183
1250.0 87.92782308808391
1280.0 87.74121718304148
1320.0 87.71686395454061
1360.0 87.81507648573717
1400.0 88.00760972306526
1450.0 88.22740753613155
1500.0 88.47373071412905
1550.0 88.69004497562749
1600.0 88.85996215131712
1650.0 88.86765254380542
1700.0 88.7739052420462
1750.0 88.555542530756
1800.0 88.37012113463558
1850.0 88.32942738821076
1900.0 88.26049470901803
1950.0 88.30624745279356
2000.0 88.36853677170922
2060.0 88.35397791789333
2120.0 88.30935782578986
2180.0 88.16072641659673
2240.0 87.96377220416893
2300.0 87.825211126485
2360.0 87.69742812452128
2400.0 87.60296919613494
2500.0 87.43434476831055
2580.0 87.18302622907309
2650.0 86.88702839950231
2720.0 86.55124321500446
2800.0 86.32312326750551
2900.0 86.18992665140856
3000.0 86.21692969934399
3070.0 86.39290287562659
3150.0 86.62200108867438
3250.0 86.75264957865404
3350.0 86.83777856226902
3450.0 86.91126890601902
3550.0 87.08701025038611
3650.0 87.36270526963798
3750.0 87.62457605232731
3870.0 87.82753587433092
4000.0 87.8962817483491
4120.0 87.77657919318371
4250.0 87.48397785144938
4370.0 87.11935877371099
4500.0 86.77520391829798
4620.0 86.50573346104325
4750.0 86.21477101616533
4870.0 86.09491523716333
5000.0 85.97186814427154
5150.0 85.9604861722524
5300.0 86.20282133959658
5450.0 86.17443248174689
5600.0 85.97046841474632
5800.0 85.68407993612402
6000.0 85.50858357288833
6150.0 85.56961785336193
6300.0 86.02157357360709
6500.0 86.25799969817324
6700.0 86.00855778284601
6900.0 85.65609045990497
7100.0 85.33334565339865
7300.0 85.44461349667606
7500.0 86.26610132954382
7750.0 87.39196987776045
8000.0 88.14856133644639
8250.0 88.00901178979638
8500.0 87.53390696100092
8750.0 87.27759256588003
9000.0 87.41756771646779
9250.0 88.19531892347307
9500.0 88.58684288155781
9750.0 88.66296109630657
10000.0 88.61312282272024
10300.0 88.17987579939562
10600.0 88.04468073827591
10900.0 87.84935583799636
11200.0 87.79921518653566
11500.0 87.68274465747488
11800.0 87.56218610494146
12200.0 87.39758359308767
12500.0 87.075712435957
12800.0 86.86091458145215
13200.0 86.97120609699306
13600.0 87.22039504124163
14000.0 86.78469884018786
14500.0 86.67735479013031
15000.0 86.41368967425129
15500.0 85.72988269154202
16000.0 85.53772667834465
16500.0 84.7642979723492
17000.0 83.74065027714346
17500.0 83.06097929947434
18000.0 82.3171245634152
18500.0 82.62338022668486
19000.0 82.40877674687097
19500.0 82.15377120547079
