Freq,On Axis,Listening Window,Sound Power,Early Reflections,Early Reflections DI,Sound Power DI,DI offset
22.4,-8.0,-8.13153729249143,-9.524043079785457,-8.850687099010543,40.71914980651911,41.39250578729403,40
23.0,-6.400000000000006,-6.487492776958845,-7.883727555760231,-7.222409945588964,40.73491716863012,41.396234778801386,40
23.6,-4.799999999999983,-4.8757727063807295,-6.228274035280776,-5.569586610299012,40.69381390391828,41.35250132890005,40
24.0,-3.200000000000017,-3.2757727063807636,-4.602871251533003,-3.95836650082569,40.68259379444493,41.32709854515224,40
25.0,-1.5999999999999943,-1.6322987828482667,-2.9842107586761415,-2.34004089171529,40.70774210886702,41.351911975827875,40
25.8,0.0,-0.08749277695886803,-1.3978556350579936,-0.7754255564448727,40.687932779486005,41.310362858099126,40
26.5,1.5999999999999943,1.5125072230411831,0.1724174274378072,0.8074953843318724,40.70501183870931,41.340089795603376,40
27.2,3.0999999999999943,3.034357321335591,1.718160457136804,2.349583355394259,40.68477396594133,41.31619686419879,40
28.0,4.599999999999994,4.567701217151722,3.282468112219135,3.890004924006263,40.67769629314546,41.28523310493259,40
29.0,6.200000000000017,6.134357321335614,4.842089655156599,5.452638869557717,40.6817184517779,41.292267666179015,40
30.0,7.700000000000017,7.656098038135241,6.399857626671178,6.999218345404785,40.656879692730456,41.25624041146406,40
30.7,9.299999999999983,9.23435732133558,7.960161991062591,8.553759279325476,40.680598042010104,41.27419533027299,40
31.5,10.799999999999983,10.812252097228367,9.553866207817094,10.146698627699976,40.66555346952839,41.25838588941127,40
32.5,12.5,12.423446013621628,11.16546081902868,11.747601931406194,40.675844082215434,41.25798519459295,40
33.5,14.099999999999994,14.034357321335591,12.80845821154142,13.385702990689396,40.648654330646195,41.22589910979417,40
34.5,15.700000000000017,15.65609803813524,14.448181922677293,15.012009060184084,40.64408897795116,41.20791611545795,40
35.5,17.400000000000006,17.323446013621663,16.115542984591656,16.66901428879129,40.654431724830374,41.20790302903001,40
36.5,19.0,18.978233065083913,17.803368071112118,18.343987969946852,40.63424509513706,41.174864993971795,40
37.5,20.700000000000017,20.645241283934098,19.461742391415555,20.00488135392382,40.64035993001028,41.18349889251854,40
38.7,22.299999999999983,22.256098038135264,21.131211982829,21.655113098150167,40.600984939985096,41.12488605530626,40
40.0,23.900000000000006,23.900767494455636,22.781137621016597,23.294668098939525,40.60609939551611,41.11962987343904,40
41.2,25.599999999999994,25.52344601362165,24.41767282157511,24.92969340196595,40.5937526116557,41.10577319204654,40
42.5,27.200000000000017,27.123446013621646,26.039839556316906,26.53546622414308,40.58797978947857,41.08360645730474,40
43.7,28.799999999999983,28.72344601362167,27.648085291599102,28.13413317969912,40.58931283392255,41.075360722022566,40
45.0,30.400000000000006,30.323446013621663,29.2615682483694,29.74247209092775,40.580973922693914,41.06187776525226,40
46.2,32.0,31.94524128393411,30.894964292191332,31.364327695676337,40.58091358825777,41.05027699174278,40
47.5,33.599999999999994,33.57823306508388,32.551356986330234,33.01427860713747,40.56395445794641,41.026876078753645,40
48.7,35.29999999999998,35.24524128393409,34.21641178894146,34.67906434664485,40.56617693728924,41.028829494992635,40
50.0,37.0,36.92344601362166,35.92882913848396,36.37828774112674,40.545158272494916,40.994616875137694,40
51.5,38.70000000000002,38.65609803813527,37.66970522767295,38.10764968510668,40.54844835302859,40.98639281046232,40
53.0,40.5,40.44524128393411,39.456734517711624,39.901674613480054,40.543566670454055,40.988506766222486,40
54.5,42.29999999999998,42.24524128393409,41.268119011991274,41.7046527958976,40.54058848803649,40.97712227194282,40
56.0,44.099999999999994,44.07823306508388,43.12484944185442,43.55264411821332,40.525588946870556,40.953383623229456,40
58.0,46.0,45.978233065083884,45.01733917234779,45.444910375089734,40.53332268999415,40.960893892736095,40
60.0,47.900000000000006,47.88977733405312,46.93098389875286,47.36298641074265,40.52679092331047,40.958793435300265,40
61.5,49.900000000000006,49.84524128393409,48.88446020026885,49.31563507930977,40.529606204624315,40.96078108366524,40
63.0,51.900000000000006,51.82293703069968,50.86701546818375,51.28183329624153,40.54110373445815,40.955921562515925,40
65.0,53.900000000000006,53.84524128393409,52.88659311411331,53.31808561433249,40.5271556696016,40.958648169820776,40
67.0,55.900000000000006,55.85609803813526,54.9149415149455,55.34075089345606,40.5153471446792,40.94115652318976,40
69.0,58.0,57.90102925400231,56.94927429256552,57.37187582701034,40.52915342699197,40.95175496143679,40
71.0,59.900000000000006,59.88977733405315,58.93260673483488,59.36292685202085,40.5268504820323,40.95717059921827,40
73.0,61.900000000000006,61.822937030699705,60.866786224707624,61.29486824757561,40.5280687831241,40.95615080599208,40
75.0,63.8,63.7229370306997,62.76623389848987,63.194280244229745,40.52865678646995,40.956703132209825,40
77.5,65.6,65.5010292540023,64.54390434269823,64.97662616385823,40.52440309014408,40.95712491130408,40
80.0,67.19999999999999,67.17900455186677,66.22831170786993,66.65763042207217,40.521374129794594,40.95069284399683,40
82.5,68.8,68.74524128393409,67.78786157927348,68.22630571882962,40.51893556510447,40.95737970466061,40
85.0,70.3,70.2122462896814,69.24747516743484,69.68613897032495,40.526107319356456,40.96477112224656,40
87.5,71.6,71.54524128393409,70.5766876209601,71.01594656129767,40.52929472263642,40.96855366297399,40
90.0,72.8,72.76743157327174,71.78809259991282,72.24246895782676,40.52496261544498,40.97933897335892,40
92.5,73.9,73.87900455186679,72.89751815036627,73.35539142376123,40.52361312810555,40.98148640150052,40
95.0,75.0,74.9122462896814,73.9118222807026,74.37718408233498,40.53506220734643,41.00042400897881,40
97.5,75.9,75.83460537419205,74.84314558224133,75.30543169420771,40.52917367998434,40.99145979195072,40
100.0,76.7,76.67900455186678,75.66045428948085,76.12489417287242,40.554110378994366,41.01855026238593,40
103.0,77.5,77.43460537419207,76.41063744137124,76.88292128643903,40.551684087753046,41.02396793282084,40
106.0,78.20000000000002,78.13460537419206,77.07304383307306,77.56346155049452,40.57114382369754,41.061561541119005,40
109.0,78.8,78.73460537419206,77.66521946677689,78.16489124814285,40.569714126049206,41.06938590741517,40
112.0,79.30000000000001,79.25684993523217,78.18674182034488,78.69521547292032,40.561634462311844,41.07010811488729,40
115.0,79.8,79.73460537419206,78.63000815960145,79.14675542805989,40.58784994613217,41.10459721459061,40
118.0,80.2,80.15684993523217,79.00989805738983,79.54658527343594,40.610264661796236,41.14695187784234,40
122.0,80.6,80.52418634164509,79.32715649841828,79.87590633400367,40.64828000764142,41.197029843226815,40
125.0,80.9,80.8241863416451,79.58374658761707,80.15887052848622,40.665315813158884,41.24043975402803,40
128.0,81.1,81.05684993523217,79.76771239408079,80.35653474238454,40.700315192847626,41.289137541151376,40
132.0,81.3,81.24648419610153,79.92290401498731,80.53980218548213,40.7066820106194,41.323580181114224,40
136.0,81.5,81.42418634164511,80.02624507610426,80.67259285904896,40.75159348259615,41.39794126554085,40
140.0,81.6,81.55811305476978,80.0931794001134,80.76354472460045,40.79456833016933,41.46493365465638,40
145.0,81.80000000000001,81.70228488204563,80.11028831866915,80.84285243726511,40.85943244478052,41.59199656337648,40
150.0,81.9,81.79202714924537,80.10968813868624,80.88719013249043,40.90483701675494,41.68233901055913,40
155.0,82.0,81.93638244804613,80.09741836075226,80.92777413138666,41.008608316659476,41.838964087293874,40
160.0,82.1,82.02620503005994,80.07590581686608,80.95916567326422,41.06703935679572,41.95029921319386,40
165.0,82.19999999999999,82.12620503005994,80.02719627719688,80.98123038830455,41.14497464175538,42.09900875286306,40
170.0,82.4,82.26036823109037,79.98393219691768,81.02063890548081,41.23972932560956,42.27643603417269,40
175.0,82.5,82.36036823109036,79.92576655565384,81.04130765104382,41.31906058004654,42.434601675436525,40
180.0,82.6,82.4937820815085,79.86707958431268,81.05909185161795,41.43469022989055,42.62670249719582,40
185.0,82.7,82.57222966122171,79.76907853615052,81.03345122851388,41.53877843270783,42.803151125071196,40
190.0,82.8,82.66236602135761,79.69705570981115,81.03733861924997,41.62502740210765,42.96531031154646,40
195.0,82.9,82.70528514710155,79.59670660439542,81.00445465411862,41.70083049298293,43.10857854270613,40
200.0,82.9,82.69549638179113,79.48986285419862,80.9423842128052,41.753112168985936,43.20563352759251,40
206.0,82.8,82.66236602135761,79.34339125434158,80.83809877693221,41.8242672444254,43.31897476701603,40
212.0,82.8,82.57395248839241,79.1991373881062,80.72477867824344,41.84917381014897,43.37481510028621,40
218.0,82.7,82.52040782185456,79.0509373937955,80.59784158035998,41.92256624149458,43.46947042805907,40
224.0,82.6,82.42040782185455,78.90226649124213,80.46032791744747,41.96007990440708,43.51814133061242,40
230.0,82.5,82.31109262624713,78.76233862915686,80.32449485918454,41.98659776706259,43.54875399709027,40
236.0,82.4,82.18861184644342,78.62278004896805,80.16559463461935,42.02301721182407,43.56583179747537,40
240.0,82.3,82.10197012634977,78.48496477207969,80.03710695296061,42.064863173389156,43.61700535427008,40
250.0,82.19999999999999,82.02490270723885,78.35382551336212,79.9091057531133,42.11579695412556,43.67107719387673,40
258.0,82.1,81.94669068659677,78.248007558692,79.79232461674907,42.1543660698477,43.69868312790477,40
265.0,82.1,81.91601640555365,78.14986869471778,79.69122167006954,42.22479473548411,43.76614771083587,40
272.0,82.1,81.90731477876048,78.0792039923459,79.61040541501788,42.2969093637426,43.828110786414584,40
280.0,82.1,81.89879434786175,78.00277416037704,79.5313672583394,42.36742708952235,43.89602018748471,40
290.0,82.1,81.91241274948827,77.95854825389792,79.4690806482393,42.44333210124897,43.95386449559035,40
300.0,82.1,81.91241274948827,77.93248564724672,79.4177537394025,42.49465901008577,43.97992710224155,40
307.0,82.1,81.91658057614114,77.90345814935496,79.36834282363816,42.548237752502985,44.01312242678618,40
315.0,82.1,81.88666616260231,77.90152008374992,79.32153971739054,42.565126445211774,43.985146078852395,40
325.0,82.1,81.87121605451348,77.86932183058744,79.26838152228594,42.60283453222755,44.001894223926044,40
335.0,82.1,81.80504637518537,77.86913401809375,79.2210665489891,42.58397982619627,43.935912357091624,40
345.0,82.0,81.76373402310392,77.84188026312958,79.16325424023587,42.60047978286805,43.92185375997434,40
355.0,82.0,81.68096746894176,77.81754268388188,79.09256741696386,42.5884000519779,43.86342478505988,40
365.0,81.9,81.55218663159897,77.74470367279055,78.99782163099235,42.55436500060662,43.80748295880842,40
375.0,81.80000000000001,81.4383094627521,77.66471432361124,78.89406244249723,42.54424702025487,43.773595139140866,40
387.0,81.6,81.29002852535065,77.55226996775941,78.7762998030606,42.513728722290054,43.737758557591235,40
400.0,81.5,81.0956136916496,77.38942179776473,78.61312021848788,42.482493473161725,43.70619189388488,40
412.0,81.3,80.90611768435632,77.20242847139193,78.44706129611626,42.45905638824006,43.70368921296439,40
425.0,81.0,80.70410938931572,76.97591676412952,78.24262816717204,42.461481222143675,43.728192625186196,40
437.0,80.79999999999998,80.48718940818998,76.72029469605718,78.03737423958266,42.449815168607316,43.766894712132796,40
450.0,80.6,80.29905105583165,76.49209573995762,77.8524427847288,42.44660827110286,43.806955315874035,40
462.0,80.4,80.08887851869594,76.23713960296168,77.6512836680998,42.43759485059614,43.85173891573426,40
475.0,80.3,79.97389177347159,76.04437260433433,77.51778350006883,42.45610827340276,43.929519169137265,40
487.0,80.2,79.91197884599973,75.85418769543456,77.40548354940093,42.5064952965988,44.057791150565166,40
500.0,80.2,79.93577075153537,75.78296433554257,77.39002723125077,42.5457435202846,44.1528064159928,40
515.0,80.3,79.94922932542019,75.76157891730895,77.41132040509252,42.537908920327666,44.18765040811124,40
530.0,80.4,80.10922009152424,75.84334393232906,77.53849161181185,42.570728479712386,44.26587615919517,40
545.0,80.6,80.2890048685515,75.95847935881969,77.6776761991377,42.61132866941381,44.330525509731814,40
560.0,80.79999999999998,80.4764243261701,76.14956541255906,77.87523302204728,42.60119130412282,44.32685891361105,40
580.0,81.0,80.66219986194041,76.32631710658697,78.05310550262288,42.609094359317524,44.33588275535344,40
600.0,81.2,80.81870764082814,76.48088347249859,78.19422077084273,42.624486869985404,44.33782416832955,40
615.0,81.4,80.91928147094875,76.57794922015438,78.2812167638934,42.63806470705535,44.341332250794366,40
630.0,81.5,81.02132804165757,76.65993254727421,78.34131162281295,42.680016418844616,44.36139549438336,40
650.0,81.5,81.01388406543026,76.66962537031796,78.33426129872942,42.679622766700845,44.3442586951123,40
670.0,81.5,81.01756230287904,76.65525849720466,78.29560765613553,42.72195464674351,44.36230380567439,40
690.0,81.5,80.96209570056641,76.61718767990814,78.21058766082552,42.751508039740884,44.344908020658266,40
710.0,81.5,80.94420566582163,76.60972831963278,78.15034739241933,42.79385827340229,44.33447734618885,40
730.0,81.6,81.01399535915844,76.6409017569664,78.13028640335409,42.88370895580435,44.37309360219204,40
750.0,81.7,81.08618883840336,76.69842566649865,78.11842185303206,42.9677669853713,44.38776317190471,40
775.0,81.80000000000001,81.21904459289414,76.8146584523491,78.15632720960137,43.062717383292764,44.40438614054504,40
800.0,82.0,81.36980735878919,76.94602519536193,78.23144921958695,43.13835813920224,44.42378216342726,40
825.0,82.1,81.50650005869255,77.03956711593473,78.29457610843903,43.21192395025352,44.46693294275782,40
850.0,82.19999999999999,81.60246984258994,77.0631802241038,78.32492190524513,43.277547937344806,44.53928961848614,40
875.0,82.19999999999999,81.61514908059803,76.99658403866198,78.2787695314664,43.336379549131635,44.61856504193605,40
900.0,82.19999999999999,81.61075689929518,76.83760360353807,78.18553492056252,43.425221978732665,44.77315329575711,40
925.0,82.0,81.51150155639809,76.60757231858922,78.01540281949461,43.49609873690348,44.90392923780887,40
950.0,81.9,81.38538772037495,76.31707668858762,77.8158376848092,43.569550035565754,45.06831103178733,40
975.0,81.7,81.24701906866238,76.03106164179376,77.60555619248319,43.64146287617919,45.21595742686863,40
1000.0,81.6,81.10126851728182,75.77536449070156,77.40633676137325,43.69493175590857,45.32590402658026,40
1030.0,81.4,81.00736428696453,75.59043961225333,77.2515635426227,43.755800744341826,45.4169246747112,40
1060.0,81.3,80.95230220969212,75.45037805767616,77.1391232059309,43.81317900376122,45.50192415201596,40
1090.0,81.2,80.85674357757289,75.34619326499694,77.03974142697982,43.81700215059307,45.510550312575944,40
1120.0,81.1,80.8022720805157,75.26724999687389,76.963645480521,43.83862659999471,45.53502208364182,40
1150.0,81.1,80.7621765802713,75.16429296651144,76.88688081427283,43.87529576599847,45.59788361375986,40
1180.0,81.0,80.75262117438868,75.07495507304472,76.82735596970089,43.92526520468779,45.67766610134396,40
1220.0,80.9,80.6796232417534,74.94134594667926,76.73838486631641,43.941238375436996,45.73827729507414,40
1250.0,80.9,80.6882805241521,74.79708800257976,76.69632028053105,43.99196024362105,45.89119252157235,40
1280.0,80.79999999999998,80.61840169972653,74.62850648733561,76.6182790057617,44.000122693964826,45.98989521239092,40
1320.0,80.79999999999998,80.54305139509734,74.4276445132642,76.54593282919106,43.99711856590628,46.11540688183314,40
1360.0,80.70000000000002,80.52216982189984,74.259076709583,76.50120967990452,44.02096014199532,46.26309311231684,40
1400.0,80.70000000000002,80.49309400091029,74.09035635370425,76.44078944655679,44.0523045543535,46.40273764720604,40
1450.0,80.70000000000002,80.48684195452854,73.91732182126029,76.37645127258176,44.11039068194678,46.569520133268256,40
1500.0,80.79999999999998,80.53199001443598,73.80430844417583,76.34603138007006,44.18595863436592,46.727681570260145,40
1550.0,80.79999999999998,80.56405351349503,73.7100925471305,76.31884957662662,44.24520393686841,46.853960966364525,40
1600.0,80.9,80.59221145421682,73.66366200348476,76.33348133969898,44.258730114517846,46.92854945073206,40
1650.0,80.9,80.62303305777994,73.64337342079821,76.33885916875184,44.2841738890281,46.97965963698172,40
1700.0,81.0,80.6861073580151,73.65672887340433,76.39645136014687,44.28965599786822,47.02937848461076,40
1750.0,81.0,80.7321304941179,73.64297566247123,76.42999875053751,44.30213174358039,47.08915483164667,40
1800.0,81.1,80.76730873942878,73.61617679352163,76.47259553840763,44.29471320102115,47.15113194590715,40
1850.0,81.1,80.76998542769846,73.5288378631235,76.45600515155023,44.31398027614823,47.24114756457496,40
1900.0,81.1,80.74880879329336,73.42491933819198,76.4267004965019,44.32210829679147,47.32388945510138,40
1950.0,81.1,80.72700557472506,73.32146863517372,76.39161594397649,44.335389630748566,47.40553693955134,40
2000.0,81.1,80.67844218879107,73.21802173066057,76.32713492708976,44.35130726170131,47.4604204581305,40
2060.0,81.1,80.63210359437134,73.11267924763382,76.25729863381787,44.374804960553476,47.51942434673752,40
2120.0,81.1,80.58605831321694,73.03125220373384,76.20093552925138,44.385122783965556,47.554806109483096,40
2180.0,81.1,80.55839328057405,72.97036351470868,76.15338140686087,44.40501187371318,47.58802976586537,40
2240.0,81.1,80.52826028329102,72.90763267982871,76.09788486665192,44.430375416639095,47.62062760346231,40
2300.0,81.1,80.51943801828659,72.88564459950567,76.0714695661421,44.447968452144494,47.633793418780925,40
2360.0,81.1,80.51118840287941,72.89224176245162,76.05494825805805,44.456240144821365,47.618946640427794,40
2400.0,81.1,80.4805204992547,72.88990803783454,76.0410141602621,44.4395063389926,47.59061246142015,40
2500.0,81.2,80.48415146395907,72.94047931372204,76.06257985838396,44.42157160557511,47.54367215023703,40
2580.0,81.2,80.53890863516396,73.03607659995227,76.12148456658326,44.4174240685807,47.502832035211696,40
2650.0,81.2,80.55300076423919,73.10004803934771,76.15479974426543,44.398201019973754,47.452952724891475,40
2720.0,81.3,80.64278043436008,73.21277007677129,76.25549657447746,44.387283859882615,47.430010357588785,40
2800.0,81.3,80.67439377894488,73.30280820000516,76.30687108849875,44.36752269044612,47.371585578939715,40
2900.0,81.4,80.76774318503374,73.39445723283167,76.39544833725977,44.37229484777397,47.37328595220207,40
3000.0,81.4,80.80272581371123,73.46883861804608,76.433358840625,44.36936697308623,47.333887195665156,40
3070.0,81.4,80.79943079983633,73.49990714539143,76.44124787712514,44.358182922711194,47.2995236544449,40
3150.0,81.3,80.84700926985211,73.55254478699851,76.46384651845389,44.38316275139822,47.2944644828536,40
3250.0,81.2,80.78886979536864,73.55284339254752,76.40584464041153,44.38302515495711,47.236026402821125,40
3350.0,81.1,80.77382634154394,73.56268843914937,76.3732161776642,44.40061016387973,47.21113790239457,40
3450.0,81.0,80.72015467561162,73.52749799113221,76.2977535300757,44.42240114553593,47.19265668447942,40
3550.0,80.9,80.68894559247559,73.48901943874785,76.22403968955452,44.464905902921075,47.199926153727745,40
3650.0,80.70000000000002,80.60441366874248,73.42875945180718,76.1366912503303,44.46772241841218,47.1756542169353,40
3750.0,80.5,80.5003664396354,73.3109902387962,75.99553190273377,44.504834536901626,47.189376200839206,40
3870.0,80.3,80.41942690511702,73.22672250750344,75.88767207953416,44.531754825582865,47.19270439761358,40
4000.0,80.1,80.3159176711819,73.09670128109407,75.76937889068594,44.54653878049595,47.21921639008782,40
4120.0,79.9,80.23876652111042,72.97757596458699,75.64456526492303,44.59420125618739,47.26119055652343,40
4250.0,79.8,80.16899586608253,72.8600618492592,75.53440718219386,44.634588683888666,47.30893401682333,40
