Freq,Floor Bounce,Ceiling Bounce,Front Wall Bounce,Side Wall Bounce,Rear Wall Bounce,Total Early Reflection
20.0,33.73079376860774,33.60993074288346,33.7354263858782,33.588325937057775,33.23569358946396,33.58380623587816
20.2909,34.18679376860773,34.07091662387775,34.19184348660541,34.04933158851607,33.70844818993977,34.04499482295664
20.586,34.625790699565684,34.51790311872038,34.63197160102543,34.49599798104289,34.17078236308457,34.491695744721156
20.8855,35.05212544066633,34.954220368303666,35.060242275384766,34.92996949186197,34.61762175793483,34.925782489316234
21.1893,35.469128586554646,35.38254449765661,35.48137279825447,35.354075151552976,35.04789468897904,35.349812812381984
21.4975,35.88613188589973,35.81187204143198,35.903651903966605,35.777830031789236,35.470564145553524,35.77279779789039
21.8102,36.316474044781515,36.254535890399,36.34036607391012,36.212629643187555,35.89850990587247,36.20738841336505
22.1274,36.766150684469935,36.713866286366354,36.794798751463944,36.66466876158405,36.34233025730707,36.659382833086156
22.4492,37.23715490455153,37.18986628636635,37.26852021207493,37.13712610392905,36.811700824139464,37.13194731654802
22.7758,37.729486014935404,37.67919673327684,37.75953248179927,37.62910015291426,37.307987614976994,37.62406202574506
23.1071,38.23681141557849,38.178196733276835,38.2621138817059,38.13435569126641,37.82354489233502,38.12984199294864
23.4432,38.75280036704446,38.68186628636634,38.77125952995708,38.647954056148805,38.34901311606559,38.64322254731998
23.7841,39.26812544066631,39.18653283316537,39.280681297334056,39.161401079505694,38.87427217007793,39.15666677834109
24.1301,39.775454247952396,39.68919673327683,39.78466987920221,39.66880697019927,39.39083366478529,39.66411709985509
24.4811,40.271454247952406,40.186527231134406,40.28022875498418,40.16681617675722,39.89457751594573,40.162151582888654
24.8372,40.75512244823487,40.67452178258027,40.76550636195965,40.652760174708376,40.38257234363958,40.64829026276753
25.1984,41.23045716376727,41.15452178258026,41.24278939494205,41.12954072229813,40.85850303036291,41.12536589702823
25.5649,41.70245716376728,41.627521782580246,41.715789394942064,41.60144695740702,41.327992743417596,41.59728200123034
25.9368,42.17445716376726,42.09719120819632,42.187363938192235,42.07186049895337,41.796116172305446,42.067679105599055
26.3141,42.64945716376728,42.567527231134406,42.66079280841139,42.5448713840277,42.26849679691371,42.540526886113
26.6968,43.1274542479524,43.04019673327683,43.13636492068515,43.02037288752932,42.744854927671454,43.0161460391965
27.0851,43.606454247952385,43.51586330544772,43.61364812761569,43.49845535371854,43.22414885748411,43.49399439155657
27.4791,44.085451485600586,43.99353283316536,44.09207336206411,43.977130669852116,43.704595408241474,43.97281519303989
27.8788,44.56311960926051,44.47219673327682,44.57007076873809,44.455213163830436,44.183264357394606,44.45102226550215
28.2843,45.039454247952406,44.95119673327683,45.04749822589166,44.93250809940811,44.659371413828595,44.92826678924361
28.6957,45.51512244823489,45.4295272311344,45.52478404713732,45.4093105844308,45.13453477296282,45.40493511536549
29.1131,45.992122448234866,45.90719673327685,46.00235625956758,45.88601273128707,45.610961564296346,45.88202009500857
29.5365,46.47112244823488,46.38419673327682,46.48035724378393,46.36401933331665,46.089538360937254,46.36013402333974
29.9661,46.951119609260516,46.859532833165375,46.958358590150326,46.84282679473701,46.57031565382677,46.83869227885033
30.402,47.43045148560056,47.334868984434976,47.43607336206411,47.32043015266537,47.04941757774715,47.31649967588906
30.8442,47.906451485600556,47.80953283316536,47.9112167172993,47.79543445123254,47.524832389584205,47.79174584725497
31.2929,48.37611960926053,48.28353283316535,48.38321412405891,48.26712008582628,47.996454730516504,48.2635343637573
31.748,48.839788937914605,48.75619673327681,48.85021140218085,48.73439845296106,48.46349247233617,48.73105197674424
32.2098,49.299460233045025,49.225191208196335,49.31363828527911,49.19809051241042,48.927122552067644,49.19492100121887
32.6783,49.76012858655464,49.68952178258026,49.776637693250635,49.66079072555418,49.38960188985918,49.657553420380694
33.1536,50.22912858655464,50.15119673327682,50.24378277211373,50.12530724303413,49.84768722525264,50.12174831136919
33.6359,50.71012544066629,50.61654449765662,50.72021704971415,50.59615931589225,50.30645527295776,50.59245805519818
34.1251,51.20379069956569,51.093233106635594,51.20937342559502,51.07837654754691,50.77203450554394,51.074240532243024
34.6215,51.70979069956569,51.59124645884303,51.71323998018518,51.57806204324582,51.26047969433425,51.57366109630259
35.125,52.22512544066633,52.11023970600506,52.22995113489567,52.094846326028815,51.77605780300895,52.090350463589985
35.6359,52.74646023304503,52.64356314546204,52.75537004685542,52.622564202015454,52.30955552530635,52.61848071561498
36.1543,53.27246345578551,53.17922036830366,53.28450623987105,53.15471076216822,52.8495265750724,53.150906858618484
36.6802,53.800128586554635,53.710214229341844,53.81264875806549,53.68549428535921,53.38819939550554,53.6820204391545
37.2137,54.326128586554674,54.234214229341845,54.33707861645716,54.21100374959009,53.91942901443515,54.20817427647064
37.755,54.84812544066632,54.75255056011626,54.85794040946318,54.73162761586302,54.44320868910573,54.729259980993334
38.3041,55.36612544066632,55.26955056011627,55.37494040946318,55.24893068878107,54.96344886100725,55.247133069026646
38.8613,55.88046023304504,55.7875444976566,55.89064947804438,55.765885022633114,55.484125815855435,55.7641994144325
39.4265,56.394460233045024,56.305208243849876,56.40635925102691,56.28175861017559,56.000834500990194,56.28017110869206
40.0,56.91046345578552,56.8215444976566,56.92307287694277,56.797354437594564,56.51295792949111,56.79557876512723
40.5818,57.42946345578551,57.33755056011627,57.44164610157323,57.31337225296312,57.02326448612881,57.31166373116379
41.1721,57.950128586554655,57.85522036830368,57.96164731688354,57.83159010696896,57.5368247435316,57.82977076288249
41.771,58.47112858655464,58.374220368303654,58.48136151832374,58.351990887960525,58.057610330197775,58.349943406509794
42.3785,58.989125440666314,58.89221422934183,58.99850184401693,58.871657846478314,58.584556633948054,58.86977206303594
42.9949,59.502122448234886,59.40554449765661,59.509926431870596,59.38752223359549,59.11215695846934,59.385824643447094
43.6203,60.00611960926052,59.910202411828095,60.012210778601485,59.89539328731858,59.6341833598794,59.89376845292968
44.2548,60.501116923743396,60.40519673327684,60.506496191586194,60.39327855274716,60.144696942102826,60.39212399115647
44.8985,60.988783412998814,60.89186330544773,60.99292419485299,60.881766731384346,60.63928961200912,60.880809490238406
45.5515,61.47078341299884,61.37386330544771,61.475781094777105,61.36286624041732,61.119650810092224,61.36249526677652
46.2141,61.95211960926052,61.85486898443497,61.95806867402,61.841679551582274,61.59213993059369,61.84178407234944
46.8863,62.43612244823488,62.3385444976566,62.44349924889114,62.32340526819,62.06460358066515,62.32338261015197
47.5683,62.92512544066631,62.827880802856,62.93435892470116,62.810038642909674,62.54307330196664,62.81037768338308
48.2602,63.420128586554654,63.323220368303666,63.43064731688355,63.30335846624543,63.02963599551332,63.303790274195606
48.9621,63.92046345578551,63.82322036830365,63.931362667420174,63.802278301333615,63.52418944831241,63.802768257322086
49.6743,64.42379699110073,64.32622666073503,64.43507717991604,64.30478372645423,64.0244652600491,64.30537553117459
50.3968,64.92879699110073,64.83022666073505,64.93993378706057,64.80928660685463,64.52809282568414,64.80978834603103
51.1299,65.43279699110072,65.33355677605154,65.44364833709827,65.31288279496029,65.03276819883503,65.31364077215936
51.8736,65.93379699110072,65.83555677605152,65.94507609647457,65.8143782567461,65.53622543417012,65.81548966815046
52.6281,66.43079699110072,66.33455677605151,66.44250499803591,66.31227154970385,66.03625834610229,66.31372745446618
53.3936,66.92246683198856,66.82922036830367,66.9356469268145,66.80536665228686,66.5317643193687,66.80730710468538
54.1702,67.40946683198854,67.31922036830368,67.4239325100426,67.29386137684479,67.02227238482281,67.2961324418706
54.9581,67.89280036704446,67.80255056011626,67.90764630366918,67.77676094612433,67.50620595919113,67.77956956818666
55.7575,68.3711353387014,68.27955677605152,68.38636204879043,68.25436675097795,67.98299360409165,68.25727955031986
56.5685,68.8458038964388,68.75056314546205,68.85993392248473,68.72617864269087,68.45278573028146,68.72949975483955
57.3914,69.31413533870139,69.21523310663561,69.32750762760689,69.1918968686649,68.91454027658857,69.19518335372216
58.2261,69.7748038964388,69.6735696683475,69.78865182148836,69.65001645492184,69.36798551836638,69.65361858697035
59.073,70.22713894495942,70.12424645884305,70.24036818829175,70.10003621135667,69.81379694160826,70.1038090468851
59.9323,70.66713894495943,70.5649130348317,70.68165438157564,70.53954892920198,70.25091128899173,70.54357145308394
60.804,71.09480757928354,70.9939130348317,71.11022680845628,70.96715556506567,70.67754645469427,70.97148873437027
61.6884,71.51014270467367,71.41124645884302,71.52665612220694,71.38315924209783,71.09338386745546,71.38767904248512
62.5857,71.91481141557846,71.81824645884303,71.93194199911984,71.78805990415907,71.49921558979284,71.79320777978978
63.496,72.3071466178439,72.21257634470756,72.3255137682423,72.1810634262415,71.89378198349445,72.1867501807616
64.4196,72.68381540532341,72.59090979456784,72.70337164015628,72.55846249405174,72.27207862434035,72.56444966698574
65.3566,73.04415068446991,72.95091303483171,73.06394262797565,72.91756669651086,72.63070364560177,72.924201210558
66.3073,73.38881954851814,73.29391662387775,73.40894413739277,73.2601803244654,72.9708642156905,73.26735084735769
67.2717,73.7191549045515,73.62326042492309,73.74023154254871,73.58859970072596,73.29409271308143,73.59597413399574
68.2502,74.03849283676422,73.9415972946316,74.06037482656392,73.90532168016688,73.60386086605298,73.91297089612172
69.2429,74.34782829525608,74.24993803257848,74.37008956944258,74.2122445656315,73.90452487700853,74.22008896903357
70.2501,74.64282829525607,74.54493803257849,74.66594736072663,74.506848992429,74.19611812001845,74.51455422165537
71.2719,74.91682829525607,74.81793803257848,74.93951870133719,74.78074473215841,74.47205268921512,74.78860289632209
72.3086,75.16549283676422,75.06526763816444,75.18680317651913,75.02943000211883,74.7255974878829,75.03762502764981
73.3603,75.38982384516243,75.28726763816442,75.40980281693025,75.25401304831063,74.95592486491091,75.2623786431354
74.4274,75.59248846356317,75.48926763816443,75.61223174517265,75.45710647791557,75.16420254360084,75.46599312048052
75.5099,75.77882384516244,75.67460458488638,75.79880317651913,75.64331129291567,75.35322702208971,75.65265239226606
76.6083,75.95382384516243,75.84760458488637,75.9735187013372,75.81621784707905,75.52715510558129,75.82657371870516
77.7226,76.11649283676424,76.00861202861387,76.13623558849436,75.97713252062583,75.68683381698304,75.98801060730253
78.8531,76.26516187935287,76.15528252504785,76.28509387487554,76.12394753831877,75.83172820643502,76.13524321484157
80.0,76.39949736340859,76.28761962581372,76.41952451424484,76.2561684064904,75.96078640717167,76.26779126099497
81.1636,76.52049736340858,76.40629802579625,76.54067103890996,76.37448960132997,76.07448969895378,76.3864618990408
82.3442,76.62883289879882,76.51296872596423,76.64953215839581,76.48062184352499,76.17677426743,76.4930067022091
83.5419,76.72550204349606,76.6073060063688,76.74553638479975,76.57545988068674,76.26958226941547,76.58798648972265
84.757,76.80950204349607,76.69064333824322,76.82982967638948,76.65870223714589,76.35364468232856,76.67177471875263
85.9899,76.88316648254205,76.76264333824322,76.9026934542556,76.73153800981642,76.42948763429018,76.74517863430692
87.2406,76.94583289879883,76.82464333824323,76.96526853302787,76.79426875415072,76.4971072018853,76.80862675476452
88.5096,76.99950204349607,76.87897678296001,77.0198440627462,76.84818251683008,76.55519309699274,76.86348843929258
89.797,77.04817123916827,76.92798072159135,77.06884406274622,76.89579263026893,76.60533149964904,76.91235611584372
91.1031,77.09417614923133,76.97365154932832,77.11584462219265,76.94050382803978,76.65000213821847,76.95799409389224
92.4282,77.13917614923133,77.01798900972976,77.16184544753928,76.98381877918577,76.69225513320042,77.00222143038877
93.7726,77.18118121273095,77.05933086887475,77.2047027709928,77.02402996666902,76.7307234356213,77.043254580215
95.1366,77.21885061242169,77.09533946330473,77.2432744176866,77.05934019582982,76.7632933698802,77.07935952956144
96.5204,77.25185590587235,77.12801054552777,77.27755911601353,77.0905476878716,76.79176229104766,77.11136240020592
97.9243,77.28052774557085,77.15568592836672,77.30684488074318,77.11705473704953,76.81575012854775,77.13866092508566
99.3486,77.3031973238465,77.17735711255385,77.3304181428088,77.13806285987648,76.8348443570626,77.16032370284684
100.794,77.3218669530633,77.19369490679851,77.34941824115852,77.1547780714595,76.85041092432762,77.17762938721505
102.26,77.33753663321725,77.20637537565217,77.36484915100155,77.1675916399107,76.86329525907867,77.19156467893025
103.747,77.35087270680303,77.21671332406551,77.37799526869365,77.17791877212261,76.87275852057326,77.20294318696055
105.256,77.36487270680301,77.2283942525958,77.39271074216883,77.18874829477335,76.88039238490369,77.21481712369287
106.787,77.38054844710103,77.24340392125838,77.40956894822259,77.20136664847549,76.88818580567703,77.22853931235974
108.34,77.39588467456946,77.25807553810134,77.42628233920688,77.21447897717124,76.89628140656573,77.24224932294986
109.916,77.40689088859553,77.26808543657343,77.4379941277148,77.22317606345456,76.90194963347793,77.2517585424511
111.515,77.4115608746757,77.27076205289612,77.44284926587595,77.22597448187183,76.90340066767652,77.25510136908468
113.137,77.4095608746757,77.26576205289611,77.43999349262316,77.22196741904469,76.90047141850411,77.25175048944244
114.783,77.4035608746757,77.25643384800286,77.4332790579843,77.21455375376361,76.89701033935621,77.24512141456913
116.452,77.39822454470011,77.24843384800286,77.4268497978152,77.20834604714905,76.89733399345315,77.23989533552857
118.146,77.3942245447001,77.24243384800286,77.42199260936692,77.20393307485462,76.90175474152437,77.2367915159496
119.865,77.3892245447001,77.23677225905752,77.41727948317396,77.1992247861382,76.90665072533095,77.2336107774242
121.608,77.3815608746757,77.22744413050155,77.40971040348214,77.19042630495223,76.90503111990576,77.2265305194017
123.377,77.36889725604973,77.2127931317713,77.39842907045875,77.17515404542885,76.89237413433405,77.21324177856883
125.171,77.35457391593866,77.19481461833607,77.38543619518391,77.15611046976646,76.8693682717066,77.19591796135875
126.992,77.34225093305488,77.1758367187472,77.37329993681439,77.13657730819028,76.8419018874597,77.17806874626737
128.839,77.33325791368185,77.1588710203157,77.36416321622146,77.12044696013406,76.81638591688744,77.16298377246515
130.713,77.32826504772339,77.14556736606849,77.35931212132347,77.10871796957773,76.79623686171672,77.1522308839917
132.615,77.32560603880695,77.1362646813726,77.35688985979458,77.09967860707117,76.7807685015455,77.14467390070654
134.543,77.32095039899683,77.12862952033012,77.35389715194738,77.0906440710682,76.76587578888427,77.13702504435764
136.5,77.31262881990496,77.12065545617448,77.34847831097547,77.07872557482166,76.74772392794848,77.12686850591659
138.486,77.30031572815243,77.11366865426675,77.34106004636222,77.06443158772574,76.7257414540691,77.11448864115583
140.5,77.28734103938262,77.10768200580476,77.33378554078213,77.0500373099788,76.70282543115393,77.10201770739403
142.544,77.27535868049947,77.1023554533342,77.32650871542141,77.03633320505423,76.68054491768144,77.09014578591753
144.617,77.26604847436003,77.09736903451825,77.3209462854401,77.0255090543884,76.6627274552264,77.08064921320714
146.721,77.26172416237102,77.0927091692154,77.31766142339863,77.01804586050527,76.65241090599203,77.07476962131875
148.855,77.26005790812044,77.0853827691404,77.315094550649,77.01277511872732,76.64786854599778,77.07054318409273
151.02,77.26038629261048,77.07573694640057,77.31252688414916,77.00749828152165,76.6460019999348,77.06675399519408
153.217,77.25972006432447,77.06243924199553,77.30838534308704,76.99972350973103,76.64234827461526,77.06087812112342
155.445,77.25672006432445,77.04646839903248,77.30253473494768,76.98935996312441,76.63374731778828,77.05221233039799
157.706,77.25004847436003,77.02783899993715,77.29339329474855,76.97588746255795,76.6188263755787,77.03979220871636
160.0,77.23672006432447,77.00454397668587,77.27882027065553,76.9561113006284,76.59747999422291,77.02148765027351
162.327,77.219391705072,76.97724992218397,77.25953998911486,76.93294594622812,76.57350773362279,76.99940602216732
164.688,77.19972006432447,76.95060720053253,77.23897264314446,76.90917488174392,76.55264956302247,76.97713525340694
167.084,77.18072957441149,76.92796483873784,77.22083573958834,76.88829913625938,76.53858096179391,76.95812259184446
169.514,77.16773923787633,76.91565622938815,77.20998718209748,76.87323064190593,76.53251938663361,76.94657285524507
171.98,77.16043097093039,76.91267287918699,77.20728167389098,76.86419903620104,76.53073159737836,76.94176727864273
174.481,77.15646203071226,76.91470663904981,77.20872583978202,76.8572110350633,76.52727325816916,76.93964287398894
177.019,77.15416692520502,76.91574101259356,77.21188491600468,76.8493576705184,76.51708810379198,76.93664751981875
179.594,77.15152829120936,76.91145155303035,77.21304167522057,76.83921818452127,76.49890577425893,76.93020132779549
182.206,77.1478854408344,76.89984781523681,77.21020392890755,76.82578755604105,76.47460979784607,76.91949468158417
184.856,77.14289732684588,76.88523671240303,77.20506816524221,76.81180977221943,76.45130138048799,76.90749747681917
187.545,77.13590936620868,76.87129356113323,77.1986514361386,76.79890443534781,76.43372575233975,76.89618594268984
190.273,77.12593390498567,76.85865578772493,77.19037506380981,76.78526497441536,76.42157760871315,76.88493862653523
193.041,77.11329293857644,76.84769491553693,77.18138570466735,76.77093967751854,76.41192068661512,76.87362281540008
195.849,77.1006582930257,76.83939137690375,77.1733987571261,76.7560248578384,76.40502241558839,76.86343429749577
198.697,77.08935849755149,76.83175475773213,77.1675593242149,76.74213265863784,76.40004781376005,76.85466974288445
201.587,77.08107362520501,76.82412885254229,77.16400678748228,76.7286561728694,76.39542161026219,76.84718176171334
204.52,77.07145672007319,76.81153476132555,77.15845766353924,76.71164365687748,76.38598966038279,76.83644342630704
207.494,77.05817560036503,76.79162006971445,77.1487700392726,76.68747585861523,76.36536866609374,76.81918146033898
210.512,77.04557118183025,76.76775263360655,77.13995147672911,76.65951281575578,76.33141763734186,76.79834001836679
213.574,77.0403269258776,76.74959280793964,77.14028616137887,76.63510043923392,76.28620778559059,76.78087503787422
216.681,77.05242133818798,76.74649161958027,77.15805303686109,76.62424147445815,76.23670286163963,76.77581333410446
219.833,77.08518638547017,76.7650843156171,77.19682385994518,76.63348878788265,76.19045513933989,76.78867308004858
223.03,77.12893706593819,76.7976362167492,77.24529569512428,76.65729557650405,76.15235896016549,76.8132251102359
226.274,77.16665192195958,76.83008261585007,77.28503469497622,76.68267691934689,76.12723070591038,76.83722325559096
229.565,77.18167131233888,76.84779235122652,77.3020497215028,76.69471763613309,76.11095463103999,76.84734910703295
232.905,77.17199454970081,76.84608261585005,77.29420347312248,76.68895731891024,76.1021088209976,76.84056986965669
236.292,77.14733722930595,76.83170677708709,77.27207149765476,76.67121489284025,76.10504413259208,76.82453320792722
