Freq "Rear Wall Bounce"
20.0 33.30593258317465
20.2909 33.77868718365046
20.586 34.24102135679526
20.8855 34.687860751645516
21.1893 35.11813368268973
21.4975 35.54080313926421
21.8102 35.96874889958316
22.1274 36.41256925101776
22.4492 36.88193981785015
22.7758 37.37822660868768
23.1071 37.89378388604571
23.4432 38.41925210977628
23.7841 38.94451116378862
24.1301 39.46107265849598
24.4811 39.964816509656416
24.8372 40.45281133735027
25.1984 40.9287420240736
25.5649 41.398231737128285
25.9368 41.866355166016135
26.3141 42.3387357906244
26.6968 42.81509392138214
27.0851 43.2943878511948
27.4791 43.77483440195216
27.8788 44.253503351105294
28.2843 44.72961040753928
28.6957 45.20477376667351
29.1131 45.681200558007035
29.5365 46.15977735464794
29.9661 46.640554647537456
30.402 47.11965657145784
30.8442 47.59507138329489
31.2929 48.06669372422719
31.748 48.53373146604686
32.2098 48.99736154577833
32.6783 49.45984088356987
33.1536 49.91792621896333
33.6359 50.37669426666845
34.1251 50.84227349925463
34.6215 51.33071868804494
35.125 51.84629679671964
35.6359 52.37979451901704
36.1543 52.91976556878309
36.6802 53.45843838921623
37.2137 53.98966800814584
37.755 54.51344768281642
38.3041 55.03368785471794
38.8613 55.554364809566124
39.4265 56.07107349470088
40.0 56.5831969232018
40.5818 57.0935034798395
41.1721 57.607063737242285
41.771 58.127849323908464
42.3785 58.65479562765874
42.9949 59.18239595218003
43.6203 59.70442235359009
44.2548 60.214935935813514
44.8985 60.70952860571981
45.5515 61.18988980380291
46.2141 61.66237892430438
46.8863 62.13484257437584
47.5683 62.61331229567733
48.2602 63.099874989224006
48.9621 63.5944284420231
49.6743 64.09470425375979
50.3968 64.59833181939483
51.1299 65.10300719254572
51.8736 65.60646442788081
52.6281 66.10649733981298
53.3936 66.6020033130794
54.1702 67.0925113785335
54.9581 67.57644495290182
55.7575 68.05323259780234
56.5685 68.52302472399215
57.3914 68.98477927029926
58.2261 69.43822451207707
59.073 69.88403593531895
59.9323 70.32115028270242
60.804 70.74778544840495
61.6884 71.16362286116615
62.5857 71.56945458350353
63.496 71.96402097720514
64.4196 72.34231761805104
65.3566 72.70094263931246
66.3073 73.04110320940119
67.2717 73.36433170679211
68.2502 73.67409985976367
69.2429 73.97476387071922
70.2501 74.26635711372914
71.2719 74.5422916829258
72.3086 74.79583648159358
73.3603 75.0261638586216
74.4274 75.23444153731153
75.5099 75.4234660158004
76.6083 75.59739409929198
77.7226 75.75707281069373
78.8531 75.9019672001457
80.0 76.03102540088236
81.1636 76.14472869266447
82.3442 76.2470132611407
83.5419 76.33982126312615
84.757 76.42388367603925
85.9899 76.49972662800087
87.2406 76.56734619559599
88.5096 76.62543209070343
89.797 76.67557049335973
91.1031 76.72024113192916
92.4282 76.76249412691111
93.7726 76.80096242933199
95.1366 76.83353236359089
96.5204 76.86200128475835
97.9243 76.88598912225844
99.3486 76.90508335077328
100.794 76.92064991803831
102.26 76.93353425278936
103.747 76.94299751428395
105.256 76.95063137861437
106.787 76.95842479938771
108.34 76.96652040027642
109.916 76.97218862718861
111.515 76.97363966138721
113.137 76.9707104122148
114.783 76.9672493330669
116.452 76.96757298716383
118.146 76.97199373523506
119.865 76.97688971904164
121.608 76.97527011361645
123.377 76.96261312804474
125.171 76.9396072654173
126.992 76.91214088117039
128.839 76.88662491059813
130.713 76.86647585542741
132.615 76.85100749525618
134.543 76.83611478259496
136.5 76.81796292165917
138.486 76.79598044777978
140.5 76.77306442486461
142.544 76.75078391139213
144.617 76.73296644893709
146.721 76.72264989970272
148.855 76.71810753970847
151.02 76.71624099364548
153.217 76.71258726832595
155.445 76.70398631149897
157.706 76.6890653692894
160.0 76.6677189879336
162.327 76.64374672733348
164.688 76.62288855673316
167.084 76.6088199555046
169.514 76.6027583803443
171.98 76.60097059108905
174.481 76.59751225187985
177.019 76.58732709750267
179.594 76.56914476796962
182.206 76.54484879155676
184.856 76.52154037419868
187.545 76.50396474605044
190.273 76.49181660242384
193.041 76.48215968032581
195.849 76.47526140929908
198.697 76.47028680747074
201.587 76.46566060397288
204.52 76.45622865409348
207.494 76.43560765980443
210.512 76.40165663105255
213.574 76.35644677930128
216.681 76.30694185535032
219.833 76.26069413305058
223.03 76.22259795387617
226.274 76.19746969962107
229.565 76.18119362475068
232.905 76.17234781470829
236.292 76.17528312630277
239.729 76.18720583618459
243.216 76.19895210886683
246.754 76.19968941569985
250.343 76.18233990909641
253.984 76.1474481202615
257.678 76.10004045648648
261.426 76.05757586265716
265.229 76.03422714449125
269.087 76.02583618659615
273.001 76.01971790489185
276.972 76.00259603056185
281.0 75.97103145880294
285.088 75.93560194753766
289.234 75.91021962809128
293.441 75.90225347846994
297.709 75.90320565971223
302.04 75.89400536085881
306.433 75.86791466806652
310.89 75.83047364173875
315.412 75.78939267476672
320.0 75.75409197455001
324.655 75.72391147096053
329.377 75.68785599427794
334.168 75.64274388235599
339.028 75.58819507198504
343.959 75.52073023738784
348.962 75.43859279345622
354.038 75.33654477789396
359.188 75.21491958342538
364.412 75.08821384304348
369.713 74.9747569219505
375.09 74.87855134760648
380.546 74.79211743987038
386.081 74.70802815600106
391.697 74.61595862857149
397.394 74.51447799421358
403.175 74.40160298807565
409.039 74.27211116885367
414.989 74.12835993583131
421.025 73.97891184730608
427.149 73.84873479782358
433.362 73.7674390136872
439.665 73.74206340852571
446.06 73.75267137685915
452.548 73.76355010198975
459.131 73.75302425249195
465.809 73.72513767701675
472.584 73.67640876121932
479.458 73.61264505040734
486.432 73.55533627463234
493.507 73.49974341332347
500.686 73.444115550916
507.968 73.40294780561375
515.357 73.36150517956163
522.853 73.30556073774893
530.458 73.24968796063824
538.174 73.20261141344197
546.002 73.1807330406326
553.943 73.2120154211493
562.001 73.27095817728701
570.175 73.29041171378078
578.469 73.21646121289068
586.883 73.03415195433125
595.419 72.7864412059434
604.08 72.539795594578
612.866 72.36509726221249
621.78 72.30369847397172
630.824 72.30429102938471
640.0 72.29593196320945
649.309 72.2539354189306
658.753 72.17612775545855
668.335 72.07566368762816
678.056 71.98669168124947
687.919 71.93202787598894
697.925 71.91012017883065
708.077 71.9117024228914
718.376 71.85646527239146
728.825 71.65910950077794
739.426 71.41377135626618
750.181 71.19262042367242
761.093 70.98038762981069
772.163 70.77195771509014
783.394 70.56176534093363
794.789 70.37278305175337
806.349 70.25458450794807
818.078 70.22120135004417
829.977 70.26202365528425
842.05 70.3445712988854
854.298 70.4134040602929
866.724 70.45253715226151
879.33 70.46309398333268
892.12 70.41754862779476
905.097 70.32806349314565
918.262 70.22665102001446
931.618 70.13802901506507
945.169 70.09844438775359
958.917 70.12350120649896
972.864 70.2094958307294
987.015 70.3267927484828
1001.37 70.44137526924982
1015.94 70.54970394363865
1030.71 70.62332386469413
1045.71 70.6292404344973
1060.92 70.58030460760162
1076.35 70.48418218016052
1092.0 70.3419498413332
1107.89 70.19785392751088
1124.0 70.0707654799959
1140.35 69.93471707828213
1156.94 69.78704018531569
1173.77 69.62521992458494
1190.84 69.46386453730945
1208.16 69.35717397739246
1225.73 69.35142106150666
1243.56 69.45779262084802
1261.65 69.64050237372123
1280.0 69.83642743291998
1298.62 69.98032215363666
1317.51 70.04498638029237
1336.67 70.07257571930496
1356.11 70.08738774467575
1375.84 70.08138292874695
1395.85 70.05545109334643
1416.15 69.99453475181035
1436.75 69.88839559348465
1457.65 69.75534773496696
1478.85 69.63326886005073
1500.36 69.54826870887818
1522.19 69.48226950493951
1544.33 69.41474134969901
1566.79 69.33936966014785
1589.58 69.25349992391118
1612.7 69.20194703962869
1636.16 69.2485480946231
1659.95 69.37370812967904
1684.1 69.4966281944976
1708.6 69.55956367954903
1733.45 69.53344163934104
1758.66 69.42841641115628
1784.24 69.28807722326124
1810.19 69.15297402777097
1836.52 69.052669964271
1863.24 68.99668773311849
1890.34 68.97981747633419
1917.83 68.9861797081721
1945.73 68.99208421224351
1974.03 68.9850092740139
2002.74 68.95292717023486
2031.87 68.90145181387122
2061.43 68.84451806080565
2091.41 68.78670926905545
2121.83 68.72956203068352
2152.69 68.6739193722119
2184.01 68.61338444949651
2215.77 68.54591602231926
2248.0 68.4689592635492
2280.7 68.36769698354266
2313.87 68.24315766360421
2347.53 68.11751850687604
2381.68 67.99149637720515
2416.32 67.85461729248144
2451.46 67.71813532175985
2487.12 67.60809460882226
2523.3 67.53420653507297
2560.0 67.5013531649824
2597.24 67.52176184009893
2635.01 67.570244374289
2673.34 67.60165722586102
2712.23 67.59508044011977
2751.68 67.53811592924991
2791.7 67.43151819827642
2832.31 67.29392044779085
2873.5 67.15182964104312
2915.3 67.03730500691132
2957.7 66.96140163611695
3000.72 66.92533895845249
3044.37 66.91816438740103
3088.65 66.88557842671077
3133.58 66.82320900181493
3179.16 66.83479190891629
3225.4 66.80865627132276
3272.31 66.73491915405474
3319.91 66.65316481673028
3368.2 66.58650571005442
3417.19 66.54537617066377
3466.89 66.52123720617251
3517.32 66.51942952024501
3568.48 66.53977033306377
3620.39 66.57254749779162
3673.05 66.62293325495374
3726.47 66.67308092393927
3780.67 66.69917407019882
3835.67 66.6789017813587
3891.46 66.6035810018322
3948.06 66.51128095860659
4005.49 66.4437341496041
4063.75 66.42018656389278
4122.86 66.42863045254214
4182.82 66.4107580706633
4243.66 66.3141971025343
4305.39 66.12626796626071
4368.01 65.87688118498673
4431.55 65.62870816758195
4496.01 65.4257834022523
4561.4 65.27073494265534
4627.75 65.15179475364793
4695.06 65.04607080173463
4763.35 64.934221652471
4832.64 64.828734710205
4902.93 64.75220869898683
4974.24 64.60366097417887
5046.6 64.33848796005427
5120.0 64.12418467781818
5194.47 63.97010158346879
5270.03 63.81932456070341
5346.68 63.61539346913125
5424.45 63.343871294314084
5503.35 63.02373342965113
5583.4 62.699921870716764
5664.61 62.40267136168785
5747.01 62.12028059651631
5830.6 61.8449719467167
5915.41 61.5854500526565
6001.45 61.36451086277695
6088.74 61.21318892987661
6177.3 61.120680045462635
6267.15 61.033292140625136
6358.31 60.91766887231759
6450.8 60.768548680644884
6544.62 60.58674532121313
6639.82 60.39942829117406
6736.4 60.23531561851003
6834.38 60.100989807661946
6933.79 60.022651564386365
7034.64 60.02343442314769
7136.96 60.083603380326565
7240.77 60.19428780470672
7346.09 60.34535139918282
7452.94 60.49251519390087
7561.35 60.6029246798996
7671.33 60.68453950360173
7782.91 60.72873211768996
7896.12 60.718297154761345
8010.97 60.673029370792676
8127.49 60.6204992599466
8245.71 60.57580268817651
8365.65 60.55926711851343
8487.33 60.576862552475504
8610.78 60.61087030113204
8736.03 60.644897951131725
8863.09 60.68983831682877
8992.01 60.748589679088354
9122.8 60.78967416801089
9255.5 60.790557638646206
9390.12 60.74876115117114
9526.7 60.644352347293335
9665.27 60.45176685612557
9805.86 60.17679473266708
9948.49 59.81757531461949
10093.2 59.365200506660585
10240.0 58.854974581389186
10388.9 58.33887951584194
10540.1 57.88094966005039
10693.4 57.55343344384886
10848.9 57.386941668945056
11006.7 57.38137308974717
11166.8 57.49161779643107
11329.2 57.62909803308415
11494.0 57.72860138658774
11661.2 57.75920264262977
11830.8 57.70779709800364
12002.9 57.59512822746436
12177.5 57.450893897816954
12354.6 57.27697627011294
12534.3 57.070247180424175
12716.6 56.81862724079136
12901.6 56.50651830890905
13089.2 56.143511910819015
13279.6 55.736629625783436
13472.8 55.30242939239204
13668.8 54.870031522474775
13867.6 54.44331742148593
14069.3 54.02999219690314
14273.9 53.63985478123554
14481.5 53.2595007656506
14692.2 52.87674684503132
14905.9 52.4717476038595
15122.7 52.028159518042415
15342.7 51.580350831915226
15565.8 51.19169914618608
15792.2 50.910826712254575
16021.9 50.768669653896566
16255.0 50.75097903009704
16491.4 50.81342667530801
16731.3 50.90061769336488
16974.7 50.94811673219867
17221.6 50.93334353294232
17472.1 50.87246522403568
17726.2 50.779275734763345
17984.0 50.67867390896579
18245.6 50.58073200614554
18511.0 50.47543998423906
18780.2 50.35355628136732
19053.4 50.211871045277476
19330.5 50.081181304957326
19611.7 50.01531284583457
19897.0 50.041009074438094
