Freq,On Axis,Listening Window,Sound Power,Early Reflections,Early Reflections DI,Sound Power DI,DI offset
22.4,17.065822784810123,14.646199025132361,18.44489598206185,18.21219251349332,26.43400651163904,26.20130304307051,30
23.0,15.065822784810123,12.008613517975121,16.923156715083806,16.341519602221766,25.667093915753355,25.085456802891315,30
23.6,11.565822784810152,8.152572158874008,13.636170102198363,12.765485852182351,25.387086306691657,24.516402056675645,30
24.0,19.865822784810106,16.21254544307665,20.5591342009413,19.905721155758684,26.306824287317966,25.65341124213535,30
25.0,24.865822784810106,21.090058902235413,24.574685917851426,24.1890194753464,26.901039426889014,26.515372984383987,30
25.8,28.565822784810123,25.166702219932503,28.017741025148396,28.01676874631157,27.149933473620933,27.148961194784107,30
26.5,32.66582278481012,30.643573147129175,33.018203384690466,33.58687902314573,27.056694123983448,27.62536976243871,30
27.2,37.16582278481012,36.95356016805964,37.92439590081871,38.31054880533118,28.64301136272846,29.02916426724093,30
28.0,39.76582278481011,40.286790024386946,40.71206866233426,40.71785136890951,29.56893865547744,29.574721362052685,30
29.0,41.66582278481012,42.59685238483131,43.391727936078766,42.993451125134285,29.603401259697023,29.205124448752542,30
30.0,43.56582278481012,44.66074310491466,47.23792578162012,46.41552094200635,28.245222162908306,27.422817323294538,30
30.7,45.96582278481013,46.2447165538763,49.15376204012533,48.404523657347184,27.840192896529118,27.090954513750972,30
31.5,47.9658227848101,47.62458481615933,50.32366750321897,49.681773472322504,27.942811343836823,27.300917312940356,30
32.5,49.66582278481012,48.98229353244784,51.08541798125411,50.67799478104189,28.304298751405952,27.89687555119373,30
33.5,52.06582278481012,51.387565291600566,52.49715893289239,52.612297913266886,28.77526737833368,28.890406358708177,30
34.5,54.06582278481012,53.65017420700643,54.11518952991659,54.6412070293334,29.00896717767303,29.534984677089838,30
35.5,55.865822784810106,55.94010191016501,55.710744250116576,56.61030867894378,29.32979323122123,30.229357660048436,30
36.5,58.465822784810115,59.36360829576394,58.13172794498119,58.84288139193147,30.52072690383247,31.231880350782745,30
37.5,60.66582278481012,62.1336638020547,61.075117926744326,61.40980579586292,30.723858006191776,31.058545875310372,30
38.7,62.16582278481012,64.1534259534492,63.85221670964866,63.96849230518083,30.18493364826837,30.301209243800542,30
40.0,63.16582278481012,64.0894349689152,63.06541514500877,63.52250196312589,30.56693300578931,31.02401982390643,30
41.2,64.26582278481011,64.47496069123115,63.52372449874953,64.09474225843273,30.380218432798415,30.951236192481616,30
42.5,65.76582278481011,65.36071725806065,64.57666809264707,65.08404853761822,30.27666872044243,30.784049165413577,30
43.7,67.16582278481012,66.58349719482841,65.75253122840066,66.27299852786213,30.310498666966282,30.830965966427755,30
45.0,68.46582278481011,67.94564558819926,67.11154188734258,67.67570583183878,30.269939756360472,30.834103700856673,30
46.2,69.56582278481011,69.2378462909138,68.75158707607707,69.04556675633144,30.192279534582354,30.48625921483672,30
47.5,70.4658227848101,70.43110355487066,70.05780013428523,70.13667004173806,30.294433513132603,30.37330342058543,30
48.7,70.86582278481012,70.80143274468735,70.93877434277287,70.52464295631916,30.27678978836819,29.862658401914473,30
50.0,71.06582278481011,71.15257723276271,71.66716109557169,70.90254055537683,30.25003667738588,29.485416137191024,30
51.5,72.76582278481011,72.45633084871608,72.23759549153138,71.94877626870645,30.507554580009625,30.2187353571847,30
53.0,74.3658227848101,73.6880094574423,72.49005142954319,72.90123837901673,30.786771078425573,31.19795802789912,30
54.5,75.36582278481013,74.94840905892251,72.73240591128156,73.8065058040234,31.141903254899105,32.21600314764095,30
56.0,76.16582278481012,75.87118793500801,73.32108681067476,74.59250070755822,31.278687227449794,32.55010112433325,30
58.0,76.66582278481012,76.49877260970702,74.00625592362,75.16585119795367,31.332921411753347,32.492516686087015,30
60.0,77.26582278481011,77.08061619825743,74.74740065666582,75.83185741015542,31.24875878810201,32.33321554159161,30
61.5,77.86582278481013,77.55043240951188,75.57243746718166,76.57559337942799,30.9748390300839,31.977994942330227,30
63.0,78.36582278481012,77.99948479457993,76.09754165988944,77.0674338423044,30.93205095227553,31.901943134690484,30
65.0,78.76582278481011,78.3862246044236,76.50592444588776,77.42332282560163,30.962901778821973,31.880300158535846,30
67.0,79.16582278481012,78.80830661153593,76.92610050609576,77.79267310417133,31.015633507364598,31.88220610544016,30
69.0,79.46582278481011,79.10582862974915,77.35810760493199,78.15832174072843,30.94750688902073,31.747721024817167,30
71.0,79.56582278481011,79.23659356876219,77.80403695453062,78.46530913883457,30.77128442992762,31.432556614231572,30
73.0,79.66582278481012,79.4237298952829,78.41530798249725,78.87877101348137,30.544958881801534,31.00842191278565,30
75.0,79.66582278481012,79.45713288892092,78.80430375751993,79.07845230415455,30.37868058476637,30.652829131400992,30
77.5,79.66582278481012,79.45713288892092,78.9873382789118,79.15159128597979,30.305541602941133,30.469794610009117,30
80.0,79.56582278481011,79.46811917611477,79.10576967379528,79.23946640298072,30.228652773134044,30.36234950231949,30
82.5,79.46582278481011,79.3001801061457,79.00411744685529,79.07520524273637,30.22497486340933,30.296062659290413,30
85.0,79.26582278481011,79.10018010614571,78.83821717054197,78.8585672896573,30.241612816488413,30.261962935603748,30
87.5,78.96582278481013,78.83376402037511,78.61422133048272,78.641943941968,30.19182007840712,30.219542689892393,30
90.0,78.56582278481011,78.48875388729074,78.26931961240443,78.34183491840624,30.146918968884506,30.21943427488631,30
92.5,78.16582278481012,78.08954118706872,77.92922710062706,77.97610983951559,30.11343134755313,30.16031408644166,30
95.0,77.76582278481011,77.69967240047295,77.43597681134975,77.5126174745892,30.187054925883743,30.263695589123202,30
97.5,77.26582278481011,77.2553318422052,76.80096176561928,77.0239701730254,30.23136166917979,30.454370076585917,30
100.0,76.66582278481012,76.73300243857007,76.28279362723622,76.52298316720602,30.210019271364047,30.45020881133385,30
103.0,76.16582278481012,76.27755864192596,75.68634056833868,75.98185022707764,30.29570841484832,30.591218073587285,30
106.0,75.66582278481012,75.74379870262389,75.0733536395356,75.43271703665646,30.311081665967436,30.670445063088295,30
109.0,75.16582278481012,75.29992034773224,74.53083043400115,74.90787577402408,30.392044573708162,30.769089913731094,30
112.0,74.66582278481012,74.86709604465564,74.06545567307374,74.4770251631657,30.390070881489933,30.801640371581897,30
115.0,74.16582278481012,74.27755864192598,73.491600772502,73.89195539872524,30.385603243200734,30.78595786942398,30
118.0,73.76582278481011,73.79941261169007,73.01500754744588,73.42276150112562,30.376651110564453,30.784405064244197,30
122.0,73.36582278481012,73.4437987026239,72.62883303673144,73.03026346786523,30.41353523475867,30.81496566589246,30
125.0,72.9658227848101,73.04379870262389,72.25702900360236,72.64376920530471,30.40002949731918,30.786769699021534,30
128.0,72.66582278481012,72.69941261169008,71.93329458493729,72.28835035909886,30.411062252591222,30.766118026752793,30
132.0,72.36582278481012,72.35611300266748,71.60598496877473,71.91624795071252,30.439865051954968,30.75012803389275,30
136.0,72.16582278481012,72.04481549599906,71.31033365739604,71.5955284551926,30.449287040806453,30.734481838603017,30
140.0,71.8658227848101,71.79992034773223,70.8843524295862,71.23924737530531,30.560672972426914,30.915567918146024,30
145.0,71.66582278481012,71.53376402037512,70.55676764818439,70.98346821908898,30.55029580128614,30.976996372190726,30
150.0,71.36582278481012,71.2560953557137,70.19012832351298,70.66775711171766,30.588338243996034,31.065967032200717,30
155.0,71.06582278481011,70.93427948927255,69.80575383010866,70.31445098137907,30.619828507893487,31.1285256591639,30
160.0,70.76582278481011,70.64481549599907,69.46033115223868,69.9858922192804,30.658923276718667,31.18448434376039,30
165.0,70.4658227848101,70.31309538113463,69.10489785636943,69.65034363046995,30.662751750664683,31.208197524765197,30
170.0,70.26582278481011,70.07986071851288,68.66790043846426,69.2694860207675,30.810374697745374,31.411960280048618,30
175.0,69.96582278481011,69.82472213176267,68.49289336123648,69.04630427975607,30.778417852006598,31.331828770526187,30
180.0,69.86582278481012,69.66936888672534,68.99394516235819,69.16210742474495,30.50726146198039,30.67542372436715,30
185.0,69.66582278481012,69.33025887991364,68.57625340038902,68.63799733425518,30.692261545658468,30.754005479524622,30
190.0,69.56582278481011,69.1806328384931,67.41228709036285,68.02717643346493,31.153456405028166,31.768345748130244,30
195.0,69.46582278481011,69.12784048307627,66.91759138211185,67.82063783310608,31.307202649970193,32.21024910096442,30
200.0,69.46582278481011,69.06152237379074,66.61047670301836,67.65215371970218,31.409368654088553,32.45104567077237,30
206.0,69.46582278481011,69.11385544365568,66.24299337646168,67.57530700178584,31.538548441869835,32.870862067194,30
212.0,69.46582278481011,69.15656045251684,65.93293832158928,67.54218988224314,31.614370570273707,33.223622130927566,30
218.0,69.56582278481011,69.24501873938647,65.71783868912928,67.58174286496116,31.66327587442531,33.527180050257186,30
224.0,69.66582278481012,69.3331763462542,65.58008644790593,67.54739992048297,31.785776425771232,33.75308989834828,30
230.0,69.86582278481012,69.39262552592062,65.45921484656027,67.4609309628352,31.931694563085415,33.93341067936035,30
236.0,69.96582278481011,69.47867132305186,65.33170534124363,67.42543487143675,32.053236451615106,34.14696598180822,30
240.0,70.16582278481012,69.70894339651463,65.31036633466852,67.60295645541792,32.1059869410967,34.39857706184611,30
250.0,70.26582278481011,69.87747990330543,65.40262230204499,67.83121185156307,32.04626805174236,34.47485760126044,30
258.0,70.36582278481013,70.15285870912415,65.76788321873606,68.22835716480706,31.92450154431708,34.384975490388086,30
265.0,70.4658227848101,70.29229923059232,66.15756521388461,68.5085958390618,31.783703391530523,34.13473401670771,30
272.0,70.36582278481013,70.29229923059232,66.50601755365709,68.65393477318567,31.638364457406652,33.78628167693523,30
280.0,70.36582278481013,70.26910727883565,66.7011380738377,68.72129695823472,31.54781032060093,33.56796920499795,30
290.0,70.36582278481013,70.29002057781926,66.83686815908268,68.78471933470183,31.50530124311743,33.45315241873658,30
300.0,70.36582278481013,70.36760770831522,66.98283676217382,68.88738575056509,31.480221957750132,33.3847709461414,30
307.0,70.4658227848101,70.34709988904255,66.97008646230901,68.84529698595016,31.501802903092397,33.37701342673354,30
315.0,70.56582278481011,70.38111313246115,66.98026232799718,68.81381002065305,31.5673031118081,33.40085080446397,30
325.0,70.66582278481012,70.42971861624112,67.01613451484815,68.80986377995522,31.619854836285896,33.41358410139297,30
335.0,70.86582278481012,70.48867535138311,66.96482055633949,68.76817669891653,31.720498652466574,33.52385479504362,30
345.0,70.76582278481011,70.41202840346014,66.64710656479873,68.51656572336933,31.895462680090816,33.76492183866141,30
355.0,70.76582278481011,70.3499938573291,66.10194515668213,68.17833965072735,32.171654206601744,34.24804870064696,30
365.0,70.56582278481011,70.16359515113568,65.611395318764,67.8612439327693,32.30235121836638,34.552199832371684,30
375.0,70.36582278481013,69.9378891282644,65.13828973423674,67.54873578620345,32.38915334206095,34.799599394027666,30
387.0,70.16582278481012,69.71622840109598,64.96588667004292,67.369260988502,32.34696741259397,34.750341731053055,30
400.0,69.96582278481011,69.47867132305186,64.61882986777307,67.07724367438821,32.40142764866364,34.85984145527878,30
412.0,69.96582278481011,69.45069303606712,64.33610039223312,66.92623208263969,32.524460953427436,35.114592643834,30
425.0,70.26582278481011,69.68791706085841,64.22009597182767,66.98180064116778,32.70611641969063,35.467821089030735,30
437.0,70.66582278481012,70.08791706085842,64.40604615438141,67.30584584542167,32.782071215436744,35.681870906477,30
450.0,71.06582278481011,70.66718829950268,64.89322198150742,67.86370197334251,32.80348632616017,35.77396631799526,30
462.0,71.46582278481013,71.21205282650232,65.63406671305081,68.51703475289908,32.69501807360324,35.5779861134515,30
475.0,71.66582278481012,71.47395967731798,66.21727108766169,68.93877483464907,32.53518484266891,35.25668858965629,30
487.0,71.66582278481012,71.41044299216705,66.46259054671157,69.0186232168388,32.391819775328244,34.94785244545548,30
500.0,71.36582278481012,70.96354878815526,66.15500176259775,68.56138529278438,32.402163495370885,34.808547025557516,30
515.0,70.76582278481011,70.37999456399346,65.69579914896381,67.96356221703053,32.416432346962935,34.68419541502965,30
530.0,70.26582278481011,69.81718393211327,65.22831087887137,67.39589568423011,32.421288247883155,34.5888730532419,30
545.0,70.06582278481012,69.62528473613312,65.00105124022443,67.29195408878006,32.333330647353066,34.6242334959087,30
560.0,70.66582278481012,70.15785176832796,64.79171789078804,67.36384452858174,32.79400723974622,35.36613387753992,30
580.0,71.46582278481013,70.87159686776094,64.88489535878419,67.67682016909329,33.19477669866765,35.98670150897675,30
600.0,71.76582278481011,71.2231471690821,65.10197988752435,68.02409092785088,33.19905624123122,36.121167281557746,30
615.0,71.66582278481012,71.05818514218122,65.09771748102206,67.9925062552557,33.06567888692551,35.96046766115916,30
630.0,71.96582278481011,71.38809278169477,65.4157307289127,68.38049445054071,33.00759833115406,35.97236205278206,30
650.0,72.46582278481011,71.92977572208792,65.8420482251285,68.8494747921748,33.08030092991312,36.08772749695943,30
670.0,72.66582278481012,72.11449098790173,66.059749744424,69.02143597249844,33.093055015403294,36.054741243477736,30
690.0,72.46582278481011,72.05843362919933,66.30340222306172,69.34508489469417,32.71334873450516,35.755031406137604,30
710.0,71.8658227848101,71.42198222433846,66.04910441109,68.98069667643178,32.44128554790669,35.372877813248465,30
730.0,71.26582278481011,70.60994910380276,65.78974895142251,68.54606636557702,32.06388273822574,34.82020015238025,30
750.0,71.06582278481011,70.37391332317539,66.34288889836135,68.98582015251996,31.388093170655424,34.031024424814035,30
775.0,71.5658227848101,71.10202219453113,66.25630290575164,69.38650809087537,31.715514103655764,34.84571928877949,30
800.0,72.16582278481012,71.60712639826397,65.581245454144,69.30462289867373,32.302503499590244,36.025880944119976,30
825.0,71.8658227848101,71.39741294643309,65.33278243779519,69.10013307759341,32.29727986883968,36.064630508637904,30
850.0,70.16582278481012,69.90154810148888,66.15253728253548,69.55341992250385,30.348128178985036,33.74901081895341,30
875.0,67.26582278481011,67.26501592427427,66.62164325042137,69.82798133225968,27.437034592014584,30.643372673852895,30
900.0,66.76582278481011,66.30621640370082,64.87396583951931,68.0345985302342,28.27161787346661,31.4322505641815,30
925.0,68.96582278481013,68.31685295896604,64.37523744735695,67.77868838916726,30.53816456979878,33.941615511609086,30
950.0,70.16582278481012,69.47063665205715,63.76064455845416,67.45608532431015,32.014551327747,35.70999209360299,30
975.0,70.26582278481011,69.80976300382126,63.19710918284805,67.04806876206683,32.76169424175443,36.61265382097321,30
1000.0,70.66582278481012,70.14720574777459,62.74184860203371,66.86976832238935,33.277437425385244,37.40535714574088,30
1030.0,71.06582278481011,70.36355667748175,62.72334870092622,67.10240140260433,33.261155274877424,37.64020797655553,30
1060.0,70.86582278481012,70.09280744638382,62.84663100152464,67.21143436728234,32.88137307910148,37.246176444859174,30
1090.0,69.76582278481011,68.46233380985818,60.73983415839204,65.38080583624533,33.08152797361285,37.72249965146614,30
1120.0,69.16582278481012,67.81418660215458,59.9153293487809,64.51936532264182,33.29482127951276,37.89885725337368,30
1150.0,70.26582278481011,68.94344192784142,61.19817257853792,65.50922734283544,33.434214585005975,37.7452693493035,30
1180.0,71.16582278481012,69.88794403115645,62.249465895790124,66.30269447940645,33.585249551749996,37.63847813536633,30
1220.0,71.46582278481013,70.59826351334364,63.05839239173538,67.11288503110285,33.48537848224079,37.53987112160826,30
1250.0,71.26582278481011,70.86292358095328,63.69169681668782,67.75548174572698,33.1074418352263,37.171226764265455,30
1280.0,71.26582278481011,70.79142894910017,63.27892788508025,67.47972576664084,33.311703182459325,37.512501064019915,30
1320.0,71.66582278481012,71.01457009544285,63.11227833947079,67.36963324980916,33.644936845633694,37.90229175597206,30
1360.0,71.76582278481011,71.31504099544163,63.31059973442956,67.48751630518296,33.82752469025867,38.004441261012076,30
1400.0,71.5658227848101,70.88874227200704,62.697850628838964,66.90198553738809,33.98675673461895,38.19089164316807,30
1450.0,71.26582278481011,70.46311324440317,62.13677327484349,66.48503793468628,33.9780753097169,38.32633996955968,30
1500.0,70.66582278481012,69.73254166932841,61.292118795096144,65.74317382408307,33.98936784524534,38.44042287423227,30
1550.0,70.86582278481012,69.8083291582694,61.02230242794978,65.35481798032195,34.45351117794745,38.78602673031962,30
1600.0,71.06582278481011,69.66210612710253,60.368118024058106,64.72912484888683,34.932981278215706,39.29398810304443,30
1650.0,72.26582278481011,70.8715540355386,61.38021439756061,65.44460666915566,35.42694736638293,39.49133963797799,30
1700.0,72.36582278481012,71.09554903188365,61.4099898628926,65.63310380558048,35.462445226303174,39.68555916899105,30
1750.0,70.86582278481012,69.67763955231015,60.472999133341546,64.534491146735,35.14314840557516,39.20464041896861,30
1800.0,69.96582278481011,68.69695516740026,59.84255043964845,63.63055890199655,35.06639626540371,38.85440472775181,30
1850.0,69.56582278481011,68.17099749181939,59.44373654738625,63.34069784952392,34.83029964229547,38.72726094443314,30
1900.0,69.16582278481012,68.0329352888926,59.602256000661214,63.44486481318616,34.588070475706445,38.43067928823139,30
1950.0,69.26582278481011,68.04529726669973,59.814232547934296,63.56830538444861,34.47699188225113,38.23106471876544,30
2000.0,69.0658227848101,67.82600828771301,59.78950367812476,63.537690796519,34.28831749119401,38.03650460958825,30
2060.0,69.76582278481011,68.57004994868645,60.440286741073464,64.25494279244616,34.31510715624029,38.12976320761298,30
2120.0,70.26582278481011,68.96393726791202,60.621296095174685,64.62795736187115,34.33597990604086,38.34264117273733,30
2180.0,70.56582278481011,68.8985073728344,60.477590557291634,64.63251267459023,34.26599469824417,38.42091681554277,30
2240.0,69.46582278481011,67.7946804416586,59.80860961150728,63.81389575449644,33.980784687162156,37.98607083015132,30
2300.0,68.36582278481012,66.5299818080009,59.6045741932239,63.51852032864038,33.01146147936052,36.925407614777,30
2360.0,68.66582278481012,66.7923333191363,59.8294640654572,64.05786522030135,32.73446809883495,36.9628692536791,30
2400.0,69.26582278481011,67.26632033865403,59.76011348799112,64.20413644064504,33.06218389800898,37.506206850662906,30
2500.0,69.3658227848101,67.12366232464768,59.498205605343756,63.960647051188985,33.1630152734587,37.625456719303926,30
2580.0,70.06582278481012,67.60225232684726,59.707690396057885,64.3503012291907,33.25195109765656,37.89456193078938,30
2650.0,69.86582278481012,67.26438682498386,59.18643578078708,63.82597766913702,33.43840915584684,38.07795104419678,30
2720.0,69.56582278481011,66.98915607032174,58.81045948747034,63.42044347494566,33.568712595376084,38.1786965828514,30
2800.0,69.46582278481011,66.92524467802994,58.73176394690057,63.23318072410778,33.69206395392216,38.19348073112937,30
