Freq "Listening Window"
22.4 14.646199025132361
23.0 12.008613517975121
23.6 8.152572158874008
24.0 16.21254544307665
25.0 21.090058902235413
25.8 25.166702219932503
26.5 30.643573147129175
27.2 36.95356016805964
28.0 40.286790024386946
29.0 42.59685238483131
30.0 44.66074310491466
30.7 46.2447165538763
31.5 47.62458481615933
32.5 48.98229353244784
33.5 51.387565291600566
34.5 53.65017420700643
35.5 55.94010191016501
36.5 59.36360829576394
37.5 62.1336638020547
38.7 64.1534259534492
40.0 64.0894349689152
41.2 64.47496069123115
42.5 65.36071725806065
43.7 66.58349719482841
45.0 67.94564558819926
46.2 69.2378462909138
47.5 70.43110355487066
48.7 70.80143274468735
50.0 71.15257723276271
51.5 72.45633084871608
53.0 73.6880094574423
54.5 74.94840905892251
56.0 75.87118793500801
58.0 76.49877260970702
60.0 77.08061619825743
61.5 77.55043240951188
63.0 77.99948479457993
65.0 78.3862246044236
67.0 78.80830661153593
69.0 79.10582862974915
71.0 79.23659356876219
73.0 79.4237298952829
75.0 79.45713288892092
77.5 79.45713288892092
80.0 79.46811917611477
82.5 79.3001801061457
85.0 79.10018010614571
87.5 78.83376402037511
90.0 78.48875388729074
92.5 78.08954118706872
95.0 77.69967240047295
97.5 77.2553318422052
100.0 76.73300243857007
103.0 76.27755864192596
106.0 75.74379870262389
109.0 75.29992034773224
112.0 74.86709604465564
115.0 74.27755864192598
118.0 73.79941261169007
122.0 73.4437987026239
125.0 73.04379870262389
128.0 72.69941261169008
132.0 72.35611300266748
136.0 72.04481549599906
140.0 71.79992034773223
145.0 71.53376402037512
150.0 71.2560953557137
155.0 70.93427948927255
160.0 70.64481549599907
165.0 70.31309538113463
170.0 70.07986071851288
175.0 69.82472213176267
180.0 69.66936888672534
185.0 69.33025887991364
190.0 69.1806328384931
195.0 69.12784048307627
200.0 69.06152237379074
206.0 69.11385544365568
212.0 69.15656045251684
218.0 69.24501873938647
224.0 69.3331763462542
230.0 69.39262552592062
236.0 69.47867132305186
240.0 69.70894339651463
250.0 69.87747990330543
258.0 70.15285870912415
265.0 70.29229923059232
272.0 70.29229923059232
280.0 70.26910727883565
290.0 70.29002057781926
300.0 70.36760770831522
307.0 70.34709988904255
315.0 70.38111313246115
325.0 70.42971861624112
335.0 70.48867535138311
345.0 70.41202840346014
355.0 70.3499938573291
365.0 70.16359515113568
375.0 69.9378891282644
387.0 69.71622840109598
400.0 69.47867132305186
412.0 69.45069303606712
425.0 69.68791706085841
437.0 70.08791706085842
450.0 70.66718829950268
462.0 71.21205282650232
475.0 71.47395967731798
487.0 71.41044299216705
500.0 70.96354878815526
515.0 70.37999456399346
530.0 69.81718393211327
545.0 69.62528473613312
560.0 70.15785176832796
580.0 70.87159686776094
600.0 71.2231471690821
615.0 71.05818514218122
630.0 71.38809278169477
650.0 71.92977572208792
670.0 72.11449098790173
690.0 72.05843362919933
710.0 71.42198222433846
730.0 70.60994910380276
750.0 70.37391332317539
775.0 71.10202219453113
800.0 71.60712639826397
825.0 71.39741294643309
850.0 69.90154810148888
875.0 67.26501592427427
900.0 66.30621640370082
925.0 68.31685295896604
950.0 69.47063665205715
975.0 69.80976300382126
1000.0 70.14720574777459
1030.0 70.36355667748175
1060.0 70.09280744638382
1090.0 68.46233380985818
1120.0 67.81418660215458
1150.0 68.94344192784142
1180.0 69.88794403115645
1220.0 70.59826351334364
1250.0 70.86292358095328
1280.0 70.79142894910017
1320.0 71.01457009544285
1360.0 71.31504099544163
1400.0 70.88874227200704
1450.0 70.46311324440317
1500.0 69.73254166932841
1550.0 69.8083291582694
1600.0 69.66210612710253
1650.0 70.8715540355386
1700.0 71.09554903188365
1750.0 69.67763955231015
1800.0 68.69695516740026
1850.0 68.17099749181939
1900.0 68.0329352888926
1950.0 68.04529726669973
2000.0 67.82600828771301
2060.0 68.57004994868645
2120.0 68.96393726791202
2180.0 68.8985073728344
2240.0 67.7946804416586
2300.0 66.5299818080009
2360.0 66.7923333191363
2400.0 67.26632033865403
2500.0 67.12366232464768
2580.0 67.60225232684726
2650.0 67.26438682498386
2720.0 66.98915607032174
2800.0 66.92524467802994
2900.0 67.07953499069075
3000.0 67.38025695801271
3070.0 67.87165494120741
3150.0 68.19483081092046
3250.0 68.27400377770577
3350.0 68.90819110650864
3450.0 68.64098568449813
3550.0 68.30049650162563
3650.0 68.13502784764839
3750.0 68.36912501690901
3870.0 68.76113795463276
4000.0 68.62394562155275
4120.0 69.0405309950402
4250.0 68.84797615093375
4370.0 69.25366097555015
4500.0 69.65862457135357
4620.0 69.56682674581594
4750.0 70.46626588298142
4870.0 71.28126201071053
5000.0 72.10049339849067
5150.0 71.72804555541089
5300.0 70.74426970971163
5450.0 70.58910256607841
5600.0 70.15304867201202
5800.0 70.3249864680418
6000.0 70.7275362485198
6150.0 70.65677224826149
6300.0 71.85178217639037
6500.0 72.48874240496956
6700.0 72.24058279572364
6900.0 71.98089205336244
7100.0 72.34893636363164
7300.0 71.51927925893604
7500.0 70.53588321304613
7750.0 69.7303819227415
8000.0 70.31116730085274
8250.0 70.85765542049798
8500.0 71.17991802016341
8750.0 71.087259906894
9000.0 71.16408422920438
9250.0 71.66911568087602
9500.0 71.58541216319547
9750.0 71.30780675973504
10000.0 71.01948205754282
10300.0 70.32140987001054
10600.0 70.52640185019294
10900.0 71.84572061790247
11200.0 72.05121958184363
11500.0 72.08208512026756
11800.0 71.72005943489447
12200.0 71.70905762559234
12500.0 71.44902923001278
12800.0 70.85175652046438
13200.0 70.67704468976547
13600.0 66.75660754241251
14000.0 69.85070731372639
14500.0 70.75113905986392
15000.0 69.67286723775267
15500.0 70.04034625674997
16000.0 69.16169512137465
16500.0 69.04232195320834
17000.0 68.40474848758176
17500.0 69.59793036486373
18000.0 69.48327679853573
18500.0 71.75693830197933
19000.0 71.89743682283178
19500.0 66.07560187056802
