Freq,Floor Bounce,Ceiling Bounce,Front Wall Bounce,Side Wall Bounce,Rear Wall Bounce,Total Early Reflection
22.4,29.97688719991993,12.245062378341828,27.344235245789974,23.10870733742337,24.84152774001177,26.156284045134328
23.0,33.24453285653945,16.220842034104862,30.19311020440884,24.27976035137931,26.974322540779525,28.991988148025143
23.6,36.32484234980154,22.266998543288793,33.343084061087836,25.209974791927095,29.704194941509854,31.977838212175925
24.0,37.741089925466895,27.304372246646494,35.14341799353039,29.831594796623705,33.83064819188451,34.19235922538755
25.0,38.5517531130688,30.68770855360964,37.32481664973889,34.320374012137734,37.297997706542986,36.396663359632925
25.8,39.03149119854726,33.936953124570806,40.0599062413155,38.539014070815284,40.55809311909741,38.93543053450682
26.5,39.598525455442086,37.576058823418464,43.68821221847119,43.355204739828,44.567999712558986,42.47974414091206
27.2,43.28622029400421,38.33498806874957,44.753976631409984,45.30870399574158,46.356664510940305,44.31939726658689
28.0,46.748568196055686,39.59644926464935,45.679457620072554,46.11461719729584,47.24519566856776,45.735573491245646
29.0,49.48117128150419,40.98130499405366,46.53089499016417,46.591244426703724,47.7340353362726,47.01095228878037
30.0,51.81939944822898,42.23149461180151,47.94541302488423,47.86947480018921,48.540501661063104,48.618252929961244
30.7,54.875457016218235,42.77869553858767,51.145282511141204,51.134177530243264,51.11473358134309,51.556579266588216
31.5,57.116309648082705,42.43409887192979,53.69620405244635,53.664490045252165,53.067061627453214,53.80814910971388
32.5,58.75708531404918,41.40961961424733,55.828828709455664,55.799281861261136,54.70505432405439,55.61879959070785
33.5,59.11357312231314,45.954200955443724,57.516518223705106,58.49971975270009,57.52757404489529,57.31278503245299
34.5,59.21509169233609,51.34025875652539,59.16311330931818,61.37839455751177,60.182212117303095,59.255104685357466
35.5,59.17511978615798,57.168106731414426,62.03070607251345,65.206655890603,63.2821269647101,62.24775909303554
36.5,60.21896173394232,58.645105989227176,62.909190500587044,64.06415931093247,61.64622234682808,61.90211830157102
37.5,61.546031510962365,59.24298160157717,64.05869370696072,63.95906209989354,61.24007409314349,62.37165913004614
38.7,63.24529401009504,60.65871836184667,65.6387765446654,65.18601731762756,62.59815376368539,63.82302424554035
40.0,65.67757590606081,64.35622871172363,67.94728239897645,68.28439125739354,66.09367900275518,66.71371446027912
41.2,67.59131895376171,68.88117128150418,69.94713478106475,70.54468438005804,68.61870587139873,69.23893046425157
42.5,70.05838702328657,70.4429857325477,71.50986040825356,71.97082759071141,69.89041457061057,70.85364337369028
43.7,73.41823651540093,70.05257609927673,72.76181899908565,72.90811743122337,70.27778055956196,72.10450859481941
45.0,76.8775759060608,70.86125670434426,74.01776936213847,73.88591178030745,71.02117785557138,73.91849696721414
46.2,78.40728249051402,73.41803750559066,75.6147205985786,75.593468024663,73.17264379067812,75.67529721934731
47.5,78.9729193931898,76.3476362471143,77.08255636207619,77.0170529861898,75.0903732988798,77.08848468012944
48.7,76.77746996639888,78.53441931276731,78.76939675202483,77.02816046520633,76.08107856466877,77.56337867174881
50.0,75.67593510316881,79.51155637513584,80.36959418258694,76.71117256299333,76.67133465859193,78.17635992635036
51.5,77.60728249051401,77.401673553022,79.86184906965575,77.30720811719894,76.56189787807979,77.90407335413195
53.0,79.17522146977672,76.08367516178384,79.6209260020133,77.76727020247098,76.39077594533404,78.03856354025731
54.5,80.67291939318982,77.61498220345393,80.35330853843598,78.54718676832644,76.30623239282446,79.0011002771717
56.0,81.60728249051401,79.02983317695372,81.08791658297285,79.31974568673272,76.7499743387715,79.8771134169994
58.0,81.97905690908877,79.76198046546891,81.6060878054655,79.99627956389102,77.54944771268923,80.44487167370121
60.0,82.37905690908879,80.25838702328656,82.09708144546708,80.59585468421133,78.27700388660696,80.95590076935814
61.5,82.84216678130896,80.62113704752969,82.58207385140608,81.10892577351017,79.03964715869924,81.45042485238989
63.0,83.10728249051401,80.88442368189038,82.85569428425407,81.38737617234415,79.54969710761364,81.7487170092761
65.0,83.20728249051402,81.15435157205722,83.09908948138265,81.56937017627027,79.97444650523897,81.96894361959185
67.0,83.24365990660357,81.35435157205724,83.22706950258709,81.72239128921396,80.37585912860666,82.12500321128194
69.0,83.2125935781891,81.61498220345393,83.28129779179247,81.91503044899979,80.82155696161009,82.27218376462721
71.0,83.14365990660356,81.91498220345393,83.33419565872666,82.12591828295878,81.31633317023116,82.43383468306084
73.0,83.04365990660357,82.14216678130896,83.20494072630595,82.37911073224569,82.14542345226693,82.60693927410384
75.0,83.07443651269438,82.2752214697767,83.13224914360123,82.49557708257723,82.80609578086654,82.76916500633368
77.5,82.97443651269438,82.21036319762162,83.01695001972189,82.45464810480013,83.05433310567366,82.75558087513758
80.0,82.8065033074192,82.04060273678851,82.6744466656711,82.23474067614369,82.7976664683244,82.52202904808271
82.5,82.5729193931898,81.84060273678851,82.43122193485361,81.97445421937468,82.69543500947981,82.3158352142358
85.0,82.2390737498947,81.44060273678852,82.10194689629324,81.63474067614368,82.42135196509996,81.98320932153595
87.5,81.8065033074192,80.94060273678852,81.70194689629324,81.17631693000759,81.9957426618793,81.54232410025335
90.0,81.33907374989468,80.51036319762161,81.25899636036473,80.69557708257723,81.63422494474032,81.10772638390235
92.5,81.00574172561416,79.87522146977672,80.81594265293148,80.0800409427836,81.04748251729198,80.59208905831262
95.0,80.60574172561417,79.37905690908877,80.3438146526531,79.58376472272198,80.35774258008904,80.08029196915754
97.5,80.20574172561416,78.71259357818909,79.82957639009234,79.01035603446125,79.46295561182606,79.47767015271592
100.0,79.7390737498947,78.2482436532264,79.38690721402628,78.49728907272865,78.36476638295457,78.88948432355427
103.0,79.20574172561416,77.68442368189037,78.78690721402629,77.84395871560902,77.07824485108843,78.1886987328375
106.0,78.67215189873419,77.3482436532264,78.22957639009235,77.26886487567543,75.88972306136837,77.58326191296393
109.0,78.00574172561417,76.78201818545749,77.65800638783656,76.78729153613061,74.93001938258435,76.95486304441758
112.0,77.5729193931898,76.24824365322641,77.12957639009232,76.51735790228065,74.78033879414586,76.54919017330243
115.0,76.9729193931898,75.57905690908879,76.51561698571317,75.95293979370447,74.28528348281577,75.95442304251212
118.0,76.33907374989468,75.17905690908879,76.05800638783657,75.49039614260658,73.87648365682217,75.46939273809784
122.0,75.73907374989469,74.64365990660357,75.55800638783657,74.96689695166471,73.37707802114016,74.9338706481075
125.0,75.2721518987342,74.14365990660356,75.00095905547946,74.36332699376158,73.00081780626033,74.42568602699052
128.0,74.7390737498947,73.71036319762162,74.58723504117302,73.74795119181391,72.62190684327435,73.94536989383073
132.0,74.3729193931898,73.17905690908877,74.21594265293149,73.27568150899955,72.25297769414809,73.52656078271886
136.0,74.00650330741922,72.67905690908879,73.8305577437748,72.81591148112093,71.83884838480924,73.10657912712334
140.0,73.54060273678851,72.2482436532264,73.50390703735326,72.38529143872651,71.34949261867862,72.68342023544886
145.0,73.07522146977672,71.88442368189037,73.14740312515875,71.94903319601539,70.69335275415136,72.24120696867274
150.0,72.94060273678852,71.7482436532264,72.93055774377481,71.74903319601538,70.23808823963776,72.0301424954983
155.0,72.64060273678851,71.41498220345392,72.5770468924704,71.32718359645882,69.89103246400077,71.68185699799173
160.0,72.40728249051404,71.01498220345394,72.27577690449692,71.00541565779034,69.6024174328054,71.37721529258695
165.0,72.04365990660357,70.48442368189036,71.99213613274863,70.52558018211991,69.23396637206577,70.98150341117979
170.0,71.67905690908879,70.71498220345393,71.8770468924704,70.5636239509771,68.98800441588804,70.87945824340927
175.0,71.6125935781891,70.14603151096237,71.6374390587297,70.46489256430101,70.35316723009541,70.89162352075128
180.0,70.99973909157012,69.24877988127324,71.47648290836086,69.05963412070813,68.9912972417514,70.08852718457553
185.0,71.0619804654689,69.50967967173446,71.5322112673133,69.06503984437873,68.16874895344988,70.04801297921686
190.0,71.12476143075637,69.53804035933106,71.52706950258708,69.03444003703211,68.13444554947456,70.05825860840663
195.0,71.16198046546891,69.5211354902426,71.60155866565046,68.9260596761035,68.19828031155615,70.07720049492185
200.0,71.29564874939398,69.62113549024261,71.73221126731329,68.90453067146409,68.09775257795236,70.1507202180393
206.0,71.33311704110601,69.83410057437186,71.86062407800935,68.9072526632737,67.64934086566745,70.1838475239434
212.0,71.33311704110601,70.12113549024261,72.0145084300056,69.09646148268173,66.9063845294705,70.23699973918292
218.0,71.08178446555038,70.42113549024259,72.11139465595411,69.34160626148133,65.89318100228263,70.21893678862713
224.0,70.7672164790925,70.12113549024261,72.085791304803,69.35180406151913,64.75420942848676,69.99843641803565
230.0,70.7672164790925,69.53410057437185,71.84817399982086,69.0323483644685,64.10531054084689,69.71235425958145
236.0,70.46721647909249,68.72277317883783,71.49536275768405,68.39003566042962,63.40700850711562,69.22122456366763
240.0,70.32737159181798,68.20684963234318,71.12336672184766,67.93752285172714,62.730032827853734,68.85889747942385
250.0,70.3817844655504,68.25753900339316,71.18579130480299,68.09145812809334,62.36879246943164,68.9123253900253
258.0,71.00472407919978,69.13941748733029,71.66581779970201,68.9309002095397,62.815653396388925,69.56271555938326
265.0,71.79564874939399,70.28157438299438,72.43250501696613,70.08455238020069,63.41601472839349,70.46817253854377
272.0,72.29564874939399,71.00761453008101,72.98920183202287,70.95531456842886,64.12019334040909,71.10741933591589
280.0,72.62476143075637,71.39394928562314,73.25964119765462,71.37326219364573,64.94065018882833,71.46785286796276
290.0,72.69564874939398,71.6817844655504,73.28920183202288,71.40642170483649,65.38222977200608,71.57972707157431
300.0,72.433117041106,71.28178446555039,73.13250501696614,71.25963620053201,65.31842597666824,71.35340364543417
307.0,71.84298160157716,70.40761453008102,72.80390703735326,70.94044077666197,64.92108924217064,70.8539800469583
315.0,71.12113549024261,70.19394928562313,72.47704689247038,70.6854318838499,65.2085425105742,70.50136576365455
325.0,70.58157438299438,69.83410057437186,72.065817799702,70.25155528800295,65.33084121846088,70.09943626475868
335.0,70.09741643802266,69.46103737028422,71.70155866565045,69.58124954543618,65.1257883429893,69.6559838423156
345.0,69.81473463536435,69.0485681960557,71.52336672184767,69.0661426770903,64.60998944469833,69.32193930750626
355.0,69.86664058805708,68.80684963234319,71.58739025301978,68.66188343499286,63.84909530983634,69.18892450762743
365.0,70.10991924158961,68.90090800001734,71.76336774838435,68.54663213049827,63.14313455626575,69.26824898454484
375.0,70.40991924158959,69.10090800001733,72.06336774838434,68.69843526495555,63.046027003500214,69.50644134732667
387.0,70.48673085626729,69.17712858550226,72.32301403261606,68.79893246126989,63.32282367742471,69.66289244416863
400.0,70.40825897850769,69.043158018849,72.41657091324771,68.55296371141603,63.37492999712745,69.61840472064806
412.0,70.35313680424099,68.89858487615928,72.3829564691907,68.04757551414993,62.87739164570091,69.46803682528125
425.0,70.17712858550226,68.26532677380311,72.18295646919071,67.49067075074056,62.38299812773971,69.13777597576095
437.0,70.28157438299438,67.15130636544612,71.92301403261604,67.15808783559999,61.48451648957693,68.81213755649704
450.0,70.69973909157012,65.05416641930977,71.29973210618321,66.59516246205787,60.48306059311295,68.34070530617329
462.0,70.97112635004343,63.587135718848884,71.06700597622543,66.532359496113,60.90413450052526,68.23560357055521
475.0,70.73410057437185,67.99394928562315,71.79112299311105,68.03682990745462,61.47190885198978,69.1396027805996
487.0,70.56453088683219,71.06721647909248,73.0211520796016,69.63841402124193,61.834425960269044,70.41001987574408
500.0,71.12510726661198,71.98198045430175,73.97032734964122,70.49221729763067,61.94222058873606,71.23540443052252
515.0,72.20090800001734,72.0537639840684,74.52301403261605,70.61350787583534,62.577997781362015,71.7206018644998
530.0,72.85753900339316,71.87545573702349,74.78321327887915,70.5504375212191,63.27432566120585,71.94621137469146
545.0,71.96604785757093,70.36604785757095,74.35858911399264,69.88257934804615,62.57795199197028,71.1680398726004
560.0,71.08407316626774,70.2344193127673,73.51339989747976,68.56016821564204,61.376857145295844,70.36609761205202
580.0,71.76198046546891,69.33441560022973,72.90128583912627,66.55678358023317,60.82424515321959,69.89642209685076
600.0,72.21791909311888,67.80951724266603,72.94827214862943,66.18770372019738,59.385633293296706,69.7721748836706
615.0,72.32476143075637,67.88626582711015,73.01554071191208,66.23258812519005,57.82678452193315,69.82782576085663
630.0,72.39564874939398,66.1146029569338,72.80913316717977,66.39980681586945,56.714779883762276,69.57867157371987
650.0,72.5774699663989,63.28770855360965,72.20913316717976,66.54922762534999,57.03866786641197,69.23130027411216
670.0,72.97443651269438,67.51530015982854,71.50862067924345,66.14341644600678,57.64077340157796,69.4770641704296
690.0,73.34664540903857,69.54598300085343,71.1041057571773,65.96183114075558,57.84392804920779,69.82881210323944
710.0,73.55112179393535,70.15112179393533,70.53138393673717,65.27957013592979,57.41295359528763,69.84362303397573
730.0,74.07180629150596,71.18201818545748,69.33647438009207,63.249221395291215,57.245980927737094,69.99064379162124
750.0,73.80779136582694,71.25112179393533,68.10775118538102,62.71321615077625,56.53595470353061,69.65260966486893
775.0,72.18807882100127,70.58388036310797,67.22904716843965,63.5912542677558,55.83556403017624,68.5663518137342
800.0,70.54998270467989,70.17703281794786,67.63670856939186,64.55902095056224,54.77003748972015,67.88539244177906
825.0,69.23634990169383,68.78023040929116,68.94817399982085,65.48368321555341,54.65471747054917,67.42172116545478
850.0,69.4317722407353,66.79971824019111,69.44312568204026,66.35242918303473,54.73489053978133,67.31930886529433
875.0,69.95028826029747,66.52392110977644,68.79500778681779,65.6925434741085,54.341783287372834,67.14924446529245
900.0,68.38545993725137,68.73409919057505,68.20490347871241,65.57149535815104,54.65143628688611,66.96880167833183
925.0,66.57019169629223,67.14739013668168,68.4895062633293,64.19861065756923,53.87203859541641,65.94617816551272
950.0,67.92812519957789,65.5504093557752,69.4213220841931,64.13317231526197,54.295282278954076,66.3158652691239
975.0,68.39988493905047,62.336588703765074,69.37295701656556,63.386796017205086,52.85922150484254,65.94626563430447
1000.0,68.09887398790323,60.228635032882465,68.53516410811687,62.695376562234614,51.78201840238049,65.22620846457087
1030.0,68.78136330593823,60.247997974005656,68.53415866119812,63.27012081691642,50.579233808906906,65.55940180352312
1060.0,67.50618236788233,61.4223211294364,68.35111601088583,62.88809366373326,50.264702065619716,65.02716181595738
1090.0,67.3803018481155,63.12476143075635,68.57963199765008,62.27709349000739,49.320771787969534,65.18757279131499
1120.0,66.5125149596732,63.271126350043446,68.41449756621779,60.17817605479705,46.38609507345535,64.66284901277689
1150.0,66.63708225214513,62.35088775316592,67.35522719825344,58.00880548753638,44.647132582160395,63.95458352042587
1180.0,65.90382613808407,62.522322650859905,68.46275093187069,59.00252957671751,40.501399730646824,64.31567549530507
1220.0,68.24097333388272,60.776891394239655,70.45222244884911,61.774044730271555,48.29590363060143,66.1352384212786
1250.0,70.62253799701678,60.697194486688105,70.96227411262886,62.2983542550256,52.00304385065293,67.33229107019439
1280.0,68.24471360412468,58.79391241536722,72.9002851988016,64.29567183528367,54.03370832114413,67.76331366705391
1320.0,65.48550730522989,60.87922021184765,74.50348721454196,66.99950527439523,56.5445593734524,68.85697783101224
1360.0,64.03376575299839,62.949392026643324,73.83271484403828,67.71903525048967,56.145624738470076,68.4508980284946
1400.0,63.922045171756324,63.26409703772562,71.77082994007354,66.128731737885,54.15676403494473,66.80935646997665
1450.0,62.285250500994565,62.31776056554108,69.7818982036176,63.15895063565907,51.217144189658825,64.80291033151235
1500.0,61.86278130784726,62.63216832176235,69.45046724515416,62.461397422846005,50.853981137804055,64.49155512019348
1550.0,61.53789437081858,63.00608022687986,69.34115533006901,62.63014443687726,49.7560067468239,64.45364639436323
1600.0,61.93111231680348,63.64612362944824,69.10351984979064,63.59130921168641,50.90185089688103,64.59981461711794
1650.0,63.25343059201336,63.22314196255476,68.55148688103756,62.50538153855388,50.90972246252329,64.24335696288975
1700.0,63.06628263623735,62.40875694776497,68.0829564691907,62.10987853583265,48.70810991721277,63.76514286645667
1750.0,64.30401684300165,61.88152590194868,68.66445189162562,61.146617685737894,47.66597788379215,64.13283555376788
1800.0,66.86167035001728,61.98006265436868,69.45104703440157,61.04708320367094,47.29256564593953,65.20385483877517
1850.0,68.04784921460666,61.980556294868336,69.49820255888714,60.73416925426862,46.50888417893836,65.5858971638612
1900.0,68.38782878412536,62.537610396471095,70.2508243464084,61.0640434993347,47.19774522610072,66.15262288106658
1950.0,68.8382323299784,63.47222436688894,70.25555354021452,60.94589852251231,47.387472913331095,66.39118303546338
2000.0,69.51856529330212,64.98177440949625,70.63300809081183,62.00514546040117,49.85108280934418,67.05046659557496
2060.0,70.138364261402,65.94529401009503,70.36225266742424,62.780605586209646,51.35052640514024,67.34932605244765
2120.0,70.45724675675794,65.72841189314511,69.789823211387,63.424642524473,52.21312819556681,67.28260503659574
2180.0,71.46646059684977,67.00723804551657,70.41072177192265,64.16413932425574,52.743192637827065,68.17241807324355
2240.0,71.95788793737624,68.63055606598398,71.74430282617234,64.5333065749849,52.77697051480139,69.13430894388316
2300.0,71.57732935106438,67.4001756712336,71.90456512406814,63.64333126687676,53.35650644430589,68.79779909242892
2360.0,71.42498945408859,66.51887732241534,72.02529817250739,64.7922026713032,53.53961722001017,68.75660464450395
2400.0,70.46605127536196,65.64137125449386,71.62777093935665,65.19173365882995,54.20421873501198,68.18407635303052
2500.0,70.59484250061294,65.64129243048131,70.89966460963277,65.56224244499748,54.37215749028999,67.96687089822498
2580.0,71.38765849108603,64.8934602700816,70.96252778348682,65.64591012972379,53.30566723490442,68.2236236567648
2650.0,70.8909028103773,63.59088311807977,71.1194321416495,65.72485699447847,53.662993012491654,67.98959666435734
2720.0,71.08159143538647,63.91444116386597,71.8421439802996,65.99573772778751,53.03732483602204,68.42016161136065
2800.0,71.20027290363367,63.73605384974485,72.09477957395903,65.17871804345113,51.203838562803114,68.4723756816155
2900.0,71.76580577403533,62.86904950777276,72.0000893001951,65.15487589245481,52.1390870313936,68.60252904898829
3000.0,71.35901617831269,62.2198877111793,71.59400672102836,64.87053294181443,51.34929724152762,68.19302947850193
3070.0,71.74164188894196,63.31262267878412,71.28573648023907,64.40870953129095,50.543316545625814,68.24727772912644
3150.0,70.76119752644277,63.441292430481326,71.49375821023126,63.9388077772559,50.4006025226971,67.89804301523847
3250.0,69.51825399794947,62.238232329978416,71.57954158903796,64.30366418160472,50.267008413360784,67.45245426910412
3350.0,68.9177922474706,63.88880158157019,71.75877469832585,64.09275456888773,50.17969546585863,67.46722584985845
