Freq "Front Wall Bounce"
22.4 27.344235245789974
23.0 30.19311020440884
23.6 33.343084061087836
24.0 35.14341799353039
25.0 37.32481664973889
25.8 40.0599062413155
26.5 43.68821221847119
27.2 44.753976631409984
28.0 45.679457620072554
29.0 46.53089499016417
30.0 47.94541302488423
30.7 51.145282511141204
31.5 53.69620405244635
32.5 55.828828709455664
33.5 57.516518223705106
34.5 59.16311330931818
35.5 62.03070607251345
36.5 62.909190500587044
37.5 64.05869370696072
38.7 65.6387765446654
40.0 67.94728239897645
41.2 69.94713478106475
42.5 71.50986040825356
43.7 72.76181899908565
45.0 74.01776936213847
46.2 75.6147205985786
47.5 77.08255636207619
48.7 78.76939675202483
50.0 80.36959418258694
51.5 79.86184906965575
53.0 79.6209260020133
54.5 80.35330853843598
56.0 81.08791658297285
58.0 81.6060878054655
60.0 82.09708144546708
61.5 82.58207385140608
63.0 82.85569428425407
65.0 83.09908948138265
67.0 83.22706950258709
69.0 83.28129779179247
71.0 83.33419565872666
73.0 83.20494072630595
75.0 83.13224914360123
77.5 83.01695001972189
80.0 82.6744466656711
82.5 82.43122193485361
85.0 82.10194689629324
87.5 81.70194689629324
90.0 81.25899636036473
92.5 80.81594265293148
95.0 80.3438146526531
97.5 79.82957639009234
100.0 79.38690721402628
103.0 78.78690721402629
106.0 78.22957639009235
109.0 77.65800638783656
112.0 77.12957639009232
115.0 76.51561698571317
118.0 76.05800638783657
122.0 75.55800638783657
125.0 75.00095905547946
128.0 74.58723504117302
132.0 74.21594265293149
136.0 73.8305577437748
140.0 73.50390703735326
145.0 73.14740312515875
150.0 72.93055774377481
155.0 72.5770468924704
160.0 72.27577690449692
165.0 71.99213613274863
170.0 71.8770468924704
175.0 71.6374390587297
180.0 71.47648290836086
185.0 71.5322112673133
190.0 71.52706950258708
195.0 71.60155866565046
200.0 71.73221126731329
206.0 71.86062407800935
212.0 72.0145084300056
218.0 72.11139465595411
224.0 72.085791304803
230.0 71.84817399982086
236.0 71.49536275768405
240.0 71.12336672184766
250.0 71.18579130480299
258.0 71.66581779970201
265.0 72.43250501696613
272.0 72.98920183202287
280.0 73.25964119765462
290.0 73.28920183202288
300.0 73.13250501696614
307.0 72.80390703735326
315.0 72.47704689247038
325.0 72.065817799702
335.0 71.70155866565045
345.0 71.52336672184767
355.0 71.58739025301978
365.0 71.76336774838435
375.0 72.06336774838434
387.0 72.32301403261606
400.0 72.41657091324771
412.0 72.3829564691907
425.0 72.18295646919071
437.0 71.92301403261604
450.0 71.29973210618321
462.0 71.06700597622543
475.0 71.79112299311105
487.0 73.0211520796016
500.0 73.97032734964122
515.0 74.52301403261605
530.0 74.78321327887915
545.0 74.35858911399264
560.0 73.51339989747976
580.0 72.90128583912627
600.0 72.94827214862943
615.0 73.01554071191208
630.0 72.80913316717977
650.0 72.20913316717976
670.0 71.50862067924345
690.0 71.1041057571773
710.0 70.53138393673717
730.0 69.33647438009207
750.0 68.10775118538102
775.0 67.22904716843965
800.0 67.63670856939186
825.0 68.94817399982085
850.0 69.44312568204026
875.0 68.79500778681779
900.0 68.20490347871241
925.0 68.4895062633293
950.0 69.4213220841931
975.0 69.37295701656556
1000.0 68.53516410811687
1030.0 68.53415866119812
1060.0 68.35111601088583
1090.0 68.57963199765008
1120.0 68.41449756621779
1150.0 67.35522719825344
1180.0 68.46275093187069
1220.0 70.45222244884911
1250.0 70.96227411262886
1280.0 72.9002851988016
1320.0 74.50348721454196
1360.0 73.83271484403828
1400.0 71.77082994007354
1450.0 69.7818982036176
1500.0 69.45046724515416
1550.0 69.34115533006901
1600.0 69.10351984979064
1650.0 68.55148688103756
1700.0 68.0829564691907
1750.0 68.66445189162562
1800.0 69.45104703440157
1850.0 69.49820255888714
1900.0 70.2508243464084
1950.0 70.25555354021452
2000.0 70.63300809081183
2060.0 70.36225266742424
2120.0 69.789823211387
2180.0 70.41072177192265
2240.0 71.74430282617234
2300.0 71.90456512406814
2360.0 72.02529817250739
2400.0 71.62777093935665
2500.0 70.89966460963277
2580.0 70.96252778348682
2650.0 71.1194321416495
2720.0 71.8421439802996
2800.0 72.09477957395903
2900.0 72.0000893001951
3000.0 71.59400672102836
3070.0 71.28573648023907
3150.0 71.49375821023126
3250.0 71.57954158903796
3350.0 71.75877469832585
3450.0 71.24053740307016
3550.0 71.32169645880151
3650.0 71.2262667096746
3750.0 71.47013077505582
3870.0 71.59862504848935
4000.0 71.69406307652386
4120.0 71.72548980627383
4250.0 71.17458081922814
4370.0 72.27961381430435
4500.0 73.02284079717822
4620.0 72.82013016093428
4750.0 72.97790791888013
4870.0 72.32063637134345
5000.0 72.7333315705165
5150.0 73.31887228491789
5300.0 73.53037595546834
5450.0 73.4057847398839
5600.0 72.27649361293871
5800.0 72.2159374727281
6000.0 72.85535186898011
6150.0 73.06521886734508
6300.0 73.1813858707837
6500.0 73.16774403642782
6700.0 73.77807115093887
6900.0 74.70194689629324
7100.0 74.82386287989733
7300.0 73.76199922951689
7500.0 73.32569056628432
7750.0 73.8995556498552
8000.0 74.02818924746586
8250.0 73.37921792178213
8500.0 73.09152462097249
8750.0 73.87139332270206
9000.0 74.31934961272046
9250.0 74.16776887918454
9500.0 73.82193125597024
9750.0 74.47388652855744
10000.0 74.88730138977226
10300.0 75.29916720362625
10600.0 75.21112499138741
10900.0 74.79037122555359
11200.0 74.74136369716638
11500.0 74.4720093548554
11800.0 73.96768133548812
12200.0 73.3674565259387
12500.0 73.67198731643929
12800.0 74.87298092116338
13200.0 74.35033155403922
13600.0 73.26812971441043
14000.0 74.13894905159569
14500.0 74.14754766562928
15000.0 74.32645691467246
15500.0 71.80493574442671
16000.0 70.2360813908071
16500.0 69.98641451708797
17000.0 71.57236519205097
17500.0 75.35993118784847
18000.0 74.52447316675739
18500.0 73.14041991208038
19000.0 73.11521607925877
19500.0 69.72787618830654
