Freq "Estimated In-Room Response"
22.4 13.376754891766225
23.0 16.889095800541114
23.6 20.666913949463705
24.0 22.705127058363487
25.0 24.625481922398436
25.8 26.52428361414168
26.5 27.89159947453048
27.2 27.04493950554651
28.0 27.380743767091232
29.0 28.228326795003156
30.0 29.724305231109284
30.7 32.41566983192523
31.5 34.97190040217707
32.5 37.91664798299628
33.5 40.32748024811953
34.5 42.55488676371762
35.5 43.54948693460854
36.5 42.80880312965816
37.5 44.49993481588088
38.7 47.10872137101494
40.0 51.38802619858431
41.2 55.56329475912578
42.5 58.4793448671726
43.7 61.05618932055536
45.0 63.59447605408076
46.2 65.81385222060491
47.5 68.42991766693378
48.7 72.51471794748848
50.0 75.72245456049542
51.5 75.06127784683241
53.0 75.05159769950389
54.5 76.43689391435124
56.0 77.81439474511271
58.0 78.82432550158737
60.0 79.56484784258647
61.5 80.08987800549815
63.0 80.24606761991731
65.0 80.20579508684148
67.0 80.20511497877665
69.0 80.37738739250536
71.0 80.73272770556407
73.0 80.89187420772139
75.0 81.06256364203931
77.5 81.2432546804544
80.0 81.34611429619737
82.5 81.30822275770078
85.0 81.18018496895677
87.5 80.93607085360266
90.0 80.68585642537924
92.5 80.53085636269113
95.0 80.20226934963004
97.5 79.82793042828449
100.0 79.50817814673805
103.0 79.23113867800465
106.0 79.16666575771283
109.0 79.20254134018421
112.0 79.27131178914321
115.0 79.43517424085788
118.0 79.71156255011634
122.0 80.00307421276132
125.0 80.3760707714709
128.0 80.6883309823305
132.0 80.59914414874503
136.0 80.12773703333225
140.0 79.53845878517143
145.0 79.05909604862832
150.0 78.59034798281698
155.0 78.3237351434265
160.0 78.19496697060755
165.0 78.18783375379999
170.0 78.34092503063498
175.0 78.53828572027994
180.0 78.63692672689318
185.0 78.83162874208172
190.0 78.97672593437744
195.0 79.05415252120663
200.0 79.16896472009593
206.0 79.21350121749931
212.0 79.32345379079932
218.0 79.38411856330579
224.0 79.35726895448441
230.0 79.39788126427557
236.0 79.3717587240197
240.0 79.42860237479651
250.0 79.72013498657556
258.0 79.96102324066256
265.0 80.08780732545942
272.0 80.04398314137174
280.0 79.75457661153077
290.0 79.23350354814228
300.0 78.41817320104319
307.0 77.69152375126704
315.0 77.26956192377976
325.0 76.83958606835832
335.0 76.41001077771689
345.0 76.2241140293067
355.0 76.2864049763896
365.0 76.37818697283186
375.0 76.92106420423532
387.0 77.58342840897537
400.0 77.98594804326186
412.0 77.97515228452502
425.0 77.63696867106147
437.0 77.20402042130281
450.0 76.89106065950294
462.0 76.76979296135156
475.0 76.71563333396232
487.0 77.23483469651865
500.0 78.61624396471709
515.0 79.88659626057346
530.0 80.5420608322484
545.0 80.53571556149649
560.0 79.73776824999263
580.0 78.86895552251428
600.0 78.40620167132964
615.0 78.04387767320704
630.0 77.55950960483439
650.0 77.25363330757533
670.0 77.19214485911328
690.0 77.01634518860104
710.0 76.69390084041763
730.0 76.67355902041774
750.0 76.76462268383357
775.0 76.67005903904665
800.0 76.63889774737187
825.0 76.96514202472683
850.0 77.40841844663852
875.0 77.55903910525348
900.0 77.14998055022274
925.0 76.64593194834345
950.0 76.57977096085386
975.0 76.10576867886026
1000.0 75.96381681502918
1030.0 75.80570542496812
1060.0 75.08142270367422
1090.0 74.80701170023089
1120.0 74.9911791116025
1150.0 75.1164394375996
1180.0 74.94273849587124
1220.0 74.43424860714786
1250.0 73.71342229566878
1280.0 73.47440630905373
1320.0 73.60147428208327
1360.0 73.3152506588557
1400.0 73.19850447869283
1450.0 73.35713250376924
1500.0 73.571242491234
1550.0 73.56938771679764
1600.0 73.19313672036841
1650.0 72.61287471119442
1700.0 72.5019142359967
1750.0 73.0401707209344
1800.0 73.84156632545319
1850.0 74.18710417752949
1900.0 74.50532928622448
1950.0 74.24058262077726
2000.0 73.82544501314234
2060.0 73.62061604790439
2120.0 73.14521415613305
2180.0 72.6812716303682
2240.0 72.70362073967031
2300.0 72.91146813815715
2360.0 73.36399001279797
2400.0 74.21145882144187
2500.0 74.79307574234618
2580.0 75.33690422439808
2650.0 76.03130356911758
2720.0 75.83695762770093
2800.0 76.2218301324467
2900.0 75.11146574613933
3000.0 74.33431523730935
3070.0 74.01968246491099
3150.0 74.09974724871617
3250.0 75.40422942628955
3350.0 76.79120644144729
3450.0 77.29399245011943
3550.0 76.7897389879171
3650.0 75.98067888067864
3750.0 75.51811881503703
3870.0 75.37605457165505
4000.0 76.42875116380903
4120.0 78.03799777000513
4250.0 78.7185247335286
4370.0 77.29869782161354
4500.0 76.64557043642172
4620.0 76.40807493010622
4750.0 76.3389362505507
4870.0 77.15578179406818
5000.0 78.95739309415382
5150.0 77.28436636390751
5300.0 76.22870148044726
5450.0 76.60435713365004
5600.0 76.92174539849448
5800.0 78.29379506927492
6000.0 77.96415501790534
6150.0 76.65592942784433
6300.0 76.89305031665818
6500.0 76.81314051328978
6700.0 75.95330992542065
6900.0 75.7640057850747
7100.0 75.4245452047963
7300.0 75.79402092785924
7500.0 74.61390773010366
7750.0 74.50068969916471
8000.0 74.80429188686557
8250.0 75.34071299595423
8500.0 75.41024249604197
8750.0 75.21965249544827
9000.0 75.97343037047222
9250.0 76.28031764628697
9500.0 76.13139538557398
9750.0 78.15297357234253
10000.0 77.38917349423537
10300.0 78.15552979280237
10600.0 78.25978345378432
10900.0 78.56608461273053
11200.0 78.56534180994187
11500.0 78.03816401617969
11800.0 75.31359027939408
12200.0 74.23706906468028
12500.0 75.08106609752792
12800.0 75.55618311724089
13200.0 75.88803056866445
13600.0 77.07155188827535
14000.0 76.25435355854499
14500.0 72.87302147886969
15000.0 71.85495045123386
15500.0 69.95556871404709
16000.0 66.05564927199543
16500.0 71.95138010412906
17000.0 72.46056503578062
17500.0 68.0569741031316
18000.0 67.28685808085002
18500.0 64.02030370630486
19000.0 52.24439587580322
19500.0 44.99925337623604
