Freq "Ceiling Bounce"
20.5078 61.42287292667261
21.9727 61.945404194047555
23.4375 65.43763041154205
24.9023 67.7300009674088
26.3672 69.02799949459707
27.832 70.64009022393518
29.2969 72.09469555052657
30.7617 73.77794214843404
32.2266 74.65659290478412
33.6914 75.29319412182944
35.1562 75.85409313123502
36.6211 76.44868239342857
38.0859 76.85805430618285
39.5508 77.13891151750698
41.0156 77.5392133847363
42.4805 77.95711305169057
43.9453 78.16547148492587
45.4102 78.48541202580483
46.875 78.74290466450371
48.3398 79.06170733969472
51.2695 79.55820528612473
52.7344 79.8574504157867
54.1992 80.11854132927957
55.6641 80.35420680820582
58.5938 80.80956852607495
60.0586 81.05883465461345
62.9883 81.43883673287425
64.4531 81.74636434396828
67.3828 82.28118187752132
68.8477 82.44393785853977
71.7773 82.7836949754231
74.707 83.15615578645064
77.6367 83.42664740621002
79.1016 83.53418310781228
82.0312 83.7488601140291
84.9609 83.97860126492833
87.8906 84.49607333915476
90.8203 84.73442513143907
95.2148 84.89669296374825
98.1445 85.00896228025728
101.074 85.13739541151686
105.469 85.46787703027795
108.398 85.57673718692396
112.793 85.27477463893061
117.188 85.1008113977848
120.117 85.66604795298873
124.512 85.76129709491778
128.906 85.65316170160078
133.301 85.6701128658835
139.16 85.31153199554952
143.555 85.1929133861469
147.949 85.75104857873959
153.809 85.16714971328206
159.668 85.04639008758345
165.527 84.28357651023026
171.387 84.77985806367079
177.246 84.42533579880265
183.105 84.64550825523823
188.965 84.54314035002153
196.289 84.35456130055218
203.613 83.71958204977777
210.938 83.85473234697808
218.262 84.09985774425371
225.586 83.54955579835341
232.91 83.22487121236877
241.699 82.3913848568114
250.488 83.26286692420855
259.277 83.75783481710833
268.066 82.89845539137245
276.855 81.26041208798735
287.109 81.32843953170148
297.363 82.72095567063164
307.617 82.88903522541482
319.336 82.43999256480078
329.59 82.90352797434032
341.309 82.09986312716457
353.027 82.45496439909736
366.211 83.02740045608493
379.395 82.42638302591763
392.578 83.40012945244024
405.762 82.339297300413
420.41 83.41205613612239
435.059 82.97973760460269
451.172 83.09775214438604
465.82 83.17443261403572
483.398 82.88405874940486
499.512 83.03421523441375
517.09 82.60528383696645
536.133 80.36824666508127
555.176 81.95324623542652
574.219 81.07615558155221
594.727 82.1888402415156
615.234 81.46968604669337
637.207 82.05709936269592
659.18 82.0010412112862
682.617 82.45045373598522
707.52 83.30179680401525
732.422 82.72975341634547
757.324 83.00868222484924
785.156 82.57187232085649
811.523 82.36845754113101
840.82 82.1013726262985
870.117 82.03419215153157
900.879 81.68676977464331
933.105 81.25029064384654
965.332 80.80753798772564
1000.49 80.3179650873368
1035.64 80.0598831632572
1072.27 80.71477302892914
1108.89 81.0051583685272
1148.44 81.14993052339545
1189.45 80.98296029185555
1230.47 80.9378766693347
1274.41 80.45889213985708
1319.82 80.32189454334687
1366.7 80.05367146060433
1413.57 79.19965534200303
1463.38 78.77514623664602
1516.11 78.3384040590379
1568.85 79.69375155257809
1624.51 79.66604546903552
1681.64 80.64086478260361
1741.7 79.79047698623846
1803.22 80.01049812717253
1866.21 81.41781346093659
1932.13 80.30496769399723
1999.51 80.93490668642276
2069.82 81.02126439085521
2143.07 81.64634865609914
2219.24 82.04425212890987
2296.88 81.81931345302549
2378.91 80.74646321587504
2462.4 81.14847121580904
2548.83 84.10863011994674
2639.65 83.78025886333897
2731.93 84.12220848017148
2828.61 84.02554690183648
2928.22 84.22941898333224
3030.76 84.24984090341265
3137.7 84.48794772039189
3249.02 84.13661436135786
3363.28 83.92571236731416
3481.93 83.9536474675365
3604.98 83.65621222701573
3732.42 83.66170758604943
3864.26 83.43122218250988
4000.49 82.87903932981364
4141.11 83.06130623072865
4287.6 82.84613406211223
4438.48 82.32834662716799
4595.21 81.8383482308332
4756.35 82.56338115484357
4924.8 82.53193146382431
5097.66 82.05275047931633
5277.83 81.74905693359342
5463.87 81.40128347756988
5657.23 81.41580472361524
5856.45 81.63256315441001
6062.99 81.83236311927455
6276.86 81.98163878968283
6498.05 81.96427181922196
6726.56 81.91371092498761
6963.87 81.74668278663302
7209.96 81.12891811324128
7464.84 80.81995265249621
7727.05 80.76896651875721
7999.51 80.52611239590259
8282.23 80.09994426677314
8573.73 79.5096645364159
8876.95 78.88791973915194
9188.96 78.65794036431483
9514.16 78.67723483043389
9849.61 78.39642189693546
10196.8 77.9679814848245
10555.7 78.26560548402652
10927.7 78.29519171503715
11313.0 78.42145950035975
11712.9 78.10839511900043
12126.0 77.55758525360943
12553.7 77.28781356759742
12996.1 77.1060627232656
13454.6 76.62409855834296
13929.2 76.1447478723242
14419.9 74.98650412014075
14928.2 74.58828235153416
15455.6 73.4554087830531
16000.5 72.80678119111725
16564.5 72.00055976997592
17148.9 70.50382578535522
17752.4 68.7113733014521
18379.4 69.87024515180113
19026.9 70.41804555050368
19697.8 69.67433346312582
19999.5 69.4427386661947
