Freq "Side Wall Bounce"
22.4 22.985274814854833
23.0 22.825218292442614
23.6 22.605870264699476
24.0 22.34771918254988
25.0 22.100543714566285
25.8 21.846379362444864
26.5 21.54661911865172
27.2 21.255808251169427
28.0 20.998580214805614
29.0 20.749991817970866
30.0 20.50915125533139
30.7 20.30614358701787
31.5 20.171522914186014
32.5 20.19081391667838
33.5 20.36988960266312
34.5 20.614859534781274
35.5 21.028920093942887
36.5 21.608779410560388
37.5 22.370572964967707
38.7 23.260579926388615
40.0 24.262662897633604
41.2 25.362662897633626
42.5 26.51571795976723
43.7 27.80518516432157
45.0 29.053894711549887
46.2 30.038036479925537
47.5 30.893553871247818
48.7 31.86396666906505
50.0 32.80625247593703
51.5 33.69171983931517
53.0 34.500007342937764
54.5 35.279219859803334
56.0 36.17127202577244
58.0 36.8941726571945
60.0 37.48785823827669
61.5 38.139457287574515
63.0 38.882853410097965
65.0 39.623087530563865
67.0 40.44473730103391
69.0 41.46187939737591
71.0 42.36867888301866
73.0 43.12656185230006
75.0 44.0554194141191
77.5 44.984086491139166
80.0 45.873870899520114
82.5 46.85405316996251
85.0 47.714375228830534
87.5 48.383394937066114
90.0 49.10423071831394
92.5 49.77410912476074
95.0 50.483864920510555
97.5 51.10423071831393
100.0 51.60423071831394
103.0 52.20423071831392
106.0 52.8249724988092
109.0 53.40423071831394
112.0 53.91437522883054
115.0 54.33506873108571
118.0 54.815308711951985
122.0 55.24559968307169
125.0 55.60539751543807
128.0 55.975029857779234
132.0 56.326337327250215
136.0 56.616220752598196
140.0 56.87687122634479
145.0 57.03714027661668
150.0 57.11758905872743
155.0 57.078034928136375
160.0 56.958183626335696
165.0 56.76891873053884
170.0 56.53874777603997
175.0 56.278913431136445
180.0 56.04953097066689
185.0 55.89053175910658
190.0 55.770307701959425
195.0 55.631447380432306
200.0 55.481012915924325
206.0 55.22266258147924
212.0 54.964702616839546
218.0 54.685152852347116
224.0 54.46734212915199
230.0 54.269797251607216
236.0 54.08126843128649
240.0 53.923397845980844
250.0 53.68571756885463
258.0 53.396633074191925
265.0 53.06849095422464
272.0 52.70257674169977
280.0 52.402576741699775
290.0 52.20373357689964
300.0 52.07676086688636
307.0 51.98848010322179
315.0 51.79820370605778
325.0 51.53762428610317
335.0 51.28225269108923
345.0 51.03424730200389
355.0 50.93073616721327
365.0 50.86499369995026
375.0 50.833267508897464
387.0 50.742717653119826
400.0 50.58750385106654
412.0 50.46668101093127
425.0 50.38526991315629
437.0 50.313380343502075
450.0 50.23236747058583
462.0 50.19098386694945
475.0 50.177524965114046
487.0 50.16535583135017
500.0 50.1803575239458
515.0 50.106692367176194
530.0 50.001594027083925
545.0 50.00231418461644
560.0 50.148945822779254
580.0 50.40790436787688
600.0 50.54965604766912
615.0 50.62864086593002
630.0 50.68498442032235
650.0 50.73561548303914
670.0 50.907541180655755
690.0 51.17787807736052
710.0 51.2758675640312
730.0 51.37421485075956
750.0 51.527644657686764
775.0 51.582314944653476
800.0 51.58359975406107
825.0 51.65373974882034
850.0 51.621709525133085
875.0 51.646706429662146
900.0 51.82777242501969
925.0 52.03842376672796
950.0 52.28871580245847
975.0 52.49879348139565
1000.0 52.78873888151658
1030.0 52.97801770304653
1060.0 53.100550479527385
1090.0 53.26248227723164
1120.0 53.39655929906192
1150.0 53.42994185129318
1180.0 53.479111093532666
1220.0 53.48535960967348
1250.0 53.80244755728171
1280.0 54.237379931959765
1320.0 54.750391038141046
1360.0 55.17145453140641
1400.0 55.3999862691777
1450.0 55.39434904763155
1500.0 55.42701224449554
1550.0 55.58819138640061
1600.0 55.71766939400523
1650.0 56.02303908335165
1700.0 56.14712398969233
1750.0 55.99548733248716
1800.0 55.741270459192265
1850.0 55.42393524226236
1900.0 55.228553122382166
1950.0 55.12753201634084
2000.0 54.85084093341678
2060.0 54.521859767792805
2120.0 54.599652224265284
2180.0 55.12640823988505
2240.0 55.612288185303385
2300.0 55.814391681783974
2360.0 55.4422101603206
2400.0 54.76262679223426
2500.0 54.54515816926384
2580.0 54.20544595536967
2650.0 53.65205761639629
2720.0 52.694182085241394
2800.0 51.70635173749304
2900.0 51.033127554685834
3000.0 50.847755363059846
3070.0 50.80098343413569
3150.0 50.48368081477345
3250.0 50.15284561579621
3350.0 49.98685650735979
3450.0 49.90933378790123
3550.0 49.94591759324281
3650.0 49.8818743884879
3750.0 49.56100127604316
3870.0 49.28548305031613
4000.0 48.86715911860621
4120.0 48.62586698276722
4250.0 48.53208204351874
4370.0 48.2241855946819
4500.0 47.9316693120048
4620.0 47.700970098797114
4750.0 47.43542781439331
4870.0 47.21964662228444
5000.0 47.02108639956468
5150.0 46.69955076044866
5300.0 46.42670650547885
5450.0 46.00719213058834
5600.0 45.440010339793616
5800.0 44.70548278821303
6000.0 43.836394558611374
6150.0 43.02654522736829
6300.0 42.365155089654095
6500.0 42.01751459461384
6700.0 41.92482051384039
6900.0 41.696321013268545
7100.0 41.71770088425717
7300.0 41.57433037728232
7500.0 40.90064138859512
7750.0 40.20639376982999
8000.0 39.283604367568955
8250.0 38.36546094780341
8500.0 37.71104034280903
8750.0 37.42971824820266
9000.0 37.40479687074867
9250.0 37.85755694429824
9500.0 38.76082136350041
9750.0 39.94974265598961
10000.0 40.97087446834236
10300.0 41.50771764555836
10600.0 41.36633569532357
10900.0 40.83150029827412
11200.0 40.212833227990586
11500.0 39.580352554634274
11800.0 39.16468345607284
12200.0 38.77271376850081
12500.0 38.40960056182068
12800.0 38.09555733100022
13200.0 37.72065786707968
13600.0 37.55344804338455
14000.0 37.59425003087921
14500.0 37.81730246540212
15000.0 38.14457207333636
15500.0 38.55536032281664
16000.0 39.41181571439208
16500.0 41.102141549477764
17000.0 43.27358897965827
17500.0 45.215227444595186
18000.0 45.487401857491264
18500.0 42.613852314477654
19000.0 39.89231844440006
19500.0 38.07768869305916
