Freq "Total Early Reflection"
22.4 23.002644329049943
23.0 22.831680767224285
23.6 22.610234510016355
24.0 22.351488534831063
25.0 22.100276152031924
25.8 21.837605041788052
26.5 21.5131918207813
27.2 21.236687076989725
28.0 20.963817239205994
29.0 20.698589265666342
30.0 20.42824883700392
30.7 20.19183786711234
31.5 20.020353851108226
32.5 19.9672420183136
33.5 20.082653351421314
34.5 20.296152191263857
35.5 20.646552099154476
36.5 21.15754543025743
37.5 21.87339645695444
38.7 22.717336614127035
40.0 23.687900529961595
41.2 24.734895392700295
42.5 25.856772958029538
43.7 27.139171379478015
45.0 28.368373207173065
46.2 29.32782926386811
47.5 30.19065693047959
48.7 31.160228479292485
50.0 32.11130676905968
51.5 33.019702842987456
53.0 33.8712554552602
54.5 34.692030270673925
56.0 35.60028386143719
58.0 36.371623184316874
60.0 37.040754673416146
61.5 37.7313079699377
63.0 38.49861636915189
65.0 39.3135637890405
67.0 40.17319298779741
69.0 41.205456137439654
71.0 42.12657933042071
73.0 42.91496373863474
75.0 43.87687613020681
77.5 44.81047047281024
80.0 45.740901178850734
82.5 46.70175320519576
85.0 47.57822055077399
87.5 48.26502616155919
90.0 48.97893002702186
92.5 49.66798049934283
95.0 50.3968390436403
97.5 51.03429638839562
100.0 51.550603949892505
103.0 52.13842406287203
106.0 52.79651708017184
109.0 53.36525638750179
112.0 53.8855921290653
115.0 54.33320211548043
118.0 54.813787815062426
122.0 55.259743662343126
125.0 55.6160445649698
128.0 55.99173096349277
132.0 56.35439541027529
136.0 56.67235207612961
140.0 56.91314350287534
145.0 57.10030645727164
150.0 57.1718792925213
155.0 57.15657789933796
160.0 57.047545553711444
165.0 56.871937411185414
170.0 56.63551279052736
175.0 56.37862056753818
180.0 56.17112174685188
185.0 56.0214446699367
190.0 55.89230781573231
195.0 55.77578234679086
200.0 55.62320846763076
206.0 55.40597761942105
212.0 55.13973906984195
218.0 54.88839202969861
224.0 54.66244249855336
230.0 54.503144895488404
236.0 54.34921746019508
240.0 54.166292757704795
250.0 53.96898144805975
258.0 53.694208827091515
265.0 53.38000610668563
272.0 53.01348210040108
280.0 52.719816664522156
290.0 52.520637709524465
300.0 52.4208510839909
307.0 52.33046553128476
315.0 52.16663336935022
325.0 51.93097014113482
335.0 51.6855461258037
345.0 51.47843013075625
355.0 51.394273648249495
365.0 51.37487402030757
375.0 51.37040187536424
387.0 51.31277420201458
400.0 51.194149663328076
412.0 51.102302423692976
425.0 51.068833218229344
437.0 51.01581086194494
450.0 50.961928837006624
462.0 50.953034402367805
475.0 50.94406737175936
487.0 50.97841468120612
500.0 50.990556926935554
515.0 50.93324118301156
530.0 50.858544700563314
545.0 50.854628069308816
560.0 51.04850560701942
580.0 51.30487130162787
600.0 51.50099612842375
615.0 51.59944847865573
630.0 51.6788336331236
650.0 51.75081480535364
670.0 51.97116897236553
690.0 52.27734468038331
710.0 52.40763537611069
730.0 52.540211640737
750.0 52.683161588817356
775.0 52.782238386383455
800.0 52.81804837021021
825.0 52.89374469483418
850.0 52.92093131181474
875.0 52.94138052832935
900.0 53.18156200649925
925.0 53.430218100238605
950.0 53.68952526310764
975.0 53.936848322618246
1000.0 54.247693929765575
1030.0 54.40766186074883
1060.0 54.49496013808522
1090.0 54.60236676610033
1120.0 54.64189806045228
1150.0 54.58865143219886
1180.0 54.51385064777517
1220.0 54.4170452705564
1250.0 54.59508449038445
1280.0 54.940771708419845
1320.0 55.321535663421415
1360.0 55.64164691195283
1400.0 55.78875345603912
1450.0 55.709554382492726
1500.0 55.6761335491271
1550.0 55.81442685359285
1600.0 55.928187945312786
1650.0 56.194258784186246
1700.0 56.29676194433874
1750.0 56.17373378861524
1800.0 55.93451067317672
1850.0 55.642776685187144
1900.0 55.465809479285085
1950.0 55.399086654282954
2000.0 55.16630972291223
2060.0 54.915477151374134
2120.0 55.02514339194339
2180.0 55.5778955900946
2240.0 56.11309642887899
2300.0 56.358630901170855
2360.0 55.988823492117476
2400.0 55.355036283490406
2500.0 55.19350190646854
2580.0 54.88242374797211
2650.0 54.40395177560083
2720.0 53.50624077732684
2800.0 52.61175117566755
2900.0 51.98980044462749
3000.0 51.84342151105629
3070.0 51.8711555715699
3150.0 51.5868260181918
3250.0 51.32383491882925
3350.0 51.172580358435894
3450.0 51.11166735066307
3550.0 51.144399521859384
3650.0 51.07894573340404
3750.0 50.806861058324714
3870.0 50.5481494780981
4000.0 50.22519020737509
4120.0 50.06488546002848
4250.0 50.08313670617504
4370.0 49.94930177732793
4500.0 49.848046069017144
4620.0 49.811359904181316
4750.0 49.71682050823419
4870.0 49.6722827795775
5000.0 49.60606739815523
5150.0 49.36115787457702
5300.0 49.09896182387378
5450.0 48.629444789189805
5600.0 47.96151365585443
5800.0 47.182209225547
6000.0 46.26598343498124
6150.0 45.50989491533116
6300.0 45.00052223979651
6500.0 44.92302100388049
6700.0 45.26311356407851
6900.0 45.52602764607259
7100.0 46.12211829623013
7300.0 46.524514392923194
7500.0 46.446560749636404
7750.0 46.261628769091075
8000.0 45.80494792657122
8250.0 45.30018325172914
8500.0 44.94927759709718
8750.0 44.85561102891124
9000.0 44.92123994947879
9250.0 45.387585341958086
9500.0 46.24921939574732
9750.0 47.24406884038481
10000.0 48.0893167900532
10300.0 48.49379896584712
10600.0 48.35043210722496
10900.0 47.927263322966795
11200.0 47.565659048763266
11500.0 47.214244855529316
11800.0 46.99726725920088
12200.0 46.69391036820873
12500.0 46.193667395494586
12800.0 45.52041391171309
13200.0 44.589329602555324
13600.0 43.761855414265526
14000.0 43.1552271377404
14500.0 42.794480690978745
15000.0 42.5868568205361
15500.0 42.55426324917998
16000.0 43.09430004973454
16500.0 44.60538193026953
17000.0 46.82866294073301
17500.0 48.983396538362044
18000.0 49.71533770442379
18500.0 47.462564853638995
19000.0 45.567384623248316
19500.0 44.75024811059443
