Freq "Estimated In-Room Response"
20.5078 56.66167860132083
23.4375 60.36865493270642
26.3672 63.87287173052236
29.2969 66.98027092993215
32.2266 69.79172943179725
35.1563 72.39770646058345
38.0859 74.8516637160331
41.0156 76.95760937720482
43.9453 78.847701227372
46.875 80.4363075669994
49.8047 81.73497059086216
52.7344 82.73863834268639
55.6641 83.4898521749283
58.5938 84.09031898953532
61.5234 84.53960885755865
64.4531 84.86687120745047
67.3828 85.12576199719669
70.3125 85.38388364412364
73.2422 85.63537584027566
76.1719 85.82140257464317
79.1016 85.97008224395567
82.0313 86.23070921697702
84.9609 86.36736339993948
87.8906 86.43074068410053
90.8203 86.43131664151753
93.75 86.63751541857222
96.6797 86.77164349119452
102.539 86.97461191040492
105.469 87.01500396589024
108.398 87.08333634213291
111.328 87.19414153361393
117.188 87.37642224077602
120.117 87.51115882163003
125.977 87.57526547774023
128.906 87.49425521346168
134.766 87.50299955428312
137.695 87.52500802780116
143.555 87.49363742484132
149.414 87.53488751034716
155.273 87.60022566268916
158.203 87.61027316608735
164.063 87.65021475484056
169.922 87.52643551478081
175.781 87.34846580253327
181.641 87.29731208604329
190.43 87.23119151463956
196.289 87.15913056828649
202.148 87.0663466711859
210.938 86.91006668565613
216.797 86.8113707557662
225.586 86.89820205001735
234.375 86.79996140856466
240.234 86.64200209468228
249.023 86.57970011442603
257.813 86.62756923944966
266.602 86.23825869483895
278.32 86.11809342179177
287.109 86.09576226524743
295.898 86.04551668231275
307.617 86.01346775357142
319.336 85.82104214486847
331.055 85.58721299230245
342.773 85.32186435106365
354.492 85.4116217599227
366.211 85.58451119051165
377.93 85.8231608188717
392.578 85.06491600898738
407.227 84.88431630578937
421.875 84.76260915119167
436.523 84.34609140501746
451.172 85.04871438044108
465.82 84.8968201902139
483.398 84.2165983923145
500.977 84.11505306919506
518.555 84.3605497505822
536.133 84.07759095691291
553.711 83.58142440325267
574.219 82.95784045946858
594.727 84.17248630921996
615.234 85.76356811299152
638.672 85.77940327011271
659.18 84.86692781379382
682.617 84.54181887968075
706.055 84.44370692347321
732.422 84.39286149342777
758.789 85.25518137723402
785.156 85.42760668788586
811.523 85.52911848908894
840.82 85.28488784178911
870.117 84.89828704542965
902.344 84.99782331619004
931.641 84.69511709050663
966.797 84.43721394993254
999.023 84.16476357999187
1034.18 83.39894622403366
1072.27 82.94042707588525
1110.35 82.49230526892602
1148.44 82.37938369023433
1189.45 82.48570012677428
1230.47 82.48684516101744
1274.41 82.35912879124223
1318.36 81.91181495254618
1365.23 81.22769367563875
1415.04 80.98191168812166
1464.84 81.02264905607436
1514.65 81.09646004304481
1570.31 81.0682793808612
1623.05 80.55018261349643
1681.64 80.20962140733842
1740.23 80.07903028075005
1801.76 80.55061593828846
1866.21 80.65591119602638
1930.66 79.54921082418866
2000.98 80.31308954607255
2071.29 81.22254919718942
2144.53 80.90794163320408
2217.77 80.22460580807663
2296.88 81.06061597778478
2378.91 81.60504413038865
2460.94 81.22018514619226
2548.83 81.04063948621798
2639.65 81.1384006907303
2733.4 81.13288615672576
2827.15 81.31947653650285
2926.76 81.30222279338895
3032.23 81.26817394377986
3137.7 81.54947718270093
3249.02 81.45320290080882
3363.28 81.22672657415379
3483.4 81.45485204106585
3606.45 81.31632989190203
3732.42 81.01197409603976
3864.26 81.01691108339934
3999.02 81.29905167003564
4139.65 81.4156102274221
4286.13 81.67266225640745
4438.48 81.75060642542356
4593.75 82.03323182481978
4757.81 81.95526227413924
4924.8 82.17909646344636
5097.66 82.1860154087935
5279.3 82.03739738622917
5463.87 81.98597810071038
5657.23 81.71598417147916
5856.45 81.67625788745352
6061.52 81.56965570842988
6275.39 81.6590915040918
6498.05 81.67715251647472
6726.56 81.70167917995906
6963.87 81.70888858040368
7209.96 81.63935027978087
7464.84 81.41666824714366
7728.52 81.16957410178483
8000.98 81.21658918740468
8282.23 81.33786118925478
8575.2 81.28281460703839
8876.95 81.08174797430165
9190.43 80.78871203597869
9512.7 80.56635789047802
9849.61 80.50428981334058
10195.3 80.64045794311816
10555.7 80.80564013568106
10927.7 81.00389881886075
11314.5 80.98684926822688
11712.9 80.76289153122028
12126.0 80.70219328474695
12553.7 80.62923538215324
12996.1 80.42729901474891
13453.1 80.12755248096161
13927.7 79.67182580625406
14419.9 79.33162214756808
14929.7 79.17713209479419
15454.1 79.09809500193937
15999.0 78.87837467227646
16564.5 78.85135021166391
17147.5 79.12169230375153
17753.9 79.10399791231953
18377.9 78.37464175641585
19028.3 77.58394022245392
19699.2 76.94125862583525
19998.0 76.52439870312082
