Freq,Floor Bounce,Ceiling Bounce,Front Wall Bounce,Side Wall Bounce,Rear Wall Bounce,Total Early Reflection
20.0,44.217479418666414,43.15770537907045,43.30766554586924,43.50936046523043,43.48593907178153,43.55133343171008
20.2909,45.14244618311005,44.08095856693609,44.233095768125395,44.4306072163408,44.39927363809804,44.473048524277885
20.586,45.94974772659586,44.88453994751109,45.04038080891189,45.231662967474705,45.19305326447562,45.27577420526134
20.8855,46.558393555294685,45.489469325838,45.64937891548513,45.83411129053542,45.78743065139102,45.87978397998853
21.1893,46.89937646339587,45.82405404088331,45.98979549611278,46.16619526509797,46.11186263569425,46.214492429142524
21.4975,47.07469998700583,45.992334675934046,46.16493165580545,46.33307613837468,46.26969108720286,46.38341056516197
21.8102,47.20335860297121,46.11328858643037,46.29349924592128,46.45177331305189,46.37953847526259,46.50501498752698
22.1274,47.42002095109555,46.32058815467562,46.50963686377571,46.657260224505364,46.57584889391475,46.713710645778406
22.4492,47.835022181541405,46.72623651661223,46.92419770981823,47.06135112252903,46.970151046688756,47.12076161782559
22.7758,48.477358224892924,47.358906309815666,47.566618625066894,47.692259705084524,47.590342089893284,47.754823976636516
23.1071,49.25503070108033,48.12557390380684,48.34460540999953,48.45798082590238,48.345211133433196,48.52380878376516
23.4432,50.02070552760816,48.88028440956839,49.11059521240287,49.21165871366898,49.08700563588016,49.28060569491117
23.7841,50.65838738241416,49.50799979670896,49.74944011837647,49.83938005099799,49.70253638507859,49.910503841238636
24.1301,51.158410232878964,49.99841470054514,50.25085121922646,50.32969940823844,50.179881860659435,50.40281869414886
24.4811,51.57510931024899,50.405185656340194,50.66868672988676,50.73781818486185,50.57441555401252,50.81203755284224
24.8372,51.988818229950994,50.81128950016418,51.08537917762399,51.1457302765576,50.96754360340313,51.21990954654274
25.1984,52.47219741760949,51.28710592767368,51.571498407727574,51.624264095851146,51.431572795490695,51.697845721916224
25.5649,53.04025437708998,51.84925438288005,52.142905329659015,52.18879325443436,51.981485106013366,52.26137760338682
25.9368,53.64664379997467,52.45041670838651,52.75288879239804,52.79410651723643,52.57074187693664,52.86409705170047
26.3141,54.22835946632375,53.028590346918236,53.3384497765291,53.376440704991836,53.13782357724219,53.44330888414069
26.6968,54.74040301179849,53.5370581971716,53.85401981180007,53.89038150089573,53.63580682601798,53.95314780048611
27.0851,55.18243827230643,53.97685988074048,54.29931221177927,54.33552358046316,54.06481138279818,54.39360774121448
27.4791,55.590128682607215,54.38262746950576,54.71061296648938,54.74705112800132,54.460957461896555,54.80027547507149
27.8788,56.01978609668919,54.810324522091236,55.14263413345904,55.18119335254818,54.87871180827818,55.228727708660955
28.2843,56.49709797182169,55.28566147955911,55.62237567242447,55.663331800913966,55.344993908475516,55.70508015724718
28.6957,57.014727907216496,55.80025334872428,56.14111504022971,56.18427908410226,55.850072855806104,56.220726127857006
29.1131,57.5436785027626,56.32512541051419,56.67041862207685,56.71620956793977,56.36552358707712,56.74712115098407
29.5365,58.0582813817702,56.83461776587727,57.185286398084,57.23295517042442,56.86553063112687,57.258604528615535
29.9661,58.553892878511704,57.32275641867389,57.67942823655325,57.72788647029485,57.343768478514676,57.749266917958124
30.402,59.04584211724695,57.80485129614986,58.168130950077156,58.21684243649321,57.81494710759736,58.23441735048564
30.8442,59.55679952062637,58.30392887133348,58.67539960110007,58.72319468497554,58.30266777109921,58.737366814893136
31.2929,60.08943528714656,58.822702384409595,59.20352292556578,59.2487276525421,58.809728630728685,59.26056902038182
31.748,60.63508155994134,59.3531443326182,59.74421113224096,59.78588325286616,59.327786830125476,59.795830701069676
32.2098,61.17840474150192,59.87930355187832,60.28190686646806,60.31902957504451,59.841522135670004,60.327609802170414
32.6783,61.7113979944686,60.39417660507394,60.80960590431687,60.84037254797565,60.34344085348805,60.8484177389181
33.1536,62.2420668437756,60.90644794926669,61.33431151784883,61.35930170036565,60.842863839036156,61.366696956256746
33.6359,62.78140830671117,61.427099737478315,61.86873640975021,61.88624254833627,61.351481908346116,61.893791231679515
34.1251,63.336428502388,61.965518167224246,62.41944928268792,62.42997401549792,61.8777770583783,62.43765990797783
34.6215,63.896463997706576,62.51065092245557,62.976452170430434,62.97908706046138,62.41122187747541,62.98757242077242
35.125,64.45084483756088,63.05254112040356,63.5288831591471,63.524606556311696,62.942844477669766,63.53357865240473
35.6359,64.99291474599386,63.58449879902365,64.07031325458418,64.05913095215926,63.4660672353416,64.0689196472025
36.1543,65.53132520480466,64.11586873422436,64.61002926339916,64.5914330155313,63.988789584465394,64.60238595620106
36.6802,66.06973675923066,64.64959898059325,65.15060368176307,65.12495824928571,64.5151227652313,65.13732424844022
37.2137,66.60878656470061,65.18638125375017,65.69246410981233,65.65968236154497,65.04401787916335,65.67391211120014
37.755,67.14749045719793,65.72322335572056,66.23518120210646,66.19462328929467,65.57419995130851,66.21086673570785
38.3041,67.6864882854785,66.26138318626231,66.77904229820925,66.73017879007642,66.10460707364565,66.74852522093818
38.8613,68.22712837247089,66.80059681859126,67.32475620700765,67.26713701421572,66.63425818439492,67.28730694769237
39.4265,68.76907804251064,67.33908849754634,67.87132802610252,67.80409448665442,67.1616393836739,67.82607439940324
40.0,69.3066785027626,67.87083463947994,68.4133256975359,68.33706113265328,67.68023189232696,68.35933909191317
40.5818,69.84394857068486,68.39739798685086,68.95303431233413,68.86781580877077,68.19109072390381,68.88938659680551
41.1721,70.38289597069402,68.92203335199483,69.4926005156585,69.39975664750703,68.69783079841508,69.4190403444367
41.771,70.90986627475316,69.43177828381701,70.01988470494096,69.91991135007495,69.18640977747904,69.93516372699676
42.3785,71.40385768821879,69.90322461343649,70.51102777746692,70.40565160880712,69.63509624808319,70.41531798651917
42.9949,71.86121927812408,70.33683455235334,70.96502902174298,70.85658167707172,70.044411911794,70.85849190948328
43.6203,72.31264025739326,70.76341099150652,71.4113225090076,71.30151213202811,70.4460425712475,71.29493745178573
44.2548,72.78746517095782,71.21378243113874,71.88091267329276,71.77204227203143,70.8723930120785,71.75556020032019
44.8985,73.27836737536072,71.68274357512676,72.36650662463197,72.25916109340992,71.31856148709704,72.23346493234719
45.5515,73.75601499352163,72.14032361603543,72.83824795329036,72.73328578608758,71.75576550286189,72.69912117419351
46.2141,74.21100403163419,72.58086773161968,73.29056826931135,73.18701988798294,72.17855800169966,73.14559911579227
46.8863,74.66066055113828,73.0202390181868,73.7385945164348,73.63456106328812,72.60331430872472,73.5887080213699
47.5683,75.11484497505312,73.46831345701256,74.19289833778473,74.08651544584148,73.04034348512094,74.03866399572405
48.2602,75.55325109346009,73.90434518901527,74.6350416076867,74.52209133339744,73.4671592119404,74.4750163904431
48.9621,75.9654837002936,74.31493973954719,75.05173663978125,74.9290728737768,73.8699808315418,74.88533603745299
49.6743,76.35861627071847,74.70679042024233,75.45156655215209,75.31606687180803,74.25493495760273,75.27710372852572
50.3968,76.73870186833241,75.08385306911464,75.83838979275941,75.68866268293986,74.6241465863398,75.65483582832763
51.1299,77.10179051442076,75.4395615992886,76.20750494254246,76.0412717346,74.97145985744588,76.01329336690972
51.8736,77.44257737087727,75.76924111822547,76.55220090711975,76.37028717238502,75.29121907018268,76.34728194112732
52.6281,77.76342909841489,76.07558665081078,76.87461833282583,76.67909775270002,75.58555385812727,76.6593540862478
53.3936,78.06598500538136,76.36096244408924,77.17590242664185,76.96912144988394,75.85706272913767,76.95128569427288
54.1702,78.35090764797744,76.62674314718123,77.45790876386604,77.24174317685602,76.10872337340955,77.22462658090868
54.9581,78.61785627009854,76.8746231681821,77.71891838024015,77.49836725883335,76.34258158928589,77.47982123486449
55.7575,78.86417470238774,77.10459534376048,77.96021905555577,77.7364032004968,76.5593247291087,77.71603064530095
56.5685,79.08721165120903,77.31459986556641,78.17966499272002,77.95384687577518,76.75648984306176,77.9309639311511
57.3914,79.28394766212567,77.50193209263456,78.37367325555483,78.14749994181135,76.93209615056118,78.12165167075518
58.2261,79.44837408849529,77.66087251274934,78.53995544381114,78.31195657619489,77.08079987831795,78.28313910188976
59.073,79.57315555214794,77.78203333851881,78.66923407501217,78.43840097366304,77.19259393781337,78.40661636384635
59.9323,79.67426150876992,77.87937788201884,78.7766487537967,78.5424276333947,77.28117463108191,78.50710962405202
60.804,79.76666802136073,77.96724750684243,78.87578074371461,78.63664315088607,77.35998894720956,78.59848165827873
61.6884,79.85638351749455,78.04867536918442,78.97120024693177,78.72604775305668,77.43222264513773,78.68529477060784
62.5857,79.94340094719533,78.1247887294964,79.0612002139178,78.81024388771866,77.499288932299,78.76751309869712
63.496,80.01438351749455,78.18120827315559,79.13121045204296,78.87485046432732,77.54724689509038,78.83105701373252
64.4196,80.06900114878026,78.22038231879722,79.18136582450157,78.91986100792735,77.57755824714934,78.87650862108481
65.3566,80.12294396969764,78.25831401542612,79.22895620512284,78.96149875657119,77.60805564292617,78.9203800286258
66.3073,80.16689871956316,78.28796794287531,79.26611351423406,78.99275381339548,77.62968128611013,78.95456055832913
67.2717,80.19353696459625,78.30474188716443,79.28755306088235,79.00882294245072,77.63848474864571,78.97363196421728
68.2502,80.20920380924002,78.31358109759569,79.30054860477225,79.0163033815591,77.63829410281038,78.98357431014985
69.2429,80.21488196126802,78.314741325308,79.3071128192754,79.0171982190702,77.62938636565038,78.98556766081055
70.2501,80.22057738404816,78.31653076611582,79.31681656634788,79.02149722157017,77.6204764901511,78.98904182935624
71.2719,80.23492672618066,78.3256098779834,79.3356650257837,79.0362050663324,77.619460287957,79.00129300478005
72.3086,80.25294270197952,78.335606799935,79.35894780698845,79.05489700208201,77.6210227886815,79.0168220933279
73.3603,80.26427481842663,78.33394112930401,79.3719524351535,79.06460250501068,77.61411262528253,79.02332645760654
74.4274,80.26294632100934,78.31761752820279,79.37096082973282,79.06032359765994,77.59485462497236,79.01633044117045
75.5099,80.25059198005427,78.29003519150324,79.35768633626442,79.0426497024596,77.56650418746065,78.99780756122239
76.6083,80.19792590997375,78.22521322130623,79.3051208403366,78.9841739749589,77.49932126353583,78.93983950699604
77.7226,80.14395193205817,78.16313103848195,79.25255526644816,78.92449079893876,77.43271166640741,78.88183188691619
78.8531,80.12468302851293,78.14078994905505,79.23656473478758,78.90099074832206,77.4011740430334,78.86014686916295
80.0,80.1097651175777,78.12469343506217,79.22656971513979,78.88288209267152,77.3731102776434,78.84358318758707
81.1636,80.12983948201023,78.14250101280092,79.25258010209426,78.90155028325913,77.37905133723073,78.86227553334847
82.3442,80.16122791157767,78.16614316649596,79.28772908614454,78.93064577352553,77.39452400236563,78.89045378488389
83.5419,80.18725985623067,78.17866795325342,79.31444212489302,78.95392276022264,77.40473201114746,78.91155484996544
84.757,80.20927296441712,78.1815046000733,79.33358073033922,78.96964833735343,77.41107400125588,78.92621827087189
85.9899,80.22160798415275,78.17239364599925,79.34285825477994,78.97543020872004,77.41058549345922,78.9311416898527
87.2406,80.22429261087547,78.15578129089604,79.34270013372279,78.97084369850035,77.40322630711074,78.92708099698731
88.5096,80.21968170188953,78.13902202552843,79.33826915275995,78.96184674048975,77.39179870250399,78.91863174641861
89.797,80.24011900518892,78.15272264727533,79.36169960501257,78.98006297146932,77.40656334252984,78.93735697078246
91.1031,80.25792308207518,78.16680732788804,79.3828526136202,78.99722823974201,77.41724526233483,78.95414960032686
92.4282,80.23800991958802,78.14310978687472,79.36715524394285,78.97717962676033,77.38977811143762,78.93344939880197
93.7726,80.17941301913888,78.07518320167624,79.3090285899795,78.91491806027317,77.31948703397173,78.87102390247
95.1366,80.08242897030682,77.96679495342502,79.21089171478725,78.81221973966639,77.21194630746153,78.76925678672093
96.5204,80.01638844399352,77.88696904154082,79.14130695277,78.737150408177,77.13470213242424,78.69675342743214
97.9243,79.98402152415912,77.84178638734411,79.10744015631386,78.69668177335545,77.09415279731965,78.65915211270101
99.3486,79.9873485845435,77.83468282229767,79.1109991243312,78.69302423445231,77.09112319592896,78.65850869297637
100.794,80.01404988450635,77.85303792764608,79.14014219263186,78.71699916301279,77.1140375652681,78.68329505763288
102.26,80.0601091980742,77.89206109965684,79.1901573274274,78.76359095208561,77.15763111133681,78.72883607702704
103.747,80.10754184123772,77.93077550650972,79.24231222562703,78.81179809639286,77.20306551286899,78.77576082050618
105.256,80.14961395732327,77.96515782858876,79.28846757619203,78.85364601134091,77.24327809998655,78.81717358487747
106.787,80.18167304973821,77.98794955670223,79.32260740926046,78.88268639184787,77.27220552551944,78.84713006159541
108.34,80.1997332283782,77.99907748061224,79.34359188966638,78.89632176374896,77.28808554079959,78.86351086652027
109.916,80.17280903497473,77.96454211848061,79.31772425548425,78.86529951214341,77.25930462785314,78.83449205987169
111.515,80.1469053075985,77.93090555083259,79.29429271417517,78.83629605102732,77.23267291164493,78.80715074695918
113.137,80.16161662850676,77.93690989501563,79.31130300119077,78.84965670209863,77.24663383965199,78.82057824607719
114.783,80.20199377122559,77.96721837169186,79.35417084904063,78.88826523480392,77.28559850955902,78.859319275627
116.452,80.2473502187231,78.00167647943044,79.40160134451907,78.9305407241433,77.32835473427896,78.90238545157823
118.146,80.2957451043967,78.03921596053647,79.4520211202252,78.9762316567237,77.3753376110531,78.94873138857697
119.865,80.34014161095186,78.07365689791418,79.49858509432615,79.01873755543666,77.42107056833801,78.99180716959404
121.608,80.39391787385614,78.11988861644355,79.55443855062884,79.072169352207,77.47849021950915,79.0452685028732
123.377,80.45431289828755,78.17298935126558,79.61688062862828,79.13157894029892,77.5424140412361,79.10523997348858
125.171,80.5106523914028,78.22349905047022,79.6751784359794,79.18654644362863,77.60091105064824,79.16110523325247
126.992,80.56466908610275,78.2709806275776,79.73133081302605,79.23874925193698,77.65650073130826,79.2144052201106
128.839,80.62103947985626,78.31903718797471,79.78932293167185,79.2930341466598,77.7156677416742,79.26977559646028
130.713,80.67212167758383,78.35938068339468,79.84204055071467,79.34230533911303,77.7714615267353,79.31979818108961
132.615,80.690874952189,78.36751341031646,79.86261533457224,79.35897359259994,77.79638938258461,79.3377078259248
134.543,80.68263367596761,78.35062764019077,79.85762791790137,79.34919226192233,77.79379155754701,79.32930233626554
136.5,80.69168571304559,78.3530801972875,79.86962848008771,79.35740705962456,77.80858585284781,79.33860654400178
138.486,80.7180688027623,78.37397773139655,79.89890440120726,79.38382462127484,77.84068399561617,79.36558087200025
140.5,80.75114281372942,78.40008991066159,79.93360641733638,79.41629173407176,77.87987803044075,79.39865614860331
142.544,80.7865974533483,78.42656065093365,79.96975019255555,79.44985685676966,77.92281468992064,79.43351677833004
144.617,80.74767426278923,78.3792776886525,79.93133604734797,79.40783735743246,77.89021905460311,79.39365698752196
146.721,80.68073823593537,78.30593799407701,79.86649744441316,79.33881544864408,77.83024315174703,79.32674968075682
148.855,80.7331192179974,78.35285653452453,79.92193429284696,79.39044163200411,77.89090015138581,79.3799822615233
151.02,80.85649652270654,78.46985994989787,80.04720983930504,79.51315412013167,78.02169341364396,79.50370449236429
153.217,80.86987482597783,78.47388840089569,80.06004743908044,79.52489851080252,78.04011959046058,79.51587849967049
155.445,80.71325706674006,78.30727020838734,79.90204131150959,79.3655397414711,77.88883640595556,79.35758494319933
157.706,80.63162817973284,78.21839952983913,79.82062857953113,79.28242677273099,77.81487368857555,79.27566572149452
160.0,80.45127343557856,78.03581400357861,79.64249840396745,79.10154789860191,77.64669121943474,79.09710201965223
162.327,80.33229254153134,77.91312735141409,79.52605574883165,78.98268230150654,77.539817713486,78.97987575799436
164.688,80.36903829224798,77.94399506747921,79.56533084616086,79.02090434577295,77.58575510707159,79.01789262009075
167.084,80.47046973024202,78.038963011306,79.6700536314676,79.12255589375361,77.69528854893355,79.12027255102059
169.514,80.7221201883359,78.28686549395,79.9219368735429,79.37082595615463,77.95591158962215,79.37200944070112
171.98,80.44440209227747,78.00561303808965,79.64350862826416,79.08933877575723,77.68916134024562,79.09441172733938
174.481,80.07941268529399,77.63514412364059,79.27907405371656,78.72455451753763,77.33356731184152,78.73009792821625
177.019,79.97546163892679,77.52600726981431,79.17808252147947,78.62341510702598,77.23647634128855,78.62757029581914
179.594,79.9521839408861,77.49975567873348,79.15336365274369,78.59924571946244,77.21736121472232,78.60393056044052
182.206,79.91527659373823,77.46038068339467,79.1104800982871,78.55621104749062,77.18525139944033,78.56475885541298
184.856,79.92033107612295,77.45986815956167,79.11119884827383,78.55505957183765,77.19763084770143,78.56779660498707
187.545,80.04561154709855,77.57777871993069,79.2365215247338,78.6791892959979,77.33070617932326,78.6928542541828
190.273,80.2445574391118,77.77036002445668,79.43653398604323,78.88028975356895,77.53698844125834,78.89256073967331
193.041,80.44792216144967,77.9721780692562,79.63993320035775,79.08584801760922,77.74733204460901,79.09715420291039
195.849,80.50622255869908,78.03079361475551,79.69733985773807,79.14113022032689,77.81078137790786,79.15545399642006
198.697,80.54242624206498,78.06564251107062,79.72992261153941,79.17167004278656,77.84944461148882,79.18986084118819
201.587,80.57606283635056,78.09828535212198,79.75763920259672,79.20127837029952,77.884077586442,79.22134809110791
204.52,80.49505754027115,78.01825775952454,79.67135776273008,79.11580435729043,77.80316987178622,79.13842535531609
207.494,80.40924992196555,77.93064142884707,79.58122598600943,79.02445831653452,77.7155624118444,79.04999438229234
210.512,80.33375216183428,77.85059637678813,79.50068812453884,78.94246940681334,77.63607600130446,78.97077797240284
213.574,80.37734900361573,77.89336072648894,79.53883398272205,78.97919126237723,77.67443914317188,79.0108795710298
216.681,80.05729114136514,77.57166273972192,79.21196601036846,78.65179434831623,77.34750172928602,78.68656262645628
219.833,80.00682576186064,77.51437878254482,79.1542528049988,78.59439132946886,77.28840511170388,78.63076289644759
223.03,79.94205100806198,77.44645806328272,79.0812541950859,78.52255614957585,77.21199827509321,78.56053987227126
226.274,79.80961856127561,77.31510445771383,78.94084402268872,78.38252950273612,77.06564419056448,78.42293203260252
229.565,79.7104199087571,77.21118262376653,78.83057714873344,78.26954581791928,76.94880166776692,78.31519906206039
232.905,79.56224479779301,77.05966273972189,78.66701137858276,78.10269869003731,76.77786375901078,78.1560292336087
236.292,79.4637875884949,76.96166097708677,78.55561490685687,77.99271812601552,76.65555126395317,78.04898993459891
