Freq "Ceiling Bounce"
20.0 43.15770537907045
20.2909 44.08095856693609
20.586 44.88453994751109
20.8855 45.489469325838
21.1893 45.82405404088331
21.4975 45.992334675934046
21.8102 46.11328858643037
22.1274 46.32058815467562
22.4492 46.72623651661223
22.7758 47.358906309815666
23.1071 48.12557390380684
23.4432 48.88028440956839
23.7841 49.50799979670896
24.1301 49.99841470054514
24.4811 50.405185656340194
24.8372 50.81128950016418
25.1984 51.28710592767368
25.5649 51.84925438288005
25.9368 52.45041670838651
26.3141 53.028590346918236
26.6968 53.5370581971716
27.0851 53.97685988074048
27.4791 54.38262746950576
27.8788 54.810324522091236
28.2843 55.28566147955911
28.6957 55.80025334872428
29.1131 56.32512541051419
29.5365 56.83461776587727
29.9661 57.32275641867389
30.402 57.80485129614986
30.8442 58.30392887133348
31.2929 58.822702384409595
31.748 59.3531443326182
32.2098 59.87930355187832
32.6783 60.39417660507394
33.1536 60.90644794926669
33.6359 61.427099737478315
34.1251 61.965518167224246
34.6215 62.51065092245557
35.125 63.05254112040356
35.6359 63.58449879902365
36.1543 64.11586873422436
36.6802 64.64959898059325
37.2137 65.18638125375017
37.755 65.72322335572056
38.3041 66.26138318626231
38.8613 66.80059681859126
39.4265 67.33908849754634
40.0 67.87083463947994
40.5818 68.39739798685086
41.1721 68.92203335199483
41.771 69.43177828381701
42.3785 69.90322461343649
42.9949 70.33683455235334
43.6203 70.76341099150652
44.2548 71.21378243113874
44.8985 71.68274357512676
45.5515 72.14032361603543
46.2141 72.58086773161968
46.8863 73.0202390181868
47.5683 73.46831345701256
48.2602 73.90434518901527
48.9621 74.31493973954719
49.6743 74.70679042024233
50.3968 75.08385306911464
51.1299 75.4395615992886
51.8736 75.76924111822547
52.6281 76.07558665081078
53.3936 76.36096244408924
54.1702 76.62674314718123
54.9581 76.8746231681821
55.7575 77.10459534376048
56.5685 77.31459986556641
57.3914 77.50193209263456
58.2261 77.66087251274934
59.073 77.78203333851881
59.9323 77.87937788201884
60.804 77.96724750684243
61.6884 78.04867536918442
62.5857 78.1247887294964
63.496 78.18120827315559
64.4196 78.22038231879722
65.3566 78.25831401542612
66.3073 78.28796794287531
67.2717 78.30474188716443
68.2502 78.31358109759569
69.2429 78.314741325308
70.2501 78.31653076611582
71.2719 78.3256098779834
72.3086 78.335606799935
73.3603 78.33394112930401
74.4274 78.31761752820279
75.5099 78.29003519150324
76.6083 78.22521322130623
77.7226 78.16313103848195
78.8531 78.14078994905505
80.0 78.12469343506217
81.1636 78.14250101280092
82.3442 78.16614316649596
83.5419 78.17866795325342
84.757 78.1815046000733
85.9899 78.17239364599925
87.2406 78.15578129089604
88.5096 78.13902202552843
89.797 78.15272264727533
91.1031 78.16680732788804
92.4282 78.14310978687472
93.7726 78.07518320167624
95.1366 77.96679495342502
96.5204 77.88696904154082
97.9243 77.84178638734411
99.3486 77.83468282229767
100.794 77.85303792764608
102.26 77.89206109965684
103.747 77.93077550650972
105.256 77.96515782858876
106.787 77.98794955670223
108.34 77.99907748061224
109.916 77.96454211848061
111.515 77.93090555083259
113.137 77.93690989501563
114.783 77.96721837169186
116.452 78.00167647943044
118.146 78.03921596053647
119.865 78.07365689791418
121.608 78.11988861644355
123.377 78.17298935126558
125.171 78.22349905047022
126.992 78.2709806275776
128.839 78.31903718797471
130.713 78.35938068339468
132.615 78.36751341031646
134.543 78.35062764019077
136.5 78.3530801972875
138.486 78.37397773139655
140.5 78.40008991066159
142.544 78.42656065093365
144.617 78.3792776886525
146.721 78.30593799407701
148.855 78.35285653452453
151.02 78.46985994989787
153.217 78.47388840089569
155.445 78.30727020838734
157.706 78.21839952983913
160.0 78.03581400357861
162.327 77.91312735141409
164.688 77.94399506747921
167.084 78.038963011306
169.514 78.28686549395
171.98 78.00561303808965
174.481 77.63514412364059
177.019 77.52600726981431
179.594 77.49975567873348
182.206 77.46038068339467
184.856 77.45986815956167
187.545 77.57777871993069
190.273 77.77036002445668
193.041 77.9721780692562
195.849 78.03079361475551
198.697 78.06564251107062
201.587 78.09828535212198
204.52 78.01825775952454
207.494 77.93064142884707
210.512 77.85059637678813
213.574 77.89336072648894
216.681 77.57166273972192
219.833 77.51437878254482
223.03 77.44645806328272
226.274 77.31510445771383
229.565 77.21118262376653
232.905 77.05966273972189
236.292 76.96166097708677
239.729 76.97682000460672
243.216 77.0798019894485
246.754 77.21439669012423
250.343 77.2730103799452
253.984 77.31777223072363
257.678 77.48383091607823
261.426 77.5457667198673
265.229 77.67154792420236
269.087 77.45655638681174
273.001 77.18075451635698
276.972 77.16045287510582
281.0 77.16799673928314
285.088 77.30663440459449
289.234 77.38830898607905
293.441 77.33736114108224
297.709 77.47182248986418
302.04 77.40245722449649
306.433 77.20217877438881
310.89 76.87480604961351
315.412 76.9901296463937
320.0 76.9026776028157
324.655 76.64099261597616
329.377 76.13424519474347
334.168 76.08142368864821
339.028 75.90924400279702
343.959 75.8995275325028
348.962 75.81974810843337
354.038 75.74170475289178
359.188 75.69820159599422
364.412 75.65375773223967
369.713 75.21563799894119
375.09 74.9865759012317
380.546 74.91003393199128
386.081 74.86669859749273
391.697 74.98090947887329
397.394 74.96832188892358
403.175 74.99806809379653
409.039 74.77730974155992
414.989 74.83365914120643
421.025 74.8559919759168
427.149 74.93074393402313
433.362 75.02935418471756
439.665 75.14957131516006
446.06 75.1896036633058
452.548 75.1240206651774
459.131 75.14606285770203
465.809 75.1021214373044
472.584 75.1370150871473
479.458 75.1124397809221
486.432 75.13521346582174
493.507 75.1591242595295
500.686 75.14798682035914
507.968 75.15225841727613
515.357 75.1586144517057
522.853 75.15986438079528
530.458 75.1695795735504
538.174 75.17926040547356
546.002 75.17698751581548
553.943 75.17273668397968
562.001 75.16127516200191
570.175 75.14109777817546
578.469 75.11453512291817
586.883 75.08353994521218
595.419 75.05458334667286
604.08 75.02380737249382
612.866 74.98909364815809
621.78 74.95716937175285
630.824 74.92694560971574
640.0 74.90310732197699
649.309 74.88423941401769
658.753 74.87622894626642
668.335 74.87465003393524
678.056 74.88600629837156
687.919 74.90834890190014
697.925 74.94313851590724
708.077 74.99218658605902
718.376 75.05534907218778
728.825 75.12667530324968
739.426 75.20586473004826
750.181 75.28831954130669
761.093 75.36697544022691
772.163 75.44077133149935
783.394 75.507771441962
794.789 75.57222413156197
806.349 75.62539320064619
818.078 75.66596865246316
829.977 75.69540949768229
842.05 75.71397628080632
854.298 75.71869014583297
866.724 75.70852599435666
879.33 75.68841505170192
892.12 75.65659113870758
905.097 75.61712700069873
918.262 75.56848033861277
931.618 75.51574253967013
945.169 75.46324645840596
958.917 75.40884506327721
972.864 75.35975031891537
987.015 75.31557420672317
1001.37 75.27279135960369
1015.94 75.24228458651069
1030.71 75.21884332721434
1045.71 75.19594959307197
1060.92 75.17839711321385
1076.35 75.15464902426339
1092.0 75.12667859424218
1107.89 75.0817406414596
1124.0 75.01739844574814
1140.35 74.92868640790114
1156.94 74.80453020429678
1173.77 74.6472593568751
1190.84 74.44162478176194
1208.16 74.18879020841968
1225.73 73.88815824097586
1243.56 73.52641018827619
1261.65 73.11033439769679
1280.0 72.64637782868837
1298.62 72.13734173469058
1317.51 71.598764616664
1336.67 71.04614284148556
1356.11 70.50806449344174
1375.84 70.02895804786758
1395.85 69.63410326172766
1416.15 69.36220015404784
1436.75 69.22035855933173
1457.65 69.18956447460168
1478.85 69.24212124962287
1500.36 69.34533950677015
1522.19 69.45446816528595
1544.33 69.54956796899337
1566.79 69.61164139227705
1589.58 69.63539574372324
1612.7 69.6284141110063
1636.16 69.59999369255263
1659.95 69.57197583298598
1684.1 69.56690160211417
1708.6 69.61779998539966
1733.45 69.74169687084094
1758.66 69.94953168530421
1784.24 70.24039088333998
1810.19 70.5957126664974
1836.52 70.98372838729635
1863.24 71.36906428754115
1890.34 71.72469382252144
1917.83 72.02365366245336
1945.73 72.2530068803059
1974.03 72.4235267695838
2002.74 72.55759560672121
2031.87 72.7085554283035
2061.43 72.93751132334724
2091.41 73.29062401929005
2121.83 73.78157731033447
2152.69 74.34477252617235
2184.01 74.90260368906866
2215.77 75.36532652580487
2248.0 75.66054450409294
2280.7 75.75274383301077
2313.87 75.63279463864565
2347.53 75.32996234147544
2381.68 74.9214165809898
2416.32 74.52363200674283
2451.46 74.24568056056054
2487.12 74.14406278030768
2523.3 74.17425819470486
2560.0 74.24819656695257
2597.24 74.30270310508399
2635.01 74.32898180213404
2673.34 74.35221016042473
2712.23 74.39061941358196
2751.68 74.43133961487224
2791.7 74.44295264093756
2832.31 74.41850094969006
2873.5 74.39154294401992
2915.3 74.41484842258669
2957.7 74.4931791369834
3000.72 74.56804976768201
3044.37 74.55397686416198
3088.65 74.41023491257184
3133.58 74.17278608464048
3179.16 73.92272192674992
3225.4 73.7127988030042
3272.31 73.52121002865363
3319.91 73.29888790358301
3368.2 73.05667722059675
3417.19 72.85281169043627
3466.89 72.72427743928554
3517.32 72.63813067299195
3568.48 72.56541885921237
3620.39 72.54804852342686
3673.05 72.63728275157801
3726.47 72.81153126918355
3780.67 73.0074356653976
3835.67 73.2001146885267
3891.46 73.39465208603721
3948.06 73.59984611881649
4005.49 73.83509891670134
4063.75 74.11137450615676
4122.86 74.37744343177982
4182.82 74.57232021853486
4243.66 74.68416390783449
4305.39 74.71805955020335
4368.01 74.64897789558823
4431.55 74.49279226966145
4496.01 74.3454729002575
4561.4 74.27569284445602
4627.75 74.27598740617994
4695.06 74.3290827445429
4763.35 74.4153589139167
4832.64 74.51312929898819
4902.93 74.6128514170207
4974.24 74.68876268087007
5046.6 74.73194101955264
5120.0 74.77345599485233
5194.47 74.7720637204086
5270.03 74.68216517548377
5346.68 74.59577973390086
5424.45 74.60203923929056
5503.35 74.68449543261207
5583.4 74.8038928922969
5664.61 74.95225131368456
5747.01 75.13595460101278
5830.6 75.31500004733762
5915.41 75.44337350506531
6001.45 75.52779849961539
6088.74 75.5681548041572
6177.3 75.55029532713266
6267.15 75.45645200450171
6358.31 75.31964687749894
6450.8 75.19696031006103
6544.62 75.10558708631521
6639.82 75.05680401353827
6736.4 75.07922380063944
6834.38 75.14329044386909
6933.79 75.19235705398373
7034.64 75.21571326649644
7136.96 75.13215656008933
7240.77 74.86409614067117
7346.09 74.51615424049874
7452.94 74.17663161782745
7561.35 73.91301789054509
7671.33 73.89410730114595
7782.91 73.96506343334711
7896.12 73.9797944295609
8010.97 74.02848479532153
8127.49 74.0439470329987
8245.71 74.15499654676515
8365.65 74.40513696208345
8487.33 74.59179605725471
8610.78 74.55378313324493
8736.03 74.16663235362674
8863.09 73.45342913363552
8992.01 72.68600708188244
9122.8 72.05370706214836
9255.5 71.68328785676663
9390.12 71.41543712523327
9526.7 71.04243873969517
9665.27 70.61235822710361
9805.86 70.20956652559057
9948.49 70.0838668717722
10093.2 70.06771898198271
10240.0 70.08914796136045
10388.9 70.125464415648
10540.1 70.22571917084963
10693.4 70.25171217262856
10848.9 70.22046575195094
11006.7 70.18132739017713
11166.8 70.12855197899663
11329.2 70.04190737283137
11494.0 69.91539635822755
11661.2 69.74696488445869
11830.8 69.75228399620816
12002.9 69.8826376209488
12177.5 69.99604429950853
12354.6 69.81259934911657
12534.3 69.3222499714784
12716.6 68.79129599088472
12901.6 68.075545674746
13089.2 67.25830901849196
13279.6 66.4701084301283
13472.8 65.6583673175904
13668.8 64.96994231787006
13867.6 64.65856134395983
14069.3 64.22309199226964
14273.9 63.62645743295275
14481.5 63.36688428971999
14692.2 63.946008277160814
14905.9 64.67572486619758
15122.7 65.10544666633469
15342.7 65.61303522237148
15565.8 66.09125179752584
15792.2 66.54279195711837
16021.9 66.75204109270916
16255.0 66.87506449655487
16491.4 66.80936947099106
16731.3 66.49418487850764
16974.7 65.86493290090297
17221.6 65.10618659284403
17472.1 64.4978297316309
17726.2 63.82069472792024
17984.0 63.15221730529727
18245.6 62.86349950797765
18511.0 63.08007476661557
18780.2 63.62788081960382
19053.4 64.08110265442696
19330.5 64.15766168609075
19611.7 64.26877776346505
19897.0 64.50484183702727
