Freq "Rear Wall Bounce"
20.0 43.48593907178153
20.2909 44.39927363809804
20.586 45.19305326447565
20.8855 45.78743065139102
21.1893 46.11186263569422
21.4975 46.26969108720286
21.8102 46.37953847526259
22.1274 46.57584889391475
22.4492 46.970151046688756
22.7758 47.590342089893255
23.1071 48.345211133433196
23.4432 49.08700563588016
23.7841 49.70253638507859
24.1301 50.179881860659435
24.4811 50.57441555401252
24.8372 50.96754360340313
25.1984 51.431572795490695
25.5649 51.98148510601334
25.9368 52.57074187693664
26.3141 53.13782357724219
26.6968 53.63580682601798
27.0851 54.06481138279821
27.4791 54.460957461896555
27.8788 54.87871180827818
28.2843 55.344993908475516
28.6957 55.850072855806104
29.1131 56.365523587077135
29.5365 56.86553063112686
29.9661 57.34376847851466
30.402 57.81494710759736
30.8442 58.30266777109921
31.2929 58.80972863072867
31.748 59.32778683012546
32.2098 59.841522135670004
32.6783 60.34344085348806
33.1536 60.84286383903614
33.6359 61.3514819083461
34.1251 61.877777058378314
34.6215 62.41122187747541
35.125 62.942844477669766
35.6359 63.4660672353416
36.1543 63.988789584465394
36.6802 64.51512276523128
37.2137 65.04401787916336
37.755 65.57419995130851
38.3041 66.10460707364567
38.8613 66.63425818439492
39.4265 67.16163938367389
40.0 67.68023189232696
40.5818 68.19109072390383
41.1721 68.69783079841507
41.771 69.18640977747906
42.3785 69.63509624808319
42.9949 70.04441191179401
43.6203 70.44604257124752
44.2548 70.8723930120785
44.8985 71.31856148709704
45.5515 71.75576550286189
46.2141 72.17855800169966
46.8863 72.60331430872472
47.5683 73.04034348512093
48.2602 73.4671592119404
48.9621 73.86998083154178
49.6743 74.25493495760273
50.3968 74.62414658633982
51.1299 74.9714598574459
51.8736 75.29121907018266
52.6281 75.58555385812727
53.3936 75.85706272913765
54.1702 76.10872337340953
54.9581 76.34258158928589
55.7575 76.5593247291087
56.5685 76.75648984306174
57.3914 76.93209615056116
58.2261 77.08079987831796
59.073 77.19259393781338
59.9323 77.28117463108191
60.804 77.35998894720957
61.6884 77.43222264513771
62.5857 77.499288932299
63.496 77.54724689509038
64.4196 77.57755824714934
65.3566 77.60805564292617
66.3073 77.62968128611014
67.2717 77.6384847486457
68.2502 77.63829410281036
69.2429 77.62938636565039
70.2501 77.62047649015112
71.2719 77.619460287957
72.3086 77.6210227886815
73.3603 77.61411262528253
74.4274 77.59485462497234
75.5099 77.56650418746064
76.6083 77.49932126353582
77.7226 77.4327116664074
78.8531 77.4011740430334
80.0 77.3731102776434
81.1636 77.37905133723072
82.3442 77.39452400236561
83.5419 77.40473201114747
84.757 77.41107400125587
85.9899 77.41058549345924
87.2406 77.40322630711074
88.5096 77.39179870250398
89.797 77.40656334252984
91.1031 77.41724526233483
92.4282 77.38977811143764
93.7726 77.31948703397174
95.1366 77.21194630746152
96.5204 77.13470213242424
97.9243 77.09415279731967
99.3486 77.09112319592896
100.794 77.11403756526812
102.26 77.1576311113368
103.747 77.20306551286897
105.256 77.24327809998655
106.787 77.27220552551942
108.34 77.28808554079957
109.916 77.25930462785314
111.515 77.23267291164493
113.137 77.246633839652
114.783 77.28559850955901
116.452 77.32835473427897
118.146 77.37533761105311
119.865 77.421070568338
121.608 77.47849021950915
123.377 77.5424140412361
125.171 77.60091105064824
126.992 77.65650073130824
128.839 77.7156677416742
130.713 77.7714615267353
132.615 77.7963893825846
134.543 77.793791557547
136.5 77.80858585284783
138.486 77.84068399561616
140.5 77.87987803044076
142.544 77.92281468992066
144.617 77.89021905460311
146.721 77.83024315174701
148.855 77.8909001513858
151.02 78.02169341364397
153.217 78.04011959046058
155.445 77.88883640595554
157.706 77.81487368857556
160.0 77.64669121943476
162.327 77.53981771348602
164.688 77.5857551070716
167.084 77.69528854893355
169.514 77.95591158962216
171.98 77.6891613402456
174.481 77.33356731184153
177.019 77.23647634128854
179.594 77.21736121472233
182.206 77.18525139944035
184.856 77.19763084770143
187.545 77.33070617932327
190.273 77.53698844125836
193.041 77.74733204460902
195.849 77.81078137790787
198.697 77.84944461148882
201.587 77.88407758644199
204.52 77.80316987178622
207.494 77.71556241184439
210.512 77.63607600130445
213.574 77.67443914317187
216.681 77.34750172928601
219.833 77.2884051117039
223.03 77.2119982750932
226.274 77.06564419056448
229.565 76.94880166776693
232.905 76.77786375901078
236.292 76.65555126395316
239.729 76.6427544281406
243.216 76.71687434453993
246.754 76.82458103518343
250.343 76.84505427697717
253.984 76.84195753829103
257.678 76.9649673609817
261.426 76.98177166153317
265.229 77.0548551695491
269.087 76.78683462522416
273.001 76.45617301865393
276.972 76.3708127886942
281.0 76.31256222706284
285.088 76.36569506228744
289.234 76.34737305501997
293.441 76.18962455069408
297.709 76.21944863430627
302.04 76.05147610852171
306.433 75.72382361671104
310.89 75.2515168396345
315.412 75.22185515205722
320.0 74.9924763463818
324.655 74.57255072439767
329.377 73.9157198362891
334.168 73.69850129568226
339.028 73.35919052908406
343.959 73.19341335785674
348.962 72.97039458171285
354.038 72.75021562020405
359.188 72.58514988243861
364.412 72.43557256914268
369.713 71.91332468732641
375.09 71.6284220603729
380.546 71.5317892067968
386.081 71.49724282544442
391.697 71.65004345905632
397.394 71.70820635334267
403.175 71.82182851044624
409.039 71.70944747798652
414.989 71.88545732494109
421.025 72.04384242002067
427.149 72.2555923123016
433.362 72.48521713277022
439.665 72.7397578552354
446.06 72.90929885580783
452.548 72.96327065355254
459.131 73.08709842496773
465.809 73.14989940793019
472.584 73.26708690285459
479.458 73.32166725860164
486.432 73.41717204595457
493.507 73.49967368047105
500.686 73.54850269239786
507.968 73.61145438108576
515.357 73.6755992560173
522.853 73.74095122264856
530.458 73.82120331230686
538.174 73.90836411167427
546.002 73.9891222659761
553.943 74.08416024998215
562.001 74.18456818538894
570.175 74.28807385424582
578.469 74.39933154229763
586.883 74.50947491045176
595.419 74.6221743513562
604.08 74.73482018723423
612.866 74.84264311911731
621.78 74.9432084958287
630.824 75.03261172359622
640.0 75.10122044092849
649.309 75.14959584064401
658.753 75.17241082381922
668.335 75.1644366183528
678.056 75.11617634178072
687.919 75.0171925128013
697.925 74.85598774873668
708.077 74.63094233983576
718.376 74.34170341378908
728.825 73.99869557096557
739.426 73.61177246219044
750.181 73.18277488136646
761.093 72.722260008702
772.163 72.2383395794572
783.394 71.72004504281878
794.789 71.16951304870692
806.349 70.66384529616651
818.078 70.21787474659497
829.977 69.874894987508
842.05 69.65611765608557
854.298 69.57915033088726
866.724 69.61957908807142
879.33 69.7403982216588
892.12 69.89400782740917
905.097 70.03598985387026
918.262 70.13526900489381
931.618 70.16114074870345
945.169 70.10386152654911
958.917 69.95396113703225
972.864 69.70759964498913
987.015 69.37366124010747
1001.37 68.96120343110357
1015.94 68.50693507658809
1030.71 68.0649888780469
1045.71 67.67603498302924
1060.92 67.38874859780734
1076.35 67.25131102262878
1092.0 67.2428511127698
1107.89 67.32425500148952
1124.0 67.43723737487109
1140.35 67.52302669549316
1156.94 67.53215786152202
1173.77 67.42817448203655
1190.84 67.19302557435071
1208.16 66.82185594633212
1225.73 66.31908218608677
1243.56 65.71582221433232
1261.65 65.07088256869558
1280.0 64.45296726839547
1298.62 63.95496464214463
1317.51 63.61812378498122
1336.67 63.456109895258635
1356.11 63.413120568826216
1375.84 63.41382441849733
1395.85 63.408990824912394
1416.15 63.38309366822487
1436.75 63.342614194622385
1457.65 63.33685174989819
1478.85 63.39609714913367
1500.36 63.532550440605206
1522.19 63.71357047279044
1544.33 63.86763550042133
1566.79 63.93838476276942
1589.58 63.87880594964061
1612.7 63.683115246864844
1636.16 63.39792760084046
1659.95 63.127913886317
1684.1 63.02322793516072
1708.6 63.17541660703748
1733.45 63.57033762503639
1758.66 64.0771074817325
1784.24 64.55342211515182
1810.19 64.88853205962448
1836.52 65.05800067214349
1863.24 65.06859582579983
1890.34 64.97519620992848
1917.83 64.84328549634371
1945.73 64.736449053703
1974.03 64.6669651113775
2002.74 64.62084729181203
2031.87 64.5685123789143
2061.43 64.51751161256931
2091.41 64.50013126731196
2121.83 64.55957635065707
2152.69 64.7025751114258
2184.01 64.85204002684067
2215.77 64.89116091251236
2248.0 64.71586531854925
2280.7 64.29177348819452
2313.87 63.67603567171098
2347.53 63.08331465627229
2381.68 62.80002545791103
2416.32 62.93482633669281
2451.46 63.31270287453319
2487.12 63.648422460046376
2523.3 63.78725973479234
2560.0 63.736206585869795
2597.24 63.60882993283144
2635.01 63.53267699531011
2673.34 63.53109053608246
2712.23 63.52006767080276
2751.68 63.392862666956304
2791.7 63.11779296615887
2832.31 62.78611452116141
2873.5 62.56655860414301
2915.3 62.581540528923725
2957.7 62.75061570785127
3000.72 62.88061906655284
3044.37 62.82557803859895
3088.65 62.575241919887645
3133.58 62.22581649668072
3179.16 61.913876487214765
3225.4 61.72027125724429
3272.31 61.63208248081608
3319.91 61.59547610988433
3368.2 61.54569562583305
3417.19 61.404215550880366
3466.89 61.15161322233108
3517.32 60.865192828058824
3568.48 60.656984492660385
3620.39 60.48655453759733
3673.05 60.26912911309786
3726.47 60.0872888955779
3780.67 60.09913938316174
3835.67 60.2139420868162
3891.46 60.235664888218906
3948.06 60.198669509328454
4005.49 60.245347001355114
4063.75 60.35114942137734
4122.86 60.57285273182531
4182.82 61.10744757692771
4243.66 61.76633926810166
4305.39 62.19406618850502
4368.01 62.396753212553875
4431.55 62.47935672654583
4496.01 62.32090955096132
4561.4 61.980504743771206
4627.75 61.73313729661601
4695.06 61.434848181685666
4763.35 60.98582992270863
4832.64 60.74506151005552
4902.93 60.58424991867912
4974.24 60.224165529734066
5046.6 60.08468005010505
5120.0 60.07881874048965
5194.47 59.946396150614646
5270.03 59.9836361335536
5346.68 59.999917661006464
5424.45 60.03812029978961
5503.35 60.25082749452011
5583.4 60.33356580325574
5664.61 60.45411679745217
5747.01 60.55559367792762
5830.6 60.534656786923875
5915.41 60.46546701588589
6001.45 60.18738826998923
6088.74 59.91688275794246
6177.3 59.581699506560966
6267.15 59.190891034831935
6358.31 58.772353437476866
6450.8 58.36146122637636
6544.62 58.13975459507785
6639.82 58.04239027804326
6736.4 57.99412202610566
6834.38 57.87570837589263
6933.79 57.68497019696693
7034.64 57.29621603790386
7136.96 56.64135683566872
7240.77 55.86809313657068
7346.09 55.403357437587516
7452.94 55.30128822459935
7561.35 55.55989084105215
7671.33 56.081311474609976
7782.91 56.532918597840634
7896.12 56.82612194516331
8010.97 56.854132020442975
8127.49 56.51101131686325
8245.71 56.027628252613084
8365.65 55.66282250187797
8487.33 55.29591883881784
8610.78 54.87231048193277
8736.03 54.662387008373
8863.09 54.37444467014819
8992.01 54.18440426624343
9122.8 54.11802650099318
9255.5 53.90153860658134
9390.12 53.516735216353794
9526.7 52.91931285404763
9665.27 52.295899062346194
9805.86 51.6492135236401
9948.49 51.460031186041334
10093.2 51.494550232559135
10240.0 51.46102145369923
10388.9 51.15571287781407
10540.1 50.46829306798901
10693.4 49.3604559439909
10848.9 48.26386265375402
11006.7 47.35478680664343
11166.8 46.92608654110197
11329.2 47.250398772262116
11494.0 47.591124653368894
11661.2 47.829958074196355
11830.8 48.239358452606695
12002.9 48.86532126900099
12177.5 49.8875734841356
12354.6 50.50389500875377
12534.3 50.94674955523462
12716.6 50.93556155739094
12901.6 51.21147412910068
13089.2 51.65253034838028
13279.6 52.27020427476131
13472.8 52.91562015895036
13668.8 53.28553695276301
13867.6 53.32912272700429
14069.3 53.08298975722724
14273.9 52.584557686357016
14481.5 52.243815604549496
14692.2 51.96023311902567
14905.9 51.579216211919345
15122.7 50.8542724987264
15342.7 50.12565296982487
15565.8 49.4979073193648
15792.2 48.98823268995457
16021.9 48.2590940885417
16255.0 47.51229643562664
16491.4 46.526779446005946
16731.3 45.247079924074114
16974.7 44.24883021828916
17221.6 43.88260519207029
17472.1 43.97323323765127
17726.2 41.998621642086306
17984.0 39.080618385067
18245.6 36.04719441710611
18511.0 33.57761276237582
18780.2 33.97055702418518
19053.4 35.41026345562207
19330.5 35.5723212190351
19611.7 34.50052664240704
19897.0 32.82958997669715
