Freq "Total Early Reflection"
20.0 43.55133343171008
20.2909 44.473048524277885
20.586 45.27577420526134
20.8855 45.87978397998853
21.1893 46.214492429142524
21.4975 46.38341056516197
21.8102 46.50501498752698
22.1274 46.713710645778406
22.4492 47.12076161782559
22.7758 47.754823976636516
23.1071 48.52380878376516
23.4432 49.28060569491117
23.7841 49.910503841238636
24.1301 50.40281869414886
24.4811 50.81203755284224
24.8372 51.21990954654274
25.1984 51.697845721916224
25.5649 52.26137760338682
25.9368 52.86409705170047
26.3141 53.44330888414069
26.6968 53.95314780048611
27.0851 54.39360774121448
27.4791 54.80027547507149
27.8788 55.228727708660955
28.2843 55.70508015724718
28.6957 56.220726127857006
29.1131 56.74712115098407
29.5365 57.258604528615535
29.9661 57.749266917958124
30.402 58.23441735048564
30.8442 58.737366814893136
31.2929 59.26056902038182
31.748 59.795830701069676
32.2098 60.327609802170414
32.6783 60.8484177389181
33.1536 61.366696956256746
33.6359 61.893791231679515
34.1251 62.43765990797783
34.6215 62.98757242077242
35.125 63.53357865240473
35.6359 64.0689196472025
36.1543 64.60238595620106
36.6802 65.13732424844022
37.2137 65.67391211120014
37.755 66.21086673570785
38.3041 66.74852522093818
38.8613 67.28730694769237
39.4265 67.82607439940324
40.0 68.35933909191317
40.5818 68.88938659680551
41.1721 69.4190403444367
41.771 69.93516372699676
42.3785 70.41531798651917
42.9949 70.85849190948328
43.6203 71.29493745178573
44.2548 71.75556020032019
44.8985 72.23346493234719
45.5515 72.69912117419351
46.2141 73.14559911579227
46.8863 73.5887080213699
47.5683 74.03866399572405
48.2602 74.4750163904431
48.9621 74.88533603745299
49.6743 75.27710372852572
50.3968 75.65483582832763
51.1299 76.01329336690972
51.8736 76.34728194112732
52.6281 76.6593540862478
53.3936 76.95128569427288
54.1702 77.22462658090868
54.9581 77.47982123486449
55.7575 77.71603064530095
56.5685 77.9309639311511
57.3914 78.12165167075518
58.2261 78.28313910188976
59.073 78.40661636384635
59.9323 78.50710962405202
60.804 78.59848165827873
61.6884 78.68529477060784
62.5857 78.76751309869712
63.496 78.83105701373252
64.4196 78.87650862108481
65.3566 78.9203800286258
66.3073 78.95456055832913
67.2717 78.97363196421728
68.2502 78.98357431014985
69.2429 78.98556766081055
70.2501 78.98904182935624
71.2719 79.00129300478005
72.3086 79.0168220933279
73.3603 79.02332645760654
74.4274 79.01633044117045
75.5099 78.99780756122239
76.6083 78.93983950699604
77.7226 78.88183188691619
78.8531 78.86014686916295
80.0 78.84358318758707
81.1636 78.86227553334847
82.3442 78.89045378488389
83.5419 78.91155484996544
84.757 78.92621827087189
85.9899 78.9311416898527
87.2406 78.92708099698731
88.5096 78.91863174641861
89.797 78.93735697078246
91.1031 78.95414960032686
92.4282 78.93344939880197
93.7726 78.87102390247
95.1366 78.76925678672093
96.5204 78.69675342743214
97.9243 78.65915211270101
99.3486 78.65850869297637
100.794 78.68329505763288
102.26 78.72883607702704
103.747 78.77576082050618
105.256 78.81717358487747
106.787 78.84713006159541
108.34 78.86351086652027
109.916 78.83449205987169
111.515 78.80715074695918
113.137 78.82057824607719
114.783 78.859319275627
116.452 78.90238545157823
118.146 78.94873138857697
119.865 78.99180716959404
121.608 79.0452685028732
123.377 79.10523997348858
125.171 79.16110523325247
126.992 79.2144052201106
128.839 79.26977559646028
130.713 79.31979818108961
132.615 79.3377078259248
134.543 79.32930233626554
136.5 79.33860654400178
138.486 79.36558087200025
140.5 79.39865614860331
142.544 79.43351677833004
144.617 79.39365698752196
146.721 79.32674968075682
148.855 79.3799822615233
151.02 79.50370449236429
153.217 79.51587849967049
155.445 79.35758494319933
157.706 79.27566572149452
160.0 79.09710201965223
162.327 78.97987575799436
164.688 79.01789262009075
167.084 79.12027255102059
169.514 79.37200944070112
171.98 79.09441172733938
174.481 78.73009792821625
177.019 78.62757029581914
179.594 78.60393056044052
182.206 78.56475885541298
184.856 78.56779660498707
187.545 78.6928542541828
190.273 78.89256073967331
193.041 79.09715420291039
195.849 79.15545399642006
198.697 79.18986084118819
201.587 79.22134809110791
204.52 79.13842535531609
207.494 79.04999438229234
210.512 78.97077797240284
213.574 79.0108795710298
216.681 78.68656262645628
219.833 78.63076289644759
223.03 78.56053987227126
226.274 78.42293203260252
229.565 78.31519906206039
232.905 78.1560292336087
236.292 78.04898993459891
239.729 78.05456723582493
243.216 78.15107411214194
246.754 78.2843606633016
250.343 78.33297428640567
253.984 78.36275984928733
257.678 78.52441780172923
261.426 78.58389762187326
265.229 78.70210246261001
269.087 78.48270924326351
273.001 78.20433667972398
276.972 78.17813049036607
281.0 78.1855922779296
285.088 78.32011775331156
289.234 78.39604294928861
293.441 78.34051479331514
297.709 78.47675236436159
302.04 78.41920903219453
306.433 78.22555962087263
310.89 77.90316337588638
315.412 78.02930879116309
320.0 77.96629817681477
324.655 77.72101368601759
329.377 77.24552682193465
334.168 77.22746824785865
339.028 77.09172290970733
343.959 77.12405205281887
348.962 77.09171809956295
354.038 77.05882381990492
359.188 77.06678483340012
364.412 77.07822260458516
369.713 76.69165248159936
375.09 76.51088359804623
380.546 76.48672852673826
386.081 76.48828977162725
391.697 76.64196095034998
397.394 76.66501817064905
403.175 76.71415868035876
409.039 76.50559009729461
414.989 76.5582640841848
421.025 76.57408775246972
427.149 76.62542763781265
433.362 76.68979852438368
439.665 76.76176253931138
446.06 76.73980425361088
452.548 76.60596392916463
459.131 76.54323920167056
465.809 76.4130606039148
472.584 76.34721748494044
479.458 76.22523348894256
486.432 76.14564293284452
493.507 76.0637789330226
500.686 75.95546196757292
507.968 75.871814087086
515.357 75.8052704723054
522.853 75.75285440081879
530.458 75.7293834894436
538.174 75.7334131220858
546.002 75.75122950881548
553.943 75.80109716693973
562.001 75.87554198536262
570.175 75.97361752262589
578.469 76.09654909875431
586.883 76.23661514493064
595.419 76.39253876306555
604.08 76.5584012809012
612.866 76.72913934727305
621.78 76.90209123494358
630.824 77.06822389207423
640.0 77.22129753432719
649.309 77.35601480507647
658.753 77.47139750155472
668.335 77.56489624061368
678.056 77.63048322305804
687.919 77.6668771314979
697.925 77.67336497709573
708.077 77.64957925528651
718.376 77.59919947076462
728.825 77.52525225080075
739.426 77.43170505855146
750.181 77.32286888217735
761.093 77.20462995597826
772.163 77.08819555540771
783.394 76.97800317634255
794.789 76.88202192356596
806.349 76.80980575282945
818.078 76.76935391542769
829.977 76.7608688797648
842.05 76.78487440528266
854.298 76.83632661639248
866.724 76.90820105577508
879.33 76.99298444144571
892.12 77.07909808843777
905.097 77.1573730298138
918.262 77.21967988689939
931.618 77.25855864511996
945.169 77.27291748101032
958.917 77.25915558646092
972.864 77.21978887878784
987.015 77.15943922204289
1001.37 77.07808957769394
1015.94 76.9906807727922
1030.71 76.90857491178738
1045.71 76.83885290934687
1060.92 76.78822192684653
1076.35 76.76135678545035
1092.0 76.75953791592613
1107.89 76.77672121140256
1124.0 76.80404105939307
1140.35 76.83133494191337
1156.94 76.84607406140854
1173.77 76.83517672318226
1190.84 76.78542556106292
1208.16 76.68805774958014
1225.73 76.53625945988637
1243.56 76.31846306251657
1261.65 76.03508472687383
1280.0 75.6829747752365
1298.62 75.26553654431608
1317.51 74.78308380546088
1336.67 74.2503209663728
1356.11 73.69267810480876
1375.84 73.14443131449264
1395.85 72.65556270584538
1416.15 72.28361684596496
1436.75 72.0693402457796
1457.65 72.02033153719285
1478.85 72.11129328130026
1500.36 72.29032837293245
1522.19 72.50038600410922
1544.33 72.69387138018836
1566.79 72.84287562766386
1589.58 72.93700413544616
1612.7 72.98536861012819
1636.16 73.01221206972285
1659.95 73.04755041721398
1684.1 73.12318514111493
1708.6 73.25874367240856
1733.45 73.45681626209682
1758.66 73.7057725738196
1784.24 73.97941382679788
1810.19 74.24820722795451
1836.52 74.49080179059408
1863.24 74.68342803576212
1890.34 74.81311908769989
1917.83 74.87036816725842
1945.73 74.85516892831502
1974.03 74.77919985741329
2002.74 74.67342955407493
2031.87 74.58801290884686
2061.43 74.58138389193516
2091.41 74.68844290462351
2121.83 74.89681415988149
2152.69 75.1391299681458
2184.01 75.32503696213517
2215.77 75.37279264499261
2248.0 75.23014109931272
2280.7 74.89570232900938
2313.87 74.42163941520059
2347.53 73.9283797054942
2381.68 73.56863235663921
2416.32 73.43507582578474
2451.46 73.49775221705157
2487.12 73.6409295709896
2523.3 73.76007522942746
2560.0 73.82491428959943
2597.24 73.86759821076062
2635.01 73.93191770950614
2673.34 74.02561197609906
2712.23 74.11719912530292
2751.68 74.1660454914706
2791.7 74.16162160555663
2832.31 74.1366444899727
2873.5 74.14561401415966
2915.3 74.22362899205346
2957.7 74.35688628584438
3000.72 74.49233024115804
3044.37 74.57210723156449
3088.65 74.57079619345663
3133.58 74.50902182313602
3179.16 74.44266475254189
3225.4 74.42266612242646
3272.31 74.45462224622753
3319.91 74.49361669518419
3368.2 74.5001606628782
3417.19 74.47892601377639
3466.89 74.47161931986703
3517.32 74.50333933236911
3568.48 74.55529416208823
3620.39 74.59813820342849
3673.05 74.62681764596034
3726.47 74.6577521610952
3780.67 74.7016465522887
3835.67 74.7538279581392
3891.46 74.7939068337068
3948.06 74.78464187824477
4005.49 74.705795942502
4063.75 74.58465521992824
4122.86 74.45390416282045
4182.82 74.29012877838343
4243.66 74.07216653724808
4305.39 73.88610147546756
4368.01 73.82680039545161
4431.55 73.8499991560283
4496.01 73.87567118924913
4561.4 73.90486129758938
4627.75 73.94146974881082
4695.06 73.97593554813724
4763.35 74.04365000095295
4832.64 74.14213825331892
4902.93 74.21871754952028
4974.24 74.28832215357576
5046.6 74.38074419062295
5120.0 74.47864178828797
5194.47 74.56576653213395
5270.03 74.61183051455188
5346.68 74.6297496116444
5424.45 74.67053253369247
5503.35 74.70760305258848
5583.4 74.73299855731582
5664.61 74.76277340751571
5747.01 74.77667880339872
5830.6 74.80807900804014
5915.41 74.83817463041484
6001.45 74.84536957649514
6088.74 74.83314714896676
6177.3 74.72749671571292
6267.15 74.54402186709899
6358.31 74.33382817261615
6450.8 74.14463896953832
6544.62 74.01832962625214
6639.82 73.99263869587082
6736.4 74.10049101588609
6834.38 74.2432956671788
6933.79 74.33720341017079
7034.64 74.39635866931673
7136.96 74.38579211474166
7240.77 74.24771286476886
7346.09 74.11588152171892
7452.94 74.00143635342485
7561.35 73.91412362848084
7671.33 73.97133765024526
7782.91 74.06220386529654
7896.12 74.11105121115804
8010.97 74.19806055977622
8127.49 74.2653773797067
8245.71 74.34596249299445
8365.65 74.48596923475026
8487.33 74.54228727109124
8610.78 74.50660442604314
8736.03 74.34505352653159
8863.09 74.05688604864086
8992.01 73.80908158653382
9122.8 73.67783001587482
9255.5 73.72196277997017
9390.12 73.80761178057688
9526.7 73.81615935981718
9665.27 73.744352325096
9805.86 73.55960613125522
9948.49 73.478972842842
10093.2 73.48260232614577
10240.0 73.655921835481
10388.9 73.83378009167842
10540.1 73.99483689881534
10693.4 74.0548268398444
10848.9 74.0678278927857
11006.7 74.05065173378682
11166.8 74.05205450036354
11329.2 74.04816535965118
11494.0 74.05598965375742
11661.2 74.11036180915339
11830.8 74.2821440984736
12002.9 74.50936820581184
12177.5 74.69643888492475
12354.6 74.61602614444807
12534.3 74.3041986733854
12716.6 73.84925941828513
12901.6 73.67624462147003
13089.2 73.70061293236142
13279.6 73.83529369839306
13472.8 74.03336625297264
13668.8 74.13505604102966
13867.6 74.09508151922662
14069.3 73.90514752193909
14273.9 73.66080901501587
14481.5 73.58628434687118
14692.2 73.67095804471117
14905.9 73.67964444272899
15122.7 73.48509043111997
15342.7 73.12412707632389
15565.8 72.75920119556963
15792.2 72.57210622993519
16021.9 72.44407555939861
16255.0 72.20670609973048
16491.4 71.77402813475928
16731.3 71.23757441748685
16974.7 70.73489635028967
17221.6 70.28585950459679
17472.1 69.83164153306925
17726.2 69.20351629485016
17984.0 68.35093148432661
18245.6 67.66039927803978
18511.0 67.27924885546696
18780.2 67.00323642301564
19053.4 66.56351410935223
19330.5 66.00658283882736
19611.7 65.6022834302962
19897.0 65.32161100000332
