Freq "Listening Window"
22.4 46.00025584655587
23.0 46.97823306508387
23.6 47.933843702321
24.0 49.00025584655587
25.0 50.00025584655587
25.8 51.17823306508389
26.5 52.27823306508388
27.2 53.50025584655587
28.0 54.67823306508389
29.0 55.944728950577215
30.0 57.133843702321016
30.7 58.37823306508389
31.5 59.60025584655588
32.5 60.84472895057722
33.5 62.07823306508388
34.5 63.27823306508388
35.5 64.47823306508388
36.5 65.67823306508387
37.5 66.80051167804048
38.7 67.97823306508387
40.0 69.0782330650839
41.2 70.17823306508389
42.5 71.17823306508389
43.7 72.20051167804048
45.0 73.17823306508387
46.2 74.0782330650839
47.5 74.97823306508388
48.7 75.75660314969004
50.0 76.53435732133559
51.5 77.2343573213356
53.0 77.8343573213356
54.5 78.38951489542684
56.0 78.867941235565
58.0 79.26794123556499
60.0 79.567941235565
61.5 79.83435732133559
63.0 80.03435732133559
65.0 80.13435732133559
67.0 80.13435732133559
69.0 80.13435732133559
71.0 80.13435732133559
73.0 80.03435732133559
75.0 80.03435732133559
77.5 79.9795128579111
80.0 79.9795128579111
82.5 79.9795128579111
85.0 80.03435732133559
87.5 80.0457535568586
90.0 80.10204066493431
92.5 80.13435732133559
95.0 80.13435732133559
97.5 80.21300581665409
100.0 80.21300581665409
103.0 80.30204066493431
106.0 80.3343573213356
109.0 80.37951285791111
112.0 80.37951285791111
115.0 80.3130058166541
118.0 80.21300581665409
122.0 80.03614605110727
125.0 79.83614605110726
128.0 79.65889934695255
132.0 79.53614605110728
136.0 79.43614605110729
140.0 79.31529034765104
145.0 79.07076478409546
150.0 78.93815288443362
155.0 78.9727616847832
160.0 79.0297606189123
165.0 79.0297606189123
170.0 78.9616943214741
175.0 78.8848644786337
180.0 78.8848644786337
185.0 78.87382795376713
190.0 78.85362457237493
195.0 78.95362457237495
200.0 79.25362457237493
206.0 79.49962886293753
212.0 79.55362457237493
218.0 79.43378985660753
224.0 79.29962886293751
230.0 79.14492846792209
236.0 79.18000361795669
240.0 79.40361253641275
250.0 79.69128085577083
258.0 79.73902159760891
265.0 79.7800036179567
272.0 80.28000361795668
280.0 81.10361253641274
290.0 81.69236731604136
300.0 81.77315762060032
307.0 81.67315762060032
315.0 81.82138257685799
325.0 81.92787726231889
335.0 81.6835443970759
345.0 81.35490801832738
355.0 81.01630759448318
365.0 80.57825143639518
375.0 80.49928533699081
387.0 80.93710001372715
400.0 81.2093441676368
412.0 81.07199921101953
425.0 80.81768170831323
437.0 81.05404466882021
450.0 81.45404466882022
462.0 81.41358566130789
475.0 81.8433532219347
487.0 82.57131233605469
500.0 82.79612346078234
515.0 82.53136610463478
530.0 81.9713123360547
545.0 81.7071014803641
560.0 81.73395670711771
580.0 81.77465685477246
600.0 81.99128774241974
615.0 82.08477015917089
630.0 82.14341345959004
650.0 82.0047427243712
670.0 81.71661512354008
690.0 81.85234510220945
710.0 82.22765011995524
730.0 82.80116518168872
750.0 82.07813098164907
775.0 81.72147508323206
800.0 82.26557429129669
825.0 83.44092669723628
850.0 85.20368825217328
875.0 84.81022496470312
900.0 84.2326912958591
925.0 84.47063288116344
950.0 84.86025222424497
975.0 84.89240785783949
1000.0 84.54789940750538
1030.0 85.00946324451922
1060.0 86.10447124181614
1090.0 86.30457477805862
1120.0 86.25484250160115
1150.0 86.18201807472762
1180.0 86.71621042110213
1220.0 86.47455212504038
1250.0 86.38570633272342
1280.0 86.82764166368533
1320.0 86.89469468483978
1360.0 86.81665664019988
1400.0 86.66208973259988
1450.0 86.36382483089808
1500.0 86.70567704068317
1550.0 87.21905194495677
1600.0 87.1796673714078
1650.0 86.79224604186619
1700.0 87.23080024334693
1750.0 86.62978983719333
1800.0 86.43723440677682
1850.0 85.75180823072468
1900.0 86.0762786807207
1950.0 85.72560365810963
2000.0 85.20688237317792
2060.0 84.7886224105839
2120.0 84.39149488202621
2180.0 84.96324590170374
2240.0 85.25867159744014
2300.0 85.94139688693856
2360.0 85.78884139200882
2400.0 85.18164240535309
2500.0 85.03074464471135
2580.0 85.04956065399347
2650.0 84.85833926295949
2720.0 85.44381778418783
2800.0 85.81151720302664
2900.0 86.30801261257353
3000.0 85.81184932941629
3070.0 85.5220122743313
3150.0 85.23893822721466
3250.0 84.56124424710818
3350.0 83.75620506805342
3450.0 83.20087780405672
3550.0 83.63514664889493
3650.0 83.75053237092848
3750.0 84.28997816472715
3870.0 84.75976103559198
4000.0 85.27706392107312
4120.0 85.48662179580906
4250.0 85.80632078081943
4370.0 86.0041351220555
4500.0 85.9723090360415
4620.0 86.09710355349463
4750.0 86.37615740326325
4870.0 86.82845462325334
5000.0 86.8626878757777
5150.0 87.19038925922511
5300.0 87.2938058727541
5450.0 87.39255575891784
5600.0 87.22758468498914
5800.0 86.05944836367921
6000.0 84.64914920217922
6150.0 83.24365454434822
6300.0 82.60082755434648
6500.0 82.70500067385807
6700.0 82.8399971490265
6900.0 82.82717359244081
7100.0 82.83830664056885
7300.0 82.90270408146824
7500.0 82.85468244047583
7750.0 83.5023246139488
8000.0 84.4866696291543
8250.0 84.60959562738529
8500.0 84.68828919135456
8750.0 84.44022492289301
9000.0 83.32255236485831
9250.0 81.33075627817556
9500.0 79.43987737969123
9750.0 80.17941866684396
10000.0 80.2876381134923
10300.0 80.35031700649193
10600.0 80.51872064150895
10900.0 82.42311019007543
11200.0 82.74823222941232
11500.0 82.75415048812542
11800.0 81.44400225350063
12200.0 73.59315529447139
12500.0 75.59227030828053
12800.0 76.94832577748508
13200.0 78.70512175559078
13600.0 80.95797347962521
14000.0 82.5793502997542
14500.0 84.76162790590142
15000.0 85.00222203990556
15500.0 83.0194863722191
16000.0 83.1310192190511
16500.0 82.27251170437965
17000.0 84.81552309516111
17500.0 85.2671781156126
18000.0 79.5207522288158
18500.0 75.65033764729179
19000.0 69.49145705251841
19500.0 56.87267601377765
