Freq "On Axis"
22.4 46.000000000000014
23.0 47.000000000000014
23.6 48.000000000000014
24.0 49.000000000000014
25.0 50.000000000000014
25.8 51.2
26.5 52.3
27.2 53.500000000000014
28.0 54.7
29.0 56.000000000000014
30.0 57.2
30.7 58.39999999999999
31.5 59.60000000000001
32.5 60.89999999999999
33.5 62.10000000000001
34.5 63.3
35.5 64.49999999999999
36.5 65.7
37.5 66.90000000000002
38.7 68.00000000000001
40.0 69.10000000000001
41.2 70.2
42.5 71.2
43.7 72.3
45.0 73.2
46.2 74.10000000000001
47.5 75.0
48.7 75.8
50.0 76.60000000000001
51.5 77.3
53.0 77.9
54.5 78.5
56.0 79.0
58.0 79.40000000000002
60.0 79.7
61.5 79.9
63.0 80.1
65.0 80.2
67.0 80.2
69.0 80.2
71.0 80.2
73.0 80.1
75.0 80.1
77.5 80.1
80.0 80.1
82.5 80.1
85.0 80.1
87.5 80.2
90.0 80.2
92.5 80.2
95.0 80.2
97.5 80.3
100.0 80.3
103.0 80.4
106.0 80.4
109.0 80.50000000000001
112.0 80.50000000000001
115.0 80.4
118.0 80.3
122.0 80.2
125.0 80.0
128.0 79.8
132.0 79.7
136.0 79.6
140.0 79.49999999999999
145.0 79.2
150.0 79.10000000000001
155.0 79.2
160.0 79.2
165.0 79.2
170.0 79.2
175.0 79.10000000000001
180.0 79.10000000000001
185.0 79.10000000000001
190.0 79.10000000000001
195.0 79.2
200.0 79.49999999999999
206.0 79.8
212.0 79.8
218.0 79.7
224.0 79.6
230.0 79.40000000000002
236.0 79.49999999999999
240.0 79.7
250.0 80.0
258.0 80.1
265.0 80.1
272.0 80.59999999999998
280.0 81.4
290.0 81.99999999999999
300.0 82.1
307.0 81.99999999999999
315.0 82.2
325.0 82.4
335.0 82.2
345.0 81.90000000000002
355.0 81.60000000000001
365.0 81.2
375.0 81.1
387.0 81.60000000000001
400.0 81.90000000000002
412.0 81.8
425.0 81.5
437.0 81.8
450.0 82.2
462.0 82.2
475.0 82.6
487.0 83.39999999999999
500.0 83.7
515.0 83.39999999999999
530.0 82.8
545.0 82.5
560.0 82.5
580.0 82.4
600.0 82.7
615.0 82.8
630.0 82.9
650.0 82.7
670.0 82.2
690.0 82.4
710.0 82.8
730.0 83.39999999999999
750.0 82.4
775.0 81.7
800.0 81.99999999999999
825.0 83.39999999999999
850.0 85.59999999999998
875.0 85.4
900.0 84.7
925.0 84.40000000000002
950.0 84.49999999999999
975.0 84.49999999999999
1000.0 84.2
1030.0 85.0
1060.0 86.90000000000002
1090.0 87.4
1120.0 87.5
1150.0 87.4
1180.0 87.6
1220.0 87.2
1250.0 86.90000000000002
1280.0 87.1
1320.0 87.2
1360.0 86.90000000000002
1400.0 86.1
1450.0 86.0
1500.0 85.3
1550.0 84.8
1600.0 84.8
1650.0 84.0
1700.0 83.6
1750.0 83.8
1800.0 84.49999999999999
1850.0 84.9
1900.0 83.6
1950.0 83.39999999999999
2000.0 83.00000000000001
2060.0 83.6
2120.0 83.6
2180.0 81.7
2240.0 82.3
2300.0 83.7
2360.0 83.5
2400.0 81.90000000000002
2500.0 83.09999999999998
2580.0 84.6
2650.0 83.7
2720.0 83.6
2800.0 85.2
2900.0 85.50000000000001
3000.0 82.3
3070.0 80.2
3150.0 79.40000000000002
3250.0 79.9
3350.0 81.60000000000001
3450.0 81.60000000000001
3550.0 82.4
3650.0 82.3
3750.0 82.8
3870.0 83.39999999999999
4000.0 84.10000000000001
4120.0 84.3
4250.0 85.2
4370.0 86.0
4500.0 85.59999999999998
4620.0 86.1
4750.0 86.1
4870.0 86.2
5000.0 86.0
5150.0 86.90000000000002
5300.0 87.2
5450.0 86.3
5600.0 86.60000000000001
5800.0 85.2
6000.0 84.0
6150.0 81.8
6300.0 79.7
6500.0 80.2
6700.0 81.99999999999999
6900.0 81.8
7100.0 81.90000000000002
7300.0 83.00000000000001
7500.0 83.7
7750.0 84.9
8000.0 85.8
8250.0 85.8
8500.0 85.4
8750.0 85.1
9000.0 83.00000000000001
9250.0 80.1
9500.0 77.8
9750.0 78.5
10000.0 77.9
10300.0 78.7
10600.0 80.4
10900.0 82.2
11200.0 81.7
11500.0 80.89999999999999
11800.0 77.4
12200.0 71.60000000000001
12500.0 75.8
12800.0 76.0
13200.0 77.2
13600.0 78.6
14000.0 79.8
14500.0 85.50000000000001
15000.0 87.3
15500.0 85.4
16000.0 85.8
16500.0 84.9
17000.0 84.0
17500.0 79.10000000000001
18000.0 73.5
18500.0 75.7
19000.0 71.0
19500.0 60.2
