Freq,On Axis,Listening Window,Sound Power,Early Reflections,Early Reflections DI,Sound Power DI,DI offset
22.4,33.45443037974687,33.49993075644508,35.29661507193734,34.262362742472476,39.237568013972606,38.20331568450774,40
23.0,33.05443037974686,33.099930756445076,34.64523418592083,33.74153631041784,39.35839444602723,38.45469657052425,40
23.6,32.55443037974686,32.58853385566513,33.74932844593769,33.052281372392684,39.53625248327245,38.83920540972744,40
24.0,31.954430379746867,31.955453811175204,32.5387827704358,32.15957617050529,39.795877640669914,39.4166710407394,40
25.0,32.354430379746844,32.410780981002944,32.77875564429408,32.52819270337426,39.882588277628685,39.632025336708864,40
25.8,33.154430379746856,33.15545381117519,33.50016747986871,33.25929084910899,39.8961629620662,39.655286331306485,40
26.5,33.854430379746844,33.85545381117518,34.17635145144072,33.9351068348935,39.92034697628168,39.67910235973446,40
27.2,34.354430379746844,34.35545381117518,34.650098819521304,34.42661992925926,39.92883388191592,39.70535499165388,40
28.0,34.354430379746844,34.35545381117518,34.65804193598436,34.43286566122211,39.92258814995307,39.697411875190824,40
29.0,34.354430379746844,34.35545381117518,34.62501467986297,34.42011386358493,39.93533994759025,39.73043913131221,40
30.0,34.654430379746856,34.65545381117519,34.947354078168644,34.73681234337843,39.91864146779676,39.70809973300655,40
30.7,37.654430379746856,37.6778706007712,37.943961813757426,37.7433189771335,39.9345516236377,39.733908787013775,40
31.5,39.95443037974687,39.955453811175175,40.14973365903762,39.95947594983079,39.995977861344386,39.80572015213755,40
32.5,41.45443037974687,41.455453811175175,41.65250909233728,41.46035703881094,39.995096772364235,39.80294471883789,40
33.5,42.354430379746844,42.35545381117518,42.572003921318725,42.396111530020136,39.959342281155045,39.783449889856456,40
34.5,43.05443037974686,43.05545381117517,43.306888222978074,43.125757024688454,39.929696786486716,39.748565588197096,40
35.5,45.05443037974686,45.05545381117517,45.25408300370307,45.08377722811318,39.97167658306199,39.8013708074721,40
36.5,49.05443037974686,49.05545381117517,49.241849614845876,49.08377722811318,39.97167658306199,39.813604196329294,40
37.5,51.354430379746844,51.35545381117518,51.51227763138158,51.36238607372431,39.99306773745087,39.8431761797936,40
38.7,53.654430379746856,53.65545381117519,53.82223685706197,53.670662660092376,39.98479115108282,39.833216954113226,40
40.0,55.654430379746856,55.65545381117519,55.81643828704253,55.662312623658096,39.9931411875171,39.83901552413266,40
41.2,57.354430379746844,57.35545381117518,57.539994034091194,57.393645747222905,39.961808063952276,39.81545977708399,40
42.5,59.45443037974687,59.455453811175204,59.61301367165697,59.46433168915874,39.99112212201646,39.84244013951823,40
43.7,61.05443037974686,61.05545381117517,61.21695624198742,61.064331689158735,39.991122122016435,39.83849756918775,40
45.0,63.05443037974686,63.05545381117517,63.166064636323085,63.03422551027319,40.02122830090198,39.889389174852084,40
46.2,64.55443037974686,64.55545381117517,64.7086770710923,64.56342607770517,39.992027733469996,39.84677674008287,40
47.5,66.35443037974684,66.35545381117518,66.49299588795449,66.35606838883868,39.9993854223365,39.86245792322069,40
48.7,67.95443037974685,67.95545381117518,68.11320297524244,67.97447679147467,39.980977019700504,39.84225083593273,40
50.0,70.95443037974687,70.93343493161363,71.02779003251331,70.90992229919293,40.023512632420704,39.905644899100324,40
51.5,73.05443037974686,73.05545381117518,73.17799292490689,73.04728285751759,40.0081709536576,39.877460886268295,40
53.0,75.15443037974686,75.15545381117518,75.22987238522875,75.1225254381464,40.03292837302878,39.92558142594643,40
54.5,76.85443037974686,76.85545381117518,76.9639363074649,76.84291373433582,40.01254007683936,39.891517503710276,40
56.0,78.75443037974685,78.75545381117517,78.83558039305572,78.73121214041731,40.02424167075786,39.91987341811945,40
58.0,80.35443037974686,80.35545381117518,80.44192652960766,80.3312121404173,40.024241670757874,39.913527281567525,40
60.0,81.85443037974686,81.83343493161362,81.87362844465015,81.77606764334067,40.05736728827296,39.95980648696347,40
61.5,83.35443037974686,83.35545381117518,83.422407909816,83.32797434107863,40.02747947009655,39.93304590135918,40
63.0,84.55443037974686,84.55545381117517,84.61645329364403,84.52687789718381,40.02857591399136,39.93900051753114,40
65.0,85.45443037974685,85.45545381117518,85.45998894114346,85.3775316819406,40.07792212923458,39.99546487003171,40
67.0,85.85443037974686,85.84445832593902,85.84535450383402,85.76743789811582,40.0770204278232,39.999103822105,40
69.0,86.15443037974686,86.15545381117516,86.17504726574892,86.09536536971257,40.0600884414626,39.98040654542625,40
71.0,86.45443037974685,86.45545381117518,86.44595823025782,86.38204924952979,40.07340456164539,40.00949558091736,40
73.0,86.45443037974685,86.37839744324489,86.36641930771074,86.30173765269971,40.07665979054518,40.01197813553415,40
75.0,86.65443037974686,86.63343493161364,86.57798338527896,86.53237531801813,40.10105961359551,40.05545154633468,40
77.5,86.95443037974685,86.93343493161363,86.86635346917116,86.8210326072642,40.11240232434943,40.067081462442474,40
80.0,87.15443037974686,87.15545381117519,87.08765093128592,87.05387845685947,40.10157535431573,40.06780287988927,40
82.5,87.35443037974687,87.31130384644774,87.20823458517805,87.18155436524066,40.129749481207085,40.103069261269695,40
85.0,87.25443037974685,87.23343493161363,87.12655996779566,87.10188820230344,40.13154672931019,40.10687496381797,40
87.5,87.95443037974685,87.87839744324489,87.73278140794092,87.72610105780137,40.15229638544352,40.14561603530397,40
90.0,87.75443037974685,87.76720487150621,87.61259941079874,87.60436959715398,40.16283527435223,40.15460546070747,40
92.5,88.05443037974686,88.03343493161364,87.83735904734195,87.85156822645428,40.181866705159365,40.19607588427169,40
95.0,88.25443037974685,88.21130384644773,87.99189977830864,88.02387933602171,40.18742451042603,40.2194040681391,40
97.5,87.95443037974685,87.93343493161362,87.69845105872236,87.73931257577091,40.19412235584271,40.23498387289126,40
100.0,88.55443037974686,88.50069642067767,88.22318149418713,88.26831992969481,40.23237649098286,40.27751492649054,40
103.0,88.45443037974687,88.41130384644774,88.12387455832337,88.18903361215233,40.22227023429541,40.28742928812437,40
106.0,88.55443037974686,88.51130384644775,88.18468830281255,88.26810023049389,40.24320361595386,40.3266155436352,40
109.0,88.15443037974686,88.13343493161362,87.76546994854677,87.86814671182128,40.26528821979234,40.367964983066855,40
112.0,88.15443037974686,88.13343493161362,87.74824291752893,87.86094588922612,40.272489042387505,40.385192014084694,40
115.0,88.05443037974686,88.04524564036775,87.61205736498869,87.74592096478186,40.29932467558589,40.43318827537907,40
118.0,88.15443037974686,88.05649487500516,87.5752058215916,87.73554500366012,40.320949871345036,40.48128905341356,40
122.0,88.25443037974685,88.15649487500515,87.63702782003,87.81663997997524,40.339854895029916,40.51946705497515,40
125.0,88.35443037974686,88.30019586825463,88.05822839201986,88.11657172052554,40.18362414772909,40.24196747623478,40
128.0,88.35443037974686,88.2783974432449,88.35297004000067,88.23724726648811,40.04115017675679,39.92542740324423,40
132.0,88.15443037974686,88.12238348615894,88.21719371873851,88.08378074084317,40.03860274531577,39.905189767420424,40
136.0,87.95443037974685,87.90019586825464,87.97040450238084,87.85030754811005,40.04988832014459,39.9297913658738,40
140.0,87.75443037974685,87.63369201798697,87.66079587916366,87.56846202186124,40.06522999612574,39.972896138823316,40
145.0,87.55443037974686,87.47890630547082,87.29945956275995,87.30229984711819,40.17660645835262,40.179446742710866,40
150.0,87.45443037974684,87.39086603528068,86.98148597367418,87.09788833512711,40.29297770015357,40.4093800616065,40
155.0,87.55443037974686,87.46821935664181,86.75795242175965,87.01892594606718,40.449293410574626,40.710266934882156,40
160.0,87.85443037974686,87.71411682579915,86.74013058007321,87.1223106643063,40.591806161492855,40.97398624572594,40
165.0,88.05443037974686,87.92544687548468,86.70024181821032,87.21632374530051,40.70912313018417,41.225205057274366,40
170.0,88.15443037974686,88.04807241806381,86.59809491552268,87.23922133593875,40.80885108212506,41.44997750254113,40
175.0,88.35443037974686,88.15957585410145,86.5041789020011,87.25912753730194,40.90044831679951,41.65539695210035,40
180.0,88.55443037974686,88.37053317941658,86.60359247878827,87.42657800118351,40.94395517823307,41.76694070062831,40
185.0,88.75443037974685,88.62651357297653,86.78395110243423,87.64532512869222,40.981188444284314,41.842562470542305,40
190.0,89.05443037974686,88.8812144429916,86.98294247453758,87.87274130032557,41.008473142666034,41.898271968454026,40
195.0,89.15443037974686,89.02544687548469,87.08282599698256,88.01196326403641,41.01348361144828,41.942620878502126,40
200.0,89.25443037974685,89.09162725274672,87.08061368288567,88.04804522788078,41.04358202486594,42.01101356986105,40
206.0,89.05443037974686,88.96952477114598,86.92600849604318,87.93633597670159,41.0331887944444,42.0435162751028,40
212.0,88.55443037974686,88.42393611974381,86.56186895729378,87.54081686498515,40.88311925475867,41.86206716245003,40
218.0,87.55443037974686,87.35622708195157,85.99740639582521,86.75232511773123,40.60390196422034,41.358820686126364,40
224.0,87.65443037974686,87.41744586637843,85.53229196277888,86.4263111819013,40.99113468447713,41.885153903599544,40
230.0,87.95443037974685,87.7277722704141,85.2416335324433,86.47777530880619,41.24999696160792,42.486138737970805,40
236.0,87.85443037974686,87.70275714049136,85.06598544808794,86.47312390845512,41.229633232036235,42.636771692403414,40
240.0,87.75443037974685,87.63599409457386,84.93756996360652,86.43073844605394,41.20525564851992,42.69842413096734,40
250.0,87.65443037974686,87.55905876849219,84.88107686590664,86.38719381631084,41.17186495218135,42.67798190258556,40
258.0,87.75443037974685,87.58279467893566,84.91924482570438,86.4009488125755,41.18184586636015,42.663549853231274,40
265.0,87.85443037974686,87.70633004832479,85.03987524368509,86.4721976692857,41.23413237903908,42.6664548046397,40
272.0,88.05443037974686,87.91794443468497,85.12550759784618,86.5765083773202,41.341436057364774,42.79243683683879,40
280.0,88.55443037974686,88.28582220886659,85.43767757547786,86.88543666641041,41.40038554245618,42.84814463338873,40
290.0,89.05443037974686,88.86265656120905,85.9598179941414,87.4207593656817,41.441897195527346,42.90283856706765,40
300.0,89.15443037974686,89.0159432763947,86.12037160886062,87.56203886089935,41.453904415495344,42.89557166753407,40
307.0,88.85443037974684,88.73829046486418,85.94019522874403,87.32946419392283,41.40882627094135,42.79809523612015,40
315.0,88.55443037974686,88.45905876849218,85.63911560460727,87.06129465583622,41.39776411265596,42.819943163884915,40
325.0,88.75443037974685,88.69086603528068,85.65544992150927,87.24821685488975,41.44264918039093,43.035416113771404,40
335.0,88.55443037974686,88.54575256602408,85.41377681083637,87.09368466099322,41.45206790503086,43.13197575518771,40
345.0,88.35443037974686,88.25724467672353,85.0567269008765,86.82881516210445,41.42842951461908,43.20051777584703,40
355.0,87.95443037974685,87.90143863042991,84.71605142223038,86.518524049593,41.38291458083691,43.18538720819953,40
365.0,87.75443037974685,87.66846291402078,84.42873537659585,86.24173353968409,41.42672937433669,43.239727537424926,40
375.0,87.65443037974686,87.53469694266425,84.31849858590667,86.13692040753385,41.397776535130404,43.21619835675759,40
387.0,87.85443037974686,87.67004061221199,84.45146556401019,86.3093883640712,41.360652248140795,43.2185750482018,40
400.0,88.45443037974687,88.11345915834286,84.57826083548383,86.59112878897037,41.5223303693725,43.53519832285903,40
412.0,89.25443037974685,88.77400968187087,84.67995477128987,86.92272484664684,41.85128483522402,44.094054910580994,40
425.0,89.65443037974686,89.1905943434079,84.46566390610403,86.96736967364755,42.22322466976034,44.72493043730387,40
437.0,89.35443037974686,88.80909791058261,83.51462156494394,86.25874066135553,42.550357249227076,45.29447634563867,40
450.0,87.65443037974686,87.13511935434244,81.49522343189007,84.34967996882423,42.7854393855182,45.63989592245237,40
462.0,86.15443037974686,85.88241492621377,80.5612826429315,83.37757876645438,42.50483615975939,45.32113228328227,40
475.0,85.15443037974686,85.08253930339292,80.06947008140546,83.09513661284613,41.98740269054679,45.013069221987465,40
487.0,85.05443037974686,84.9583150998639,80.20781038023716,83.22337261151367,41.73494248835023,44.75050471962673,40
500.0,85.45443037974685,85.35808143913762,80.70388432741026,83.61654787635368,41.74153356278394,44.654197111727356,40
515.0,85.85443037974686,85.76077628171993,81.53460549029762,84.12146439786181,41.63931188385811,44.226170791422305,40
530.0,86.85443037974686,86.56778802579254,82.22414691496115,84.60738446445886,41.96040356133368,44.343641110831385,40
545.0,87.35443037974687,86.95716673677552,81.70160423340072,84.42624314684934,42.530923589926175,45.255562503374804,40
560.0,87.45443037974684,86.98764933939245,81.31717591403834,84.31208221753579,42.67556712185666,45.6704734253541,40
580.0,87.35443037974687,86.90257642338543,80.88856503367683,84.11883777671994,42.78373864666548,46.0140113897086,40
600.0,87.15443037974686,86.6243188871308,80.26739467671567,83.72295247012312,42.90136641700768,46.35692421041513,40
615.0,86.65443037974686,85.99111397832802,79.51796996114119,83.11624190899786,42.87487206933015,46.473144017186826,40
630.0,87.05443037974686,86.41439321048162,80.05267331377732,83.71070661641178,42.703686594069836,46.3617198967043,40
650.0,87.45443037974684,86.84427240079086,80.69735570385065,84.19023486943072,42.65403753136013,46.14691669694021,40
670.0,87.25443037974685,86.59913494266745,80.43486163680207,83.59196168898552,43.00717325368193,46.16427330586538,40
690.0,87.05443037974686,86.4306439915052,80.00273764819437,83.24200506430692,43.188638927198284,46.42790634331084,40
710.0,87.65443037974686,87.08244348977703,80.12226614416144,83.82218059645582,43.26026289332121,46.96017734561559,40
730.0,87.95443037974685,87.35791917884383,80.4155465008024,84.321598283089,43.03632089575483,46.94237267804142,40
750.0,87.95443037974685,87.36476555891832,80.89544849861457,84.55136141353408,42.81340414538424,46.46931706030375,40
775.0,88.35443037974686,87.78470347266803,81.62070139894158,85.0599396694052,42.72476380326283,46.16400207372645,40
800.0,88.75443037974685,88.19428718961518,81.999120339451,85.45426326866189,42.74002392095329,46.195166850164185,40
825.0,88.65443037974686,88.19084229310009,82.0988320651816,85.5610388972059,42.629803395894186,46.09201022791849,40
850.0,88.55443037974686,88.1799932987765,82.24574998425078,85.67458677892482,42.505406519851675,45.934243314525716,40
875.0,88.25443037974685,88.0488802615439,82.3095356172074,85.68154621030538,42.367334051238515,45.7393446443365,40
900.0,87.95443037974685,87.79246733193496,82.44133561404388,85.67607898247869,42.11638834945627,45.35113171789108,40
925.0,87.75443037974685,87.55261937113701,82.52717918142724,85.6083756444611,41.94424372667591,45.02544018970977,40
950.0,88.35443037974686,87.8209250739589,82.67608789158088,85.70400984556713,42.116915228391775,45.144837182378026,40
975.0,88.35443037974686,87.74855984099753,82.23224696238263,85.41245168187147,42.336108159126056,45.5163128786149,40
1000.0,87.75443037974685,87.16107998615216,81.77699239499609,84.9638438780164,42.197236108135755,45.384087591156074,40
1030.0,87.95443037974685,87.28646732720522,81.73375132656936,84.92907292485154,42.35739440235368,45.552716000635854,40
1060.0,88.05443037974686,87.33590886926008,81.7194909946332,84.92303707871969,42.41287179054039,45.616417874626876,40
1090.0,88.05443037974686,87.23420567731009,81.26588796310631,84.58271009958762,42.65149557772247,45.96831771420378,40
1120.0,88.05443037974686,87.20378376004834,80.60466870904571,84.14506305651324,43.0587207035351,46.59911505100263,40
1150.0,88.05443037974686,87.29175310890894,80.23266271316473,84.02303639764517,43.268716711263764,47.05909039574421,40
1180.0,88.05443037974686,87.32012369014899,80.0890374125698,84.0384927983615,43.281630891787486,47.231086277579195,40
1220.0,88.05443037974686,87.30279384741655,80.01261319899331,84.00745849765909,43.295335349757465,47.290180648423245,40
1250.0,87.85443037974686,87.0331621341473,80.01308388005121,83.99794851451497,43.03521361963233,47.02007825409609,40
1280.0,87.15443037974686,86.57343045026478,79.98371950971085,83.95494000775707,42.61849044250771,46.58971094055393,40
1320.0,86.15443037974686,85.88068259307258,79.72113748942695,83.67599234155557,42.20469025151701,46.15954510364563,40
1360.0,86.45443037974685,86.01188232237467,79.70534561309555,83.62048953379099,42.39139278858369,46.30653670927913,40
1400.0,86.35443037974684,86.01028821764622,79.49616831198807,83.54423481899254,42.466053398653685,46.51411990565815,40
1450.0,86.65443037974686,85.89408232843353,79.12704952391698,83.39598593927093,42.4980963891626,46.767032804516546,40
1500.0,87.75443037974685,86.70241109823364,79.16922077600637,83.62461721206634,43.0777938861673,47.53319032222727,40
1550.0,89.05443037974686,87.86620829561137,79.27695965790664,84.00464787525678,43.86156042035459,48.58924863770473,40
1600.0,89.05443037974686,87.79700439014745,78.50483726381577,83.55622872794883,44.240775662198615,49.29216712633168,40
1650.0,88.35443037974686,86.91540270741426,77.69959837760128,82.71480529227354,44.20059741514072,49.21580432981298,40
1700.0,88.05443037974686,86.73829985797084,78.27097478674489,82.89937305224285,43.83892680572799,48.46732507122596,40
1750.0,87.45443037974684,86.56253898904399,78.79219222409857,83.12857837992848,43.4339606091155,47.770346764945415,40
1800.0,87.45443037974684,86.7796567336781,79.2366461379835,83.25128350483872,43.52837322883937,47.5430105956946,40
1850.0,88.35443037974686,87.27275716251677,79.74695744366785,83.71949689395264,43.55326026856413,47.525799718848916,40
1900.0,88.95443037974685,87.59564123771439,79.8478931888219,83.90591960909299,43.6897216286214,47.74774804889249,40
1950.0,88.35443037974686,87.1775111702645,79.3160467055249,83.35513688705566,43.82237428320883,47.8614644647396,40
2000.0,87.95443037974685,86.90870768418253,79.1072590536682,83.10944094703959,43.79926673714294,47.80144863051433,40
2060.0,87.75443037974685,86.57908170741285,79.17820331695253,83.06226972935272,43.51681197806013,47.40087839046032,40
2120.0,87.65443037974686,86.28097019259053,79.11611860336245,83.05619628384511,43.22477390874542,47.16485158922808,40
2180.0,87.75443037974685,86.20199207682481,78.81635885859106,82.82603066364685,43.37596141317796,47.38563321823375,40
2240.0,87.25443037974685,85.65613683234388,78.3638055223738,82.19137478221057,43.4647620501333,47.29233130997008,40
2300.0,87.55443037974686,86.39293768610256,78.87109576384717,82.93521046023146,43.457727225871096,47.52184192225539,40
2360.0,86.65443037974686,86.0908217926285,78.6581588189813,82.73077336400009,43.36004842862842,47.4326629736472,40
2400.0,86.75443037974685,86.28270082628705,79.30955060168179,83.13697032533838,43.14573050094867,46.97315022460526,40
2500.0,88.05443037974686,87.47989872394137,80.52796873303592,84.29096555108592,43.18893317285546,46.951929990905455,40
2580.0,89.05443037974686,88.49165960049754,81.12827559405012,85.13788888418179,43.35377071631575,47.36338400644742,40
2650.0,89.55443037974686,89.09371674145933,81.70520572954976,85.7750819629773,43.318634778482036,47.38851101190957,40
2720.0,89.55443037974686,89.37861672139195,82.04051142531411,86.26010692238273,43.11850979900922,47.33810529607784,40
2800.0,89.15443037974686,89.18380081046145,81.86335811046987,86.11849854152473,43.06530226893672,47.320442699991574,40
