Freq "On Axis"
22.4 33.45443037974687
23.0 33.05443037974686
23.6 32.55443037974686
24.0 31.954430379746867
25.0 32.354430379746844
25.8 33.154430379746856
26.5 33.854430379746844
27.2 34.354430379746844
28.0 34.354430379746844
29.0 34.354430379746844
30.0 34.654430379746856
30.7 37.654430379746856
31.5 39.95443037974687
32.5 41.45443037974687
33.5 42.354430379746844
34.5 43.05443037974686
35.5 45.05443037974686
36.5 49.05443037974686
37.5 51.354430379746844
38.7 53.654430379746856
40.0 55.654430379746856
41.2 57.354430379746844
42.5 59.45443037974687
43.7 61.05443037974686
45.0 63.05443037974686
46.2 64.55443037974686
47.5 66.35443037974684
48.7 67.95443037974685
50.0 70.95443037974687
51.5 73.05443037974686
53.0 75.15443037974686
54.5 76.85443037974686
56.0 78.75443037974685
58.0 80.35443037974686
60.0 81.85443037974686
61.5 83.35443037974686
63.0 84.55443037974686
65.0 85.45443037974685
67.0 85.85443037974686
69.0 86.15443037974686
71.0 86.45443037974685
73.0 86.45443037974685
75.0 86.65443037974686
77.5 86.95443037974685
80.0 87.15443037974686
82.5 87.35443037974687
85.0 87.25443037974685
87.5 87.95443037974685
90.0 87.75443037974685
92.5 88.05443037974686
95.0 88.25443037974685
97.5 87.95443037974685
100.0 88.55443037974686
103.0 88.45443037974687
106.0 88.55443037974686
109.0 88.15443037974686
112.0 88.15443037974686
115.0 88.05443037974686
118.0 88.15443037974686
122.0 88.25443037974685
125.0 88.35443037974686
128.0 88.35443037974686
132.0 88.15443037974686
136.0 87.95443037974685
140.0 87.75443037974685
145.0 87.55443037974686
150.0 87.45443037974684
155.0 87.55443037974686
160.0 87.85443037974686
165.0 88.05443037974686
170.0 88.15443037974686
175.0 88.35443037974686
180.0 88.55443037974686
185.0 88.75443037974685
190.0 89.05443037974686
195.0 89.15443037974686
200.0 89.25443037974685
206.0 89.05443037974686
212.0 88.55443037974686
218.0 87.55443037974686
224.0 87.65443037974686
230.0 87.95443037974685
236.0 87.85443037974686
240.0 87.75443037974685
250.0 87.65443037974686
258.0 87.75443037974685
265.0 87.85443037974686
272.0 88.05443037974686
280.0 88.55443037974686
290.0 89.05443037974686
300.0 89.15443037974686
307.0 88.85443037974684
315.0 88.55443037974686
325.0 88.75443037974685
335.0 88.55443037974686
345.0 88.35443037974686
355.0 87.95443037974685
365.0 87.75443037974685
375.0 87.65443037974686
387.0 87.85443037974686
400.0 88.45443037974687
412.0 89.25443037974685
425.0 89.65443037974686
437.0 89.35443037974686
450.0 87.65443037974686
462.0 86.15443037974686
475.0 85.15443037974686
487.0 85.05443037974686
500.0 85.45443037974685
515.0 85.85443037974686
530.0 86.85443037974686
545.0 87.35443037974687
560.0 87.45443037974684
580.0 87.35443037974687
600.0 87.15443037974686
615.0 86.65443037974686
630.0 87.05443037974686
650.0 87.45443037974684
670.0 87.25443037974685
690.0 87.05443037974686
710.0 87.65443037974686
730.0 87.95443037974685
750.0 87.95443037974685
775.0 88.35443037974686
800.0 88.75443037974685
825.0 88.65443037974686
850.0 88.55443037974686
875.0 88.25443037974685
900.0 87.95443037974685
925.0 87.75443037974685
950.0 88.35443037974686
975.0 88.35443037974686
1000.0 87.75443037974685
1030.0 87.95443037974685
1060.0 88.05443037974686
1090.0 88.05443037974686
1120.0 88.05443037974686
1150.0 88.05443037974686
1180.0 88.05443037974686
1220.0 88.05443037974686
1250.0 87.85443037974686
1280.0 87.15443037974686
1320.0 86.15443037974686
1360.0 86.45443037974685
1400.0 86.35443037974684
1450.0 86.65443037974686
1500.0 87.75443037974685
1550.0 89.05443037974686
1600.0 89.05443037974686
1650.0 88.35443037974686
1700.0 88.05443037974686
1750.0 87.45443037974684
1800.0 87.45443037974684
1850.0 88.35443037974686
1900.0 88.95443037974685
1950.0 88.35443037974686
2000.0 87.95443037974685
2060.0 87.75443037974685
2120.0 87.65443037974686
2180.0 87.75443037974685
2240.0 87.25443037974685
2300.0 87.55443037974686
2360.0 86.65443037974686
2400.0 86.75443037974685
2500.0 88.05443037974686
2580.0 89.05443037974686
2650.0 89.55443037974686
2720.0 89.55443037974686
2800.0 89.15443037974686
2900.0 88.15443037974686
3000.0 87.95443037974685
3070.0 86.95443037974685
3150.0 84.65443037974686
3250.0 83.95443037974685
3350.0 84.95443037974684
3450.0 86.45443037974685
3550.0 88.15443037974686
3650.0 88.45443037974687
3750.0 87.25443037974685
3870.0 84.55443037974686
4000.0 85.25443037974685
4120.0 86.05443037974686
4250.0 86.35443037974684
4370.0 86.35443037974684
4500.0 86.85443037974686
4620.0 88.15443037974686
4750.0 89.55443037974686
4870.0 90.05443037974686
5000.0 89.05443037974686
5150.0 87.65443037974686
5300.0 86.55443037974686
5450.0 85.25443037974685
5600.0 86.55443037974686
5800.0 87.45443037974684
6000.0 87.15443037974686
6150.0 86.55443037974686
6300.0 87.55443037974686
6500.0 88.35443037974686
6700.0 88.95443037974685
6900.0 89.25443037974685
7100.0 88.55443037974686
7300.0 86.65443037974686
7500.0 87.95443037974685
7750.0 89.05443037974686
8000.0 89.35443037974686
8250.0 88.85443037974684
8500.0 87.35443037974687
8750.0 87.95443037974685
9000.0 87.65443037974686
9250.0 87.75443037974685
9500.0 87.55443037974686
9750.0 88.15443037974686
10000.0 87.95443037974685
10300.0 87.75443037974685
10600.0 87.85443037974686
10900.0 87.45443037974684
11200.0 86.05443037974686
11500.0 84.95443037974684
11800.0 84.75443037974685
12200.0 87.05443037974686
12500.0 89.15443037974686
12800.0 87.95443037974685
13200.0 86.75443037974685
13600.0 85.55443037974686
14000.0 85.55443037974686
14500.0 85.75443037974685
15000.0 85.95443037974687
15500.0 85.75443037974685
16000.0 86.45443037974685
16500.0 86.85443037974686
17000.0 85.55443037974686
17500.0 83.35443037974686
18000.0 81.35443037974684
18500.0 78.55443037974686
19000.0 75.25443037974685
19500.0 74.35443037974686
20000.0 71.65443037974686
