Freq,On Axis,Listening Window,Sound Power,Early Reflections,Early Reflections DI,Sound Power DI,DI offset
20.5078,65.255,65.22799977898794,62.35020163696697,64.22024383226753,51.00775594672041,52.877798142020964,50
21.9727,66.00660000000002,65.97684358766708,63.099081661480284,64.97282736441315,51.00401622325393,52.87776192618679,50
23.4375,66.80190000000002,66.76651840900155,63.822478048302656,65.73062338412907,51.035895024872474,52.94404036069889,50
24.9023,67.60560000000001,67.56716121332332,64.58614571395884,66.51232138382622,51.0548398294971,52.981015499364474,50
26.3672,68.69829999999999,68.66076292130344,65.67794106130799,67.6119775731147,51.048785348188744,52.982821859995454,50
27.832,69.4043,69.36682772807548,66.38349046318098,68.31572472383954,51.05110300423594,52.9833372648945,50
29.2969,70.0336,69.99582784334083,67.01174421893424,68.94143353632093,51.054394307019905,52.984083624406594,50
30.7617,70.66910000000001,70.62811830091968,67.60857090388106,69.5578041123123,51.070314188607384,53.01954739703862,50
32.2266,71.6114,71.57002745985386,68.5393694030823,70.49633588142945,51.073691578424416,53.03065805677156,50
33.6914,72.1945,72.1515679440312,69.10550829847719,71.07073753791975,51.080830406111446,53.04605964555401,50
35.1562,72.9272,72.88058269246893,69.78086337549014,71.77955745056963,51.10102524189931,53.09971931697879,50
36.6211,73.6472,73.60098604574327,70.50035622122256,72.49258016516356,51.10840588057971,53.10062982452071,50
38.0859,74.3886,74.34132681548834,71.23064426618387,73.22761028889256,51.11371652659578,53.11068254930447,50
39.5508,74.8203,74.77234995347071,71.65710797217471,73.65902722203833,51.113322731432376,53.115241981295995,50
41.0156,75.51240000000001,75.46534095606069,72.35993174608629,74.35638185278384,51.108959103276845,53.1054092099744,50
42.4805,76.0291,75.97767831782362,72.81983683689859,74.84972955978559,51.12794875803803,53.15784148092503,50
43.9453,76.5624,76.51176873670488,73.36052173633182,75.38480395920462,51.12696477750026,53.15124700037306,50
45.4102,77.0199,76.96867154825321,73.81555834131395,75.83701248036036,51.131659067892855,53.15311320693927,50
46.875,77.4923,77.43811981783954,74.24612187807526,76.28737840761949,51.15074141022005,53.19199793976428,50
48.3398,78.0004,77.94973536270807,74.77807407349337,76.80630772897587,51.1434276337322,53.1716612892147,50
51.2695,78.9346,78.88006848569086,75.68813241296755,77.73225350695509,51.14781497873577,53.19193607272331,50
52.7344,79.4939,79.43598246744247,76.21148181213695,78.27802195917708,51.15796050826539,53.22450065530552,50
54.1992,79.8909,79.8311119791093,76.591339994331,78.66735359322124,51.16375838588806,53.2397719847783,50
55.6641,80.2425,80.17934914600528,76.89694152022842,78.98124842972133,51.198100716283946,53.282407625776855,50
58.5938,81.4634,81.39623337907078,78.04981583643044,80.1599871985756,51.23624618049517,53.34641754264034,50
60.0586,82.0033,81.93422628617165,78.56853506092723,80.69028944802545,51.2439368381462,53.36569122524442,50
62.9883,82.9185,82.84732956780428,79.46301352051206,81.59470560893521,51.252623958869066,53.38431604729222,50
64.4531,83.3597,83.28716483135395,79.89123889554928,82.02861727616762,51.258547555186325,53.39592593580467,50
67.3828,84.2661,84.18881844753722,80.74687484471596,82.90553727249724,51.283281175039974,53.441943602821254,50
68.8477,84.7482,84.66705038310313,81.1853336603375,83.36282649050591,51.30422389259722,53.481716722765626,50
71.7773,85.6265,85.54114905188334,82.00831972575682,84.21142176153533,51.329727290348,53.53282932612652,50
74.707,86.3981,86.31156710071824,82.7571342460899,84.96678754886317,51.34477955185507,53.55443285462833,50
77.6367,87.1724,87.08197888207829,83.49002379012886,85.71381658733937,51.36816229473892,53.59195509194943,50
79.1016,87.5216,87.42773052624,83.80258945058901,86.04183218759064,51.385898338649355,53.62514107565099,50
82.0312,88.07,87.96982749336709,84.28792613605576,86.55516312888007,51.414664364487024,53.68190135731133,50
84.9609,88.50639999999999,88.40353081264277,84.68311954616364,86.96827897011143,51.43525184253134,53.72041126647913,50
87.8906,88.6563,88.5509001325423,84.81150813035651,87.10179977611246,51.44910035642984,53.73939200218578,50
90.8203,88.8166,88.70283709982067,84.88192147311305,87.20975707544966,51.49308002437101,53.82091562670762,50
95.2148,88.6729,88.54886731174933,84.6193143849309,86.99821473549494,51.55065257625439,53.92955292681843,50
98.1445,88.46119999999999,88.32709165609093,84.3037226451022,86.7278573403576,51.59923431573333,54.02336901098873,50
101.074,88.232,88.0867117533739,83.93978605502045,86.42732464335435,51.65938711001955,54.146925698353456,50
105.469,88.627,88.47544847108088,84.2144164599651,86.76502505440928,51.7104234166716,54.26103201111579,50
108.398,89.24109999999999,89.10895416300333,85.01141930535167,87.47293805219044,51.63601611081289,54.09753485765167,50
112.793,89.663,89.54560367022002,85.59783445675731,87.95829378852878,51.58730988169124,53.947769213462706,50
117.188,89.3697,89.2391111365445,85.16313581702316,87.57727977660318,51.66183135994132,54.07597531952133,50
120.117,89.4077,89.2688592072832,85.09900519209717,87.56012783166808,51.708731375615116,54.16985401518603,50
124.512,89.826,89.68371450685339,85.45803357724475,87.948723280336,51.734991226517394,54.22568092960864,50
128.906,89.8114,89.67820216787229,85.54334579469814,87.9686423562694,51.70955981160289,54.134856373174145,50
133.301,89.6267,89.48107680336709,85.23883266721913,87.70242726389196,51.778649539475126,54.24224413614796,50
139.16,89.515,89.35533494743984,84.94400387474306,87.49268606151811,51.86264888592173,54.41133107269678,50
143.555,89.20659999999998,89.04575726945862,84.62993808570866,87.17710208317769,51.86865518628093,54.41581918374996,50
147.949,89.0318,88.85972524457499,84.34905018844302,86.92530025025565,51.93442499431934,54.51067505613197,50
153.809,89.32839999999999,89.13566317456656,84.37214823969188,87.05909192612934,52.07657124843722,54.76351493487468,50
159.668,89.6848,89.47633679814248,84.51190005620032,87.29511734087518,52.181219457267304,54.964436741942166,50
165.527,89.886,89.67290995578564,84.61374470968155,87.46236157999664,52.210548375789,55.05916524610409,50
171.387,89.7518,89.53690459986971,84.46201491508043,87.30989440704005,52.22701019282967,55.074889684789284,50
177.246,89.709,89.49094834973317,84.35115046440953,87.23046631357849,52.260482036154684,55.139797885323645,50
183.105,88.97630000000001,88.7595885227754,83.68871578712599,86.5337897006236,52.2257988221518,55.07087273564942,50
188.965,89.2038,88.95551231394985,83.58760983574508,86.56317669368083,52.39233562026902,55.36790247820477,50
196.289,90.1635,89.9006592496758,84.24534379892299,87.37794077050982,52.522718479165974,55.65531545075281,50
203.613,89.78189999999998,89.5402262450106,84.03882087742682,87.11988040637667,52.420345838633935,55.501405367583786,50
210.938,90.254,90.0140299042005,84.45672539066312,87.55089593851037,52.46313396569013,55.557304513537375,50
218.262,91.305,91.05668014629748,85.34692849527738,88.48193258704987,52.57474755924761,55.7097516510201,50
225.586,92.0593,91.80272031561229,86.03473137663318,89.17078680495577,52.63193351065652,55.767988938979116,50
232.91,92.1887,91.93721957251927,86.19122948888395,89.31732756256665,52.61989200995262,55.74599008363532,50
241.699,91.8845,91.62677812003642,85.89870795070198,89.01130802760274,52.61547009243368,55.728070169334444,50
250.488,91.6604,91.40740985833327,85.73124581237825,88.81753785078185,52.58987200755142,55.67616404595502,50
259.277,92.49369999999999,92.19604052653943,86.18794661661619,89.49148963004751,52.704550896491924,56.00809390992325,50
268.066,92.18789999999998,91.936933941297,86.29766335763264,89.47409481776242,52.46283912353458,55.639270583664356,50
276.855,91.6112,91.3631382626433,85.98865998436862,89.13363740678966,52.229500855853644,55.37447827827468,50
287.109,92.4154,92.12067554461831,86.38312129922633,89.61179309344863,52.50888245116968,55.737554245391976,50
297.363,92.0802,91.79447605077257,86.17013710737797,89.401915256292,52.39256079448057,55.624338943394605,50
307.617,92.7264,92.43834924735506,86.6080670467809,89.80876950282581,52.62957974452925,55.83028220057416,50
319.336,91.9796,91.71008604946846,86.02619821083417,89.17677878593909,52.533307263529366,55.68388783863429,50
329.59,92.4087,92.1436795063884,86.47817602115046,89.77069103488898,52.37298847149941,55.665503485237934,50
341.309,93.2659,92.98479483482741,87.34412648812938,90.6945207307236,52.290274104103815,55.640668346698035,50
353.027,93.5348,93.26604390496385,87.7513317475983,91.11165491315626,52.15438899180759,55.51471215736555,50
366.211,93.5233,93.29829351356577,87.98577770348514,91.08761173574521,52.210681777820554,55.312515810080626,50
379.395,92.40620000000001,92.17333492597666,87.26034081681394,90.23735470382432,51.93598022215234,54.912994109162724,50
392.578,92.7096,92.51613026924053,87.44733842091466,90.3832623016228,52.13286796761773,55.06879184832587,50
405.762,91.9521,91.8515657020395,87.37758973211675,90.34215272119769,51.5094129808418,54.47397596992275,50
420.41,92.04239999999999,91.85171862520971,87.51572262400481,91.00384787353089,50.847870751678826,54.335996001204904,50
435.059,92.7347,92.49232580147782,88.08058639702276,91.41944530333218,51.072880498145636,54.41173940445506,50
451.172,94.1047,93.8013273728304,88.29850236618799,91.69363428294,52.107693089890404,55.50282500664241,50
465.82,92.7073,92.4641084603517,87.41032717833745,90.29959777177498,52.16451068857671,55.05378128201424,50
483.398,92.9408,92.64981901663612,87.56144570736835,91.00735417315028,51.64246484348584,55.088373309267766,50
499.512,91.80019999999999,91.65974079404793,87.61235202699983,90.63284881613673,51.026891977911205,54.047388767048105,50
517.09,91.7613,91.51311536792899,87.78067784022429,90.82468930661572,50.688426061313265,53.732437527704704,50
536.133,93.1539,92.78109992942638,87.44601643923272,90.88596685392386,51.895133075502514,55.335083490193654,50
555.176,92.2207,91.92662284499033,87.1286493737602,90.1374693733477,51.789153471642635,54.79797347123014,50
574.219,92.8089,92.46267072099475,87.74812197860196,90.92956256006444,51.53310816093031,54.71454874239279,50
594.727,92.3169,91.9724095478458,87.34410898000627,90.04123077452849,51.93117877331731,54.62830056783953,50
615.234,92.2048,91.75695667613515,87.39851466305221,90.59552626825231,51.16143040788283,54.358442013082936,50
637.207,92.983,92.48088243525373,87.22475357608789,90.4899939156904,51.99088851956333,55.25612885916584,50
659.18,91.4036,91.07220841584629,86.85217349573345,90.1229531458454,50.94925527000089,54.22003492011284,50
682.617,91.5012,91.10863470286162,86.8932696547145,89.9491293217368,51.159505381124816,54.21536504814712,50
707.52,90.8167,90.54798039121786,85.92288580773395,89.18046025544125,51.367520135776616,54.625094583483914,50
732.422,90.746,90.3836541530905,86.43477184561303,89.56382820184307,50.81982595124744,53.948882307477476,50
757.324,90.8322,90.65340284055307,86.90773488771758,90.3592043350919,50.29419850546117,53.74566795283549,50
785.156,92.8973,92.2717450692805,86.91280552060326,90.32108104603064,51.95066402324986,55.35893954867724,50
811.523,92.1135,91.61017077997616,87.1334484332759,90.42074972832128,51.189421051654875,54.47672234670026,50
840.82,88.2723,89.09690045209302,86.60798861930654,89.15767384465641,49.93922660743661,52.488911832786485,50
870.117,92.56380000000001,91.76329018725339,86.85472915813254,90.42688469163173,51.33640549562166,54.90856102912085,50
900.879,91.8561,91.36824216951577,86.81339070530927,90.00952114738826,51.35872102212751,54.55485146420649,50
933.105,91.68199999999999,91.43468928935425,86.87575808581937,89.90578711315716,51.52890217619709,54.55893120353488,50
965.332,93.02419999999998,92.17983868947968,86.68675279698729,89.77289175096284,52.40694693851684,55.49308589249239,50
1000.49,91.1569,91.01257826240972,86.57131073375089,89.9680233550661,51.044554907343624,54.44126752865883,50
1035.64,89.8078,89.95156848411038,85.97880774039979,88.49004811125936,51.46152037285103,53.972760743710595,50
1072.27,92.34710000000001,91.00420994017873,85.99313530550474,88.85918221991281,52.145027720265915,55.01107463467399,50
1108.89,91.73169999999999,90.92429643402107,85.86554713086873,88.88809678482421,52.03619964919686,55.05874930315234,50
1148.44,89.4812,89.3206199218771,85.5208855420139,88.2069494821658,51.1136704397113,53.799734379863196,50
1189.45,90.9651,90.57183629649717,86.18267593865332,89.11785659571319,51.453979700783975,54.38916035784385,50
1230.47,90.5929,90.69436107522233,85.85008009446126,88.60504896801145,52.08931210721089,54.84428098076107,50
1274.41,91.1982,90.6017811134301,85.80837812586329,88.57583746182262,52.02594365160749,54.79340298756682,50
1319.82,90.9682,90.32680130915679,85.12580304701724,88.03621361375359,52.290587695403204,55.20099826213955,50
1366.7,89.2688,89.72808570897544,85.38983984998185,87.68192461406957,52.04616109490587,54.33824585899359,50
1413.57,89.17150000000001,89.63379020252819,85.13571555125455,87.78114404916755,51.85264615336064,54.49807465127364,50
1463.38,87.4409,89.1219178970598,85.89085824559734,88.10773135152556,51.014186545534244,53.23105965146246,50
1516.11,88.98930000000001,90.2490653905141,85.60959590643085,88.36722007434678,51.88184531616733,54.63946948408325,50
1568.85,89.0964,89.51994668289784,85.04981595575917,87.94909555839814,51.5708511244997,54.47013072713867,50
1624.51,87.9889,90.09595916167112,85.72070663569124,88.75158846720836,51.344370694462754,54.375252525979874,50
1681.64,88.8336,89.14898305637057,84.39387148367516,87.06989051833278,52.079092538037784,54.75511157269541,50
1741.7,90.2374,91.37756032011372,85.31916083738662,88.18924136164074,53.188318958472976,56.0583994827271,50
1803.22,90.98399999999998,91.7330965735295,85.86698425396588,88.46771543444692,53.26538113908258,55.86611231956361,50
1866.21,91.3443,91.63391760852124,85.23827742595111,88.09646828041835,53.537449328102895,56.39564018257013,50
1932.13,89.5468,90.65501278045554,84.37799845421861,87.17290915067173,53.48210362978381,56.27701432623692,50
1999.51,90.9349,91.13574069969528,84.25392536585007,87.12174275499363,54.01399794470164,56.88181533384521,50
2069.82,92.1478,92.14890173227691,84.62833219415984,87.83690278325237,54.31199894902454,57.52056953811707,50
2143.07,92.1816,92.24124278902902,84.7519356437282,87.86277757593406,54.378465213094955,57.48930714530081,50
2219.24,92.2244,91.79042610746028,84.16508614149234,87.27920424759778,54.5112218598625,57.62533996596794,50
2296.88,92.7294,91.97764824912265,84.34136538368506,87.25035128509401,54.72729696402864,57.63628286543759,50
2378.91,93.744,92.61474023371987,84.83797517447077,87.69213740269726,54.922602831022616,57.7767650592491,50
2462.4,92.9285,91.81822547910883,84.76753074672818,87.16713300570332,54.65109247340551,57.05069473238065,50
2548.83,93.3543,91.94630948753749,84.85160620767095,87.16870359120554,54.77760589633195,57.094703279866536,50
2639.65,93.6627,91.98745575720818,84.92166466577524,87.36612904978226,54.62132670742592,57.06579109143294,50
2731.93,93.6381,91.58106536830066,84.47431279049317,87.3527635983809,54.22830176991975,57.106752577807484,50
2828.61,94.1418,92.24306955684503,85.13816143768193,88.08646491896434,54.15660463788069,57.1049081191631,50
2928.22,93.9932,92.33226415685506,85.18703540516792,88.26442967717436,54.0678344796807,57.14522875168714,50
3030.76,93.1338,91.94624382029136,84.9308818639276,88.09475666356205,53.851487156729306,57.01536195636376,50
3137.7,93.4665,92.28406879099794,85.29635002012354,88.42921349447364,53.85485529652429,56.987718770874395,50
3249.02,93.411,92.36044206108835,85.28649492130066,88.65901368418189,53.70142837690646,57.07394713978769,50
3363.28,92.9225,92.04026869096728,85.1021514128116,88.754351420593,53.285917270374284,56.93811727815569,50
3481.93,92.7733,92.13508735426328,85.51995197358133,88.96009134743171,53.17499600683156,56.61513538068195,50
3604.98,92.2169,91.94456259218978,85.36603341834432,88.97943496244037,52.96512762974942,56.57852917384547,50
3732.42,90.9927,91.49374420727625,85.35842175821396,88.65961677585189,52.83412743142436,56.135322449062286,50
3864.26,90.8732,91.77008234689956,85.42593756663567,88.81160619869206,52.958476148207495,56.34414478026389,50
4000.49,91.3166,91.74425859798686,85.17028350484796,88.82576122243856,52.9184973755483,56.5739750931389,50
4141.11,91.5849,91.63903429342439,84.90139923651071,88.808002586108,52.831031707316384,56.737635056913675,50
4287.6,91.7862,91.60676785000746,84.96865129387425,88.65828023587464,52.948487614132816,56.63811655613321,50
4438.48,91.8271,91.37387860248371,84.7553275999879,88.22631959185853,53.14755901062519,56.61855100249582,50
4595.21,92.5755,92.03568603120505,85.11234801800454,88.57033896043367,53.46534707077137,56.92333801320051,50
4756.35,92.8023,91.7435984077461,84.92628829851004,88.22313368666467,53.52046472108144,56.81731010923606,50
4924.8,93.4763,92.23108546552325,85.16878308546265,88.54118994145591,53.68989552406734,57.0623023800606,50
5097.66,93.0411,91.89169825669899,84.72276614613332,88.29378203038797,53.597916226311014,57.16893211056566,50
5277.83,92.9128,92.04238307071675,84.83648747486703,88.59565572729531,53.44672734342144,57.205895595849725,50
5463.87,92.5847,91.75808788464539,84.64225909923678,88.52030660103719,53.2377812836082,57.11582878540861,50
5657.23,92.3614,91.5583782578895,84.7386131922973,88.61495331749063,52.94342494039887,56.81976506559221,50
5856.45,90.858,90.86081545883393,84.27708912855343,88.1477218294609,52.71309362937302,56.5837263302805,50
6062.99,89.6025,90.7791007735836,84.38860235876415,88.04122809532186,52.73787267826174,56.39049841481945,50
6276.86,89.25970000000001,90.8598581122884,84.37400210803133,87.90129730848793,52.95856080380048,56.48585600425707,50
6498.05,89.34480000000002,90.33662982770583,83.89040084817961,87.53729706757638,52.79933276012946,56.446228979526225,50
6726.56,90.10810000000001,90.62159851522138,83.72329253333888,87.43744225878179,53.18415625643959,56.8983059818825,50
6963.87,90.9956,90.898437462939,83.96586751873078,87.67872409268496,53.21971337025404,56.932569944208225,50
7209.96,90.7816,90.50547991043544,83.78913691638819,87.56785926940991,52.93762064102553,56.71634299404725,50
7464.84,90.87119999999999,90.4340449723692,83.48734130530104,87.24741209754035,53.186632874828845,56.94670366706815,50
7727.05,90.428,90.26826369597912,82.95778392270802,86.93620926083807,53.332054435141046,57.3104797732711,50
7999.51,91.0979,90.46926965239653,82.99347473121357,87.19925124254348,53.27001840985305,57.47579492118297,50
8282.23,90.5929,90.2714643171391,83.11537499340011,87.16191979734175,53.10954451979735,57.156089323738996,50
8573.73,90.5534,90.17741098671617,82.89744379334175,86.9782128927321,53.199198093984066,57.27996719337442,50
8876.95,90.4729,90.16683769130654,82.75221211939439,86.97737225362937,53.18946543767717,57.414625571912154,50
9188.96,90.8187,90.29028354566026,82.85536210296168,87.02219333495573,53.26809021070453,57.43492144269858,50
9514.16,91.5394,90.58154660795627,83.09893096993505,87.17475914859514,53.40678745936113,57.482615638021215,50
9849.61,91.353,90.65269497709546,82.99843013831644,87.13730239734237,53.5153925797531,57.65426483877903,50
10196.8,91.054,90.46847251769901,82.6634213473495,86.86719653988474,53.60127597781427,57.805051170349515,50
10555.7,91.40780000000001,90.49707531077472,82.58909019606713,86.80832427070142,53.6887510400733,57.907985114707586,50
10927.7,91.45440000000002,90.500257018009,82.20888738390909,86.52951780558604,53.970739212422956,58.29136963409991,50
11313.0,91.1554,90.27034399869993,81.78520296974122,86.16500283933729,54.10534115936264,58.48514102895871,50
11712.9,91.05860000000001,89.91871302369347,81.59257582825393,85.9515827114421,53.96713031225137,58.32613719543954,50
12126.0,90.8107,89.79920783689418,81.51929401061447,85.8924509202275,53.90675691666668,58.27991382627971,50
