Freq "Sound Power"
20.5078 62.35020163696696
21.9727 63.0990816614803
23.4375 63.82247804830264
24.9023 64.58614571395886
26.3672 65.67794106130798
27.832 66.38349046318099
29.2969 67.01174421893425
30.7617 67.60857090388104
32.2266 68.53936940308232
33.6914 69.10550829847719
35.1562 69.78086337549014
36.6211 70.50035622122256
38.0859 71.23064426618387
39.5508 71.65710797217473
41.0156 72.3599317460863
42.4805 72.8198368368986
43.9453 73.36052173633182
45.4102 73.81555834131395
46.875 74.24612187807524
48.3398 74.77807407349339
51.2695 75.68813241296753
52.7344 76.21148181213694
54.1992 76.591339994331
55.6641 76.89694152022842
58.5938 78.04981583643044
60.0586 78.56853506092723
62.9883 79.46301352051206
64.4531 79.89123889554928
67.3828 80.74687484471595
68.8477 81.18533366033752
71.7773 82.00831972575682
74.707 82.75713424608989
77.6367 83.49002379012886
79.1016 83.802589450589
82.0312 84.28792613605576
84.9609 84.68311954616362
87.8906 84.81150813035651
90.8203 84.88192147311304
95.2148 84.61931438493089
98.1445 84.30372264510218
101.074 83.93978605502045
105.469 84.21441645996511
108.398 85.01141930535167
112.793 85.5978344567573
117.188 85.16313581702316
120.117 85.09900519209715
124.512 85.45803357724475
128.906 85.54334579469814
133.301 85.23883266721913
139.16 84.94400387474307
143.555 84.62993808570866
147.949 84.34905018844302
153.809 84.37214823969188
159.668 84.51190005620032
165.527 84.61374470968155
171.387 84.46201491508043
177.246 84.35115046440953
183.105 83.68871578712599
188.965 83.58760983574507
196.289 84.24534379892297
203.613 84.0388208774268
210.938 84.45672539066312
218.262 85.34692849527738
225.586 86.03473137663316
232.91 86.19122948888393
241.699 85.89870795070199
250.488 85.73124581237825
259.277 86.18794661661617
268.066 86.29766335763266
276.855 85.98865998436861
287.109 86.38312129922633
297.363 86.17013710737795
307.617 86.6080670467809
319.336 86.02619821083417
329.59 86.47817602115047
341.309 87.34412648812938
353.027 87.75133174759831
366.211 87.98577770348513
379.395 87.26034081681394
392.578 87.44733842091466
405.762 87.37758973211673
420.41 87.51572262400481
435.059 88.08058639702276
451.172 88.29850236618799
465.82 87.41032717833745
483.398 87.56144570736835
499.512 87.61235202699983
517.09 87.78067784022429
536.133 87.44601643923272
555.176 87.12864937376018
574.219 87.74812197860194
594.727 87.34410898000627
615.234 87.39851466305221
637.207 87.22475357608789
659.18 86.85217349573345
682.617 86.8932696547145
707.52 85.92288580773393
732.422 86.43477184561303
757.324 86.90773488771758
785.156 86.91280552060327
811.523 87.13344843327592
840.82 86.60798861930654
870.117 86.85472915813254
900.879 86.81339070530927
933.105 86.87575808581937
965.332 86.68675279698729
1000.49 86.5713107337509
1035.64 85.9788077403998
1072.27 85.99313530550474
1108.89 85.86554713086873
1148.44 85.52088554201391
1189.45 86.18267593865333
1230.47 85.85008009446126
1274.41 85.80837812586329
1319.82 85.12580304701724
1366.7 85.38983984998185
1413.57 85.13571555125455
1463.38 85.89085824559734
1516.11 85.60959590643087
1568.85 85.04981595575917
1624.51 85.72070663569124
1681.64 84.39387148367517
1741.7 85.3191608373866
1803.22 85.86698425396588
1866.21 85.2382774259511
1932.13 84.37799845421861
1999.51 84.25392536585007
2069.82 84.62833219415985
2143.07 84.75193564372819
2219.24 84.16508614149234
2296.88 84.34136538368507
2378.91 84.83797517447077
2462.4 84.76753074672817
2548.83 84.85160620767097
2639.65 84.92166466577524
2731.93 84.47431279049316
2828.61 85.13816143768193
2928.22 85.18703540516792
3030.76 84.93088186392761
3137.7 85.29635002012354
3249.02 85.28649492130064
3363.28 85.1021514128116
3481.93 85.51995197358133
3604.98 85.36603341834432
3732.42 85.35842175821396
3864.26 85.42593756663567
4000.49 85.17028350484796
4141.11 84.9013992365107
4287.6 84.96865129387423
4438.48 84.7553275999879
4595.21 85.11234801800454
4756.35 84.92628829851004
4924.8 85.16878308546265
5097.66 84.72276614613332
5277.83 84.83648747486704
5463.87 84.64225909923678
5657.23 84.7386131922973
5856.45 84.27708912855344
6062.99 84.38860235876413
6276.86 84.37400210803135
6498.05 83.8904008481796
6726.56 83.72329253333889
6963.87 83.96586751873078
7209.96 83.78913691638817
7464.84 83.48734130530106
7727.05 82.95778392270802
7999.51 82.99347473121355
8282.23 83.1153749934001
8573.73 82.89744379334175
8876.95 82.7522121193944
9188.96 82.85536210296168
9514.16 83.09893096993507
9849.61 82.99843013831644
10196.8 82.6634213473495
10555.7 82.58909019606713
10927.7 82.20888738390909
11313.0 81.78520296974122
11712.9 81.59257582825393
12126.0 81.51929401061447
12553.7 81.26053721893174
12996.1 80.98503788900064
13454.6 80.56120119347459
13929.2 80.6030777295081
14419.9 80.64999287503001
14928.2 80.54287205232025
15455.6 80.22588131652728
16000.5 79.81606366086795
16564.5 79.53821062773478
17148.9 79.29587647409683
17752.4 78.62137787603774
18379.4 77.6634354606652
19026.9 76.5865168342712
19697.8 75.58857678811627
19999.5 74.96297210831882
