Freq "Side Wall Bounce"
20.5078 39.439612999999994
21.9727 40.961612999999986
23.4375 42.34961299999999
24.9023 43.521613999999985
26.3672 44.896613999999985
27.832 46.21861299999999
29.2969 47.493613999999994
30.7617 48.742611
32.2266 49.97361399999998
33.6914 51.15861099999999
35.1562 52.265614
36.6211 53.15661200000001
38.0859 54.22761200000001
39.5508 55.287609
41.0156 56.321613
42.4805 57.32960899999999
43.9453 58.311610999999985
45.4102 59.269611
46.875 60.04861100000001
48.3398 60.96061300000001
51.2695 62.700610999999995
52.7344 63.517612
54.1992 64.277611
55.6641 65.00560799999998
58.5938 66.207611
60.0586 66.77861
62.9883 67.729607
64.4531 68.116608
67.3828 68.71560699999999
68.8477 68.997612
71.7773 69.48461200000001
74.707 69.865608
77.6367 70.12661
79.1016 70.239609
82.0312 70.414612
84.9609 70.536606
87.8906 70.61161
90.8203 70.660606
95.2148 70.700607
98.1445 70.705612
101.074 70.694611
105.469 70.64061
108.398 70.59060699999999
112.793 70.503609
117.188 70.44361099999999
120.117 70.425606
124.512 70.41160600000002
128.906 70.40061200000001
133.301 70.36261
139.16 70.239609
143.555 70.156609
147.949 70.094612
153.809 70.049606
159.668 70.008606
165.527 69.913612
171.387 69.721611
177.246 69.49661299999998
183.105 69.374611
188.965 69.350609
196.289 69.261612
203.613 69.103607
210.938 69.03961200000002
218.262 68.957611
225.586 68.790611
232.91 68.69060499999999
241.699 68.586609
250.488 68.44760900000001
259.277 68.43161
268.066 68.535606
276.855 68.65361
287.109 68.624611
297.363 68.436607
400.0 67.54208601723074
412.0 67.49096827313299
425.0 67.4400945869955
437.0 67.39866912392557
450.0 67.36086345523451
462.0 67.3333099763666
475.0 67.31195208774088
487.0 67.30029397958936
500.0 67.29634353638876
515.0 67.30203542146582
530.0 67.31806841190455
545.0 67.34233694506106
560.0 67.37328336836599
580.0 67.42052597543223
600.0 67.46948457115815
615.0 67.50395293009664
630.0 67.53382835424837
650.0 67.5638684876442
670.0 67.57939309785048
690.0 67.57925684485387
710.0 67.56346704556954
730.0 67.53386026771176
750.0 67.49357526216775
775.0 67.43332634156089
800.0 67.36829556014386
825.0 67.30240750192466
850.0 67.23569301239073
875.0 67.16405339934839
900.0 67.08087367498086
925.0 66.97885742476245
950.0 66.85214493167221
975.0 66.69871757311611
1000.0 66.52198249949194
1030.0 66.29134017709758
1060.0 66.06209892156807
1090.0 65.85973437016506
1120.0 65.70416696403844
1150.0 65.60114312587075
1180.0 65.54063706965543
1220.0 65.48939090278107
1250.0 65.44320407010808
1280.0 65.37166529498556
1320.0 65.22532108334927
1360.0 65.02511961431877
1400.0 64.78931026712749
1450.0 64.47832186006984
1500.0 64.18029978148766
1550.0 63.90830076042961
1600.0 63.65476911916966
1650.0 63.394139288270466
1700.0 63.08386796943107
1750.0 62.67493744306468
1800.0 62.13974292307519
1850.0 61.51206408549099
1900.0 60.92824288060888
1950.0 60.61208934068917
2000.0 60.73806273157065
2060.0 61.415723785404964
2120.0 62.35965899674157
2180.0 63.28067109268497
2240.0 64.01198327724963
2300.0 64.48456257722418
2360.0 64.7164441277689
2430.0 64.78897530104511
2500.0 64.75569109841324
2580.0 64.61728875243917
2650.0 64.41825672654318
2720.0 64.19716594640775
2800.0 63.94874580677397
2900.0 63.675779561004404
3000.0 63.513390824080645
3070.0 63.381199291957984
3150.0 63.20384123525173
3250.0 63.03456862687291
3350.0 62.63112586738225
3450.0 62.06515781579654
3550.0 61.95117175851436
3650.0 63.2576711117439
3750.0 65.7676973522931
3870.0 67.83063715275414
4000.0 68.42940203006732
4120.0 68.2122990586273
4250.0 67.80852826723816
4370.0 67.46154150592905
4500.0 67.16458574356601
4620.0 67.05665173084004
4750.0 67.08231239478968
4870.0 67.13681546777643
5000.0 67.42580804106866
5150.0 67.58062308862283
5300.0 67.55444695900948
5450.0 67.03457341972351
5600.0 66.47668620215585
5800.0 65.73304507977724
6000.0 65.69722871566078
6150.0 66.02095752918926
6300.0 66.30250278012787
6500.0 66.31800898199053
6700.0 66.51567922179454
6900.0 66.700614360591
7100.0 66.4992616974915
7300.0 66.1503952720757
7500.0 65.82736689037414
7750.0 65.54312354457282
8000.0 65.30806047461617
8250.0 64.74399664064633
8500.0 64.37512262381505
8750.0 64.92365774246242
9000.0 66.15360885204412
9250.0 66.57099751789929
9500.0 66.14801348272181
9750.0 65.88672271010448
10000.0 65.76646571234284
10300.0 65.17393965672952
10600.0 65.18603407278556
10900.0 64.90595135798458
11200.0 64.28709991726383
11500.0 63.732629715360574
11800.0 64.42079046855103
12200.0 63.357731201228674
12500.0 62.69616324146375
12800.0 62.84828647324376
13200.0 61.77977267420545
13600.0 60.55095259629765
14000.0 59.89826129286094
14500.0 58.35598436212909
15000.0 57.54426681112426
15500.0 55.65393778403747
16000.0 57.42672051172376
16500.0 58.28713033144301
17000.0 58.25464538540548
17500.0 57.26991456364986
18000.0 56.952480266248756
18500.0 56.13273615601459
19000.0 55.519319938944605
19500.0 54.92727361981409
