Freq "Rear Wall Bounce"
20.5078 75.19406733547713
21.9727 78.20105276290838
23.4375 79.83121972821209
24.9023 82.48049565637454
26.3672 85.26021019121362
27.832 87.93284566525551
29.2969 90.23356059304136
30.7617 91.4295691631329
32.2266 91.56709874019081
33.6914 91.56668379223788
35.1562 91.73705314701809
36.6211 92.21671821863121
38.0859 93.07075638037674
39.5508 94.18754788066524
41.0156 95.61507747560267
42.4805 96.83792668757373
43.9453 97.86411477853176
45.4102 98.42963151038505
46.875 98.60377208951888
48.3398 98.43453153392741
51.2695 97.78392169668673
52.7344 97.53996762197627
54.1992 97.34817894334655
55.6641 97.23904939945268
58.5938 97.2098489830313
60.0586 97.23902897797484
62.9883 97.3458475827635
64.4531 97.39060290686959
67.3828 97.45749995361986
68.8477 97.48004485626339
71.7773 97.52092040713893
74.707 97.50999876573229
77.6367 97.40787600745551
79.1016 97.33507298985688
82.0312 97.1534419338197
84.9609 96.91816087759364
87.8906 96.65279166023339
90.8203 96.33468914315887
95.2148 95.85354363237474
98.1445 95.5121547991752
101.074 95.19374914530559
105.469 94.67276951102225
108.398 94.61590986409605
112.793 94.4630995805766
117.188 94.15920916527233
120.117 94.03301464420741
124.512 93.89040222277407
128.906 93.81644414337212
133.301 93.68400639644183
139.16 93.50605388452436
143.555 93.4044157755343
147.949 93.3165798839514
153.809 93.26628353855008
159.668 93.39094030154992
165.527 93.68135670206203
171.387 93.81553614323597
177.246 94.08516479881959
183.105 93.95751273134897
188.965 92.77037312584451
196.289 92.25592108192704
203.613 92.28668526618567
210.938 92.3844371968926
218.262 92.32512853443012
225.586 92.52754254696222
232.91 92.12606408346812
241.699 92.09992549445646
250.488 92.17018052122394
259.277 92.19083701197415
268.066 92.30641487202388
276.855 92.01742347528017
287.109 91.84381990859842
297.363 92.2659923733512
307.617 92.08799929584765
319.336 91.74425405445558
329.59 91.60043532666764
341.309 91.81852434490622
353.027 91.09332300003229
366.211 90.8571653680963
379.395 90.57954654177716
392.578 91.72265489670346
405.762 91.73133799017882
420.41 90.88634052963083
435.059 90.72625701601032
451.172 90.76023496333781
465.82 91.08183497598739
483.398 91.15742981210612
499.512 90.83240149887179
517.09 90.6066333677064
536.133 90.48311787423553
555.176 90.13736203764215
574.219 89.73267870513021
594.727 90.00663175859374
615.234 89.85379751373367
637.207 89.33384159275874
659.18 88.53857360206494
682.617 88.06548457490284
707.52 89.25501107815654
732.422 89.27420976570762
757.324 88.35827467053974
785.156 88.10183086461157
811.523 88.17670761118337
840.82 87.15690578427314
870.117 86.11691788579188
900.879 86.00128389639283
933.105 87.2732416723728
965.332 85.55833602480004
1000.49 87.21099482897027
1035.64 84.45679325390482
1072.27 86.33882720209954
1108.89 83.84842143880732
1148.44 82.34789469581611
1189.45 82.34955326706485
1230.47 81.50938947253881
1274.41 83.31135964788346
1319.82 84.49626140307984
1366.7 85.28576352100744
1413.57 84.59687129824562
1463.38 83.82386849018573
1516.11 82.30816193768207
1568.85 82.71290150694911
1624.51 83.41299336029437
1681.64 81.93893857068635
1741.7 82.3664983606069
1803.22 82.60415528825855
1866.21 83.07022338312353
1932.13 82.74864153862859
1999.51 82.58577698215882
2069.82 82.1918714032557
2143.07 80.67541956710112
2219.24 79.70251560475845
2296.88 78.57211593338661
2378.91 77.24229020119856
2462.4 76.65981255622972
2548.83 76.17668857861077
2639.65 75.87368960598414
2731.93 75.64005039605271
2828.61 75.297413861326
2928.22 75.61577557591227
3030.76 76.743659864408
3137.7 77.35694968693667
3249.02 77.79758095506673
3363.28 77.65595511287299
3481.93 77.17888499553683
3604.98 77.68188046184947
3732.42 77.7139210595843
3864.26 76.63567005936888
4000.49 75.89022152266725
4141.11 75.01353144341846
4287.6 74.03570615975283
4438.48 74.02485131275944
4595.21 72.50020407852912
4756.35 73.84497915193887
4924.8 73.52092662284026
5097.66 74.27268185789248
5277.83 74.20449248067567
5463.87 74.86952759556766
5657.23 76.6559365020696
5856.45 74.85795020088067
6062.99 75.88878192818215
6276.86 75.4376050334012
6498.05 74.53838947264903
6726.56 74.59523162806545
6963.87 74.53423292319125
7209.96 73.5152168534439
7464.84 73.62714259234059
7727.05 73.12123482190009
7999.51 74.24401729934817
8282.23 75.19795796380737
8573.73 75.60829451515224
8876.95 74.89387869891434
9188.96 74.59789093883737
9514.16 73.07047975185336
9849.61 72.8543038421412
10196.8 72.37831224633169
10555.7 72.29154423246788
10927.7 72.50334774292381
11313.0 71.93369964351186
11712.9 71.41661907658099
12126.0 70.48243311727856
12553.7 69.17182483168651
12996.1 68.35610479011333
13454.6 69.08648425768192
13929.2 68.72580808271721
14419.9 68.2972348632515
14928.2 66.0542855817975
15455.6 63.778154149504076
16000.5 61.26604883508483
16564.5 56.44239727155565
17148.9 53.817298725579604
17752.4 53.31699993509264
18379.4 50.806088404118896
19026.9 48.29194079988531
19697.8 51.548164356512075
19999.5 56.610663848353994
