Freq "Sound Power"
22.4 14.966138763575074
23.0 16.608513828191107
23.6 17.80302075999394
24.0 18.046126232412334
25.0 19.199628879675956
25.8 20.6982399400013
26.5 22.499842052544594
27.2 25.336773149069998
28.0 28.110385616521782
29.0 30.927673078087636
30.0 32.90753699851503
30.7 33.41097327957898
31.5 34.56712353730343
32.5 35.927258892652574
33.5 38.31721580584231
34.5 41.8190517839444
35.5 44.863557848830865
36.5 43.90749252290918
37.5 45.192753862030614
38.7 47.192555803171544
40.0 50.42952197590124
41.2 53.95152537072123
42.5 57.5125778489673
43.7 60.507097464069915
45.0 63.21708078099756
46.2 65.41648069368674
47.5 67.57389743212124
48.7 70.82033223522087
50.0 74.51578041636883
51.5 71.86320075452029
53.0 72.31585621446389
54.5 73.60909368850831
56.0 74.76392456036199
58.0 75.63751070982998
60.0 76.33143240623136
61.5 76.91845030747149
63.0 77.24648821757843
65.0 77.49168203088628
67.0 77.75475563028017
69.0 78.09916413977649
71.0 78.5474402747754
73.0 79.16281239022726
75.0 79.63338812476746
77.5 79.98574290069045
80.0 80.51432924771292
82.5 80.73306800546152
85.0 80.67747887435105
87.5 80.5141503824264
90.0 80.45604859551491
92.5 80.30726301938502
95.0 80.28270180932319
97.5 80.12593261070722
100.0 79.86334246004544
103.0 79.49946277586626
106.0 79.12174997479902
109.0 78.75566245369946
112.0 78.27528161751236
115.0 77.97644212620975
118.0 77.7993529264203
122.0 77.74504937430808
125.0 77.79676141035193
128.0 77.8741156678176
132.0 77.96749077972189
136.0 77.77513646820636
140.0 77.65807288945007
145.0 77.56474421292937
150.0 77.38756274326423
155.0 77.25781989752677
160.0 77.19020243309987
165.0 77.28990017412296
170.0 77.42776432952121
175.0 77.68059714125296
180.0 77.91206597951513
185.0 78.17551984964982
190.0 78.01733990355389
195.0 77.82924019005331
200.0 77.64959516163532
206.0 77.44642582314715
212.0 77.33099900773273
218.0 77.26453105275291
224.0 77.23067428904092
230.0 77.38967444346582
236.0 77.81997515012479
240.0 78.00761577833069
250.0 77.86902935679495
258.0 77.89106377623435
265.0 77.72214910900556
272.0 76.95139993756663
280.0 76.17915270819056
290.0 75.60346361929633
300.0 75.58773709903338
307.0 76.02481450512393
315.0 75.36371082196305
325.0 74.8922335264303
335.0 74.61009068705803
345.0 74.58086260308518
355.0 74.63336411731187
365.0 74.18969298370168
375.0 74.44901215956685
387.0 75.38669935139036
400.0 75.95929050706128
412.0 75.91408507803793
425.0 75.29673960463664
437.0 74.80724469051547
450.0 74.87431089455008
462.0 75.53618315711039
475.0 76.35522217084312
487.0 76.6183075981152
500.0 76.15083695847353
515.0 75.7097456444507
530.0 75.54632015155599
545.0 75.94522180323908
560.0 75.96278167647897
580.0 75.1652443501749
600.0 74.5544822998638
615.0 74.32670773680819
630.0 74.17987309507772
650.0 73.94540784128664
670.0 74.08116920765588
690.0 74.22702396687833
710.0 73.73968610046624
730.0 73.05834779795981
750.0 72.22487527156264
775.0 71.09582684936304
800.0 70.73132394005195
825.0 71.78752667500781
850.0 72.4592541414748
875.0 72.51727538106682
900.0 72.5969904820729
925.0 72.33833541264495
950.0 72.05321366512992
975.0 71.28514096585725
1000.0 71.94340964414461
1030.0 72.02861424962974
1060.0 71.87250748587219
1090.0 71.74818336951677
1120.0 71.7811734894321
1150.0 71.65139500241865
1180.0 71.18323581654708
1220.0 70.66800918489794
1250.0 70.44382069326657
1280.0 70.21920481702148
1320.0 70.27372067635456
1360.0 69.96108042731315
1400.0 69.170699493791
1450.0 69.05129512543421
1500.0 68.89872929267159
1550.0 68.66619394434228
1600.0 68.34193283143448
1650.0 68.12654682756875
1700.0 68.36820777473471
1750.0 68.9620114143652
1800.0 69.59501080157986
1850.0 70.33866938058532
1900.0 70.54360639817362
1950.0 69.31498653306897
2000.0 67.03602613468507
2060.0 67.72841872591327
2120.0 68.1921252980956
2180.0 67.66438431786405
2240.0 67.26220343944485
2300.0 67.59969388921938
2360.0 68.07778945376832
2400.0 68.41475245124788
2500.0 68.55500275864993
2580.0 68.76474790155397
2650.0 69.31441662766628
2720.0 69.85627255891485
2800.0 69.4837336667127
2900.0 68.44608525004405
3000.0 67.70559041926874
3070.0 67.70146370659718
3150.0 68.80874524626343
3250.0 69.18316884686023
3350.0 69.90029404079618
3450.0 69.34059640576659
3550.0 69.41590737666509
3650.0 69.41148781510338
3750.0 69.44466856660885
3870.0 69.20001533195354
4000.0 69.96143255792448
4120.0 70.9930052136604
4250.0 71.90382163842874
4370.0 70.70418472878055
4500.0 69.75427763017268
4620.0 69.2509847148816
4750.0 69.02873715120118
4870.0 70.14151491792607
5000.0 70.99889246219821
5150.0 69.9777154936818
5300.0 68.82204586330177
5450.0 68.43940748605593
5600.0 68.8504142374477
5800.0 69.71409083588084
6000.0 70.4227783012094
6150.0 69.36917115053616
6300.0 69.8237179317986
6500.0 70.44559757072906
6700.0 70.77640599345816
6900.0 70.7540804666502
7100.0 70.41259562809624
7300.0 70.45138616922769
7500.0 70.56859159177641
7750.0 70.51531491563348
8000.0 70.93815966119104
8250.0 71.78682439369366
8500.0 71.67783145698992
8750.0 71.6814524877076
9000.0 72.0415301671974
9250.0 72.1228296004321
9500.0 72.35658895977349
9750.0 73.32644057427616
10000.0 72.91893586837733
10300.0 72.48299587366947
10600.0 72.07555105203473
10900.0 70.60215599784861
11200.0 69.28197706548174
11500.0 68.74425562903066
11800.0 69.32647770331013
12200.0 68.79257679066131
12500.0 68.68700404942186
12800.0 69.1333229090629
13200.0 68.69784246091022
13600.0 70.75266261920117
14000.0 71.6713751135764
14500.0 69.82604571947742
15000.0 68.22699340540323
15500.0 67.54607820602361
16000.0 64.65075785936318
16500.0 62.40672615924498
17000.0 60.98140743817706
17500.0 59.38815152315151
18000.0 57.141014317773354
18500.0 56.40464792667801
19000.0 47.59626651261662
19500.0 42.43821825974227
