Freq "Estimated In-Room Response"
22.4 -146.10854466050915
23.0 -145.87297782296503
23.6 -145.54354094840454
24.0 -145.22200248439827
25.0 -144.96828656710454
25.8 -144.76225840681434
26.5 -144.5752337997792
27.2 -144.37451990554825
28.0 -144.21100836163725
29.0 -143.99091314429353
30.0 -143.5777217595832
30.7 -142.98783411299047
31.5 -142.53206153393575
32.5 -142.07224681654952
33.5 -141.34732967858758
34.5 -140.34223977684593
35.5 -139.26186136155832
36.5 -138.2086661447251
37.5 -137.18336401807744
38.7 -136.14961310956426
40.0 -135.14285672628222
41.2 -134.13837332997343
42.5 -133.20732036477528
43.7 -132.3130128793735
45.0 -131.3521529934447
46.2 -130.37682183977233
47.5 -129.47295816376715
48.7 -128.65521599662776
50.0 -127.91883527156848
51.5 -127.21217892466753
53.0 -126.60363996101502
54.5 -126.05198015037776
56.0 -125.49818927051878
58.0 -124.95914416335809
60.0 -124.49030793289002
61.5 -124.11147894759723
63.0 -123.82708231213589
65.0 -123.50183502631798
67.0 -123.05685593358795
69.0 76.414544622707
71.0 76.8574840357578
73.0 77.25582321919136
75.0 77.72786380170815
77.5 78.1701568790159
80.0 78.36226933183035
82.5 78.40489760032737
85.0 78.67672133807469
87.5 79.07953734328359
90.0 79.29777965188582
92.5 79.35436927826476
95.0 79.58605482728089
97.5 80.02903316258049
100.0 80.30818761217536
103.0 80.44084058453971
106.0 80.62832528141217
109.0 80.9153022724202
112.0 81.28543259387389
115.0 81.58144697563769
118.0 81.49290326496016
122.0 81.17447449438518
125.0 80.98782926982584
128.0 80.94781843622218
132.0 80.75738721513355
136.0 80.50731795112212
140.0 80.42994999405586
145.0 80.57241546769674
150.0 80.67116830433267
155.0 80.65042980467696
160.0 80.45946055174373
165.0 80.29516920329665
170.0 80.43363716843443
175.0 80.7958525796277
180.0 80.93983075260134
185.0 80.80758946301093
190.0 80.49802571578051
195.0 80.20068373142198
200.0 79.9529270829997
206.0 79.75298150552074
212.0 79.88319105036028
218.0 80.03732027626778
224.0 79.97921395580259
230.0 79.59266674554954
236.0 79.10249412619753
240.0 78.70885810260224
250.0 78.41473738540495
258.0 78.0921392671799
265.0 77.35828663203736
272.0 76.56565681104398
280.0 76.44431466308016
290.0 76.86657554149167
300.0 76.96580266373078
307.0 76.4750659301273
315.0 75.80787997806301
325.0 75.27400713169918
335.0 75.19027566392808
345.0 75.20712661255526
355.0 74.79133369743634
365.0 74.0491597086802
375.0 73.94031587970574
387.0 74.55329497078296
400.0 75.01883604127987
412.0 75.19593840065501
425.0 75.55979323360948
437.0 75.95368141675443
450.0 76.23564610046999
462.0 76.54998334050532
475.0 77.03180450044427
487.0 77.66112909415735
500.0 78.18276931086633
515.0 78.40844763462513
530.0 77.91656853000882
545.0 77.33031464719711
560.0 77.85931580067174
580.0 79.25240852172394
600.0 79.99144031166114
615.0 79.81830546820701
630.0 79.50693208510125
650.0 78.91895002006765
670.0 77.4371040875533
690.0 76.05225003167085
710.0 76.5845162802628
730.0 78.58041945032842
750.0 79.6024060352477
775.0 79.11306916090538
800.0 77.82586893242366
825.0 76.63911540545125
850.0 76.48054107398701
875.0 76.93774246181657
900.0 76.9317920812754
925.0 76.7000216788578
950.0 76.49211547441328
975.0 76.5149448974357
1000.0 76.5131849873073
1030.0 76.73277264392611
1060.0 77.15264976144566
1090.0 77.58236418014803
1120.0 77.4615657624869
1150.0 76.58823262696319
1180.0 76.07291603902898
1220.0 76.2048215292922
1250.0 76.51329697541497
1280.0 76.7727553436254
1320.0 76.59932867188019
1360.0 76.39819835846072
1400.0 76.7280214118929
1450.0 77.21565938390648
1500.0 77.48907792977437
1550.0 76.90999815097452
1600.0 76.25272113973536
1650.0 75.85481951494111
1700.0 75.47344366798492
1750.0 75.05785261652144
1800.0 74.2689084630508
1850.0 72.93504704263468
1900.0 72.05451968542079
1950.0 72.12584889732264
2000.0 72.55185541807089
2060.0 72.89918201987881
2120.0 73.2347285531609
2180.0 73.33392035258133
2240.0 73.65661453960278
2300.0 74.66752770906926
2360.0 75.26976192544964
2400.0 74.91921637460591
2500.0 75.04238265724547
2580.0 75.52748663932753
2650.0 75.60555507472885
2720.0 75.5190262399576
2800.0 75.39588471354817
2900.0 75.12108848267874
3000.0 74.36227703071201
3070.0 74.01583756567219
3150.0 73.73873599685638
3250.0 73.29759078749399
3350.0 73.22642155448646
3450.0 73.34087541927875
3550.0 73.40043533644372
3650.0 73.5866086967696
3750.0 74.11707419727492
3870.0 74.59508609368932
4000.0 74.5095732980859
4120.0 74.27562024913873
4250.0 73.9609853508536
4370.0 73.58041361996119
4500.0 73.391924612082
4620.0 73.2667704020301
4750.0 72.67009124161578
4870.0 71.72822217595419
5000.0 70.96798222759773
5150.0 70.5234333698644
5300.0 70.78901158807484
5450.0 71.56893907168636
5600.0 72.37354301927029
5800.0 72.53813671992248
6000.0 72.00600049351941
6150.0 71.58347606258612
6300.0 70.93609528109029
6500.0 70.12837770044011
6700.0 69.69913721191847
6900.0 69.44475595770776
7100.0 70.00759461412929
7300.0 71.44833422433013
7500.0 72.26004977243514
7750.0 72.0020881579674
8000.0 70.19258459224308
8250.0 68.18304805276823
8500.0 68.45034120202578
8750.0 70.84344883842859
9000.0 72.11890444935064
9250.0 72.90269812730887
9500.0 72.90276150507118
9750.0 71.97489392053673
10000.0 71.7508144760573
10300.0 72.4488157294725
10600.0 73.94001408031943
10900.0 75.31683164554465
11200.0 74.99824167042148
11500.0 73.5219949960004
11800.0 74.00203750780234
12200.0 76.51027164689937
12500.0 77.85664160518498
12800.0 77.34113963012963
13200.0 77.3248002584098
13600.0 76.45410825056369
14000.0 75.02852115838463
14500.0 73.5281098343777
15000.0 71.35271842459872
15500.0 69.67038209893441
16000.0 69.73211546483255
16500.0 72.19991253523666
17000.0 71.14607892988532
17500.0 69.15556520439777
18000.0 67.57899483709123
18500.0 67.24901144251204
19000.0 66.88142995973048
19500.0 65.24313207219446
