Freq "Early Reflections"
20.5078 65.36707677423603
21.2402 66.91950053487457
21.9727 68.16529882456916
22.7051 68.76656530501114
23.4375 69.69286205826977
24.1699 70.68352660443713
25.6348 72.51484561869437
26.3672 73.38829850125383
27.0996 74.24623496540765
27.832 75.02639899782402
29.2969 76.16997739674024
30.0293 76.7939695260691
31.4941 77.86625759410794
32.2266 78.25272647110081
33.6914 78.92441190243859
34.4238 79.17005468387369
35.8887 79.56076815014926
37.3535 79.90433997656818
38.8184 80.1861577541045
39.5508 80.27165402666778
41.0156 80.48346395602442
42.4805 80.69276981999866
43.9453 80.8907228888754
45.4102 81.09717529085086
47.6074 81.3025735588689
49.0723 81.53420811059422
50.5371 81.70904889786112
52.7344 81.94079458711103
54.1992 82.18136138438423
56.3965 82.45027105792336
58.5938 82.70286365690629
60.0586 82.8672442561987
62.2559 83.10153690928773
64.4531 83.3601827780356
66.6504 83.57890228318522
69.5801 83.87294494793984
71.7773 84.10144805216892
73.9746 84.29021107490121
76.9043 84.57739448890325
79.834 84.81775843279421
82.7637 85.05197891879061
85.6934 85.28679949758552
88.623 85.51490627414306
91.5527 85.76329700291294
94.4824 85.96412451649974
98.1445 86.15010794444706
101.807 86.30225335172717
105.469 86.45334062020629
109.131 86.57002466174158
112.793 86.63718734067962
116.455 86.69306131224992
120.85 86.90231779018104
125.244 87.02192376486357
129.639 87.12669211080923
134.033 87.16244601640885
138.428 87.12672687562063
143.555 87.04843255496267
148.682 87.29541392953271
153.809 87.38568486648613
159.668 87.22287814358583
164.795 87.14717513045206
170.654 87.44428904277895
176.514 87.61959710861923
183.105 87.36294186103943
189.697 87.12169463906177
196.289 87.05434070875984
202.881 86.76872663224377
210.205 86.37654338778914
217.529 86.52439720364096
225.586 86.24565459856575
232.91 86.09086014894329
241.699 86.36377125010468
249.756 86.42085610696002
258.545 86.64456739438619
268.066 86.33951064811887
277.588 86.15721295870924
287.109 86.00415401705891
297.363 85.52572400294552
307.617 86.2748213672757
318.604 86.04170608713089
329.59 85.86651176295716
341.309 84.87695625248
353.76 84.75284582133287
366.211 84.81962582700764
378.662 84.62988604724639
392.578 85.27552610262065
405.762 84.79484010170302
420.41 85.43857193403153
435.059 85.01826919727073
450.439 83.61009384118417
466.553 83.76651905491441
482.666 83.88783329000718
500.244 83.78811777132277
517.822 83.14264464698415
536.133 82.6982400965041
554.443 83.11798956048274
574.219 84.34172954114062
594.727 84.42183838792465
615.234 83.84053601452176
637.207 83.93868413927912
659.912 84.63719679172051
683.35 84.04064488739805
706.787 82.60191900347131
731.689 82.8114357764203
758.057 82.77725558907535
784.424 83.01256358522402
812.256 82.07799406089727
840.82 82.22843201943216
870.85 83.37663363370196
901.611 83.01414245050256
933.105 83.19076488365158
966.064 83.60846755719344
999.756 83.21317455292215
1034.91 83.83396687914153
1071.53 83.98811793923012
1109.62 83.76384839860836
1148.44 84.71080756450336
1189.45 84.57268287381662
1231.2 83.96458613608249
1274.41 84.40320685373415
1319.82 83.28193476756536
1365.97 83.22313186126705
1414.31 82.71719008801209
1464.11 82.57316455662792
1515.38 82.35688629417955
1568.85 82.23920940530321
1624.51 81.64382957507468
1681.64 81.73518844391394
1740.97 81.81553514818538
1802.49 82.46316289152918
1866.21 82.52773760497622
1932.13 82.39128813399245
2000.24 82.57195267055785
2070.56 82.67553894454541
2143.8 82.49044204382548
2219.24 82.14177570561479
2297.61 82.61826587382177
2378.17 82.76415378115713
2462.4 82.66866686125555
2548.83 82.91138040598047
2638.92 82.92795107578748
2731.93 83.21231464756895
2828.61 83.26990387739771
2928.22 83.0059773399526
3031.49 83.30233174099187
3138.43 83.06752614311831
3249.02 83.16393374254153
3363.28 83.05296238109428
3481.93 82.70426178841453
3604.98 82.57478846294266
3732.42 82.43193078712729
3863.53 82.30965714202834
3999.76 82.10115622031832
4141.11 82.10137260361127
4286.87 81.84345192776145
4438.48 81.89448399741997
4594.48 81.84569666372578
4757.08 82.34221765940244
4924.8 82.41537484901441
5098.39 82.6722783069781
5277.83 82.70102625572075
5463.87 82.38712761149749
5656.49 82.42828307385342
5856.45 82.52121116722637
6062.99 82.59210979550859
6276.86 82.80094259140516
6498.05 82.90261932575565
6727.29 82.97499812825541
6964.6 83.01430170922269
7209.96 82.9622030932923
7464.11 82.91632999306766
7727.78 82.99573541292642
8000.24 82.99321209982392
8282.23 82.97730792915227
8574.46 82.90085411975478
8876.22 82.69504686196102
9189.7 82.49535488575823
9513.43 82.3992576598022
9848.88 82.32497598136942
10196.8 82.32769741518399
10556.4 82.00863702906678
10928.5 81.81238364818813
11313.7 81.80242962434959
11712.9 81.78916114494083
12126.0 81.88009831111214
12553.7 82.13623036106077
12996.1 82.51858642448919
13454.6 82.86885515347883
13928.5 83.04751975998667
14419.9 83.00456989748717
14928.2 83.07586757146423
15454.8 83.24324258962515
15999.8 83.54376426205131
16564.5 83.61667713179109
17148.2 83.71197847501658
17753.2 83.73925528007562
18379.4 83.5607824975943
19027.6 83.06689806506323
19698.5 82.50434751500332
19999.5 82.34403009427669
