Freq "Sound Power"
20.5078 67.73398215703618
21.2402 68.97857741142592
21.9727 70.08760127972818
22.7051 70.57542461190057
23.4375 71.38581962529612
24.1699 72.2452957863955
25.6348 73.8584620085106
26.3672 74.6407158632576
27.0996 75.40379303834
27.832 76.09959972089537
29.2969 77.15173123282757
30.0293 77.71967343949261
31.4941 78.68689994038574
32.2266 79.03193754814579
33.6914 79.62487351115468
34.4238 79.83992688930168
35.8887 80.18011848249526
37.3535 80.486349266614
38.8184 80.72547193693198
39.5508 80.78912997863591
41.0156 80.96734556722011
42.4805 81.145689556957
43.9453 81.3181100013131
45.4102 81.50073001491117
47.6074 81.67910427782321
49.0723 81.89597258849348
50.5371 82.04784216340288
52.7344 82.27675207276481
54.1992 82.48484376352633
56.3965 82.70828470219242
58.5938 82.93901969696671
60.0586 83.0779740783958
62.2559 83.30627617615801
64.4531 83.54595132712409
66.6504 83.75331945492191
69.5801 84.03143308427066
71.7773 84.24075701223978
73.9746 84.41070625605612
76.9043 84.66651450269894
79.834 84.88694816452578
82.7637 85.09192352539014
85.6934 85.3035996722713
88.623 85.50512312814878
91.5527 85.72910950537418
94.4824 85.92118435336461
98.1445 86.08789175611035
101.807 86.22515351853504
105.469 86.34933518324893
109.131 86.43983361187041
112.793 86.47456371483725
116.455 86.48278439276872
120.85 86.61553998976518
125.244 86.65237772215826
129.639 86.76756572368298
134.033 86.80098185170161
138.428 86.77620516964772
143.555 86.64568762557744
148.682 86.84507471142622
153.809 86.93293177070392
159.668 86.689641579351
164.795 86.47731156933223
170.654 86.64957177240676
176.514 86.85993603353673
183.105 86.59979892869443
189.697 86.3305268320914
196.289 86.20759906899733
202.881 85.77062757897339
210.205 85.39109365177372
217.529 85.37524331314683
225.586 85.28556882428332
232.91 84.95403240279644
241.699 84.94420091369985
249.756 84.81081226838292
258.545 85.30447879146274
268.066 85.07618248317587
277.588 84.86031986538907
287.109 84.44569936287888
297.363 83.65862260729777
307.617 84.4783799157459
318.604 84.13674750832634
329.59 84.16771858749898
341.309 83.41815949258121
353.76 83.10146927825937
366.211 83.15307336849649
378.662 82.91821046327138
392.578 83.22878016672863
405.762 82.80573081781776
420.41 82.94326499499739
435.059 82.92949377317335
450.439 81.86336870965131
466.553 81.55327430983867
482.666 81.46810130626905
500.244 81.22250263368774
517.822 81.14232869104023
536.133 80.78893118069679
554.443 80.95291795209033
574.219 82.12567092034402
594.727 81.84640683197433
615.234 81.6315878798356
637.207 81.8555297877454
659.912 82.23569606051815
683.35 81.5817969588853
706.787 80.78920037000276
731.689 80.86416712199035
758.057 80.70678798811866
784.424 80.93377555469313
812.256 80.4718739846538
840.82 80.86312049696085
870.85 81.99754070448145
901.611 81.38659739917487
933.105 81.36974104645914
966.064 81.50129240473471
999.756 80.94421838944379
1034.91 81.4116141538467
1071.53 81.35947622407721
1109.62 81.16007134679116
1148.44 81.90347538090337
1189.45 81.47866566758303
1231.2 81.09600611569664
1274.41 81.1863911331809
1319.82 80.28602942327622
1365.97 80.00471894640496
1414.31 79.53748319105536
1464.11 79.39419833591337
1515.38 79.30533207943124
1568.85 79.21443172015849
1624.51 78.71553270568529
1681.64 78.93140329180561
1740.97 79.14159428894457
1802.49 79.56175637787143
1866.21 79.63062557021475
1932.13 79.63367700740991
2000.24 79.69048764899054
2070.56 79.70259024053776
2143.8 79.37113923379289
2219.24 78.86283852703771
2297.61 79.3432145870759
2378.17 79.3283315930535
2462.4 79.08133947288138
2548.83 79.39047362694166
2638.92 79.35821829759497
2731.93 79.39979631701068
2828.61 79.56341475536948
2928.22 79.39510074495954
3031.49 79.46423914111816
3138.43 79.26402451312534
3249.02 79.27042378981567
3363.28 79.32370208802527
3481.93 78.88208645075505
3604.98 78.77129655023435
3732.42 78.55262124098424
3863.53 78.24783181529578
3999.76 77.98948724589192
4141.11 77.89175808568582
4286.87 77.73363135923232
4438.48 77.79763711069856
4594.48 77.90261083717174
4757.08 78.28568393085942
4924.8 78.42348807943591
5098.39 78.58761447162425
5277.83 78.57071659357257
5463.87 78.30109565672463
5656.49 78.33849388410468
5856.45 78.374460451973
6062.99 78.45845496950383
6276.86 78.56417676876636
6498.05 78.6312192012534
6727.29 78.74851096875146
6964.6 78.73721914454347
7209.96 78.6541251879316
7464.11 78.65762487358
7727.78 78.65162156438375
8000.24 78.56814956888384
8282.23 78.50218029795218
8574.46 78.41171195941497
8876.22 78.28603277026194
9189.7 78.12223349638138
9513.43 77.96089637233489
9848.88 77.6910961054743
10196.8 77.41061537834504
10556.4 77.0396867749583
10928.5 76.87709074404091
11313.7 76.95300824654356
11712.9 77.04200768014182
12126.0 77.17790540781088
12553.7 77.43543284230083
12996.1 77.73056511047874
13454.6 78.03995153979254
13928.5 78.24493765348127
14419.9 78.21438608548935
14928.2 78.1541560352687
15454.8 78.25829095162928
15999.8 78.49770655872824
16564.5 78.57466728177018
17148.2 78.66598522957186
17753.2 78.71111898744462
18379.4 78.57874366362809
19027.6 78.11330635626562
19698.5 77.53274128246362
19999.5 77.39190951654813
