Freq "Estimated In-Room Response"
20.0 56.46861321482585
20.2909 56.87781145645441
20.586 57.374740867735895
20.8855 58.03103551673733
21.1893 58.79775939449125
21.4975 59.66464638688255
21.8102 60.55182759083341
22.1274 61.46274086773586
22.4492 62.331646386882554
22.7758 63.170759394491256
23.1071 63.937613214825845
23.4432 64.6887766108538
23.7841 65.40773044524244
24.1301 66.14080380660657
24.4811 66.89461321482584
24.8372 67.65674086773586
25.1984 68.43861321482584
25.5649 69.21275939449126
25.9368 70.00395286786791
26.3141 70.80964638688256
26.6968 71.5957766108538
27.0851 72.37501984910003
27.4791 73.14464638688256
27.8788 73.92774086773586
28.2843 74.6728114564544
28.6957 75.41499288397723
29.1131 76.13261321482584
29.5365 76.83073044524244
29.9661 77.48974086773586
30.402 78.10275939449126
30.8442 78.69180380660657
31.2929 79.23680380660656
31.748 79.70886869172858
32.2098 80.16991108925428
32.6783 80.59695286786791
33.1536 80.97899288397726
33.6359 81.34295286786794
34.1251 81.66295286786792
34.6215 81.95995286786791
35.125 82.24795286786792
35.6359 82.51791108925427
36.1543 82.7688114564544
36.6802 82.98380380660656
37.2137 83.16145045026575
37.755 83.28266244239096
38.3041 83.36423490917805
38.8613 83.41558925564603
39.4265 83.4336531378741
40.0 83.4378683201642
40.5818 83.43114939093256
41.1721 83.42658937641916
41.771 83.42666306454726
42.3785 83.43131172270708
42.9949 83.44191837329176
43.6203 83.45730997341329
44.2548 83.47394992864197
44.8985 83.49072741189245
45.5515 83.52135897158377
46.2141 83.54934553615091
46.8863 83.58068806912435
47.5683 83.61020745258769
48.2602 83.63034514866087
48.9621 83.64633678629768
49.6743 83.65656874670947
50.3968 83.66372688233587
51.1299 83.6717058162359
51.8736 83.67868435945653
52.6281 83.69716032541523
53.3936 83.71195859492302
54.1702 83.72326819604471
54.9581 83.73905546320155
55.7575 83.75185106015219
56.5685 83.76493408705828
57.3914 83.78408837543334
58.2261 83.802490433445
59.073 83.82356992893614
59.9323 83.84668682941638
60.804 83.87078669013006
61.6884 83.89786340070012
62.5857 83.9210368883763
63.496 83.94081629991797
64.4196 83.96709918489316
65.3566 83.99426827481912
66.3073 84.02833386259128
67.2717 84.05197612747295
68.2502 84.07560161923533
69.2429 84.09431646958201
70.2501 84.10532634489323
71.2719 84.1158814584434
72.3086 84.11071450137977
73.3603 84.10202243112238
74.4274 84.08531868553032
75.5099 84.06404214517002
76.6083 84.05489530359907
77.7226 84.05534540769607
78.8531 84.07143268725405
80.0 84.09088617871853
81.1636 84.11347826361417
82.3442 84.12386610084775
83.5419 84.1388069869952
84.757 84.1583190563505
85.9899 84.17729433797143
87.2406 84.2003950023409
88.5096 84.2355333270342
89.797 84.2656439671163
91.1031 84.29820142479437
92.4282 84.33875052650521
93.7726 84.36689303659783
95.1366 84.38870351073415
96.5204 84.39431991300624
97.9243 84.38065658936064
99.3486 84.35371360709728
100.794 84.32618997649122
102.26 84.30618741164447
103.747 84.29954149588583
105.256 84.30961971423507
106.787 84.31236190814037
108.34 84.29394861081447
109.916 84.25251754271277
111.515 84.20272223987526
113.137 84.14035379446675
114.783 84.0852719584482
116.452 84.05415808603672
118.146 84.05715320810026
119.865 84.08627299139759
121.608 84.13453733468332
123.377 84.19114627930792
125.171 84.23935304576422
126.992 84.2730110583721
128.839 84.2823304274659
130.713 84.30300228920426
132.615 84.32002460331242
134.543 84.32948362233832
136.5 84.31933016601046
138.486 84.28528222820361
140.5 84.26115163430447
142.544 84.2577746113154
144.617 84.2717082434085
146.721 84.31087696602916
148.855 84.35541540178285
151.02 84.3864248012317
153.217 84.36616439027462
155.445 84.26816218716907
157.706 84.13055024778657
160.0 84.01264859250439
162.327 83.97227955880909
164.688 84.00684248776088
167.084 84.05563193103568
169.514 84.07521708540195
171.98 84.03183937119856
174.481 83.92795122561581
177.019 83.81467749488594
179.594 83.75038569697973
182.206 83.76033834033471
184.856 83.79850036377202
187.545 83.82813280328939
190.273 83.83763232949065
193.041 83.82110909080873
195.849 83.77800288094909
198.697 83.74995450052504
201.587 83.7554261418098
204.52 83.79719670587697
207.494 83.81598105071603
210.512 83.81513334888105
213.574 83.82732306124028
216.681 83.82882077330679
219.833 83.81731460693763
223.03 83.82097154053166
226.274 83.82809975874508
229.565 83.82026349283984
232.905 83.80898026357656
236.292 83.7809993576824
239.729 83.68566885593224
243.216 83.55244273581654
246.754 83.46906472959787
250.343 83.43914907649138
253.984 83.44679938997335
257.678 83.47437432602648
261.426 83.5021712360971
265.229 83.57211292441136
269.087 83.6802970235474
273.001 83.74702146836135
276.972 83.76119020449295
281.0 83.77337518390648
285.088 83.76295494377281
289.234 83.72461390479641
293.441 83.62831732692352
297.709 83.46743245556765
302.04 83.31412874592182
306.433 83.2134160940979
310.89 83.17172015513108
315.412 83.17569657362436
320.0 83.15575109437047
324.655 83.1219166550021
329.377 83.07660789836774
334.168 83.02509424173626
339.028 83.00482466987644
343.959 83.00549787233157
348.962 83.0001891821009
354.038 83.04113301508126
359.188 83.05498598481357
364.412 83.08518526337565
369.713 83.12383758062651
375.09 83.08224354603952
380.546 82.9035737354517
386.081 82.69090250234784
391.697 82.5756178739923
397.394 82.48573490248101
403.175 82.41924620416725
409.039 82.39569265239903
414.989 82.43351245322485
421.025 82.47997094786464
427.149 82.60802714967674
433.362 82.7286778249811
439.665 82.74058239543962
446.06 82.79379237142535
452.548 82.85612343950255
459.131 82.92001981725956
465.809 82.98162373172681
472.584 83.01112726795627
479.458 83.04504956622377
486.432 83.07316891599926
493.507 83.11874326874108
500.686 83.10412071560806
507.968 83.07003073874345
515.357 83.06148505196845
522.853 83.03913850117516
530.458 83.04553596198848
538.174 83.00965563209654
546.002 82.98043003354813
553.943 82.9431842651778
562.001 82.87499102423884
570.175 82.82167363709924
578.469 82.7555906255337
586.883 82.69163831247155
595.419 82.63606024030801
604.08 82.57876385252057
612.866 82.5258503143173
621.78 82.47618974328209
630.824 82.42062591893618
640.0 82.3720716095914
649.309 82.32205366108367
658.753 82.27612615988855
668.335 82.23440221018372
678.056 82.19491204799695
687.919 82.15893962502557
697.925 82.12450972064948
708.077 82.09306613575572
718.376 82.0644658835677
728.825 82.03853933140017
739.426 82.01586749605136
750.181 81.99591830825945
761.093 81.97969147203621
772.163 81.9667886575787
783.394 81.95710016746759
794.789 81.95162843980043
806.349 81.94824749040833
818.078 81.94817961337904
829.977 81.95015953397298
842.05 81.95344108292815
854.298 81.95670267396686
866.724 81.95896586901483
879.33 81.95848396703246
892.12 81.95368599340105
905.097 81.94295277790208
918.262 81.92451636557492
931.618 81.89704294473303
945.169 81.85810470376062
958.917 81.80732173773998
972.864 81.74196958394297
987.015 81.64559307155413
1001.37 81.53634064422575
1015.94 81.41605577400242
1030.71 81.29051320057452
1045.71 81.19704791728515
1060.92 81.1001495058528
1076.35 81.00332379585653
1092.0 80.91533715004284
1107.89 80.87311382613409
1124.0 80.83871572362996
1140.35 80.81940302083613
1156.94 80.82420990887455
1173.77 80.8287037636716
1190.84 80.85346333797004
1208.16 80.8972760205469
1225.73 80.95769791968004
1243.56 81.03662399874116
1261.65 81.1205029213277
1280.0 81.20912971498838
1298.62 81.28816361906793
1317.51 81.32500186059622
1336.67 81.3554238385805
1356.11 81.37612357429747
1375.84 81.38118499778155
1395.85 81.36712249208023
1416.15 81.34207853083254
1436.75 81.30638928212633
1457.65 81.26366497959394
1478.85 81.22442538663189
1500.36 81.19074646315866
1522.19 81.1634928086393
1544.33 81.14927772172233
1566.79 81.15276575982193
1589.58 81.16895098551753
1612.7 81.19210104011243
1636.16 81.21444151863315
1659.95 81.22757439512243
1684.1 81.21837353502812
1708.6 81.18129064092017
1733.45 81.12166215456737
1758.66 81.04123705756848
1784.24 80.93601011084162
1810.19 80.82619319452724
1836.52 80.7243077637802
1863.24 80.63192863112288
1890.34 80.56972302619157
1917.83 80.52989414518387
1945.73 80.50330060023684
1974.03 80.46801225386659
2002.74 80.41894416207525
2031.87 80.35675141147665
2061.43 80.29238455904444
2091.41 80.23820452710736
2121.83 80.21159065701899
2152.69 80.2259936847168
2184.01 80.28092244538273
2215.77 80.36224464464824
2248.0 80.44669740169638
2280.7 80.50999497579235
2313.87 80.53955765753108
2347.53 80.53286685095425
2381.68 80.49768328403063
2416.32 80.45434773274097
2451.46 80.42437075205537
2487.12 80.43296081238205
2523.3 80.4761877830146
2560.0 80.53556397964606
2597.24 80.58405099148862
2635.01 80.60073654421112
2673.34 80.58087322799602
2712.23 80.54289193724136
2751.68 80.5156101641921
2791.7 80.52238783201132
2832.31 80.56803212408384
2873.5 80.63247913417214
2915.3 80.68275029639616
2957.7 80.6923859768521
3000.72 80.66201698723866
3044.37 80.61605217477059
3088.65 80.587594816436
3133.58 80.5896852423822
3179.16 80.61022453652218
3225.4 80.6139939854432
3272.31 80.58003569266197
3319.91 80.51863571460379
3368.2 80.47225547622075
3417.19 80.47197151933183
3466.89 80.50987957492106
3517.32 80.53777170859864
3568.48 80.50798259895952
3620.39 80.40869254061899
3673.05 80.27595187505516
3726.47 80.17538389313331
3780.67 80.14610502181465
3835.67 80.16067005714008
3891.46 80.16183420129246
3948.06 80.1302716250433
4005.49 80.10314934143317
4063.75 80.12499726253868
4122.86 80.17956966921689
4182.82 80.20110985011586
4243.66 80.1386947491318
4305.39 80.02161766598144
4368.01 79.92832168075246
4431.55 79.89514128680081
4496.01 79.89005527889745
4561.4 79.8571861563059
4627.75 79.79552642247036
4695.06 79.75151428245461
4763.35 79.74429067850188
4832.64 79.73873758191488
4902.93 79.70905064539924
4974.24 79.67460697532351
5046.6 79.65374257086854
5120.0 79.6163000717993
5194.47 79.51317550001416
5270.03 79.35034991083994
5346.68 79.20758725973148
5424.45 79.18125470983627
5503.35 79.27805677536536
5583.4 79.429319499133
5664.61 79.54956002135611
5747.01 79.58612006397493
5830.6 79.53694078796141
5915.41 79.46575269509704
6001.45 79.45409798241967
6088.74 79.53328964447006
6177.3 79.67208741410379
6267.15 79.77841013923386
6358.31 79.75365049725441
6450.8 79.62555147499064
6544.62 79.54521891340686
6639.82 79.57905547948053
6736.4 79.61922643529188
6834.38 79.60466419814998
6933.79 79.59817697677873
7034.64 79.60229463613445
7136.96 79.60402274173337
7240.77 79.68321442044049
7346.09 79.79392029704876
7452.94 79.81278379214942
7561.35 79.87520950178406
7671.33 80.0511445716296
7782.91 80.09568550284295
7896.12 79.97501552484194
8010.97 79.77872020120435
8127.49 79.52849570233263
8245.71 79.55604555309786
8365.65 79.80993256145264
8487.33 79.84222711897793
8610.78 79.72790512258261
8736.03 79.58133616591694
8863.09 79.50772489402723
8992.01 79.60462152255148
9122.8 79.64044001152071
9255.5 79.60408498557841
9390.12 79.55715397280059
9526.7 79.39562398636919
9665.27 79.19612544098116
9805.86 79.22030272284644
9948.49 79.360236910321
10093.2 79.44227344066368
10240.0 79.23860913621407
10388.9 79.3448390098721
10540.1 79.54209805157697
10693.4 79.34014738609461
10848.9 79.02367868722706
11006.7 78.9206829759253
11166.8 79.08255664507274
11329.2 78.89019210118752
11494.0 78.97538450206424
11661.2 79.14140148317402
11830.8 79.26034138161184
12002.9 79.14613377899707
12177.5 79.20874392900048
12354.6 79.15773139933444
12534.3 79.16677345736188
12716.6 79.20981350160496
12901.6 79.12097447454026
13089.2 79.11697068910782
13279.6 79.34739685484283
13472.8 79.24731730467347
13668.8 79.09954429163231
13867.6 79.25644716770242
14069.3 79.2428166196387
14273.9 79.20784796389052
14481.5 79.24658939008816
14692.2 79.33363157661991
14905.9 79.29423826191416
15122.7 79.19505201883332
15342.7 79.38314041213313
15565.8 79.30448521068509
15792.2 79.15264459620154
16021.9 79.39138829729937
16255.0 79.33995303158353
16491.4 79.21650539417787
16731.3 79.29329692286292
16974.7 79.26928824869103
17221.6 79.14602615115838
17472.1 79.14300307524171
17726.2 79.1435031519466
17984.0 79.02474057187911
18245.6 78.9646239633722
18511.0 78.98224662330648
18780.2 78.91105177938267
19053.4 78.84917917325878
19330.5 78.93113243158867
19611.7 78.71342957431291
19897.0 78.82993638870458
