Freq,Floor Bounce,Ceiling Bounce,Front Wall Bounce,Side Wall Bounce,Rear Wall Bounce,Total Early Reflection
20.5078,33.94026572360485,35.3506910441306,34.47742202935336,36.02207943357223,37.456813947113346,35.62975302932705
21.9727,38.23799833408697,36.86920158010366,37.451407802846575,38.40684116947409,39.93536892699211,38.30851827609851
23.4375,37.35886770690644,33.69609642189249,35.660474576858434,36.86357482549505,38.843982289118514,36.81011226690751
24.9023,41.16721899456115,37.07984713813198,39.26094134658126,40.178308177581755,42.277224519277524,40.32910412193527
26.3672,44.24032046269306,40.63722276870837,42.50278933350961,43.20289557567756,44.900674315350386,43.333958743546305
27.832,48.42806295394587,45.654289240452556,47.0443513634597,47.485358153545576,48.58247591325866,47.562191297592136
29.2969,53.12948054636303,50.86157875544342,52.03001234021417,52.28853781339552,52.96015980409126,52.32577921297687
30.7617,57.10417022294922,55.068514159601364,56.12395503257798,56.32215265996368,56.84564553605691,56.34818100839402
32.2266,60.807106160263004,58.88610808805194,59.88451365886161,60.076786230122764,60.578104873889004,60.09618946701701
33.6914,64.9732605277016,63.28733690749608,64.18658620863278,64.3003518282468,64.59011386839101,64.30268218267464
35.1562,68.0698031689829,66.46429789818512,67.32367564101592,67.41635649168684,67.6536568208067,67.41684494697537
36.6211,71.21250459871965,69.65567404290967,70.49699909679336,70.57178385760773,70.76112813379937,70.56855213734066
38.0859,74.05857385811358,72.54083348808015,73.36625367550498,73.42708660925624,73.58114977100335,73.42197379397234
39.5508,76.64822841276275,75.15607445572583,75.97647957855605,76.01811738519831,76.12160594471311,76.01001562288472
41.0156,79.2860002134347,77.68587246186257,78.58943486897773,78.56202087639966,78.49106692392395,78.55231378087555
42.4805,81.05218000042898,79.47740947366131,80.3743221538827,80.33126885553872,80.2217469745747,80.32008462588698
43.9453,82.37083153258166,80.83008349219512,81.71375259846015,81.65767179954011,81.51529625422098,81.64523755753336
45.4102,83.25274317616237,81.73349881467587,82.60975471947756,82.54400540969695,82.37677503354946,82.53051960751442
46.875,83.86320418674029,82.36559578096036,83.23347242762819,83.16061397588649,82.9780870438939,83.14676161796883
48.3398,84.15487866296502,82.67893048993436,83.53587095231866,83.45999669732693,83.27530274256455,83.44686127722893
51.2695,84.48272380507758,83.02631118937917,83.8811229278374,83.78729868781076,83.56877647851161,83.77485736205625
52.7344,84.4908496655651,83.06330171324524,83.90302041945851,83.80625756754179,83.58451467590369,83.79429934100578
54.1992,84.4560056469438,83.0436616136978,83.87735074617854,83.77481321725888,83.54460074103804,83.76362738429069
55.6641,84.36967838466995,82.9661083560876,83.7981536438171,83.68812195110576,83.44460907867342,83.67758603880199
58.5938,84.1891669897408,82.80256880432334,83.63137257224741,83.50666453587172,83.23830039748685,83.49772440002502
60.0586,84.09500421927766,82.70840221974986,83.54094676991167,83.40873706790603,83.12723088279489,83.4003976583399
62.9883,83.95044857635556,82.5857378741633,83.41311091531706,83.2648999468992,82.95426079867347,83.25786991111015
64.4531,83.89336220640949,82.54616002465916,83.36517074760062,83.21131133365098,82.88786828480697,83.20465256805622
67.3828,83.78837405811906,82.45109805600391,83.26525776358173,83.11008747775844,82.79214562461118,83.10490193469867
68.8477,83.7562804213651,82.42042955366814,83.23485949650959,83.0772196050337,82.76221922271864,83.07365375584956
71.7773,83.7344583724487,82.39947093674715,83.21624906430402,83.05225438022117,82.73929572139187,83.051813209155
74.707,83.7382568812295,82.40420478878227,83.2350967536256,83.04065061691261,82.69278730714598,83.0465104900239
77.6367,83.74516172794725,82.40997524861544,83.2458192642693,83.04154392750014,82.68789514907019,83.05064480658109
79.1016,83.75699426449371,82.42076984429144,83.25989536889922,83.04970830045549,82.68870695094081,83.06001026819834
82.0312,83.77021450917697,82.43000568438066,83.27514686395666,83.05572353789748,82.68992567820749,83.06932978093221
84.9609,83.84475474000597,82.49822020621365,83.34952776121547,83.12491580796454,82.77268727934903,83.14318794141086
87.8906,83.95613084525671,82.59929124737911,83.46272284238194,83.22524340970843,82.87528366735069,83.24935968358281
90.8203,84.06578789384642,82.70149118575999,83.57692250371257,83.32179928981836,82.95090183334325,83.34985554167136
95.2148,84.1554806637839,82.77784769290238,83.66951185864812,83.39335060752909,82.99803569573047,83.4265213861501
98.1445,84.2381825724249,82.85017247591784,83.75575889086949,83.46095813621788,83.03593354520929,83.49710329083267
101.074,84.31635816322172,82.92987283915687,83.83927514936187,83.53099686678163,83.08113502218761,83.56915138964357
105.469,84.36671724519397,82.98971472465213,83.89314143016996,83.57819621370083,83.14186067121021,83.62312344492918
108.398,84.33374947873233,82.95794631816437,83.85689286673832,83.53884997750136,83.13576219790917,83.59322738986613
112.793,84.34956097310639,82.88306193879984,83.84277494106564,83.50403781182904,83.11054579298522,83.56972340161488
117.188,84.40933162252287,82.82501564027217,83.87462696529215,83.49454859543025,83.03992743884415,83.56661865501074
120.117,84.47020904733213,82.90373051755815,83.97043960413443,83.56032953203689,83.04699981098463,83.62953199615966
124.512,84.57174315716266,83.06387726696312,84.09967964515704,83.68583557119946,83.22540985558499,83.7652264085596
128.906,84.58301240153375,83.04540825253838,84.11066785483439,83.65610010103951,83.13740653901996,83.74593478461023
133.301,84.59470688960567,83.01356951340549,84.11410358406421,83.63377087227668,83.03831338990088,83.72266516409636
139.16,84.55382717007949,82.92932917721515,84.05272926483234,83.58660949916947,83.04747254358267,83.67734733263988
143.555,84.28980799807114,82.60000594438432,83.77424258523034,83.29648951076538,82.89598140546894,83.41389125865007
147.949,84.30301081525317,82.57427064235253,83.80504710666338,83.27197082186542,82.84017547536705,83.40497791254751
153.809,84.41919538873316,82.69361479414425,83.9428884801547,83.35220713475957,82.71869862778041,83.47868027832973
159.668,84.24872055454911,82.48777786096869,83.73645137608389,83.1940641364169,82.59744373605812,83.30506430177118
165.527,84.0068350487425,81.96689998610333,83.41157196965186,82.81902098156486,82.3462655881925,82.97215720958846
171.387,83.93065988667166,81.7550408116584,83.36216357543205,82.72267332301303,82.21623462603421,82.86748012777024
177.246,83.48759627613289,81.76697747648677,83.15102665237876,82.41448852016951,82.01583847613887,82.61719185539688
183.105,83.524601110671,82.02571498491152,83.27258259358774,82.47761653166499,81.89111531474848,82.6881379795114
188.965,83.48319399907538,82.22743376733811,83.30900689108364,82.52655950340989,82.02051053487365,82.75272763900473
196.289,82.88486477837833,81.96808318015641,82.7943106666895,82.04103201303305,81.95089773571611,82.34837511804724
203.613,82.73954967311076,81.14220025907194,82.44407392745447,81.15006378004126,81.58293620913906,81.86302679309081
210.938,83.41725664895756,81.42393720467061,83.09884726131713,81.61410984457427,80.58640829581158,82.15922477675701
218.262,83.46014980304645,81.55438745671813,83.14828624255613,81.80343844070408,80.43606820297428,82.21860504784102
225.586,83.24123887116139,81.48363375363459,82.98179301760433,81.61621441000717,80.40989273159893,82.0699817721348
232.91,83.19207195161546,81.38167276952557,82.8882531743018,81.47089725257575,79.65311822330717,81.89264113577438
241.699,83.3288883440005,81.2976484799038,82.8818150383365,81.52312473293,79.55723458337958,81.91189004874234
250.488,83.20524737902355,80.62709098716626,82.69825028471118,81.37842736577332,78.6619069083723,81.59379371415449
259.277,83.43633833400435,81.12573160921715,83.00396468695592,81.7551153229143,79.00116918532785,81.92660804676026
268.066,83.01625639622341,80.89759739517051,82.61520674353186,81.4994960050089,79.86683182580656,81.72637534440858
276.855,82.4833251379726,80.0930055283541,82.043167711629,80.54455163097585,78.88965962068832,81.00496339578443
287.109,82.21676714919218,79.92186667965855,81.8276442853057,80.43109729234452,77.96457625963072,80.71999199831305
297.363,82.69471595421084,80.61836866944502,82.43056776114962,80.9425612859836,78.19088301307187,81.24804813284449
307.617,82.59432509581816,80.59692188507036,82.2693148990899,81.0237547088121,79.01005863646921,81.27943544237148
319.336,82.37985939336505,80.19504586070775,81.99548380871234,80.52847295740399,78.52677255072604,80.93468140065397
329.59,82.8492913555348,80.47056684789908,82.4779416327648,80.94569366276471,78.41884127561624,81.3027204355025
341.309,83.10354264961005,80.74163864176998,82.68772060738038,81.11741603592483,78.72186138142177,81.53810432058243
353.027,83.56690884549253,80.69909269033302,83.14568842233656,81.26260048796271,78.41366498285964,81.78566551026341
366.211,83.95690016196616,81.20738274981014,83.5190173903795,82.05087363831282,78.4424043453271,82.23148673248056
379.395,83.2140223797508,80.74568508847835,82.7563537383943,81.18531243356674,77.9753551702862,81.52959133819765
392.578,83.10974960317368,80.65009550627775,82.81442160920986,81.4646638196953,77.95379930505322,81.55030487803765
405.762,83.18873778246571,80.96604213560326,82.86897530847527,81.32752357795157,78.4277473713051,81.6570567587058
420.41,83.59770088293111,81.22343244287697,83.37346733187732,81.62523774801089,77.56592489301545,81.93919353150756
435.059,83.73788491788378,81.22971008393563,83.46859597854495,81.62195824864617,77.70153225716825,82.01751123814653
451.172,83.14713601633915,81.03904755797663,82.91857944818288,81.30170230262458,77.24793868902867,81.56709173809202
465.82,83.41028360876393,81.22495746463171,83.2639224688692,81.83635984546191,76.88013975134976,81.84856484577062
483.398,83.37212363877043,80.95726744048251,83.3244130518188,81.69267863811609,77.44626122788596,81.81981840234384
499.512,83.4000476521807,81.04119203433791,83.21088554338738,81.53839053868862,77.23649726076162,81.76529028236196
517.09,83.448351725048,80.4942784155726,83.10100814795524,81.39170310661207,76.45516494682703,81.58051962229979
536.133,83.16739976208783,79.44596455257053,82.8248170133312,81.15814501569461,76.94070099484324,81.25174455826973
555.176,82.87774812702426,79.5848204823601,82.82835401097265,80.98914411278399,76.38135626339624,81.11066067788272
574.219,83.1387175952548,79.56772393581875,83.28346120422813,81.13662892097017,75.83626873809182,81.32109379770995
594.727,83.155159061553,80.01190859237894,83.13845244475809,81.65306357318488,76.61130357890463,81.49340149895544
615.234,83.19112937617811,78.48889989692736,82.76165795621786,79.80243352910438,76.80850738363971,80.87425063776662
637.207,84.16886517857051,77.68845056369757,83.08108420337086,80.33802219073115,75.26109126289698,81.23746265974063
659.18,83.83707931303195,73.34745144623119,81.39984383871169,78.64948645695796,75.76925958740307,80.10819334901414
682.617,82.27831522694665,76.68651297610522,80.62613263225919,77.80397267203193,74.34802796367822,79.22871844310632
707.52,81.5149918076092,79.46280214272309,81.97937922722721,79.55460710722,73.14081780114299,79.98876987074996
732.422,82.50114238496832,80.33092057889246,82.80978512103046,80.40422758256375,74.4679040934222,80.89551219148858
757.324,83.5386114841491,79.80782258480856,83.56052310112666,79.7991967641876,75.439184389291,81.32916494560335
785.156,83.2300209125687,79.78755406202924,83.1084272335403,79.60487479953326,72.95122342177052,80.9426737798767
811.523,81.96797147417199,79.78745567335406,82.28815923885298,78.8196169642053,72.54960790752506,80.13762881818948
840.82,83.21606303079983,80.86823407750182,83.52436153602495,79.45502406331896,74.21959312456002,81.28136816190309
870.117,81.48349673988362,80.47627149535663,81.9812097213532,78.72318613246684,70.84471210895201,79.97201511415949
900.879,77.94915965156981,81.5126346874468,80.23217656410307,76.72842722866348,69.60784982621203,78.64197164129774
933.105,75.31555088157808,84.31232877639286,83.35158130991721,79.82798837303633,71.50495599439171,81.00738104899996
965.332,79.67678680271692,82.93367896801897,83.86243040891527,80.08361640561398,72.24684157612076,81.14882236292769
1000.49,79.07808427488786,80.76623881677591,82.60554073817619,78.6028885547812,71.31251427912419,79.71639557950704
1035.64,79.82516785429986,80.07948092635993,82.6612003803252,78.54757879579407,70.24770203255494,79.6812337682685
1072.27,81.28618217893842,79.13934493284593,83.24441659802238,79.16390279503912,71.27782310166313,80.19927389865921
1108.89,82.48856600185104,76.79243213688122,83.36374455543371,79.19956490067008,71.22509139588287,80.32235414925896
1148.44,81.99042857829623,78.86463469041374,83.32617785562478,79.25995426751099,71.03794101806852,80.39221065246147
1189.45,82.79811993361692,80.14024341034128,84.11960692985119,79.57696894617713,71.68412833660135,81.18862353087499
1230.47,83.12350349445028,80.55915544129697,84.36839176816639,79.77371032056816,71.93997297239204,81.47986710665694
1274.41,83.24253233718564,80.3961435592346,84.40478744619746,79.68519350327406,71.54906745360562,81.48329048596767
1319.82,83.04818309705821,81.8721556221564,84.16248139877587,79.3635345279308,70.74201008565224,81.55117098697784
1366.7,82.8347722601736,82.75432858775287,83.69583157920742,79.21209103895423,70.32941973129121,81.51691451835273
1413.57,81.83051515167789,82.90518909042677,83.54403104727054,79.12129820563968,69.97906609531243,81.24131643158887
1463.38,80.78508944592687,82.75644748582359,83.07822254589013,78.77353922436859,69.69250761663571,80.76513093798219
1516.11,75.84668457701292,81.94567418333015,82.42426727986319,78.41303163739445,69.20003885015682,79.51737150149391
1568.85,73.75697791703189,78.04685106885384,83.67154644314942,78.74880726565766,68.98007715841011,79.06657949852317
1624.51,75.12258338503156,74.4699437044826,83.51293628232975,78.48861785584846,68.50124629482323,78.60635318197913
1681.64,74.12461179764136,71.49345416029777,83.26377970053022,78.26427018366232,69.1488320865944,78.15908682661575
1741.7,73.10521989597035,71.0274791124833,82.66896988175232,78.2636866120549,68.56190034713131,77.66740727116363
1803.22,72.40223531780853,69.75034884251748,81.95744049884976,77.8892367016415,68.35380774460589,77.02644309307425
1866.21,74.42959453866045,70.03240264587133,82.21941972456135,78.43619003039544,68.6101155280939,77.50556546491572
1932.13,74.39818240080913,72.60678067944909,83.05175377267035,79.08936579335153,68.61419450717406,78.27403786552989
1999.51,73.53571426178641,71.76898951780763,81.77835551174854,78.54022800880905,68.66462970788382,77.27557555185584
2069.82,74.29433482990564,73.70841153168683,80.79571338229657,78.1233646981009,68.70617196224588,76.8630227492045
2143.07,71.95032703520022,76.1663810588515,81.78052692920845,78.96921382868933,68.2523226129799,77.68300461616006
2219.24,75.36835806272413,77.40563224869696,81.3981002932129,78.14533438490288,68.03341361383234,77.76739919504783
2296.88,74.44144569737739,78.02049260391087,81.15985238413316,77.91425146647512,67.91702835957061,77.6322658573723
2378.91,75.53856579707352,75.81002652390644,81.30858434206424,78.03239850950007,68.74244160525694,77.48377087846725
2462.4,77.31198461172582,76.3989209375198,82.43410866402422,78.48435669236581,67.86418322737161,78.44226038685754
2548.83,78.09669721262209,76.96495895236939,81.88143686803264,78.3805167610057,67.96840876639551,78.37071314896454
2639.65,78.65543772519955,78.17058422953158,82.13113469378868,78.76934117355397,68.35777576141523,78.85950046581235
2731.93,78.70772007095621,78.41365156055895,82.43939638189849,78.91092180099506,68.02629959726922,79.06545747720814
2828.61,78.68134495166068,78.27086115405926,82.66770350336284,79.11641182950605,68.09621511551751,79.17862771299083
2928.22,78.9900439903637,78.4558758349148,82.13944326081375,78.40569552494418,67.9619478928227,78.90442228549846
3030.76,80.76641744289843,78.20732516402816,81.81689360988294,78.24680798982817,66.33442537091628,79.12235128790806
3137.7,80.71636849629614,78.4681531204763,82.03667951909856,78.27049067823566,65.70773232168358,79.23157715971585
3249.02,80.34302003704597,78.07808284129513,82.01267655543845,77.27454619566217,65.97679762277622,78.9071251293179
3363.28,80.02815338581372,77.29222534389864,82.02248984405628,76.98654741401455,65.0038582315089,78.65339100110647
3481.93,79.95766804654251,77.43052822960561,81.61002201828454,76.39720010597414,64.95664607038954,78.40111095663433
3604.98,80.12764404836815,77.24749865808943,81.69251710116018,76.25838577327141,64.62009729487903,78.43662968976611
3732.42,80.24836031981266,76.91479764760837,82.13861192302372,76.91828221337462,64.85525323511709,78.70290219147476
3864.26,80.83907876228962,77.06524513794571,82.62272777777372,77.97373654928164,65.60754776189412,79.25794396084493
4000.49,81.16261753449855,76.97858847938441,82.5040729428759,78.01537584605553,65.78066417405131,79.30100371661177
4141.11,81.41142818089372,76.91256078540653,82.5986917079676,78.10777475846237,65.3774881368801,79.4207526784315
4287.6,81.1612771026595,76.94472040928828,82.14259431998809,77.93285849685198,65.37643512797584,79.13279846105934
4438.48,81.1322061895683,76.7872424816771,82.24116235000389,77.89845212075372,64.54788221407014,79.13318616968405
4595.21,81.24112469950872,76.71895054841184,81.8160108251078,77.68720807869164,64.71097039842488,78.96132485096501
4756.35,81.13126164791474,76.21793097418976,81.9389477876197,77.75761074585142,64.00660067408047,78.92181811006829
4924.8,81.03259898608754,75.99932020405083,81.98562782505265,77.48503989276438,64.81914645095175,78.85005159540314
5097.66,80.58269074239291,75.61203650165405,81.9460288099264,77.58404373207908,64.15185219450599,78.65972140048292
5277.83,80.46413904706694,75.46911875704104,81.78896872265105,77.37336663614732,63.8480628104473,78.50676755178951
5463.87,80.0694268312158,75.30000015242358,82.17874143046413,77.34618030491951,63.58903255698458,78.53949412417762
5657.23,79.98497773012883,74.78088791684726,81.91555063900056,77.01854110472341,63.05129645190095,78.2931787738817
5856.45,79.51031341380596,74.7177634231298,81.89773668690833,76.81542741934311,62.072969481092315,78.10791622865963
6062.99,79.30233158472218,74.17963589968818,81.85505232143824,76.32706599154932,61.65697422828697,77.91009942448736
6276.86,78.90998280556008,73.98909070129056,81.7159948798793,76.23284531435786,61.62703852715559,77.70518670462877
6498.05,78.7253046771785,74.09108970889862,81.83326202533149,76.16125132277057,60.64501571066573,77.71164083050192
6726.56,78.6669088586085,73.82107392307603,81.79452494468751,76.09246773999968,60.38095760016785,77.64322454218502
6963.87,78.62831045512623,73.77452667339072,81.87059475088316,76.1708527425538,60.45043617224502,77.68074455508565
7209.96,78.48090509829844,73.98445585613149,82.12502642946939,76.27695758953367,60.06699897094643,77.81150768899764
7464.84,78.44852358727537,74.04655258181572,82.25329003886799,76.15665806533224,59.841253960282984,77.86175801805456
7727.05,78.61752782659933,74.449388293422,82.23308186894499,75.97945520785551,59.695519644997205,77.90111503222309
7999.51,78.7726120207389,75.06677795340269,82.22865129943696,75.86162273128679,59.60791363498143,77.9799662850599
8282.23,78.96304292755272,75.08047870836353,82.08443195684151,75.78191771040947,59.40139969371833,77.94218719776404
8573.73,79.10676801007537,75.29543324665816,82.00546495425297,75.54667988998231,58.85833857667478,77.93205028304847
8876.95,79.24503814470785,75.5249991636473,81.88363334460725,75.24557799938333,58.15311771613574,77.89784755469505
9188.96,79.17719067426425,75.56887380461235,81.74153632581672,74.96057700911805,57.211327676860094,77.78129026077232
9514.16,79.15913002962456,75.74489204196077,81.71149997610237,74.81685681436545,57.01775580489263,77.76788455317299
