Freq "Rear Wall Bounce"
20.5078 55.38182710893601
21.9727 60.10866338360806
23.4375 62.402811997631616
24.9023 63.97048477643146
26.3672 65.07542927528554
27.832 66.54658039464731
29.2969 67.69745028395475
30.7617 68.31093475321637
32.2266 69.15901868479189
33.6914 70.36075759963452
35.1562 71.59328083438983
36.6211 72.66051233567396
38.0859 73.64460847605704
39.5508 74.2554998841487
41.0156 74.91534217347125
42.4805 75.85786320826806
43.9453 76.30149938722981
45.4102 76.73817545988886
46.875 77.14451966940835
48.3398 77.59862221889462
51.2695 78.3636266491672
52.7344 78.83054552728079
54.1992 79.35614915918724
55.6641 79.79839086883385
58.5938 80.5905570612706
60.0586 80.99022376600475
62.9883 81.62626347991753
64.4531 81.92905435922454
67.3828 82.64531841841954
68.8477 82.96580858021287
71.7773 83.67535715741782
74.707 84.34486765322124
77.6367 84.95595497215662
79.1016 85.22941918597395
82.0312 85.80704803238642
84.9609 86.35246077156117
87.8906 86.83873598400567
90.8203 87.25035464613596
95.2148 87.67145873902787
98.1445 87.79344047597165
101.074 87.82053474393165
105.469 87.88841521693192
108.398 87.81500691321854
112.793 87.5546567121193
117.188 87.12748381562558
120.117 86.98634146461039
124.512 86.79854610652782
128.906 86.29228244699287
133.301 85.80808746834334
139.16 85.19461694460034
143.555 84.81873477754965
147.949 84.52252736790201
153.809 83.91362722358286
159.668 83.36581007495678
165.527 82.63693098265567
171.387 82.28644287945556
177.246 81.8294049296245
183.105 81.6203432419801
188.965 81.19732292119805
196.289 80.8453464314884
203.613 80.2668369791246
210.938 80.07154000842155
218.262 80.71421855861331
225.586 80.92108602480022
232.91 80.88738325734948
241.699 80.9860728285624
250.488 81.20113640073944
259.277 81.46886988039303
268.066 82.68274683633909
276.855 81.64281491811707
287.109 81.58517453499923
297.363 81.37305647016666
307.617 82.3812940011767
319.336 81.14179369324404
329.59 80.83279104388396
341.309 81.44340252737713
353.027 80.35505761010599
366.211 81.2266848852786
379.395 80.35287812117475
392.578 80.99842810151904
405.762 81.3906068927404
420.41 80.99738621387779
435.059 81.10344946506982
451.172 80.3721176285181
465.82 80.61787621972344
483.398 80.03450065375102
499.512 80.93014245369494
517.09 81.28208450112409
536.133 81.74511506774186
555.176 82.26229421903237
574.219 82.04276170840707
594.727 80.68804511421972
615.234 81.11127159037676
637.207 81.5238982445183
659.18 81.56320199798996
682.617 82.55901054504875
707.52 80.50633850841261
732.422 80.17150789156801
757.324 80.9689031998248
785.156 80.47220815934045
811.523 79.99919433506419
840.82 80.14355279171099
870.117 81.39633992232523
900.879 81.31585353109791
933.105 78.17787234700162
965.332 78.44780249925988
1000.49 79.62050745528558
1035.64 78.92263173784163
1072.27 77.91670554195753
1108.89 77.42292022043739
1148.44 76.73053761949315
1189.45 76.61238125059846
1230.47 76.50022855526358
1274.41 76.87551947223483
1319.82 76.5683949400747
1366.7 78.22699168827437
1413.57 79.7254533576836
1463.38 78.49480612694505
1516.11 79.02785143540108
1568.85 79.12153444862396
1624.51 78.34078250293544
1681.64 77.61586675525407
1741.7 77.36758921054935
1803.22 76.5418601243057
1866.21 78.07757383726776
1932.13 75.81500069496745
1999.51 76.85801382788121
2069.82 77.57965889863841
2143.07 76.41217022473268
2219.24 76.8655349448886
2296.88 74.89080175583028
2378.91 76.50845516185609
2462.4 75.10736972369838
2548.83 77.03327468803685
2639.65 77.52228794434058
2731.93 76.3300796031148
2828.61 76.6520921094667
2928.22 77.12264711156313
3030.76 77.82446684303913
3137.7 76.87709366944925
3249.02 78.28321295434687
3363.28 78.85777687704126
3481.93 78.48106149430096
3604.98 76.55936271132943
3732.42 74.91533608149913
3864.26 74.59495592975102
4000.49 75.30203435008174
4141.11 75.74198184025644
4287.6 76.39262769499751
4438.48 75.86660520942083
4595.21 76.04688317774176
4756.35 73.81427694849744
4924.8 73.24332124646224
5097.66 72.38166979649961
5277.83 71.82198305349635
5463.87 71.46897835592982
5657.23 72.02988271538986
5856.45 70.53537540875392
6062.99 70.80766775393506
6276.86 69.59260828199636
6498.05 70.02060208586538
6726.56 69.42296228446207
6963.87 69.09293470446873
7209.96 68.83514302848653
7464.84 67.71036185410448
7727.05 67.47202287762217
7999.51 67.28428097963955
8282.23 66.7955325783665
8573.73 66.1486996476631
8876.95 65.08937023396017
9188.96 63.772469771332155
9514.16 62.67238849460317
9849.61 63.28564497672694
10196.8 63.594250227901185
10555.7 63.85966527345532
10927.7 63.88793430240068
11313.0 62.97418201065783
11712.9 61.883445171054845
12126.0 61.375064176627646
12553.7 61.784372689227624
12996.1 61.614956635301255
13454.6 61.328146793249246
13929.2 61.33251698941429
14419.9 59.91654664542263
14928.2 58.15530373984198
15455.6 57.26981188751539
16000.5 56.23215449192746
16564.5 55.382777452035626
17148.9 54.691368806879794
17752.4 53.42631965070696
18379.4 53.86466947081776
19026.9 52.80212621778752
19697.8 52.28166703867292
19999.5 53.399774211497956
