Freq "Ceiling Bounce"
22.4 55.3669218511605
23.0 55.16692185116048
23.6 54.56692185116049
24.0 53.600767494455624
25.0 52.50076749445563
25.8 51.3669218511605
26.5 50.400767494455636
27.2 49.66769521305292
28.0 49.06769521305296
29.0 48.70076749445562
30.0 48.467695213052934
30.7 48.36769521305294
31.5 48.36769521305294
32.5 48.60231994589776
33.5 49.03513059177982
34.5 49.80231994589775
35.5 50.902319945897744
36.5 52.27001488257477
37.5 53.77001488257477
38.7 55.07001488257478
40.0 56.23821129888742
41.2 57.13821129888743
42.5 57.93821129888744
43.7 58.70542400732663
45.0 59.67387961222818
46.2 60.77387961222817
47.5 62.07387961222818
48.7 63.57387961222818
50.0 65.07387961222818
51.5 66.67387961222818
53.0 68.24283030471975
54.5 69.71007799780293
56.0 70.94283030471973
58.0 71.84283030471974
60.0 72.47928732607433
61.5 72.84283030471974
63.0 73.17928732607432
65.0 73.64283030471974
67.0 74.24283030471975
69.0 74.97928732607433
71.0 75.77928732607432
73.0 76.47928732607433
75.0 77.17928732607432
77.5 77.77928732607432
80.0 78.34898514879549
82.5 78.87928732607432
85.0 79.47928732607431
87.5 80.1489851487955
90.0 80.77928732607432
92.5 81.37928732607432
95.0 81.87928732607432
97.5 82.27928732607432
100.0 82.61227178315619
103.0 82.8489851487955
106.0 83.1489851487955
109.0 83.44898514879551
112.0 83.74898514879551
115.0 84.04898514879551
118.0 84.24898514879551
122.0 84.44898514879551
125.0 84.54898514879551
128.0 84.51916705502754
132.0 84.38219967332304
136.0 84.21916705502755
140.0 84.11916705502753
145.0 84.11916705502753
150.0 84.18982856673472
155.0 84.28982856673471
160.0 84.31916705502752
165.0 84.31916705502752
170.0 84.28982856673471
175.0 84.21916705502755
180.0 84.18982856673472
185.0 84.15260953202218
190.0 84.08982856673472
195.0 84.08982856673472
200.0 84.08982856673472
206.0 83.9234968506598
212.0 83.72349685065979
218.0 83.38982856673472
224.0 83.02349685065981
230.0 82.78982856673473
236.0 82.68982856673472
240.0 82.78982856673473
250.0 82.92349685065979
258.0 83.05260953202216
265.0 83.08982856673472
272.0 83.05260953202216
280.0 82.95260953202217
290.0 82.85260953202217
300.0 82.85260953202217
307.0 82.88982856673474
315.0 82.98982856673473
325.0 83.16096514237182
335.0 83.19897445130925
345.0 83.20963256681621
355.0 83.18219812790055
365.0 83.15521969308381
375.0 83.16878033996791
387.0 83.16878033996791
400.0 83.12869245367797
412.0 83.12869245367797
425.0 83.0950645803583
437.0 83.05521969308379
450.0 82.94314826109434
462.0 82.84314826109436
475.0 82.67082970284298
487.0 82.40963256681619
500.0 82.08219812790054
515.0 81.62179738688896
530.0 81.1687803399679
545.0 80.8094224842602
560.0 80.62526453928848
580.0 80.62526453928848
600.0 80.68382334167595
615.0 80.78382334167594
630.0 80.78382334167594
650.0 80.58382334167595
670.0 80.20034112939828
690.0 79.81832544184972
710.0 79.5377673428554
730.0 79.6145789575331
750.0 79.91832544184972
775.0 80.34258273663016
800.0 80.4672655885961
825.0 80.24258273663014
850.0 79.60497668676807
875.0 78.95098823501219
900.0 78.48444762363009
925.0 78.5269682029423
950.0 79.08888863538652
975.0 79.8816120853342
1000.0 80.392378988098
1030.0 80.62934077441656
1060.0 81.04898359150842
1090.0 81.97082970284298
1120.0 83.02926676879422
1150.0 83.29238562216104
1180.0 82.92104166298748
1220.0 82.18656646311246
1250.0 81.44314826109435
1280.0 80.82526453928848
1320.0 80.21457895753309
1360.0 79.19220047151572
1400.0 77.51638770313008
1450.0 74.84805664755616
1500.0 71.77896989520114
1550.0 70.70615252762366
1600.0 71.69340724183762
1650.0 73.59393259456333
1700.0 76.10261155895364
1750.0 78.15521969308381
1800.0 79.84413052381575
1850.0 81.34827118020831
1900.0 82.24293979360189
1950.0 82.39431032499557
2000.0 82.23674241995145
2060.0 81.70974316525644
2120.0 81.14547317920926
2180.0 80.66400119283414
2240.0 80.1485058811867
2300.0 79.74850588118669
2360.0 79.36443680503089
2400.0 78.78681963215334
2500.0 78.0694604479239
2580.0 77.40084968059332
2650.0 76.79784436525044
2720.0 76.1568850809307
2800.0 75.17769284155935
2900.0 74.1964744685975
3000.0 73.09764339402716
3070.0 72.37906309566348
3150.0 72.09735774388855
3250.0 72.10500125539946
3350.0 72.41471033977959
3450.0 72.99370777353005
3550.0 73.75291140018437
3650.0 74.54171952330975
3750.0 75.22081894554056
3870.0 75.41498382011471
4000.0 75.08067853625087
4120.0 74.587954987743
4250.0 74.06239477036436
4370.0 73.6790630956635
4500.0 73.58126242595502
4620.0 73.80190565802711
4750.0 74.05291140018437
4870.0 74.26061809080707
5000.0 74.44552333168525
5150.0 74.62672208916904
5300.0 75.00252973822757
5450.0 75.38687662824874
5600.0 75.9058682584315
5800.0 76.30416787936475
6000.0 76.18178622282208
6150.0 75.77491970400413
6300.0 74.75169932678202
6500.0 73.88205670268607
6700.0 73.60733589211027
6900.0 74.00602413937145
7100.0 74.60165971691964
7300.0 75.0119040863813
7500.0 75.38509485802376
7750.0 75.22585044351925
8000.0 74.5696633335684
8250.0 73.99070778066616
8500.0 73.66506011325959
8750.0 73.73945596450599
9000.0 73.80204404422747
9250.0 73.60907886704533
9500.0 72.80993626900295
9750.0 72.06801107083918
10000.0 72.30229297394158
10300.0 72.60250869125775
10600.0 71.89255187987314
10900.0 71.01815617499517
11200.0 69.44599525879286
11500.0 67.04721049891097
11800.0 67.04070231161877
12200.0 68.33878924093983
12500.0 69.20219272776862
12800.0 69.90130625083816
13200.0 70.1868377876363
13600.0 70.09764339402714
14000.0 70.49996104206953
14500.0 70.28698300103258
15000.0 70.11987670385896
15500.0 70.54724754949478
16000.0 69.19666968543316
16500.0 69.65632382767522
17000.0 70.0003457201169
17500.0 68.98068000109947
18000.0 69.2066735385269
18500.0 68.33586161480319
19000.0 66.66974421031865
19500.0 65.94672542368116
