Freq "Front Wall Bounce"
22.4 52.826637736610564
23.0 52.691152243665385
23.6 52.14052485113231
24.0 51.24052485113231
25.0 50.18346470485099
25.8 49.11976559770872
26.5 48.22730883514018
27.2 47.52730883514019
28.0 47.03501423788762
29.0 46.742884995406996
30.0 46.550924347044486
30.7 46.53118281037001
31.5 46.63118281037001
32.5 46.876087112976336
33.5 47.44824358446343
34.5 48.28483423959159
35.5 49.45704691391069
36.5 50.893766912260844
37.5 52.43167673900567
38.7 53.84092970890788
40.0 55.05037784392269
41.2 56.06002482288466
42.5 56.96002482288469
43.7 57.76987437542198
45.0 58.869874375422
46.2 60.046462971406555
47.5 61.419068415759995
48.7 62.9568083856134
50.0 64.56736932527856
51.5 66.24010674023383
53.0 67.87814974051686
54.5 69.3891536312506
56.0 70.6891536312506
58.0 71.6891536312506
60.0 72.36783666162259
61.5 72.81184808591804
63.0 73.21184808591804
65.0 73.72003785957696
67.0 74.39117228257167
69.0 75.19117228257167
71.0 76.00320026508022
73.0 76.77141617679311
75.0 77.54417906358343
77.5 78.1837799662326
80.0 78.79639541291384
82.5 79.39639541291385
85.0 80.09639541291385
87.5 80.76528853505437
90.0 81.47825239547083
92.5 82.09147828382366
95.0 82.66436709413527
97.5 83.09147828382366
100.0 83.49147828382365
103.0 83.80497067523348
106.0 84.10497067523349
109.0 84.40497067523349
112.0 84.7474176559944
115.0 85.0884942642923
118.0 85.38849426429229
122.0 85.5884942642923
125.0 85.70263119370127
128.0 85.70263119370127
132.0 85.60263119370126
136.0 85.44574459001024
140.0 85.40263119370125
145.0 85.4170499332887
150.0 85.51704993328866
155.0 85.61704993328868
160.0 85.66035311823195
165.0 85.71704993328868
170.0 85.66035311823195
175.0 85.63175513861907
180.0 85.58748929892042
185.0 85.56035311823196
190.0 85.53175513861908
195.0 85.53175513861908
200.0 85.53175513861908
206.0 85.40229476693692
212.0 85.13175513861906
218.0 84.83175513861906
224.0 84.50229476693693
230.0 84.23175513861906
236.0 84.14675150375353
240.0 84.20229476693693
250.0 84.34675150375352
258.0 84.44675150375355
265.0 84.50229476693693
272.0 84.44675150375355
280.0 84.34675150375352
290.0 84.24675150375356
300.0 84.24675150375356
307.0 84.31998423401444
315.0 84.44675150375355
325.0 84.61998423401442
335.0 84.6936659009678
345.0 84.76528715999551
355.0 84.79366590096782
365.0 84.79366590096782
375.0 84.75000634017073
387.0 84.72386986096213
400.0 84.6500063401707
412.0 84.57848478147017
425.0 84.45000634017072
437.0 84.35000634017072
450.0 84.21998423401443
462.0 84.11998423401444
475.0 83.96528715999551
487.0 83.86528715999552
500.0 83.69366590096783
515.0 83.53924275721991
530.0 83.33924275721992
545.0 83.1652871599955
560.0 82.99366590096781
580.0 82.86528715999552
600.0 82.77848478147017
615.0 82.66528715999551
630.0 82.53924275721991
650.0 82.33924275721992
670.0 82.18539130564125
690.0 82.03924275721991
710.0 82.03924275721991
730.0 82.12386986096213
750.0 82.21998423401445
775.0 82.16528715999551
800.0 81.92940676691627
825.0 81.59867242696347
850.0 81.25086213388187
875.0 81.06761108534182
900.0 81.13971298709419
925.0 81.46761108534184
950.0 81.9397129870942
975.0 82.49942293182198
1000.0 83.07455785944566
1030.0 83.56373611801398
1060.0 83.78847217927516
1090.0 83.8600593685791
1120.0 83.88242230727826
1150.0 84.00287628300401
1180.0 84.23443179205896
1220.0 84.41106138014496
1250.0 84.48279645161536
1280.0 84.39942293182199
1320.0 84.06060199394092
1360.0 83.58905003759017
1400.0 82.86475013681101
1450.0 82.12914789453237
1500.0 81.61821823412566
1550.0 81.31913795500014
1600.0 81.19156994449547
1650.0 81.41913795500014
1700.0 81.83008667084901
1750.0 82.1830970615336
1800.0 82.84329663334434
1850.0 83.41862657962844
1900.0 83.88420286618349
1950.0 84.30066955620748
2000.0 84.4275557664304
2060.0 84.48400831353781
2120.0 84.34733305442549
2180.0 84.087715622779
2240.0 83.86747820888093
2300.0 83.6243312168948
2360.0 83.30813857137181
2400.0 82.89599938545614
2500.0 82.4495394207411
2580.0 82.14266205553481
2650.0 82.07831451590428
2720.0 82.10203242804674
2800.0 82.11264441880093
2900.0 81.9482093354251
3000.0 81.58572765253757
3070.0 81.17615378163295
3150.0 80.91410064710715
3250.0 80.89498755431485
3350.0 81.0695090811117
3450.0 81.27220187823816
3550.0 81.4869406770933
3650.0 81.66943727950165
3750.0 81.85766613506323
3870.0 82.01099754748108
4000.0 82.12634540685406
4120.0 82.1680156829814
4250.0 82.2173256988497
4370.0 82.4869596961953
4500.0 82.90049813176495
4620.0 83.30759264693475
4750.0 83.67833964087006
4870.0 83.80313613273493
5000.0 83.6944645878126
5150.0 83.52974030129488
5300.0 83.44548665360246
5450.0 83.50164618745083
5600.0 83.71744525333678
5800.0 84.0234215992642
6000.0 84.19246238880272
6150.0 84.14184208744645
6300.0 83.93933669708994
6500.0 83.45473319330469
6700.0 82.98569236879848
6900.0 82.67903938713783
7100.0 82.74331914880663
7300.0 83.2931866137876
7500.0 83.88044645962945
7750.0 83.97689794218792
8000.0 83.36400332767462
8250.0 82.65966302037812
8500.0 82.4799591302444
8750.0 83.12575940433173
9000.0 84.07983775130113
9250.0 84.57125734533626
9500.0 84.2989830697834
9750.0 83.93092408588925
10000.0 83.7617827072755
10300.0 83.92115871570658
10600.0 84.07057181883077
10900.0 84.12086789625046
11200.0 84.11476570018694
11500.0 84.00670601857351
11800.0 83.97243319833963
12200.0 84.1146138404168
12500.0 84.37822995494615
12800.0 85.04717555908124
13200.0 85.36884620022127
13600.0 85.30101327705546
14000.0 85.60527412856558
14500.0 85.15537934101351
15000.0 84.70775395598264
15500.0 84.41222516156597
16000.0 82.9617419961387
16500.0 82.69293434942048
17000.0 82.76505102853011
17500.0 82.03184495203456
18000.0 81.8850001317975
18500.0 80.85674504513668
19000.0 79.87946462523124
19500.0 79.01616553583591
