Freq,Floor Bounce,Ceiling Bounce,Front Wall Bounce,Side Wall Bounce,Rear Wall Bounce,Total Early Reflection
22.4,40.95597330084368,42.53663575667187,43.058405845040625,42.53998907679673,40.71540499077676,42.060509915207604
23.0,42.40722706905572,43.936635756671876,44.4584058450406,43.96028618844167,42.12392771180993,43.47427961702556
23.6,43.75597330084369,45.3030695710425,45.82979499755905,45.321021252861385,43.49863550405422,44.83913557240936
24.0,45.555973300843704,47.03663575667184,47.57331062323635,47.06003717734066,45.234660889102116,46.58719356886081
25.0,47.055973300843704,48.60306957104251,49.12979499755906,48.60031948272419,46.786940319854665,48.132800198528315
25.8,48.355973300843715,49.90306957104252,50.4584058450406,49.93062470127572,48.098635504054215,49.448485990956954
26.5,49.624066344335574,51.136635756671865,51.700657860694264,51.16028618844166,49.315404990776756,50.68630579744453
27.2,51.25597330084369,52.73663575667186,53.31508314243885,52.75096552288045,50.91540499077675,52.292889282784955
28.0,52.67301209244411,54.20306957104253,54.75840584504061,54.22898481831399,52.393814457260476,53.750068089811236
29.0,53.973012092444094,55.503069571042516,56.02979499755904,55.500539365866274,53.66625238203943,55.03248600166705
30.0,55.25597330084369,56.80306957104253,57.32979499755905,56.79086908513895,54.928523148881226,56.322171897480445
30.7,56.75597330084369,58.26845083805432,58.82979499755905,58.29086908513898,56.42363374303184,57.813750957213216
31.5,58.07301209244412,59.60306957104251,60.12979499755906,59.59086908513896,57.72852314888121,59.124842243996994
32.5,59.273012092444105,60.80306957104253,61.32979499755905,60.79086908513895,58.928523148881226,60.32484224399701
33.5,60.67301209244411,62.20306957104252,62.729794997559054,62.19086908513896,60.315404990776756,61.722942433901125
34.5,61.973012092444094,63.46845083805431,64.02979499755904,63.49086908513897,61.61540499077675,63.01523323066995
35.5,63.155973300843684,64.60306957104252,65.15840584504062,64.62898481831397,62.78005528461564,64.16111586627045
36.5,64.3730120924441,65.83513059177983,66.42979499755904,65.87233893837266,63.9938144572605,65.40059309795369
37.5,65.5730120924441,67.00306957104253,67.55840584504062,66.99086908513897,65.11971521600891,66.54662760249474
38.7,66.60529495129533,68.03513059177983,68.62979499755905,68.07233893837267,66.19381445726049,67.60570524565134
40.0,67.62253333882661,69.06845083805432,69.65840584504062,69.09086908513896,67.20375493882398,68.62861438823168
41.2,68.57301209244412,70.00306957104252,70.60099441428072,70.05096552288045,68.16625238203942,69.57746641748962
42.5,69.50529495129533,70.90306957104252,71.50099441428071,70.93226396525628,69.05272115639923,70.4764941753681
43.7,70.37301209244411,71.76845083805433,72.35840584504062,71.77233893837266,69.88005528461564,71.32915084799103
45.0,71.1225333388266,72.53513059177983,73.15840584504062,72.57233893837267,70.68005528461563,72.11372444430279
46.2,71.92253333882661,73.30306957104251,73.92979499755904,73.33226396525627,71.44396221245933,72.88530347937501
47.5,72.6401027109221,74.03513059177983,74.65840584504062,74.05096552288045,72.15272115639921,73.6078664435092
48.7,73.42253333882661,74.73513059177982,75.35840584504064,74.73226396525627,72.85272115639921,74.31704253479944
50.0,74.04010271092207,75.43513059177982,76.00099441428073,75.41304305795856,73.48440071878308,74.9751552673205
51.5,74.74010271092207,76.03513059177982,76.68618450501948,76.07233893837267,74.15272115639922,75.63581126449017
53.0,75.34010271092208,76.63513059177983,77.28618450501949,76.65096552288044,74.75272115639922,76.23109362967996
54.5,75.94010271092209,77.23513059177982,77.8861845050195,77.23226396525627,75.28440071878308,76.81731501715524
56.0,76.49040221489247,77.80306957104251,78.40099441428073,77.77233893837266,75.85272115639921,77.36275255768228
58.0,77.09040221489248,78.33513059177983,79.00099441428071,78.33226396525626,76.41875130326072,77.93419105753853
60.0,77.65800804769343,78.93513059177984,79.55840584504061,78.89460748087673,76.95709401280425,78.50105774929584
61.5,78.25800804769341,79.46769521305295,80.12979499755906,79.47233893837266,77.51875130326073,79.06865775506287
63.0,78.80851320750932,80.03513059177983,80.70099441428073,80.01390997192078,78.05709401280424,79.6245168679297
65.0,79.30851320750932,80.53513059177983,81.20099441428073,80.5139099719208,78.55709401280423,80.12451686792969
67.0,79.89040221489248,81.03513059177982,81.72979499755904,81.0139099719208,79.0455554055811,80.64397281608726
69.0,80.40851320750932,81.50231994589775,82.22979499755904,81.51390997192078,79.5319594396026,81.13798774210998
71.0,80.90851320750932,82.00231994589777,82.72979499755905,81.99460748087674,79.99544616151498,81.62875367812042
73.0,81.35959385611935,82.46769521305293,83.20099441428071,82.47651562495868,80.47338348355241,82.09854204827134
75.0,81.82696820294228,82.90231994589774,83.6577566746453,82.87651562495867,80.87338348355242,82.53216530260285
77.5,82.17825745704101,83.23513059177984,83.9861845050195,83.21390997192078,81.181692165603,82.86464676696525
80.0,82.51124970721757,83.53513059177982,84.31508314243885,83.5139099719208,81.47783691687168,83.1772682707854
82.5,82.87825745704103,83.83513059177983,84.62979499755905,83.81856144673371,81.75987449247339,83.49124291329832
85.0,83.17825745704101,84.13513059177983,84.95775667464531,84.0958985145661,82.03506580893904,83.79033924902762
87.5,83.43012177221654,84.43513059177982,85.15775667464531,84.3579240031357,82.26117052518292,84.03794490592766
90.0,83.73012177221653,84.63513059177981,85.45775667464532,84.5579240031357,82.46117052518292,84.28149851860435
92.5,83.93012177221655,84.76845083805432,85.60165212437171,84.74009453624473,82.62969991297683,84.4444508203841
95.0,84.0493489016972,84.86845083805431,85.75775667464532,84.84009453624473,82.72969991297683,84.56257845970964
97.5,84.20199903162157,85.00306957104252,85.85775667464532,84.96304977786927,82.79381687278313,84.67963742227568
100.0,84.30199903162156,85.06845083805433,85.95775667464532,85.0217736762011,82.86920187471341,84.76021454556147
103.0,84.42180052683975,85.13663575667186,86.0577566746453,85.08249272529741,82.89125946014885,84.83862486158282
106.0,84.45522280896299,85.13663575667186,86.08684446163055,85.06304977786928,82.86920187471341,84.84552999465289
109.0,84.52180052683973,85.13663575667186,86.11508314243885,85.08249272529741,82.86920187471341,84.8693675759462
112.0,84.57523823794747,85.13663575667186,86.11508314243885,85.04564756679633,82.80817686026498,84.8639370405257
115.0,84.57523823794747,85.0707173249541,86.11508314243885,85.02735016681594,82.7218473665262,84.83545510728393
118.0,84.52924838946487,85.0707173249541,86.02979499755905,84.92735016681594,82.63536027033888,84.77251318879894
122.0,84.49562483724394,84.97071732495408,86.01508314243883,84.85090750267882,82.53014029195424,84.71224738031401
125.0,84.44985150686698,84.87071732495409,85.95907003611941,84.7727778089661,82.43014029195425,84.63900986955353
128.0,84.44985150686698,84.83964531976001,85.88748929892041,84.69217735068911,82.31711092651766,84.58298691574657
132.0,84.44985150686698,84.77449351030438,85.88748929892041,84.63385448621767,82.22194488793768,84.546055134438
136.0,84.4708338338135,84.77449351030438,85.88748929892041,84.63385448621767,82.1931868111112,84.54681260268224
140.0,84.52585044351923,84.77449351030438,85.98748929892041,84.6797581433068,82.15301837936221,84.58979483839613
145.0,84.62585044351925,84.84415774934853,86.06035311823194,84.69912659892175,82.14953194892956,84.64783780446842
150.0,84.74743899086734,84.87977745790569,86.16035311823197,84.74539683485699,82.17592518856836,84.71966260561027
155.0,84.84743899086733,84.9501707521257,86.21704993328868,84.78264684748964,82.16996052102508,84.7771353665523
160.0,84.88143621591468,84.9501707521257,86.26035311823196,84.80700008330894,82.14839092303441,84.79867477029083
165.0,84.94743899086734,84.9501707521257,86.26035311823196,84.77323115455685,82.0807266227191,84.79819724219789
170.0,84.90324612052703,84.88656646311247,86.26035311823196,84.69549513437846,81.94873648745352,84.74648366719252
175.0,84.90324612052703,84.85768127821952,86.21897109437685,84.62034060402874,81.8011568638157,84.69863650115644
180.0,84.80324612052704,84.6948570588317,86.11897109437686,84.47974525135949,81.60022006503601,84.56740806784447
185.0,84.6596203420011,84.55768127821952,86.01897109437687,84.30468072914874,81.40259187562421,84.42608554561654
190.0,84.52545123408709,84.39485705883172,85.8336698070903,84.10468072914874,81.10963520159858,84.24282986056056
195.0,84.3254512340871,84.16668552790023,85.66359778061502,83.87202552445373,80.84359747569692,84.0329921907604
200.0,84.15962034200109,83.96668552790024,85.49264660232006,83.65690409354568,80.56166337240938,83.83811538929933
206.0,83.92545123408709,83.70464502318535,85.29264660232008,83.3825528380831,80.22591225843448,83.59113020311655
212.0,83.78204905670952,83.54314826109436,85.163597780615,83.23123983838357,79.96112311397094,83.43572110038963
218.0,83.58204905670955,83.37717895989803,85.00743452896756,83.0166636419666,79.6888603350055,83.24661252805177
224.0,83.48204905670954,83.25521969308379,84.89264660232007,82.86268361388638,79.44974148215621,83.11531101052753
230.0,83.28204905670954,83.12869245367796,84.80743452896756,82.68552008031016,79.18972190060241,82.96455785629497
236.0,83.2254512340871,83.02869245367796,84.73754321429634,82.61219806381526,79.01571509263246,82.88201047929834
240.0,83.12545123408708,83.00261155895365,84.6816424075462,82.49821769546395,78.81482990859075,82.80017331632922
250.0,83.02545123408709,82.94293979360191,84.66676624520525,82.39821769546396,78.63372836030746,82.72866536765095
258.0,82.96941986366728,82.94293979360191,84.6816424075462,82.3679765340633,78.50681613158272,82.70601225696149
265.0,82.90324612052703,82.91753803239935,84.6816424075462,82.33492050662699,78.35794050434284,82.66932917346418
272.0,82.84743899086735,82.98382334167594,84.75628853013706,82.36581432963922,78.26509622284875,82.69456333062058
280.0,82.82585044351926,83.05866027600834,84.81192981210717,82.35262820136109,78.1706681790919,82.7150169694324
290.0,82.7708338338135,83.15866027600835,84.91192981210718,82.42006753697643,78.09020061534974,82.76510245223834
300.0,82.78343461029552,83.30034112939828,85.0269946725239,82.49126877160055,78.04293840356891,82.84668267780026
307.0,82.76251322065521,83.47584607527146,85.1269946725239,82.59126877160054,77.99330864582402,82.93032410933701
315.0,82.6888886353865,83.57584607527146,85.2269946725239,82.64340895570862,77.92928029278681,82.9781281437983
325.0,82.61664590330462,83.77584607527147,85.32699467252391,82.69166803374128,77.88029414473579,83.05097941628611
335.0,82.54577223479652,83.91832544184972,85.4677916354448,82.77226621172238,77.79814567050131,83.13012985255301
345.0,82.3948466445546,84.07584607527147,85.54235653127142,82.81541918620563,77.72132675876698,83.17175801463353
355.0,82.27655346032071,84.17584607527147,85.59817545090704,82.84446240195557,77.58477624043763,83.19419657865473
365.0,82.07915446671191,84.27584607527146,85.61363940606881,82.84446240195557,77.43671085142986,83.18569456263803
375.0,81.86174268592248,84.37584607527145,85.61363940606881,82.82529552561596,77.29973356334503,83.16807816644054
387.0,81.6670591773177,84.47584607527145,85.55491760385289,82.76847240947524,77.08195698779976,83.1244743782017
400.0,81.46705917731768,84.50034112939828,85.45491760385289,82.68073491114231,76.85609644906792,83.04087880430029
412.0,81.33131741555754,84.50034112939828,85.3549176038529,82.53768037266981,76.62918432263562,82.95031833218815
425.0,81.2667207368606,84.50034112939828,85.18086845464632,82.39324730276518,76.34931514211576,82.84231162815522
437.0,81.3014648093739,84.45866027600835,85.02693758264846,82.17429499368892,76.06341671953038,82.73085097397171
450.0,81.41394942912605,84.28382334167596,84.78086845464632,81.9623226665974,75.714142729509,82.56091131213107
462.0,81.57100612011483,84.15866027600835,84.52693758264846,81.6687562895706,75.28644075523195,82.39718997388596
475.0,81.8377673428554,83.88382334167595,84.2549176038529,81.31634984172149,74.85167217178095,82.19886370965129
487.0,82.05866027600834,83.55866027600834,83.95491760385289,80.94051534088257,74.36579626366267,81.97369815346295
500.0,82.2429397936019,83.20034112939828,83.6136394060688,80.51292190368756,73.8098190558859,81.71983681673402
515.0,82.3369601259437,82.74258273663015,83.28847217927515,80.0489957632746,73.23698155016771,81.42861635312772
530.0,82.4369601259437,82.21832544184971,83.01941403242198,79.62219583066968,72.63373118707307,81.15512802679055
545.0,82.41152326304965,81.71457895753309,82.71068966302632,79.1756155843343,72.01516997742688,80.84885473444206
560.0,82.32699787697726,81.1809849055068,82.48664191481758,78.74399624359927,71.43137167638254,80.55534798829379
580.0,82.18573781157954,80.70473949550548,82.35141936926954,78.34713181326634,70.88932129315377,80.29787930443875
600.0,81.98204905670954,80.20921140720404,82.17218247894792,77.9813052952831,70.37029052807551,80.01200982501899
615.0,81.82585044351926,79.73638088039145,82.0934867905755,77.6601362097642,69.90646886725193,79.79039554153587
630.0,81.72180052683973,79.34577223479651,82.07409056988105,77.3944950598704,69.46938825704868,79.63430336331187
650.0,81.61124970721758,78.95800804769343,82.1022956018528,77.09184674417354,69.12336056372986,79.49600972190231
670.0,81.47263021037121,78.59037884047719,82.13651394195259,76.85251478206598,68.77464167527005,79.36701545358676
690.0,81.42285985267755,78.24123053036838,82.22947127746504,76.59879521363717,68.48616522042843,79.2973385886491
710.0,81.44302103107543,77.94123053036839,82.29164196844737,76.36420089008882,68.23716872350664,79.25430811003267
730.0,81.48051352069254,77.74123053036838,82.4715558327826,76.22741697044557,68.06014578658261,79.29503732118502
750.0,81.56570276170648,77.4765534603207,82.62131494238595,76.19452049375667,67.92595115442288,79.3453985011749
775.0,81.78051352069254,77.363225047856,82.90723879916953,76.32272712802407,67.83449054988057,79.53696285085414
800.0,81.94302103107542,77.25274994214361,83.18137929784577,76.64158935236037,67.7427095508404,79.72828929239712
825.0,82.19070778066616,77.27695775614916,83.52179258201247,77.10456911594815,67.63000126287514,80.01002677974097
850.0,82.42406634433557,77.37245249207646,83.86358735291816,77.62818028010417,67.37604307651111,80.3032240694291
875.0,82.50807851055698,77.39430744544666,84.14576072897016,78.0859297722238,66.94297313699587,80.5084859065908
900.0,82.51323574403132,77.44066681957173,84.34976132994991,78.31863180375004,66.2101735289283,80.63088868706373
925.0,82.35218761292408,77.31904449785341,84.40282891348242,78.37206405745076,65.20789880066765,80.5954506672978
950.0,81.99080616590045,77.07695775614917,84.38034367208412,78.08468878770441,63.92277600482612,80.41514140680611
975.0,81.58126242595502,76.70432912249858,84.23514704731949,77.59344367458276,62.498734065431606,80.12956016238581
1000.0,81.15147543072808,76.20432912249855,84.02951858637778,76.90070173839494,61.24976527146637,79.78007386734714
1030.0,80.74472243308102,75.72990957385144,83.78521467736785,76.08857223265737,60.56672546464722,79.41466248868686
1060.0,80.37710466008848,75.30330383828931,83.63203979024757,75.2939769842758,60.67857838973893,79.12510239153187
1090.0,80.12102614963506,75.05866027600834,83.53291302436156,74.66762635215386,61.4225341331138,78.93355992013252
1120.0,80.0094224842602,75.06419800295964,83.53411702989973,74.29841351188887,62.47514519360547,78.88316857796423
1150.0,80.02022160616295,75.44283030471975,83.62176344699957,74.4088809524001,63.58393955414694,78.98289312709633
1180.0,80.29238414975147,76.28623512455238,83.74249816156066,74.94580207860614,64.62578374722015,79.2463800216551
1220.0,80.82992552238315,77.62758719283592,83.9002701185431,75.82945534447187,65.55089590383812,79.69716103302055
1250.0,81.6187509116431,79.15953166004181,84.07227688174594,76.8130970100694,66.15810557304025,80.29476767610599
1280.0,82.30921325368946,80.22022160616295,84.27439624231037,77.41918144025173,66.08017208782718,80.80778331965465
1320.0,82.33753193576905,80.15471715126633,84.29524095379247,77.02124017194487,64.83106758729885,80.77142406707694
1360.0,81.53392657477244,79.3619571151101,84.06992929343005,75.67713906752019,62.69771298189485,80.19352142661135
1400.0,80.32117243709787,78.53248601826458,83.84545466270373,74.25464134105049,60.988905397178826,79.53566698040325
1450.0,79.24314826109435,78.1091010222644,83.61790445515058,73.61936580513347,60.33633969456898,79.06154478079276
1500.0,78.93155215291051,78.21568621032725,83.46598844806827,73.64920510173317,60.3015900949392,78.93058408605711
1550.0,79.2752717407642,78.60289359939014,83.3171839502051,73.79894382064778,60.250121417500424,78.99610452297532
1600.0,79.97064119846249,78.93728906550862,83.10115678933698,73.64768113749534,60.08609352964447,79.09588256264925
1650.0,80.2520789100964,79.11403481914587,82.67398947523083,72.95829140419265,59.95547639731831,78.9583209241298
1700.0,80.03994111166,78.79723594431542,82.13238710016032,71.78296158383313,59.9452310409404,78.52714412819341
1750.0,79.5549399124869,77.79083949114906,81.50093019040688,70.67157470414901,60.03668315423144,77.84408352539435
1800.0,79.43538998854157,76.92180052683975,80.94102608901485,70.51992167196099,59.98100630821318,77.37979907713083
1850.0,80.01903650727861,76.94363548845494,80.7169089043955,71.68853595288451,59.31341212898329,77.5353051880279
1900.0,80.5260182296561,76.92979699623842,80.91416424627668,72.56996712102516,57.880136403186356,77.84339501673276
1950.0,80.35265246320236,75.7481261410968,80.96096639279524,71.9836483687888,57.821024915754464,77.59195387531535
2000.0,79.56998114821681,74.30009898430524,80.73530579388097,71.32923321414464,58.70328344277678,76.99421804449084
2060.0,78.75154466637017,73.35721290186294,80.36793659695483,71.01140774409195,59.02423507751749,76.41358393807752
2120.0,77.99632446776457,72.73209585314548,79.92945276058722,70.77095841696358,58.884175447887,75.86375744371547
2180.0,77.63558172475376,72.882196718458,79.50356786770253,70.5984902893876,58.688706696988845,75.53522194548039
2240.0,77.7113137610676,73.49099930883406,79.47745471628161,70.53997071003045,58.596311259267395,75.6131656286168
2300.0,77.39985323749444,73.16717854541963,79.84868369563596,70.47862283886451,58.66685214230242,75.66235836813442
2360.0,77.18030250365476,70.8907192043791,80.29194197331957,70.50115493567932,58.39132528774769,75.64397604217953
2400.0,77.14929476675216,67.68222706769103,80.56943876169814,70.40707276579136,57.24227522542614,75.6409485013895
2500.0,77.22071531388538,67.5964124589963,80.73888866370895,70.27735076468187,56.09940142616722,75.75406404213037
2580.0,77.19662658931776,68.91365895199044,80.75435344933702,70.0954915078956,56.45155601917216,75.79464345209426
2650.0,76.8515136038659,69.7447529719088,80.60726187445184,70.20882980787692,58.16113726452255,75.65890855729452
2720.0,76.18309009668941,70.47244826645844,80.48861903707552,70.46084306881045,59.2942541471954,75.47902280643032
2800.0,75.60557884155047,71.32761355743555,80.50484354158863,70.75213658307163,59.213407564141704,75.44024376194835
2900.0,74.91643548369733,71.18888547155002,80.7755913806471,70.78084349549287,58.28657263887868,75.47443274079349
3000.0,74.2584602021873,71.88042420054254,81.14106626852173,70.87921488284726,56.92035225619222,75.67878945252077
3070.0,74.08393255126697,73.35623495782836,81.44435959282896,71.23439803505892,55.706723553990514,76.02889567188647
3150.0,74.49330929681638,73.36474690814802,81.4576281642044,71.57401600724003,55.270514304830954,76.11570870853399
3250.0,74.68422821633101,72.53393195677211,81.34998180589736,71.59841685223022,56.05830471450173,75.99091777960388
3350.0,74.55803522150264,72.79122190442486,81.26964590627837,71.38737616104555,56.6464826536521,75.92757595764539
