Freq "Rear Wall Bounce"
22.4 40.71540499077675
23.0 42.12392771180994
23.6 43.49863550405421
24.0 45.2346608891021
25.0 46.78694031985465
25.8 48.0986355040542
26.5 49.31540499077674
27.2 50.915404990776764
28.0 52.39381445726049
29.0 53.66625238203942
30.0 54.92852314888121
30.7 56.42363374303183
31.5 57.728523148881195
32.5 58.92852314888121
33.5 60.31540499077674
34.5 61.61540499077675
35.5 62.78005528461563
36.5 63.993814457260484
37.5 65.1197152160089
38.7 66.19381445726047
40.0 67.20375493882399
41.2 68.16625238203942
42.5 69.05272115639922
43.7 69.88005528461564
45.0 70.68005528461565
46.2 71.44396221245931
47.5 72.15272115639921
48.7 72.85272115639923
50.0 73.48440071878306
51.5 74.15272115639922
53.0 74.75272115639922
54.5 75.28440071878308
56.0 75.85272115639921
58.0 76.41875130326072
60.0 76.95709401280423
61.5 77.51875130326071
63.0 78.05709401280423
65.0 78.55709401280423
67.0 79.04555540558108
69.0 79.5319594396026
71.0 79.99544616151498
73.0 80.47338348355241
75.0 80.87338348355242
77.5 81.181692165603
80.0 81.47783691687168
82.5 81.7598744924734
85.0 82.03506580893902
87.5 82.26117052518292
90.0 82.46117052518292
92.5 82.62969991297682
95.0 82.72969991297683
97.5 82.79381687278313
100.0 82.86920187471343
103.0 82.89125946014885
106.0 82.86920187471343
109.0 82.86920187471343
112.0 82.80817686026496
115.0 82.72184736652619
118.0 82.6353602703389
122.0 82.53014029195425
125.0 82.43014029195426
128.0 82.31711092651766
132.0 82.22194488793767
136.0 82.19318681111119
140.0 82.15301837936222
145.0 82.14953194892955
150.0 82.17592518856837
155.0 82.16996052102506
160.0 82.1483909230344
165.0 82.0807266227191
170.0 81.9487364874535
175.0 81.8011568638157
180.0 81.60022006503601
185.0 81.4025918756242
190.0 81.10963520159858
195.0 80.84359747569691
200.0 80.56166337240938
206.0 80.22591225843448
212.0 79.96112311397094
218.0 79.68886033500551
224.0 79.44974148215621
230.0 79.18972190060241
236.0 79.01571509263248
240.0 78.81482990859074
250.0 78.63372836030746
258.0 78.50681613158272
265.0 78.35794050434284
272.0 78.26509622284875
280.0 78.17066817909192
290.0 78.09020061534973
300.0 78.0429384035689
307.0 77.99330864582402
315.0 77.92928029278681
325.0 77.88029414473577
335.0 77.79814567050131
345.0 77.72132675876698
355.0 77.58477624043762
365.0 77.43671085142985
375.0 77.29973356334503
387.0 77.08195698779976
400.0 76.85609644906792
412.0 76.62918432263562
425.0 76.34931514211577
437.0 76.06341671953038
450.0 75.71414272950902
462.0 75.28644075523195
475.0 74.85167217178095
487.0 74.36579626366266
500.0 73.8098190558859
515.0 73.2369815501677
530.0 72.63373118707307
545.0 72.01516997742688
560.0 71.43137167638255
580.0 70.88932129315377
600.0 70.37029052807551
615.0 69.90646886725192
630.0 69.46938825704866
650.0 69.12336056372985
670.0 68.77464167527006
690.0 68.48616522042843
710.0 68.23716872350664
730.0 68.06014578658261
750.0 67.92595115442288
775.0 67.83449054988058
800.0 67.7427095508404
825.0 67.63000126287513
850.0 67.3760430765111
875.0 66.94297313699586
900.0 66.21017352892828
925.0 65.20789880066764
950.0 63.92277600482613
975.0 62.49873406543159
1000.0 61.24976527146639
1030.0 60.566725464647234
1060.0 60.67857838973892
1090.0 61.422534133113814
1120.0 62.47514519360547
1150.0 63.58393955414694
1180.0 64.62578374722015
1220.0 65.55089590383814
1250.0 66.15810557304026
1280.0 66.08017208782717
1320.0 64.83106758729886
1360.0 62.69771298189484
1400.0 60.98890539717881
1450.0 60.33633969456899
1500.0 60.301590094939215
1550.0 60.25012141750044
1600.0 60.08609352964446
1650.0 59.95547639731829
1700.0 59.945231040940385
1750.0 60.036683154231454
1800.0 59.98100630821317
1850.0 59.3134121289833
1900.0 57.88013640318634
1950.0 57.82102491575445
2000.0 58.703283442776765
2060.0 59.0242350775175
2120.0 58.88417544788702
2180.0 58.68870669698883
2240.0 58.59631125926738
2300.0 58.66685214230243
2360.0 58.39132528774768
2400.0 57.24227522542613
2500.0 56.09940142616723
2580.0 56.451556019172145
2650.0 58.16113726452254
2720.0 59.29425414719542
2800.0 59.21340756414172
2900.0 58.28657263887867
3000.0 56.92035225619223
3070.0 55.7067235539905
3150.0 55.27051430483097
3250.0 56.058304714501745
3350.0 56.646482653652086
3450.0 56.22609164882972
3550.0 55.51994954918531
3650.0 55.272166198914206
3750.0 55.4063225536659
3870.0 55.92646115139313
4000.0 56.04640763848256
4120.0 55.3762011684055
4250.0 53.687699708882704
4370.0 51.857566956750034
4500.0 52.443073898498895
4620.0 55.19165883007962
4750.0 56.11699981244614
4870.0 55.03085917247371
5000.0 55.477914121914026
5150.0 56.90480870443439
5300.0 55.729314293437355
5450.0 55.946368803620246
5600.0 56.46231222245338
5800.0 56.63088079230168
6000.0 56.84644648751099
6150.0 55.16578939707891
6300.0 53.61286596030165
6500.0 55.008371897733966
6700.0 55.617617459541734
6900.0 55.25688920394292
7100.0 54.56351372987372
7300.0 54.80429671285658
7500.0 55.76999815672225
7750.0 54.87614637228624
8000.0 52.735213277667654
8250.0 54.11416117384546
8500.0 54.88664008810001
8750.0 55.77515561444439
9000.0 52.72007146275381
9250.0 53.18641533159756
9500.0 51.417644898051506
9750.0 51.49105618688431
10000.0 52.38925644563405
10300.0 53.621696531457005
10600.0 52.53825566880762
10900.0 53.77233738319812
11200.0 53.98405228418555
11500.0 53.59113272242605
11800.0 51.214827530199656
12200.0 49.903295879865524
12500.0 50.03211243321961
12800.0 48.25238361684886
13200.0 49.62306439321294
13600.0 49.363828419104394
14000.0 49.890209433992496
14500.0 48.25353960651283
15000.0 45.758747241093985
15500.0 44.80968481619438
16000.0 43.63802136396957
16500.0 45.96013396280158
17000.0 46.07468998904436
17500.0 39.984452713460186
18000.0 37.60454500776264
18500.0 37.60549719958537
19000.0 34.96527490335977
19500.0 36.97497412380294
