Freq "Rear Wall Bounce"
22.4 41.72426575027042
23.0 43.132788471303584
23.6 44.50749626354788
24.0 46.243521648595774
25.0 47.79580107934832
25.8 49.10749626354787
26.5 50.32426575027041
27.2 51.92426575027041
28.0 53.40267521675413
29.0 54.67511314153309
30.0 55.93738390837488
30.7 57.4324945025255
31.5 58.737383908374866
32.5 59.93738390837488
33.5 61.32426575027041
34.5 62.62426575027041
35.5 63.7889160441093
36.5 65.00267521675416
37.5 66.12857597550257
38.7 67.20267521675414
40.0 68.21261569831763
41.2 69.17511314153307
42.5 70.06158191589289
43.7 70.8889160441093
45.0 71.68891604410929
46.2 72.45282297195298
47.5 73.16158191589287
48.7 73.86158191589287
50.0 74.49326147827674
51.5 75.16158191589288
53.0 75.76158191589288
54.5 76.29326147827673
56.0 76.86158191589287
58.0 77.42761206275438
60.0 77.9659547722979
61.5 78.52761206275439
63.0 79.0659547722979
65.0 79.56595477229789
67.0 80.05441616507476
69.0 80.54082019909626
71.0 81.00430692100863
73.0 81.48224424304607
75.0 81.88224424304607
77.5 82.19055292509665
80.0 82.48669767636534
82.5 82.76873525196704
85.0 83.0439265684327
87.5 83.27003128467658
90.0 83.47003128467658
92.5 83.63856067247049
95.0 83.73856067247048
97.5 83.80267763227678
100.0 83.87806263420707
103.0 83.9001202196425
106.0 83.87806263420707
109.0 83.87806263420707
112.0 83.81703761975864
115.0 83.73070812601986
118.0 83.64422102983254
122.0 83.5390010514479
125.0 83.4390010514479
128.0 83.32597168601131
132.0 83.23080564743134
136.0 83.20204757060486
140.0 83.16187913885587
145.0 83.15839270842322
150.0 83.18478594806201
155.0 83.17882128051873
160.0 83.15725168252807
165.0 83.08958738221276
170.0 82.95759724694717
175.0 82.81001762330936
180.0 82.60908082452967
185.0 82.41145263511787
190.0 82.11849596109224
195.0 81.85245823519058
200.0 81.57052413190304
206.0 81.23477301792813
212.0 80.9699838734646
218.0 80.69772109449916
224.0 80.45860224164987
230.0 80.19858266009606
236.0 80.02457585212612
240.0 79.82369066808441
250.0 79.64258911980112
258.0 79.51567689107638
265.0 79.36680126383649
272.0 79.27395698234241
280.0 79.17952893858556
290.0 79.0990613748434
300.0 79.05179916306257
307.0 79.00216940531767
315.0 78.93814105228047
325.0 78.88915490422944
335.0 78.80700642999497
345.0 78.73018751826064
355.0 78.59363699993129
365.0 78.44557161092352
375.0 78.30859432283869
387.0 78.09081774729341
400.0 77.86495720856158
412.0 77.63804508212928
425.0 77.35817590160941
437.0 77.07227747902404
450.0 76.72300348900266
462.0 76.29530151472561
475.0 75.8605329312746
487.0 75.37465702315633
500.0 74.81867981537955
515.0 74.24584230966137
530.0 73.64259194656672
545.0 73.02403073692054
560.0 72.4402324358762
580.0 71.89818205264743
600.0 71.37915128756917
615.0 70.91532962674559
630.0 70.47824901654234
650.0 70.13222132322352
670.0 69.7835024347637
690.0 69.49502597992209
710.0 69.2460294830003
730.0 69.06900654607627
750.0 68.93481191391653
775.0 68.84335130937423
800.0 68.75157031033406
825.0 68.6388620223688
850.0 68.38490383600477
875.0 67.95183389648953
900.0 67.21903428842195
925.0 66.21675956016131
950.0 64.93163676431978
975.0 63.50759482492526
1000.0 62.25862603096003
1030.0 61.57558622414088
1060.0 61.68743914923259
1090.0 62.43139489260746
1120.0 63.48400595309913
1150.0 64.5928003136406
1180.0 65.63464450671381
1220.0 66.55975666333178
1250.0 67.1669663325339
1280.0 67.08903284732084
1320.0 65.8399283467925
1360.0 63.70657374138851
1400.0 61.99776615667248
1450.0 61.345200454062635
1500.0 61.31045085443286
1550.0 61.25898217699408
1600.0 61.09495428913813
1650.0 60.964337156811965
1700.0 60.95409180043406
1750.0 61.0455439137251
1800.0 60.98986706770684
1850.0 60.322272888476945
1900.0 58.88899716268001
1950.0 58.82988567524812
2000.0 59.71214420227044
2060.0 60.033095837011146
2120.0 59.89303620738066
2180.0 59.6975674564825
2240.0 59.60517201876105
2300.0 59.675712901796075
2360.0 59.40018604724135
2400.0 58.2511359849198
2500.0 57.10826218566088
2580.0 57.46041677866582
2650.0 59.16999802401621
2720.0 60.30311490668906
2800.0 60.22226832363536
2900.0 59.29543339837234
3000.0 57.929213015685875
3070.0 56.71558431348417
3150.0 56.27937506432461
3250.0 57.06716547399539
3350.0 57.65534341314576
3450.0 57.234952408323394
3550.0 56.528810308678985
3650.0 56.28102695840788
3750.0 56.415183313159545
3870.0 56.9353219108868
4000.0 57.05526839797621
4120.0 56.38506192789917
4250.0 54.696560468376376
4370.0 52.866427716243706
4500.0 53.45193465799254
4620.0 56.20051958957329
4750.0 57.12586057193981
4870.0 56.03971993196738
5000.0 56.4867748814077
5150.0 57.91366946392803
5300.0 56.73817505293103
5450.0 56.95522956311389
5600.0 57.47117298194705
5800.0 57.63974155179535
6000.0 57.85530724700463
6150.0 56.174650156572554
6300.0 54.62172671979532
6500.0 56.01723265722764
6700.0 56.62647821903538
6900.0 56.26574996343656
7100.0 55.57237448936739
7300.0 55.813157472350255
7500.0 56.778858916215924
7750.0 55.885007131779886
8000.0 53.7440740371613
8250.0 55.12302193333913
8500.0 55.89550084759368
8750.0 56.78401637393806
9000.0 53.72893222224745
9250.0 54.1952760910912
9500.0 52.42650565754518
9750.0 52.49991694637798
10000.0 53.39811720512769
10300.0 54.63055729095065
10600.0 53.547116428301266
10900.0 54.78119814269179
11200.0 54.992913043679195
11500.0 54.5999934819197
11800.0 52.22368828969333
12200.0 50.91215663935917
12500.0 51.04097319271328
12800.0 49.26124437634253
13200.0 50.631925152706614
13600.0 50.372689178598065
14000.0 50.89907019348617
14500.0 49.262400366006474
15000.0 46.76760800058763
15500.0 45.81854557568805
16000.0 44.64688212346324
16500.0 46.96899472229522
17000.0 47.083550748538
17500.0 40.99331347295386
18000.0 38.61340576725631
18500.0 38.614357959079044
19000.0 35.97413566285344
19500.0 37.98383488329658
