Freq,Floor Bounce,Ceiling Bounce,Front Wall Bounce,Side Wall Bounce,Rear Wall Bounce,Total Early Reflection
22.4,-22.766410173120036,-22.799999999999997,-22.74257550864185,-22.799999999999997,-22.810418538755258,-22.783806263652266
23.0,-20.333078148839476,-20.366410173120002,-20.299999999999997,-20.359723271029495,-20.39999999999999,-20.351712555478983
23.6,-17.9330781488395,-17.966410173120025,-17.89999999999999,-17.959723271029517,-17.999999999999986,-17.951712555478977
24.0,-15.533078148839465,-15.56641017311999,-15.499999999999986,-15.559723271029512,-15.610418538755269,-15.553771241759122
25.0,-13.166410173120013,-13.166410173120013,-13.128337246081102,-13.159723271029506,-13.210418538755263,-13.166180936780378
25.8,-10.833078148839476,-10.833078148839476,-10.771192843254696,-10.819816641150126,-10.841824961498972,-10.819724281654075
26.5,-8.433078148839499,-8.466410173120025,-8.40000000000002,-8.459723271029517,-8.52086213125402,-8.455830904381273
27.2,-6.133078148839488,-6.166410173120013,-6.1000000000000085,-6.159723271029534,-6.210418538755263,-6.153771241759145
28.0,-3.8330781488395047,-3.8330781488395047,-3.7711928432546955,-3.8198166411501546,-3.878755167575875,-3.827047847384378
29.0,-1.4656485913150021,-1.4992325055443843,-1.40000000000002,-1.4793565669192077,-1.541824961498989,-1.4769644538422
30.0,0.8669218511604839,0.8335898268799582,0.8999999999999915,0.8402767289704656,0.7791378687459911,0.8441690956187387
30.7,3.1669218511604953,3.1335898268799696,3.200000000000003,3.140276728970477,3.1002423813233833,3.148335385856271
31.5,5.534351408685055,5.500767494455616,5.6000000000000085,5.520643433080764,5.4212448324241365,5.515783793022777
32.5,7.900767494455593,7.833589826879958,7.95742449135814,7.840276728970466,7.8002423813234,7.866820229753287
33.5,10.26692185116049,10.233589826879964,10.299999999999997,10.240276728970471,10.158175038501057,10.240046837641259
34.5,12.600767494455638,12.566921851160501,12.657424491358128,12.560275880709057,12.500242381323417,12.577432921549487
35.5,14.966921851160507,14.933589826879981,15.000000000000014,14.94027672897046,14.858175038501045,14.940046837641276
36.5,17.300767494455627,17.233589826879964,17.357424491358145,17.24027672897047,17.179137868745997,17.262671643235635
37.5,19.60076749445561,19.533589826880004,19.657424491358157,19.540276728970483,19.489824424712324,19.564770311921407
38.7,21.83435140868501,21.8007674944556,21.89999999999999,21.820643433080775,21.72678074647122,21.816867690154893
40.0,24.034351408685026,24.000767494455616,24.10000000000001,24.02064343308082,23.91087719539236,24.01375686210268
41.2,26.200767494455604,26.13358982687997,26.25742449135815,26.140276728970477,26.03735085147646,26.1545050941139
42.5,28.3007674944556,28.233589826879964,28.357424491358145,28.24027672897047,28.137350851476427,28.254505094113867
43.7,30.300767494455627,30.233589826879964,30.371662753918898,30.24027672897047,30.168907680838416,30.263582090906212
45.0,32.268450838054335,32.200767494455604,32.357424491358145,32.22064343308081,32.137350851476455,32.237550451884616
46.2,34.234351408685015,34.20076749445563,34.3,34.2009209770721,34.08982442471232,34.20570557759562
47.5,36.13435140868502,36.10076749445561,36.2,36.10092097707211,35.979619408542376,36.10372019279784
48.7,37.96845083805435,37.90076749445562,38.071662753918915,37.9206434330808,37.81618485256671,37.93635585344096
50.0,39.86845083805433,39.80076749445563,39.95742449135817,39.800920977072096,39.67961940854239,39.822395500950805
51.5,41.66845083805434,41.60076749445564,41.75742449135815,41.60092097707211,41.479619408542405,41.62239550095079
53.0,43.46845083805432,43.40076749445559,43.55742449135816,43.40092097707209,43.27961940854239,43.4223955009508
54.5,45.23663575667187,45.13513059177984,45.357424491358145,45.16165938830221,45.04814059954835,45.18904798675932
56.0,46.96845083805432,46.867695213052926,47.05742449135815,46.881108547448136,46.7586589081163,46.90783380303786
58.0,48.636635756671865,48.53513059177982,48.75742449135815,48.5616593883022,48.42726812636056,48.585014583753164
60.0,50.268450838054335,50.20076749445562,50.357424491358145,50.2009209770721,50.06915180361297,50.22037165420525
61.5,51.86845083805433,51.8007674944556,51.957424491358154,51.800920977072096,51.65865890811632,51.818346863891335
63.0,53.40306957104251,53.33513059177983,53.52946066855591,53.34212273735355,53.17961940854239,53.359353811105294
65.0,54.93663575667186,54.83513059177983,55.05742449135816,54.84212273735355,54.66915180361296,54.86997694189964
67.0,56.33663575667187,56.235130591779836,56.45742449135814,56.242122737353554,56.090304781120025,56.27402432843485
69.0,57.67150800786938,57.603069571042525,57.82946066855591,57.62294550966769,57.427744359292944,57.63286002293931
71.0,58.97150800786939,58.87001488257478,59.12946066855592,58.88249620606594,58.727744359292956,58.91826074775763
73.0,60.17150800786938,60.07001488257477,60.329460668555896,60.10323352897966,59.917150819014495,60.12035822511025
75.0,61.305318067664714,61.20306957104252,61.45742449135814,61.22294550966768,61.0171508190145,61.24354807744605
77.5,62.33663575667187,62.235130591779836,62.45742449135814,62.242122737353554,62.02774435929295,62.26210012114676
80.0,63.23663575667186,63.13513059177983,63.386514495860936,63.142122737353546,62.938312122113686,63.17020358409938
82.5,64.07150800786938,63.97001488257477,64.2294606685559,63.98388342144041,63.759865818493026,64.00562556587455
85.0,64.80531806766471,64.70306957104252,64.95742449135815,64.7229455096677,64.45986581849304,64.7327309777535
87.5,65.4404416794549,65.30306957104253,65.58651449586095,65.32294550966769,65.05986581849302,65.34603017477632
90.0,65.94044167945492,65.80306957104251,66.11541094484141,65.82294550966769,65.58106396287928,65.85612611300253
92.5,66.4404416794549,66.26845083805432,66.58651449586095,66.30230232064049,66.03400501642594,66.33024823142465
95.0,66.84044167945491,66.66845083805434,66.97264843113159,66.7023023206405,66.391745786236,66.71944144770124
97.5,67.17150800786938,67.03435140868503,67.28651449586094,67.04165599637157,66.71232227013702,67.053489972966
100.0,67.47150800786937,67.26692185116049,67.57264843113158,67.28064597778591,66.98059354136728,67.31918181889917
103.0,67.67150800786939,67.50076749445562,67.7726484311316,67.48156054014522,67.16963445186299,67.52404982316541
106.0,67.80306957104253,67.63358982687998,67.90132328177695,67.62064343308079,67.32798519717187,67.66169095576909
109.0,68.00306957104252,67.76845083805433,68.04413156679159,67.72157071745498,67.44885423262174,67.80250540243539
112.0,68.10076749445561,67.9022846139602,68.11475531529209,67.84212273735356,67.5483803090373,67.90652788616543
115.0,68.16769521305294,67.9707173249541,68.15808883252637,67.8838834214404,67.58568947014462,67.95841194088807
118.0,68.23358982687996,68.0053180676647,68.18651449586095,67.90509584034109,67.62798519717187,67.99709566748545
122.0,68.23358982687996,68.0053180676647,68.20065786069425,67.88575404710204,67.63411673044675,67.99740357990395
125.0,68.23358982687996,68.0053180676647,68.22880715674528,67.88575404710204,67.60180932182853,67.99740142786558
128.0,68.2,68.0053180676647,68.2,67.88575404710204,67.57642217056383,67.97962051713861
132.0,68.2,68.03663575667186,68.2,67.90509584034109,67.51244030422559,67.97816148652328
136.0,68.2,68.03663575667186,68.2,67.88619527951268,67.4818966146586,67.96897449590429
140.0,68.1669218511605,68.0022846139602,68.24313939533782,67.86489011537074,67.42353874152565,67.94964112500539
145.0,68.1669218511605,68.03435140868503,68.24313939533782,67.88477650203508,67.33990728771326,67.94538776717782
150.0,68.16845083805431,68.00076749445562,68.30065786069424,67.86395064819496,67.27719812799428,67.9363439283315
155.0,68.16845083805431,68.00076749445562,68.30065786069424,67.84530504353962,67.2204661119212,67.92297853614139
160.0,68.13663575667186,67.96769521305295,68.30065786069424,67.84438281351729,67.14238336657046,67.89613228124925
165.0,68.13663575667186,67.96769521305295,68.31508314243885,67.85461714538351,67.11156930746041,67.89616670242124
170.0,68.14044167945491,68.00231994589775,68.34346508697898,67.85581319089691,67.03275552455459,67.89750928937212
175.0,68.17449351030437,68.00231994589775,68.35742449135816,67.84581484640402,66.95433674709442,67.8931212729615
180.0,68.17449351030437,67.97001488257476,68.34313939533781,67.80670846740433,66.88641327550054,67.8646927582525
185.0,68.10906430015984,67.93821129888744,68.32913392494288,67.7577397889276,66.78078835956588,67.81457077702649
190.0,68.04415774934851,67.90690501035459,68.30065786069424,67.6577397889276,66.64955795764735,67.74756670642218
195.0,67.9441577493485,67.84283030471975,68.22913392494287,67.54797362900491,66.50367194035208,67.65253770149971
200.0,67.81430637862282,67.77609175449223,68.12913392494288,67.3805404868106,66.29319678254298,67.52324349533342
206.0,67.5849349246085,67.6760917544922,67.98716689224361,67.18002282608205,66.05402647733132,67.34582768809189
212.0,67.3501707521257,67.5098662867233,67.85873795327733,66.9402299399007,65.76879588104464,67.14239350975933
218.0,67.08656646311248,67.34044167945491,67.70197345754111,66.6834681248815,65.46882452557595,66.92084838041946
224.0,66.82349685065981,67.13964531976,67.533069473915,66.40494038261241,65.15757896226208,66.68452264271305
230.0,66.6234968506598,66.9707173249541,67.37724470229043,66.14895984230125,64.8404031841137,66.47553692192385
236.0,66.46096514237182,66.8053180676647,67.25065822210307,65.92475865836329,64.54323283955758,66.29163941674257
240.0,66.26096514237183,66.67150800786938,67.13925948090373,65.74982540030642,64.26812550872064,66.1235259452861
250.0,66.22758719283591,66.50690501035459,67.08372592919532,65.61902729015465,64.00642823301236,66.00776132145116
258.0,66.28982856673471,66.40690501035459,67.04311734994882,65.5914099524634,63.80257685894097,65.95797299630514
265.0,66.38982856673472,66.34283030471974,67.08603909644977,65.60156488216334,63.63328418403442,65.95843401044628
272.0,66.55260953202217,66.24283030471975,67.11334337464746,65.67663048677953,63.48088672864489,65.97694823662083
280.0,66.75260953202216,66.21227178315618,67.2001840070492,65.76296098370254,63.34333548323963,66.04056467092161
290.0,66.94576719438469,66.18219967332304,67.25518249849907,65.87109174161857,63.21279931654021,66.10161828027991
300.0,67.07977745790569,66.11916705502753,67.35518249849906,65.9826708322286,63.103941799276214,66.15832473089762
307.0,67.2098662867233,66.08982856673472,67.3824155480424,66.07135747047418,62.967965640705344,66.19617284765586
315.0,67.2098662867233,66.02758719283592,67.3824155480424,66.08935987925034,62.80161228986199,66.17202899607437
325.0,67.1457671943847,65.89897445130926,67.3824155480424,66.09798256186248,62.64541455828936,66.11859681432303
335.0,67.04576719438471,65.79897445130923,67.35518249849906,66.02845293723153,62.463171121813716,66.0369543236924
345.0,66.81592692226708,65.63752777300029,67.28636158685839,65.93847262197399,62.260144511992976,65.89445903210971
355.0,66.55260953202217,65.4096325668162,67.2001840070492,65.83728430239657,62.054583478331594,65.72505712525934
365.0,66.36096514237182,65.24898359150842,67.14675536485994,65.70517272669017,61.837380398000036,65.5884102409716
375.0,66.19897445130925,65.02179738688893,67.0895945785674,65.59565896145422,61.615066105115105,65.45056004977008
387.0,66.00963256681621,64.76194867563765,67.05062633714981,65.4988361155326,61.39622345850751,65.30981106495288
400.0,65.88219812790055,64.47641629732153,67.03564336910198,65.40872613950542,61.194487871148155,65.1908626856668
412.0,65.92179738688895,64.192378988098,67.09374951394828,65.39376843183753,61.02736246316077,65.15508253945728
425.0,65.99506458035829,63.84258273663016,67.17785192587829,65.37075576325012,60.85084280251985,65.1270890284038
437.0,66.14293979360191,63.52875610128315,67.21953125332763,65.37199166077241,60.714729058795385,65.12245941384414
450.0,66.31753803239934,63.24915203998832,67.36189592994323,65.40937464908184,60.61525807502481,65.17739225081934
462.0,66.5925701141361,63.003303838289284,67.48786689581917,65.47395938586996,60.5280674056723,65.26953839979596
475.0,66.79257011413608,62.826432977425085,67.58786689581918,65.49435382652403,60.46218526114559,65.33756145233313
487.0,67.02699787697726,62.694307445446654,67.68786689581917,65.54070375713512,60.438608429926944,65.43138809010796
500.0,67.22699787697728,62.62643297742508,67.78786689581916,65.56219444874978,60.43391991732267,65.5205425819869
515.0,67.39257011413608,62.694307445446654,67.81548751763067,65.5552898995135,60.45461406509283,65.58630180330776
530.0,67.51753803239933,62.87100612011483,67.87400515522948,65.54868584324258,60.48990562390959,65.66313478276075
545.0,67.57697211958266,63.049152039988286,67.88968169008196,65.54868584324258,60.529322784322034,65.70799974354459
560.0,67.66878033996791,63.22875610128315,67.90553611241262,65.50342230105166,60.54990348117596,65.75399541669294
580.0,67.6950645803583,63.53469773360898,67.87720497047916,65.44625197250963,60.54037369726238,65.77700615799706
600.0,67.6552196930838,63.81792789764852,67.8670012451584,65.40001884618955,60.497634942998644,65.78521321730742
615.0,67.68219812790055,64.1026545034034,67.85370049004409,65.35825407019769,60.39548326213708,65.8129911257687
630.0,67.62179738688896,64.28888547155002,67.85370049004409,65.28413260033155,60.22098691733015,65.79711791246585
650.0,67.55521969308379,64.50963256681621,67.8420827337143,65.24548640755813,59.96212196658625,65.7845054466031
670.0,67.49506458035829,64.6096325668162,67.82741251511969,65.19232338658496,59.65196404787518,65.75180063809212
690.0,67.3950645803583,64.77082970284297,67.78222248906036,65.14446472323601,59.28813229495728,65.70728212321204
710.0,67.3429397936019,64.87082970284298,67.79204548028463,65.10495110407939,58.893947673723034,65.68733133363284
730.0,67.31753803239934,64.97082970284298,67.79204548028463,65.05814559101957,58.52679598586258,65.67378244095151
750.0,67.2925701141361,65.11592538879982,67.79204548028463,65.02131768720056,58.17489760200897,65.67220659226246
775.0,67.30962251076208,65.28915630129642,67.807179353545,65.02804888553051,57.85781364399955,65.70337151188166
800.0,67.38573781157956,65.48915630129643,67.807179353545,65.0207615457151,57.640427046405705,65.75430220229316
825.0,67.48573781157955,65.70261155895363,67.80602142785727,65.03582701809704,57.496612029642634,65.8222011245341
850.0,67.68573781157956,66.04293979360189,67.81946878285564,65.0498506720636,57.448696057365424,65.95428986000977
875.0,67.8517743753474,66.35866027600834,67.80505808503816,65.0662768983237,57.529898852471845,66.07056248155133
900.0,68.00962251076207,66.73392832814568,67.83660613376783,65.05020105519678,57.65679918342484,66.21098603209018
925.0,68.2339283281457,67.07584607527146,67.82381555157559,65.0581106052625,57.811620324680405,66.36020241293726
950.0,68.35866027600834,67.47584607527146,67.83954607722511,65.01632595659788,58.0239148462537,66.50003041462305
975.0,68.50261155895365,67.86136837622765,67.84139354487151,64.98322715562806,58.19077627233271,66.64411482151226
1000.0,68.58915630129641,68.19448868932288,67.82947102131016,64.90456278695369,58.346600701896676,66.751987899177
1030.0,68.60464502318537,68.56136837622765,67.8755191413231,64.82759642892378,58.45170206652662,66.86688569974278
1060.0,68.58656646311248,68.86136837622765,67.89002802483155,64.68180929307816,58.49333359140208,66.93959969356487
1090.0,68.54415774934851,69.06136837622763,67.90634082996303,64.56970087510699,58.481187498856585,66.98134570149766
1120.0,68.47071732495407,69.28538710465898,67.92250186488519,64.43300888634953,58.47156884277092,67.02279251804613
1150.0,68.40231994589774,69.41832544184972,67.95360858771521,64.28566781197193,58.4471424793159,67.04031248547233
1180.0,68.33663575667187,69.44258273663014,67.99715760761354,64.12947294732392,58.363640123261675,67.02309273035343
1220.0,68.2744935103044,69.38538710465899,68.0425141499304,64.0068730276417,58.23313623149174,66.98185480378616
1250.0,68.24415774934852,69.24258273663015,68.08936781422402,63.89012459034625,58.02386365075874,66.91936333774268
1280.0,68.24415774934852,68.98538710465897,68.17861524393454,63.80661483162524,57.69713720732551,66.84063671898126
1320.0,68.27609175449221,68.66136837622763,68.28320767801144,63.72982483910586,57.25216524685844,66.75731385376233
1360.0,68.27387961222819,68.26136837622764,68.38426927821243,63.66228462856229,56.7542571933343,66.64869715136317
1400.0,68.34136150423586,67.80497668676809,68.46191549718701,63.62768345100531,56.23278188377962,66.5516194808048
1450.0,68.41227178315619,67.40497668676807,68.50535513521028,63.56482140805515,55.69050535551794,66.46813292940637
1500.0,68.48656646311248,66.9377673428554,68.5407458502505,63.465870601044344,55.199053998376,66.37421803409647
1550.0,68.49238562216104,66.56136837622763,68.5432490501985,63.388464191215334,54.77002340381739,66.27972749895618
1600.0,68.50836933851774,66.26136837622764,68.50216730173767,63.30295103460064,54.45114734998221,66.19557124835575
1650.0,68.48155349220622,66.04258273663015,68.38802885975016,63.17153136745033,54.19568654920498,66.08684897145402
1700.0,68.41852635130014,65.94258273663014,68.2944537239405,63.01300662791722,54.02850400474418,65.99511056830241
1750.0,68.33012065974809,65.82526453928848,68.13535488541261,62.835702100660754,53.91000711594289,65.86778596870472
1800.0,68.19408963790566,65.7687803399679,67.9944537239405,62.672414812487574,53.866194613499204,65.74447905738073
1850.0,67.99408963790565,65.72869245367795,67.79445372394049,62.49607996231748,53.794795031125034,65.58111877549892
1900.0,67.85858760124326,65.6552196930838,67.61103572039802,62.316654998769934,53.68668685551188,65.43874135344753
1950.0,67.62361102993711,65.52869245367796,67.49406672407484,62.14128524124371,53.5271134513181,65.27262026617429
2000.0,67.3236110299371,65.32869245367795,67.33961029027783,61.97377323583859,53.28318374740475,65.05647489607209
2060.0,67.02869245367796,65.04293979360189,67.24556800713081,61.79543911299045,52.97409450094365,64.84372010614491
2120.0,66.72179738688895,64.67584607527145,67.18818485478246,61.63961996761172,52.5446111561766,64.62634383403226
2180.0,66.36194867563766,64.27106744273918,67.10517680371257,61.478689186327614,52.05395847558749,64.37800255486933
2240.0,66.02934077441655,63.79220047151571,67.10242865695007,61.335602811795226,51.53004193034556,64.16186716573603
2300.0,65.67035193787355,63.28888863538653,67.10979478846428,61.151050689585546,50.958425754848875,63.9413435492517
2360.0,65.35405093453075,62.74577223479652,67.0766236342502,60.951702600779015,50.38160379856201,63.717312712134756
2400.0,64.97106876148261,62.20807851055699,67.08573212128765,60.762439701585166,49.81241937018777,63.50381197597724
2500.0,64.60330511748406,61.67569581518241,67.0839435721612,60.51559576881276,49.273872053279334,63.294966123564905
2580.0,64.31695395609258,61.095332570149836,67.08828422853084,60.20426964464043,48.767238897607356,63.10785545440534
2650.0,64.06671702468141,60.58681963215332,67.05704448212674,59.91702335319472,48.30989102027414,62.93248579405886
2720.0,63.79370777353006,60.07168531355222,67.03632896577257,59.62442270489569,47.901594699780546,62.762233115510114
2800.0,63.60795567018758,59.65684436552907,67.02686452926814,59.34849205645638,47.532726587991064,62.63845223028737
2900.0,63.47703977141008,59.256844365529076,66.98794347253504,59.09030685390536,47.2343398843371,62.51955989670883
3000.0,63.351635793916785,59.0422920764254,67.01695388270367,58.87237863895457,47.024215618242266,62.46441218772323
3070.0,63.33159966837577,58.856844365529085,67.04887287101498,58.73011575601576,46.866452298686156,62.44811690377695
3150.0,63.373547922810346,58.80252973822758,67.08831136434722,58.6643864439899,46.794845494319006,62.47058961043366
3250.0,63.45801296552777,58.94878700732916,67.15138604118548,58.6833180665962,46.79473848032467,62.54215777261284
