Freq "Front Wall Bounce"
22.4 -23.05017044535076
23.0 -20.607594936708878
23.6 -18.2075949367089
24.0 -15.807594936708895
25.0 -13.435932182789983
25.8 -11.078787779963577
26.5 -8.707594936708901
27.2 -6.40759493670889
28.0 -4.078787779963605
29.0 -1.707594936708901
30.0 0.5924050632911104
30.7 2.892405063291122
31.5 5.292405063291099
32.5 7.6498295546492585
33.5 9.992405063291088
34.5 12.349829554649247
35.5 14.692405063291105
36.5 17.049829554649264
37.5 19.349829554649247
38.7 21.59240506329111
40.0 23.7924050632911
41.2 25.94982955464927
42.5 28.049829554649264
43.7 30.064067817210017
45.0 32.049829554649264
46.2 33.99240506329109
47.5 35.89240506329112
48.7 37.764067817210005
50.0 39.64982955464926
51.5 41.44982955464924
53.0 43.24982955464925
54.5 45.049829554649236
56.0 46.74982955464924
58.0 48.449829554649256
60.0 50.049829554649264
61.5 51.64982955464926
63.0 53.22186573184702
65.0 54.74982955464925
67.0 56.14982955464926
69.0 57.52186573184703
71.0 58.82186573184701
73.0 60.02186573184703
75.0 61.14982955464926
77.5 62.14982955464926
80.0 63.078919559152055
82.5 63.92186573184701
85.0 64.64982955464926
87.5 65.27891955915206
90.0 65.80781600813252
92.5 66.27891955915206
95.0 66.6650534944227
97.5 66.97891955915206
100.0 67.2650534944227
103.0 67.46505349442269
106.0 67.59372834506804
109.0 67.73653663008271
112.0 67.8071603785832
115.0 67.85049389581748
118.0 67.87891955915207
122.0 67.89306292398537
125.0 67.9212122200364
128.0 67.89240506329111
132.0 67.89240506329111
136.0 67.89240506329111
140.0 67.93554445862893
145.0 67.93554445862893
150.0 67.99306292398536
155.0 67.99306292398536
160.0 67.99306292398536
165.0 68.00748820572994
170.0 68.03587015027009
175.0 68.04982955464925
180.0 68.03554445862893
185.0 68.02153898823398
190.0 67.99306292398536
195.0 67.92153898823398
200.0 67.82153898823398
206.0 67.67957195553471
212.0 67.55114301656843
218.0 67.39437852083222
224.0 67.22547453720611
230.0 67.06964976558152
236.0 66.94306328539419
240.0 66.83166454419485
250.0 66.77613099248643
258.0 66.73552241323992
265.0 66.77844415974087
272.0 66.80574843793858
280.0 66.89258907034032
290.0 66.94758756179016
300.0 67.04758756179015
307.0 67.0748206113335
315.0 67.0748206113335
325.0 67.0748206113335
335.0 67.04758756179015
345.0 66.97876665014948
355.0 66.89258907034032
365.0 66.83916042815106
375.0 66.78199964185849
387.0 66.74303140044091
400.0 66.72804843239307
412.0 66.78615457723939
425.0 66.87025698916938
437.0 66.91193631661874
450.0 67.05430099323434
462.0 67.18027195911027
475.0 67.28027195911028
487.0 67.38027195911026
500.0 67.48027195911028
515.0 67.50789258092179
530.0 67.56641021852059
545.0 67.58208675337308
560.0 67.59794117570374
580.0 67.56961003377026
600.0 67.5594063084495
615.0 67.54610555333521
630.0 67.54610555333521
650.0 67.53448779700541
670.0 67.51981757841081
690.0 67.47462755235145
710.0 67.48445054357573
730.0 67.48445054357573
750.0 67.48445054357573
775.0 67.49958441683611
800.0 67.49958441683611
825.0 67.49842649114836
850.0 67.51187384614676
875.0 67.49746314832926
900.0 67.52901119705892
925.0 67.5162206148667
950.0 67.5319511405162
975.0 67.53379860816263
1000.0 67.52187608460127
1030.0 67.56792420461419
1060.0 67.58243308812266
1090.0 67.59874589325413
1120.0 67.61490692817628
1150.0 67.6460136510063
1180.0 67.68956267090464
1220.0 67.73491921322149
1250.0 67.78177287751514
1280.0 67.87102030722566
1320.0 67.97561274130256
1360.0 68.07667434150355
1400.0 68.1543205604781
1450.0 68.1977601985014
1500.0 68.23315091354162
1550.0 68.23565411348962
1600.0 68.19457236502879
1650.0 68.08043392304126
1700.0 67.9868587872316
1750.0 67.82775994870372
1800.0 67.6868587872316
1850.0 67.48685878723161
1900.0 67.30344078368913
1950.0 67.18647178736593
2000.0 67.03201535356894
2060.0 66.93797307042192
2120.0 66.88058991807357
2180.0 66.79758186700366
2240.0 66.79483372024117
2300.0 66.80219985175539
2360.0 66.76902869754129
2400.0 66.77813718457874
2500.0 66.77634863545232
2580.0 66.78068929182196
2650.0 66.74944954541783
2720.0 66.72873402906369
2800.0 66.71926959255924
2900.0 66.68034853582614
3000.0 66.70935894599478
3070.0 66.7412779343061
3150.0 66.78071642763834
3250.0 66.84379110447658
3350.0 66.94379110447657
3450.0 67.05986179373316
3550.0 67.22064405984007
3650.0 67.40123261486733
3750.0 67.57914321265078
3870.0 67.7643199573821
4000.0 68.0170825113323
4120.0 68.24097835713862
4250.0 68.48784417051087
4370.0 68.74751164718568
4500.0 68.95917946069794
4620.0 69.14147671203943
4750.0 69.32840428427883
4870.0 69.4065549452855
5000.0 69.44571021245845
5150.0 69.40298764961601
5300.0 69.29300254878493
5450.0 69.09837307728844
5600.0 68.88468189369583
5800.0 68.66816384004589
6000.0 68.37925916878014
6150.0 68.11546259738235
6300.0 67.81387576324569
6500.0 67.57039440189531
6700.0 67.33961765044637
6900.0 67.1671365366652
7100.0 67.02886916511638
7300.0 66.9835475832408
7500.0 67.00180223154743
7750.0 67.12017924388816
8000.0 67.35034032241113
8250.0 67.6917810591493
8500.0 68.13823604210103
8750.0 68.5810609448441
9000.0 69.050699553047
9250.0 69.47254894459294
9500.0 69.79341861398042
9750.0 69.99761272793444
10000.0 70.04990930010909
10300.0 69.91291017066547
10600.0 69.66711765036142
10900.0 69.35711775805854
11200.0 69.06808584001655
11500.0 68.88290627909471
11800.0 68.8314850732365
12200.0 69.0133339600621
12500.0 69.54880994271001
12800.0 70.37582611781623
13200.0 71.29932754809411
13600.0 72.11177554236268
14000.0 72.55413457672427
14500.0 72.3387469851651
15000.0 71.2850431648021
15500.0 69.11114781587192
16000.0 65.5763825289779
16500.0 60.522451003562566
17000.0 54.10423500970745
17500.0 46.63898373003977
18000.0 38.378559274676135
18500.0 29.647213270949592
19000.0 20.74694642863703
19500.0 12.032973788300595
