Freq,On Axis,Listening Window,Sound Power,Early Reflections,Early Reflections DI,Sound Power DI,DI offset
22.4,27.799999999999997,28.09048184548446,30.030124102100686,29.38653823525793,28.70394361022653,28.060357743383776,30
23.0,29.10000000000001,29.344994484229844,31.310836120799237,30.654113876260723,28.69088060796912,28.034158363430606,30
23.6,30.39999999999999,30.611700425483903,32.56303994003697,31.921999215201467,28.689701210282436,28.04866048544693,30
24.0,31.999999999999986,32.2117004254839,34.150751668448336,33.51370591257641,28.697994512907485,28.06094875703556,30
25.0,33.39999999999999,33.623695340029585,35.574340204784775,34.92834762230764,28.695347717721944,28.04935513524481,30
25.8,34.60000000000001,34.844994484229844,36.788262088391505,36.136334560139446,28.708659924090398,28.05673239583834,30
26.5,35.8,36.00098195403554,37.91824794760187,37.28807198653537,28.712909967500167,28.082734006433668,30
27.2,37.3,37.51170042548391,39.42278586053327,38.78807198653537,28.723628438948538,28.08891456495064,30
28.0,38.7,38.900981954035544,40.79931547314065,40.16011069894118,28.740871255094362,28.10166648089489,30
29.0,39.89999999999999,40.10098195403553,41.989137189247046,41.355704251621816,28.745277702413716,28.111844764788486,30
30.0,41.10000000000001,41.31170042548392,43.22075323951354,42.58951213339189,28.722188292092028,28.09094718597038,30
30.7,42.60000000000001,42.80098195403552,44.70006359531622,44.06746400935985,28.73351794467567,28.100918358719298,30
31.5,43.89999999999999,44.07626847012436,45.94580926078076,45.316949587487684,28.759318882636677,28.1304592093436,30
32.5,45.10000000000001,45.25560501237696,47.12111993615558,46.49571967879287,28.759885333584094,28.13448507622138,30
33.5,46.499999999999986,46.7117004254839,48.58812371680612,47.96476188904525,28.74693853643865,28.123576708677774,30
34.5,47.8,48.01170042548388,49.88993517656512,49.27067949758022,28.741020927903662,28.121765248918763,30
35.5,48.999999999999986,49.24499448422982,51.091330600748094,50.47479760502928,28.77019687920054,28.153663883481727,30
36.5,50.499999999999986,50.676268470124384,52.4944928935641,51.88087389060634,28.795394579518046,28.181775576560284,30
37.5,51.8,51.94369802764889,53.75654199950732,53.14860903621337,28.79508899143552,28.187156028141573,30
38.7,53.000000000000014,53.14369802764891,54.946831306345004,54.34204251013989,28.80165551750902,28.196866721303905,30
40.0,54.3,54.47626847012438,56.232108133296876,55.6386477650142,28.837620705110183,28.244160336827505,30
41.2,55.39999999999999,55.60098195403555,57.37984822928304,56.78246375046834,28.81851820356721,28.221133724752505,30
42.5,56.60000000000001,56.77626847012439,58.53288010692651,57.93835154953068,28.837916920593713,28.24338836319788,30
43.7,57.8,57.92239250865174,59.667762540340505,59.084535394199094,28.837857114452646,28.254629968311235,30
45.0,58.8,58.97626847012438,60.72778443960294,60.13522808201577,28.84104038810861,28.24848403052144,30
46.2,59.89999999999999,60.076268470124376,61.78873701194155,61.21126830852374,28.865000161600634,28.287531458182826,30
47.5,60.89999999999999,61.07626847012439,62.756288998030016,62.18604771178164,28.89022075834275,28.319979472094374,30
48.7,61.89999999999999,62.06441808069732,63.71698769796852,63.15273446390343,28.911683616793894,28.347430382728803,30
50.0,62.8,62.97626847012438,64.59903680802195,64.03218069678138,28.944087773343,28.37723166210243,30
51.5,63.60000000000001,63.77626847012438,65.40891630837189,64.85200376997055,28.924264700153827,28.367352161752493,30
53.0,64.40000000000002,64.56441808069732,66.16248083436113,65.61029544730339,28.954122633393936,28.40193724633619,30
54.5,65.1,65.27626847012438,66.8367383173785,66.29113496363071,28.985133506493668,28.439530152745874,30
56.0,65.8,65.9325733342241,67.4665174688022,66.92651663109937,29.006056703124727,28.466055865421907,30
58.0,66.4,66.5325733342241,68.0296963939828,67.50656485888202,29.02600847534208,28.502876940241293,30
60.0,66.99999999999999,67.08704803294907,68.57839775914337,68.04923753558441,29.03781049736466,28.5086502738057,30
61.5,67.5,67.60803947537421,69.09021925916018,68.57337122944836,29.034668245925857,28.517820216214034,30
63.0,68.00000000000001,68.10803947537423,69.53201794532973,69.03229263654363,29.075746838830597,28.5760215300445,30
65.0,68.39999999999999,68.50803947537422,69.92130675307958,69.43571588687092,29.072323588503295,28.58673272229464,30
67.0,68.8,68.90803947537422,70.2884689710872,69.79240068168615,29.115638793688078,28.619570504287026,30
69.0,69.2,69.30803947537422,70.62715125768496,70.16187837179008,29.146161103584134,28.680888217689258,30
71.0,69.6,69.64031168965903,70.93348460996845,70.47260627078383,29.1677054188752,28.706827079690584,30
73.0,69.9,70.00803947537422,71.24577509924795,70.80028766742652,29.2077518079477,28.762264376126268,30
75.0,70.2,70.2962755787588,71.48040362197045,71.04411818004252,29.252157398716278,28.815871956788342,30
77.5,70.4,70.50803947537423,71.65666135686656,71.24239794582944,29.265641529544794,28.851378118507668,30
80.0,70.7,70.71898951070081,71.82525286610748,71.42510175425849,29.293887756442317,28.893736644593332,30
82.5,70.89999999999999,70.94031168965903,71.99967985670989,71.61397687795092,29.326334811708108,28.940631832949137,30
85.0,71.2,71.1967703436205,72.19434605071145,71.82765675310027,29.36911359052023,29.002424292909055,30
87.5,71.4,71.40725527754945,72.367433263363,72.00192042194043,29.405334855609027,29.039822014186456,30
90.0,71.60000000000001,71.64031168965901,72.55529530755722,72.20985547101387,29.430456218645148,29.0850163821018,30
92.5,71.90000000000002,71.87259747851172,72.70484665369418,72.386614252428,29.485983226083718,29.167750824817546,30
95.0,72.1,72.07259747851172,72.84969608515857,72.54758883627888,29.525008642232848,29.222901393353155,30
97.5,72.3,72.27259747851171,73.00363852232215,72.71819232977629,29.554405148735427,29.268958956189564,30
100.0,72.5,72.4725974785117,73.15673261271807,72.89241491310717,29.580182565404527,29.31586486579363,30
103.0,72.8,72.70538869439312,73.30299485223705,73.06605091619976,29.639337778193365,29.402393842156073,30
106.0,73.00000000000001,72.90538869439311,73.42719352323788,73.20991815471162,29.695470539681494,29.478195171155235,30
109.0,73.2,73.10538869439311,73.55109560861399,73.36502987929626,29.740358815096855,29.554293085779122,30
112.0,73.39999999999999,73.3053886943931,73.69488404887414,73.52675915384856,29.778629540544543,29.610504645518958,30
115.0,73.6,73.50538869439312,73.810719219675,73.66608900959604,29.839299684797084,29.694669474718125,30
118.0,73.8,73.68438440457524,73.92012677101894,73.80489038159433,29.879494022980907,29.764257633556298,30
122.0,74.0,73.84907369676627,74.02402980962094,73.93644520622848,29.912628490537784,29.825043887145327,30
125.0,74.10000000000001,74.0053886943931,74.08590077989473,74.02801656260543,29.977372131787675,29.919487914498376,30
128.0,74.3,74.11686109935508,74.13283780337419,74.09802593011918,30.0188351692359,29.98402329598089,30
132.0,74.40000000000002,74.24907369676627,74.17675625105103,74.1724825215099,30.076591175256368,30.072317445715242,30
136.0,74.6,74.39334929114868,74.2290729895498,74.26273816075683,30.130611130391856,30.164276301598875,30
140.0,74.7,74.53868935845881,74.2782748414435,74.35417287927972,30.184516479179095,30.260414517015306,30
145.0,74.9,74.65033907967266,74.31513737192016,74.42762572915488,30.22271335051778,30.335201707752503,30
150.0,75.0,74.79334929114869,74.36305620390208,74.50532369829125,30.288025592857437,30.43029308724661,30
155.0,75.1,74.91529574551629,74.36887679986488,74.55144577803655,30.363849967479737,30.54641894565141,30
160.0,75.2,75.0152957455163,74.37283652419742,74.59815196242029,30.41714378309601,30.642459221318873,30
165.0,75.4,75.12700830340991,74.39132623530584,74.66060585544625,30.46640244796366,30.73568206810407,30
170.0,75.50000000000001,75.2270083034099,74.38190626615551,74.69857256026458,30.528435743145323,30.845102037254392,30
175.0,75.59999999999998,75.24934476051767,74.3383744052776,74.6869201095217,30.56242465099598,30.910970355240067,30
180.0,75.59999999999998,75.30610856656934,74.2667997420934,74.66479551191473,30.641313054654603,31.03930882447594,30
185.0,75.59999999999998,75.32700830340991,74.19991152592965,74.64170445439719,30.685303849012726,31.12709677748026,30
190.0,75.59999999999998,75.30610856656934,74.07830109243258,74.56899095541118,30.737117611158155,31.227807474136753,30
195.0,75.59999999999998,75.28307626545256,73.95315751484078,74.4857900738996,30.79728619155297,31.32991875061178,30
200.0,75.59999999999998,75.27151414642991,73.81203340051742,74.40225204855571,30.8692620978742,31.459480745912487,30
206.0,75.59999999999998,75.19515038890593,73.6317425992752,74.27247815048929,30.922672238416638,31.56340778963073,30
212.0,75.50000000000001,75.10563922981248,73.4433395796764,74.12962944219393,30.97600978761855,31.662299650136077,30
218.0,75.4,75.0056392298125,73.22333219853765,73.96241885716373,31.043220372648776,31.782307031274854,30
224.0,75.3,74.89515038890593,72.97189847103088,73.7905919162489,31.104558472657033,31.92325191787505,30
230.0,75.1,74.70563922981249,72.6907297000441,73.55785561516593,31.147783614646556,32.01490952976839,30
236.0,74.9,74.5056392298125,72.38833972374026,73.30989307909009,31.195746150722414,32.11729950607224,30
240.0,74.7,74.3056392298125,72.07783983224749,73.06062634218748,31.245012887625023,32.22779939756501,30
250.0,74.49999999999999,74.10563922981248,71.74833738780924,72.79570689171284,31.309932338099642,32.35730184200324,30
258.0,74.3,73.86249937146685,71.4031436584581,72.50595946613998,31.35653990532687,32.45935571300875,30
265.0,74.10000000000001,73.6402838021114,71.06636955089282,72.23561871006997,31.404665092041427,32.57391425121858,30
272.0,73.9,73.44028380211138,70.76394816658372,72.00293107510637,31.437352727005006,32.676335635527664,30
280.0,73.8,73.29748840478773,70.49031827696723,71.79931474359931,31.498173661188417,32.8071701278205,30
290.0,73.7,73.19748840478772,70.2753924586291,71.64356137255795,31.553927032229765,32.92209594615862,30
300.0,73.7,73.15525573740693,70.13024667171656,71.55859475911423,31.596660978292704,33.02500906569037,30
307.0,73.7,73.1674073464599,70.05921723154401,71.55884889155895,31.608558454900944,33.108190114915885,30
315.0,73.8,73.26740734645989,70.01641181312678,71.59515806389784,31.67224928256205,33.25099553333311,30
325.0,73.9,73.37846017902555,70.00548370195806,71.6527384621501,31.725721716875455,33.372976477067496,30
335.0,74.0,73.49082826557327,70.03234094450637,71.74558882268381,31.745239442889456,33.4584873210669,30
345.0,74.10000000000001,73.57116312116545,70.04478673028866,71.82843304543606,31.742730075729398,33.52637639087679,30
355.0,74.3,73.72721553037057,70.07221637641968,71.91277758342152,31.814437946949056,33.6549991539509,30
365.0,74.40000000000002,73.84949787739069,70.1031088545453,72.02911836088461,31.82037951650608,33.74638902284539,30
375.0,74.49999999999999,73.96223819120402,70.1319956452385,72.11296492421552,31.849273266988504,33.83024254596552,30
387.0,74.6,74.04289446714102,70.15113838816087,72.181344162867,31.86155030427402,33.89175607898015,30
400.0,74.7,74.12158499600243,70.16150033272704,72.25345376503374,31.868131230968686,33.96008466327538,30
412.0,74.8,74.18790182969748,70.17014554603098,72.30103071920695,31.88687111049053,34.0177562836665,30
425.0,74.8,74.27523668940749,70.18846561485675,72.3572140906216,31.918022598785896,34.08677107455074,30
437.0,74.9,74.34297058773596,70.1844771408229,72.37874219399875,31.964228393737216,34.158493446913056,30
450.0,74.9,74.36417563952732,70.1708209810119,72.3898631326225,31.974312506904823,34.19335465851542,30
462.0,74.9,74.39564600804358,70.15790685717324,72.40141170062797,31.99423430741561,34.23773915087034,30
475.0,74.9,74.43699381063232,70.13467981807219,72.38351557410957,32.05347823652275,34.30231399256013,30
487.0,74.8,74.4143139695492,70.0890653891655,72.33187628128799,32.08243768826121,34.3252485803837,30
500.0,74.8,74.39117232881947,70.0291436148776,72.28700588240727,32.104166446412194,34.36202871394187,30
515.0,74.7,74.36900940815978,69.96054514005385,72.20920487207161,32.159804536088174,34.40846426810593,30
530.0,74.6,74.31157465184162,69.8464233641822,72.10936802388291,32.20220662795872,34.465151287659424,30
545.0,74.6,74.23669256631655,69.68415928873851,71.97242384864595,32.2642687176706,34.552533277578036,30
560.0,74.40000000000002,74.12473354494922,69.5210430477693,71.8172727814902,32.30746076345902,34.603690497179926,30
580.0,74.3,73.99222668046598,69.31515473672638,71.62993201813597,32.36229466233,34.67707194373959,30
600.0,74.10000000000001,73.81521063256214,69.0598962929171,71.39283917183032,32.422371460731824,34.75531433964504,30
615.0,73.9,73.59473206652254,68.76523726240669,71.1217554492172,32.472976617305335,34.82949480411585,30
630.0,73.6,73.30763381677617,68.40294327476082,70.7852989948331,32.522334821943076,34.90469054201536,30
650.0,73.3,72.97879100991587,67.99931716577034,70.40003974983576,32.57875126008011,34.97947384414553,30
670.0,73.00000000000001,72.59864882712534,67.53944805537624,69.96126976482888,32.63737906229646,35.059200771749104,30
690.0,72.6,72.12042206333047,67.03065522370163,69.46685163030178,32.65357043302869,35.08976683962884,30
710.0,72.1,71.62199734461349,66.5032837670043,68.96088398765778,32.66111335695571,35.118713577609185,30
730.0,71.8,71.14958619600172,66.0154215297284,68.50889016013944,32.64069603586228,35.13416466627332,30
750.0,71.4,70.70845946007827,65.65480371881974,68.17216701484318,32.53629244523509,35.05365574125854,30
775.0,71.3,70.49801891498304,65.50590122768357,68.06918386954085,32.428835045442185,34.99211768729947,30
800.0,71.4,70.45510019987609,65.56735262455273,68.2004279839739,32.25467221590219,34.88774757532336,30
825.0,71.5,70.58678637344691,65.83924845968686,68.54736807602929,32.039418297417626,34.747537913760056,30
850.0,71.8,70.832737535553,66.2076533862406,69.03450006587916,31.798237469673836,34.6250841493124,30
875.0,71.90000000000002,71.15631584191547,66.60099960777059,69.50379570437377,31.6525201375417,34.55531623414488,30
900.0,71.99999999999999,71.4062832608206,66.9006161643629,69.89848100872229,31.507802252098315,34.5056670964577,30
925.0,72.1,71.60770437093443,67.05302442757143,70.1552122928536,31.452492078080823,34.554679943363,30
950.0,71.99999999999999,71.71891793240248,67.0746956408336,70.27028903143739,31.44862890096509,34.64422229156888,30
975.0,71.90000000000002,71.70164220390937,66.93952059272657,70.22349847010015,31.47814373380922,34.762121611182806,30
1000.0,71.7,71.61486797474261,66.67838835835789,70.03416437503654,31.58070359970607,34.936479616384716,30
1030.0,71.60000000000001,71.4500579134227,66.33242713293532,69.77840726401624,31.67165064940646,35.117630780487374,30
1060.0,71.4,71.23474268070761,65.88662597315627,69.39362189895182,31.84112078175579,35.34811670755134,30
1090.0,71.2,71.02945807607833,65.38840619513105,68.94269243586884,32.08676564020949,35.64105188094727,30
1120.0,71.2,70.84826330600536,64.86555222792968,68.48281542145573,32.36544788454964,35.98271107807568,30
1150.0,71.2,70.70598097368007,64.3372356306052,67.99986421549022,32.70611675818985,36.36874534307486,30
1180.0,71.2,70.5962832581819,63.887865540094225,67.57118308465743,33.025100173524464,36.708417718087674,30
1220.0,71.2,70.56295698883794,63.600911787764375,67.27752561812744,33.2854313707105,36.962045201073565,30
1250.0,71.4,70.56677342618848,63.529014123023146,67.14630749073679,33.42046593545169,37.03775930316533,30
1280.0,71.5,70.6269705337875,63.701642220282096,67.19215392356583,33.434816610221674,36.9253283135054,30
1320.0,71.7,70.7529883334285,64.0616450207385,67.37810482221369,33.37488351121482,36.69134331269001,30
1360.0,71.8,70.9201070383675,64.52985763235388,67.63270779980274,33.28739923856476,36.39024940601362,30
1400.0,71.99999999999999,71.13466607395944,65.02351207859046,67.98239945907213,33.15226661488731,36.11115399536898,30
1450.0,72.1,71.4114400228813,65.51855607227898,68.42652455996407,32.98491546291723,35.89288395060231,30
1500.0,72.3,71.73343151785653,65.94186608665812,68.93376049783454,32.79967102002199,35.79156543119841,30
1550.0,72.4,72.01477218906989,66.25345459008567,69.41027691237208,32.604495276697804,35.76131759898422,30
1600.0,72.4,72.20371386934819,66.45167990526863,69.81648935197532,32.38722451737287,35.75203396407956,30
1650.0,72.5,72.2312552234195,66.43096902796394,70.02211432374308,32.20914089967641,35.800286195455556,30
1700.0,72.5,72.10358680859301,66.26157622439628,70.05188197488069,32.05170483371232,35.84201058419673,30
1750.0,72.5,71.86898112568757,65.97914393708436,69.88889344086715,31.98008768482042,35.88983718860321,30
1800.0,72.6,71.74309729465942,65.80562438013924,69.77435995293293,31.968737341726495,35.937472914520185,30
1850.0,72.5,71.69706529797062,65.86712213106073,69.85137293594732,31.8456923620233,35.8299431669099,30
1900.0,72.4,71.65103314136003,65.85590732726799,69.85381708686063,31.7972160544994,35.795125814092046,30
1950.0,72.3,71.24752729836966,65.18605345913136,69.21088059352854,32.03664670484112,36.0614738392383,30
2000.0,72.1,70.49263113718801,63.65393546977738,67.83275431052418,32.65987682666383,36.83869566741063,30
2060.0,71.90000000000002,69.73247078842668,61.835171781157555,66.31112414751888,33.4213466409078,37.897299007269126,30
2120.0,71.60000000000001,69.26452798726562,60.540217028495306,65.29244236891982,33.9720856183458,38.72431095877032,30
2180.0,71.4,68.98459189549745,59.90481590057556,64.85025288572274,34.134339009774706,39.07977599492189,30
2240.0,71.2,68.77827833033828,59.49990922139115,64.57969548939786,34.19858284094042,39.27836910894713,30
2300.0,71.0,68.5165667300938,58.95054684643206,64.16973814295228,34.346828587141516,39.56601988366174,30
2360.0,70.89999999999999,68.32749210666961,58.4430270810531,63.772577350232424,34.554914756437185,39.88446502561651,30
2400.0,70.8,68.27406270845884,58.297099173439264,63.62163166867457,34.652431039784275,39.97696353501958,30
2500.0,70.8,68.21006822733887,58.24492504293296,63.5619094459129,34.64815878142596,39.9651431844059,30
2580.0,71.1,68.02959624639307,57.956933297786776,63.45022264334004,34.57937360305303,40.07266294860629,30
2650.0,71.4,67.83620869471751,57.781688675017236,63.449320820431964,34.38688787428555,40.05452001970028,30
2720.0,71.60000000000001,67.84323456249571,57.949382635277075,63.64575954974897,34.197475012746736,39.893851927218634,30
2800.0,71.8,67.9856377358201,58.12250063910078,63.83444195895969,34.15119577686042,39.86313709671933,30
2900.0,71.8,68.17631000960198,58.09274155592287,63.89461472519828,34.281695284403696,40.083568453679106,30
3000.0,71.60000000000001,68.368178658194,58.0985812308988,63.920600251932214,34.44757840626178,40.269597427295196,30
3070.0,71.5,68.54416694661616,58.312139103408256,64.05702436676629,34.48714257984987,40.2320278432079,30
3150.0,71.5,68.61330554136052,58.334099928005585,64.10308120392021,34.510224337440306,40.27920561335493,30
3250.0,71.7,68.6062938317032,58.173499481479624,64.03907905323555,34.567214778467644,40.432794350223574,30
3350.0,71.99999999999999,68.80214927869011,58.31636457770067,64.16120444668037,34.64094483200974,40.48578470098944,30
3450.0,72.3,69.22070826758778,58.614608416249794,64.40678905675091,34.81391921083687,40.60609985133799,30
3550.0,72.6,69.61683652837459,58.97281386498307,64.69103113025234,34.92580539812225,40.644022663391524,30
3650.0,72.7,69.86910503539029,59.47165158951309,65.04321385075612,34.82589118463417,40.397453445877204,30
3750.0,72.8,70.09795485898323,59.91104762718186,65.35910142723283,34.7388534317504,40.18690723180137,30
3870.0,72.9,70.35912027866422,60.26770212281694,65.58079195649974,34.778328322164484,40.09141815584728,30
4000.0,72.8,70.62723782784845,60.66349503790251,65.68835222715435,34.93888560069409,39.96374278994594,30
4120.0,72.7,70.96858462083223,60.96670901146014,65.87657647683321,35.092008143999024,40.00187560937209,30
