Freq "On Axis"
22.4 29.193670886075935
23.0 30.493670886075947
23.6 31.79367088607593
24.0 33.393670886075924
25.0 34.79367088607593
25.8 35.99367088607595
26.5 37.193670886075935
27.2 38.693670886075935
28.0 40.09367088607594
29.0 41.29367088607593
30.0 42.49367088607595
30.7 43.99367088607595
31.5 45.29367088607593
32.5 46.49367088607595
33.5 47.893670886075924
34.5 49.193670886075935
35.5 50.393670886075924
36.5 51.893670886075924
37.5 53.193670886075935
38.7 54.393670886075924
40.0 55.693670886075935
41.2 56.79367088607593
42.5 57.99367088607595
43.7 59.193670886075935
45.0 60.193670886075935
46.2 61.29367088607593
47.5 62.29367088607593
48.7 63.29367088607593
50.0 64.19367088607594
51.5 64.99367088607595
53.0 65.79367088607593
54.5 66.49367088607595
56.0 67.19367088607594
58.0 67.79367088607594
60.0 68.39367088607594
61.5 68.89367088607594
63.0 69.39367088607592
65.0 69.79367088607594
67.0 70.19367088607594
69.0 70.59367088607594
71.0 70.99367088607593
73.0 71.29367088607594
75.0 71.59367088607594
77.5 71.79367088607596
80.0 72.09367088607594
82.5 72.29367088607594
85.0 72.59367088607594
87.5 72.79367088607594
90.0 72.99367088607592
92.5 73.29367088607593
95.0 73.49367088607593
97.5 73.69367088607594
100.0 73.89367088607594
103.0 74.19367088607594
106.0 74.39367088607592
109.0 74.59367088607594
112.0 74.79367088607594
115.0 74.99367088607593
118.0 75.19367088607594
122.0 75.39367088607595
125.0 75.49367088607592
128.0 75.69367088607594
132.0 75.79367088607593
136.0 75.99367088607593
140.0 76.09367088607594
145.0 76.29367088607594
150.0 76.39367088607594
155.0 76.49367088607595
160.0 76.59367088607594
165.0 76.79367088607596
170.0 76.89367088607592
175.0 76.99367088607593
180.0 76.99367088607593
185.0 76.99367088607593
190.0 76.99367088607593
195.0 76.99367088607593
200.0 76.99367088607593
206.0 76.99367088607593
212.0 76.89367088607592
218.0 76.79367088607596
224.0 76.69367088607594
230.0 76.49367088607595
236.0 76.29367088607594
240.0 76.09367088607594
250.0 75.89367088607594
258.0 75.69367088607594
265.0 75.49367088607592
272.0 75.29367088607594
280.0 75.19367088607594
290.0 75.09367088607594
300.0 75.09367088607594
307.0 75.09367088607594
315.0 75.19367088607594
325.0 75.29367088607594
335.0 75.39367088607595
345.0 75.49367088607592
355.0 75.69367088607594
365.0 75.79367088607593
375.0 75.89367088607594
387.0 75.99367088607593
400.0 76.09367088607594
412.0 76.19367088607594
425.0 76.19367088607594
437.0 76.29367088607594
450.0 76.29367088607594
462.0 76.29367088607594
475.0 76.29367088607594
487.0 76.19367088607594
500.0 76.19367088607594
515.0 76.09367088607594
530.0 75.99367088607593
545.0 75.99367088607593
560.0 75.79367088607593
580.0 75.69367088607594
600.0 75.49367088607592
615.0 75.29367088607594
630.0 74.99367088607593
650.0 74.69367088607594
670.0 74.39367088607592
690.0 73.99367088607595
710.0 73.49367088607593
730.0 73.19367088607594
750.0 72.79367088607594
775.0 72.69367088607594
800.0 72.79367088607594
825.0 72.89367088607595
850.0 73.19367088607594
875.0 73.29367088607593
900.0 73.39367088607594
925.0 73.49367088607593
950.0 73.39367088607594
975.0 73.29367088607593
1000.0 73.09367088607594
1030.0 72.99367088607592
1060.0 72.79367088607594
1090.0 72.59367088607594
1120.0 72.59367088607594
1150.0 72.59367088607594
1180.0 72.59367088607594
1220.0 72.59367088607594
1250.0 72.79367088607594
1280.0 72.89367088607595
1320.0 73.09367088607594
1360.0 73.19367088607594
1400.0 73.39367088607594
1450.0 73.49367088607593
1500.0 73.69367088607594
1550.0 73.79367088607594
1600.0 73.79367088607594
1650.0 73.89367088607594
1700.0 73.89367088607594
1750.0 73.89367088607594
1800.0 73.99367088607595
1850.0 73.89367088607594
1900.0 73.79367088607594
1950.0 73.69367088607594
2000.0 73.49367088607593
2060.0 73.29367088607593
2120.0 72.99367088607592
2180.0 72.79367088607594
2240.0 72.59367088607594
2300.0 72.39367088607594
2360.0 72.29367088607594
2400.0 72.19367088607594
2500.0 72.19367088607594
2580.0 72.49367088607593
2650.0 72.79367088607594
2720.0 72.99367088607592
2800.0 73.19367088607594
2900.0 73.19367088607594
3000.0 72.99367088607592
3070.0 72.89367088607595
3150.0 72.89367088607595
3250.0 73.09367088607594
3350.0 73.39367088607594
3450.0 73.69367088607594
3550.0 73.99367088607595
3650.0 74.09367088607594
3750.0 74.19367088607594
3870.0 74.29367088607596
4000.0 74.19367088607594
4120.0 74.09367088607594
4250.0 73.99367088607595
4370.0 74.09367088607594
4500.0 74.19367088607594
4620.0 74.09367088607594
4750.0 73.79367088607594
4870.0 73.39367088607594
5000.0 73.09367088607594
5150.0 72.79367088607594
5300.0 72.69367088607594
5450.0 72.39367088607594
5600.0 71.99367088607593
5800.0 71.59367088607594
6000.0 71.59367088607594
6150.0 71.99367088607593
6300.0 72.59367088607594
6500.0 72.99367088607592
6700.0 73.29367088607593
6900.0 73.49367088607593
7100.0 73.79367088607594
7300.0 74.29367088607596
7500.0 74.79367088607594
7750.0 75.09367088607594
8000.0 75.19367088607594
8250.0 75.09367088607594
8500.0 74.89367088607594
8750.0 74.69367088607594
9000.0 74.59367088607594
9250.0 74.69367088607594
9500.0 74.99367088607593
9750.0 75.19367088607594
10000.0 75.29367088607594
10300.0 75.29367088607594
10600.0 75.29367088607594
10900.0 75.39367088607595
11200.0 75.69367088607594
11500.0 75.79367088607593
11800.0 75.79367088607593
12200.0 75.79367088607593
12500.0 75.79367088607593
12800.0 75.59367088607594
13200.0 74.99367088607593
13600.0 74.79367088607594
14000.0 74.69367088607594
14500.0 74.49367088607593
15000.0 73.89367088607594
15500.0 72.89367088607595
16000.0 72.19367088607594
16500.0 71.89367088607592
17000.0 71.49367088607595
17500.0 71.69367088607594
18000.0 72.39367088607594
18500.0 72.69367088607594
19000.0 72.99367088607592
19500.0 73.19367088607594
