Freq "Sound Power"
22.4 31.423794988176624
23.0 32.704507006875176
23.6 33.95671082611291
24.0 35.5444225545243
25.0 36.96801109086071
25.8 38.18193297446744
26.5 39.31191883367781
27.2 40.816456746609205
28.0 42.19298635921659
29.0 43.382808075322984
30.0 44.61442412558948
30.7 46.09373448139213
31.5 47.3394801468567
32.5 48.51479082223152
33.5 49.98179460288203
34.5 51.28360606264104
35.5 52.48500148682403
36.5 53.88816377964004
37.5 55.15021288558326
38.7 56.34050219242094
40.0 57.62577901937283
41.2 58.77351911535898
42.5 59.92655099300244
43.7 61.06143342641643
45.0 62.12145532567888
46.2 63.18240789801749
47.5 64.14995988410595
48.7 65.11065858404446
50.0 65.9927076940979
51.5 66.80258719444784
53.0 67.55615172043706
54.5 68.23040920345444
56.0 68.86018835487813
58.0 69.42336728005876
60.0 69.9720686452193
61.5 70.48389014523613
63.0 70.92568883140567
65.0 71.31497763915552
67.0 71.68213985716314
69.0 72.0208221437609
71.0 72.3271554960444
73.0 72.63944598532389
75.0 72.8740745080464
77.5 73.0503322429425
80.0 73.21892375218341
82.5 73.39335074278581
85.0 73.58801693678738
87.5 73.76110414943894
90.0 73.94896619363315
92.5 74.0985175397701
95.0 74.24336697123451
97.5 74.39730940839809
100.0 74.55040349879403
103.0 74.69666573831297
106.0 74.82086440931381
109.0 74.94476649468993
112.0 75.08855493495007
115.0 75.20439010575095
118.0 75.31379765709488
122.0 75.41770069569688
125.0 75.47957166597067
128.0 75.52650868945014
132.0 75.57042713712697
136.0 75.62274387562574
140.0 75.67194572751943
145.0 75.70880825799611
150.0 75.756727089978
155.0 75.76254768594082
160.0 75.76650741027335
165.0 75.78499712138176
170.0 75.77557715223143
175.0 75.73204529135354
180.0 75.6604706281693
185.0 75.5935824120056
190.0 75.47197197850853
195.0 75.34682840091672
200.0 75.20570428659336
206.0 75.02541348535112
212.0 74.83701046575234
218.0 74.61700308461359
224.0 74.36556935710682
230.0 74.08440058612005
236.0 73.7820106098162
240.0 73.47151071832343
250.0 73.14200827388518
258.0 72.79681454453404
265.0 72.46004043696875
272.0 72.15761905265965
280.0 71.88398916304317
290.0 71.66906334470504
300.0 71.5239175577925
307.0 71.45288811761993
315.0 71.41008269920272
325.0 71.399154588034
335.0 71.42601183058231
345.0 71.43845761636462
355.0 71.46588726249561
365.0 71.49677974062124
375.0 71.52566653131444
387.0 71.54480927423681
400.0 71.555171218803
412.0 71.56381643210689
425.0 71.58213650093269
437.0 71.57814802689884
450.0 71.56449186708784
462.0 71.55157774324918
475.0 71.52835070414814
487.0 71.48273627524144
500.0 71.42281450095354
515.0 71.35421602612979
530.0 71.24009425025814
545.0 71.07783017481445
560.0 70.91471393384523
580.0 70.70882562280232
600.0 70.45356717899304
615.0 70.15890814848262
630.0 69.79661416083677
650.0 69.39298805184627
670.0 68.93311894145218
690.0 68.42432610977758
710.0 67.89695465308024
730.0 67.40909241580434
750.0 67.04847460489567
775.0 66.8995721137595
800.0 66.96102351062868
825.0 67.2329193457628
850.0 67.60132427231652
875.0 67.99467049384653
900.0 68.29428705043885
925.0 68.44669531364737
950.0 68.46836652690952
975.0 68.33319147880252
1000.0 68.07205924443385
1030.0 67.72609801901126
1060.0 67.28029685923222
1090.0 66.782077081207
1120.0 66.25922311400564
1150.0 65.73090651668116
1180.0 65.28153642617018
1220.0 64.99458267384033
1250.0 64.92268500909908
1280.0 65.09531310635803
1320.0 65.45531590681443
1360.0 65.92352851842982
1400.0 66.41718296466641
1450.0 66.91222695835492
1500.0 67.33553697273403
1550.0 67.64712547616162
1600.0 67.84535079134457
1650.0 67.82463991403988
1700.0 67.6552471104722
1750.0 67.3728148231603
1800.0 67.19929526621519
1850.0 67.26079301713666
1900.0 67.24957821334392
1950.0 66.5797243452073
2000.0 65.04760635585333
2060.0 63.228842667233494
2120.0 61.933887914571244
2180.0 61.298486786651495
2240.0 60.89358010746707
2300.0 60.344217732508
2360.0 59.83669796712904
2400.0 59.6907700595152
2500.0 59.6385959290089
2580.0 59.350604183862714
2650.0 59.175359561093146
2720.0 59.34305352135303
2800.0 59.516171525176716
2900.0 59.48641244199882
3000.0 59.492252116974726
3070.0 59.705809989484194
3150.0 59.727770814081524
3250.0 59.56717036755556
3350.0 59.710035463776606
3450.0 60.008279302325704
3550.0 60.366484751059005
3650.0 60.865322475589025
3750.0 61.30471851325778
3870.0 61.66137300889285
4000.0 62.057165923978445
4120.0 62.36037989753606
4250.0 62.642425621900756
4370.0 62.47503776669497
4500.0 62.07239911611765
4620.0 62.161713812030726
4750.0 62.104824630173155
4870.0 62.25728236306986
5000.0 62.43115496307547
5150.0 62.259218960482585
5300.0 61.908056251460195
5450.0 61.3870199745233
5600.0 60.534172261301805
5800.0 60.4633458284294
6000.0 60.76001126851139
6150.0 61.55816648841129
6300.0 62.62799943478994
6500.0 63.04500784006399
6700.0 62.878716023122166
6900.0 63.34259748078344
7100.0 64.16572278192463
7300.0 64.26737023599317
7500.0 64.29869977865506
7750.0 64.70103277862675
8000.0 64.67767097390868
8250.0 64.75203378756756
8500.0 65.30282854554287
8750.0 65.36063663633762
9000.0 64.60502763855884
9250.0 64.20694043587176
9500.0 64.77565728579108
9750.0 64.47898206377607
10000.0 64.31929707438475
10300.0 64.6263411490926
10600.0 64.73365392492398
10900.0 64.71144883568775
11200.0 65.05108624091393
11500.0 65.29749101460303
11800.0 65.75255224191788
12200.0 65.55696988344839
12500.0 66.02848102693618
12800.0 65.68050331010262
13200.0 65.31948293091895
13600.0 64.7839190712994
14000.0 64.96396354448201
14500.0 64.71281261279454
15000.0 64.45742041311273
15500.0 63.22772866109469
16000.0 61.33134432816014
16500.0 62.69004823352445
17000.0 61.712969066377994
17500.0 58.89424463756599
18000.0 59.2267701600375
18500.0 59.561020939648444
19000.0 59.55399114882957
19500.0 59.16884814176332
