Freq,On Axis,Listening Window,Sound Power,Early Reflections,Early Reflections DI,Sound Power DI,DI offset
22.4,9.31265822784809,9.172427003608902,9.515389072630143,8.685589715078095,40.48683728853081,39.65703793097876,40
23.0,10.512658227848107,10.372761279130629,11.02594112326571,9.833063136225178,40.53969814290545,39.34682015586492,40
23.6,11.712658227848124,11.617991721411414,12.624460798268586,11.078388721669484,40.53960299974193,38.99353092314283,40
24.0,14.212658227848124,13.853877461449713,14.455539687757408,13.159430463139131,40.69444699831058,39.398337773692305,40
25.0,16.6126582278481,15.909954950112365,16.12627322942302,15.014422050835321,40.89553289927704,39.783681720689344,40
25.8,18.712658227848095,17.761487233461395,17.59609931697321,16.556684840015862,41.20480239344553,40.165387916488186,40
26.5,20.6126582278481,19.456810664326497,18.987219066767864,17.941594437179106,41.51521622714739,40.46959159755863,40
27.2,22.31265822784809,20.85964407677099,20.597404306177054,19.82695596961517,41.03268810715582,40.262239770593936,40
28.0,23.31265822784809,21.723343135664265,21.918902769569286,21.423204554677966,40.3001385809863,39.80444036609498,40
29.0,23.81265822784809,22.14905385436151,22.98257598352646,22.650048918500033,39.49900493586148,39.16647787083505,40
30.0,24.012658227848107,22.93060167117389,24.44332120127595,24.11877413728476,38.81182753388913,38.48728046989794,40
30.7,26.912658227848112,26.10027736034695,27.416714035417442,27.145554649828938,38.95472271051801,38.68356332492951,40
31.5,29.6126582278481,28.975460447043446,30.3146846618491,30.01320098526881,38.962259461774636,38.660775785194346,40
32.5,32.1126582278481,31.53587840984582,33.24845369542473,32.83575824658246,38.700120163263364,38.28742471442109,40
33.5,34.01265822784811,33.4162482658935,34.867121348840385,34.12933507584978,39.28691319004372,38.549126917053115,40
34.5,35.41265822784811,35.28423112461013,36.21162294655758,35.15356453158421,40.13066659302592,39.07260817805255,40
35.5,36.31265822784809,36.760456539417106,37.099403950071974,35.936501689535646,40.82395484988146,39.66105258934513,40
36.5,37.41265822784811,37.04918803022474,37.45897537167477,37.06512265170022,39.98406537852452,39.59021265854997,40
37.5,38.91265822784811,37.631921270114475,38.35905977564113,38.31448672538238,39.317434544732095,39.27286149447335,40
38.7,40.41265822784811,38.96246438362439,39.72050174891055,39.80630780961411,39.15615657401028,39.24196263471384,40
40.0,42.41265822784811,42.08088071143504,42.127023745889176,42.25037771845149,39.830502992983554,39.95385696554587,40
41.2,44.212658227848095,45.096069046455455,44.322889511861575,44.57844672208185,40.517622324373605,40.77317953459388,40
42.5,46.1126582278481,47.31009474963892,46.26781553648877,46.58313778920524,40.72695696043368,41.04227921315015,40
43.7,47.81265822784809,48.68765096341073,47.84028845986734,48.18385432782023,40.503796635590504,40.847362503543394,40
45.0,49.31265822784809,49.87004368092417,49.18198998303217,49.54286155632391,40.327182124600256,40.688053697892,40
46.2,50.712658227848095,50.841695408535514,50.07709111632525,50.44810309513926,40.393592313396255,40.764604292210265,40
47.5,52.01265822784811,51.79944422902463,51.15089858174122,51.47775410624806,40.32169012277657,40.64854564728341,40
48.7,53.1126582278481,53.11502800460505,52.98433167336097,53.35131438017976,39.76371362442529,40.13069633124408,40
50.0,54.01265822784811,54.68661140220189,54.52499208991827,55.07064987135533,39.61596153084656,40.16161931228362,40
51.5,56.51265822784811,56.4283847629504,55.24435539843586,56.29336676416986,40.13501799878054,41.184029364514544,40
53.0,58.41265822784811,57.91099483769423,56.30564570374969,57.54808851539343,40.3629063223008,41.60534913394454,40
54.5,60.01265822784811,59.56989732916816,57.67891332688069,58.816037062638145,40.75386026653001,41.89098400228747,40
56.0,61.4126582278481,61.10329537436044,59.13494169442285,60.197402608324694,40.90589276603575,41.96835367993759,40
58.0,62.9126582278481,62.78345337256077,60.776696906825336,61.799530674356745,40.983922698204026,42.006756465735435,40
60.0,64.41265822784811,64.2439789965451,62.30371836369355,63.270758149512574,40.97322084703252,41.94026063285155,40
61.5,65.91265822784808,65.59652850593118,63.79795645126174,64.68738857693502,40.909139928996154,41.798572054669435,40
63.0,67.31265822784809,66.95211499629094,65.2316270379286,66.05547778338617,40.89663721290478,41.72048795836234,40
65.0,68.5126582278481,68.27629005194935,66.61573622087369,67.36105875663581,40.91523129531353,41.66055383107566,40
67.0,69.9126582278481,69.61974305711519,68.0815093471669,68.746668988329,40.87307406878618,41.53823370994829,40
69.0,71.1126582278481,70.86494069522949,69.50965738658063,70.05650330843979,40.808437386789706,41.355283308648865,40
71.0,72.31265822784809,72.12027188728047,70.92817499876188,71.32634995288463,40.79392193439584,41.19209688851859,40
73.0,73.5126582278481,73.33814577131703,72.42243701992109,72.66292113934959,40.67522463196744,40.91570875139594,40
75.0,74.6126582278481,74.49268518311739,73.74960091899035,73.9767322149546,40.51595296816279,40.743084264127035,40
77.5,75.7126582278481,75.5700425973135,74.95443779213488,75.17078663222343,40.39925596509008,40.61560480517862,40
80.0,76.7126582278481,76.55918906230536,76.13553889606719,76.2066621854452,40.35252687686017,40.423650166238176,40
82.5,77.7126582278481,77.55918906230536,77.33185429527862,77.33175466596265,40.227434396342716,40.22733476702675,40
85.0,78.6126582278481,78.5355952585478,78.40961526459475,78.37520005619717,40.16039520235063,40.12597999395305,40
87.5,79.5126582278481,79.41368748185042,79.27516969390712,79.25153787909308,40.16214960275734,40.1385177879433,40
90.0,80.3126582278481,80.29166277971487,80.04615404554917,80.05768084165214,40.233981938062726,40.245508734165696,40
92.5,81.1126582278481,81.06875626598335,80.81988885582605,80.85571499817205,40.213041267811306,40.2488674101573,40
95.0,81.91265822784811,81.85789951178221,81.54522579653633,81.63927668536822,40.21862282641399,40.31267371524588,40
97.5,82.5126582278481,82.55764630175527,82.15700496403139,82.3166672333193,40.240979068435976,40.40064133772388,40
100.0,83.1126582278481,83.17983788160804,82.6483099397965,82.89953731546137,40.280300566146664,40.53152794181153,40
103.0,83.7126582278481,83.76849780470586,83.04482766143947,83.40425408656546,40.3642437181404,40.72367014326639,40
106.0,84.1126582278481,84.19063414566187,83.35923158051176,83.79012056529331,40.40051358036857,40.831402565150114,40
109.0,84.41265822784811,84.50166014789474,83.58925033174174,84.0706598278647,40.43100032003004,40.912409816153,40
112.0,84.7126582278481,84.72388372770652,83.74162164198621,84.25586717780341,40.46801654990311,40.98226208572031,40
115.0,84.81265822784809,84.89063414566188,83.82521230809934,84.37108264804456,40.519551497617314,41.06542183756254,40
118.0,84.9126582278481,84.94624805472809,83.83452127292172,84.40147417494217,40.54477387978592,41.11172678180637,40
122.0,84.9126582278481,84.89089129293198,83.75911199531797,84.31940892012815,40.57148237280383,41.13177929761402,40
125.0,84.7126582278481,84.77983788160805,83.60555295048967,84.1588528710917,40.62098501051635,41.17428493111838,40
128.0,84.6126582278481,84.5470155491837,83.37696342023209,83.93314380512527,40.61387174405843,41.17005212895161,40
132.0,84.3126582278481,84.2808632089119,83.05812017729365,83.63624327696327,40.644619931948625,41.22274303161825,40
136.0,84.1126582278481,84.0256640445022,82.73037208750004,83.3036202726609,40.7220437718413,41.29529195700215,40
140.0,83.8126582278481,83.7256640445022,82.30603561893341,82.90372789741758,40.821936147084614,41.41962842556879,40
145.0,83.6126582278481,83.52566404450221,82.1108637598496,82.71797774612126,40.80768629838094,41.414800284652614,40
150.0,83.41265822784808,83.3037059859424,81.80868021899217,82.48407264050772,40.81963334543468,41.495025766950235,40
155.0,83.2126582278481,83.1037059859424,81.37095307099338,82.18913126754147,40.91457471840093,41.73275291494902,40
160.0,83.1126582278481,82.93711637204927,81.06087130532218,81.95598112470604,40.98113524734323,41.876245066727094,40
165.0,82.9126582278481,82.6941982689634,80.93859061439372,81.7657726422366,40.928425626726806,41.75560765456969,40
170.0,82.7126582278481,82.51620432976333,80.69203749051235,81.53356522412963,40.982639105633694,41.82416683925098,40
175.0,82.6126582278481,82.37355993745689,80.49706068706016,81.34162118989477,41.03193874756212,41.87649925039673,40
180.0,82.6126582278481,82.36246227071908,80.37561808068516,81.23056914071866,41.13189313000042,41.98684419003392,40
185.0,82.6126582278481,82.37355993745689,80.37196883454115,81.21777208945016,41.155787848006725,42.00159110291574,40
190.0,82.7126582278481,82.45329619287824,80.35997756349018,81.24837935372902,41.20491683914922,42.093318629388065,40
195.0,82.9126582278481,82.57656020860853,80.4409754710882,81.33891312623797,41.23764708237056,42.13558473752033,40
200.0,83.0126582278481,82.65677248239035,80.31490070673351,81.33118045146276,41.325592030927595,42.34187177565684,40
206.0,83.1126582278481,82.81121507634546,80.07048978345082,81.30966914162734,41.50154593471812,42.74072529289464,40
212.0,83.31265822784812,82.9232462972204,79.7659037992727,81.26882137678695,41.654424920433456,43.157342497947695,40
218.0,83.31265822784812,83.00339589555483,79.30224717539818,81.208288132151,41.795107763403834,43.70114872015665,40
224.0,83.31265822784812,83.02297280357813,79.10750153728878,81.15627878050994,41.86669402306819,43.915471266289344,40
230.0,83.2126582278481,82.87022907410139,78.93310488299537,80.95358335550668,41.91664571859471,43.93712419110602,40
236.0,83.1126582278481,82.65167982545702,78.64105512117462,80.6708510515503,41.98082877390672,44.01062470428241,40
240.0,82.8126582278481,82.36387687897631,78.24299630509469,80.37612156226504,41.98775531671127,44.12088057388162,40
250.0,82.5126582278481,82.13551079442111,78.01293128827191,80.19252349289025,41.94298730153086,44.122579506149194,40
258.0,82.2126582278481,81.96521155878654,77.9511089416517,80.11643266602816,41.848778892758375,44.01410261713484,40
265.0,82.0126582278481,81.86193855341207,78.04333254494878,80.13045662811741,41.73148192529466,43.81860600846329,40
272.0,81.91265822784811,81.81647201497114,78.17998930390306,80.164780854121,41.651691160850135,43.63648271106808,40
280.0,82.0126582278481,81.90469665096673,78.38182357270429,80.28148804746883,41.6232086034979,43.522873078262435,40
290.0,82.1126582278481,82.02566404450221,78.57376844992291,80.41137236788026,41.614291676621946,43.4518955945793,40
300.0,82.1126582278481,82.11444315135321,78.65399466724736,80.46256703021966,41.651876121133554,43.460448484105854,40
307.0,82.2126582278481,82.1141814373499,78.55350705691887,80.40645950035795,41.707721936991945,43.560674380431024,40
315.0,82.2126582278481,82.01620432976333,78.39883404039314,80.25339199765773,41.7628123321056,43.617370289370186,40
325.0,82.1126582278481,81.95081111228171,78.23978302151231,80.1436009433005,41.807210168981214,43.7110280907694,40
335.0,82.2126582278481,81.9312229949334,78.10277156462931,80.06304788969729,41.86817510523612,43.8284514303041,40
345.0,82.31265822784809,82.04319899171084,77.99627665682648,80.00615563928712,42.03704335242372,44.04692233488436,40
355.0,82.6126582278481,82.25861069269094,77.86528678755062,80.04063241288455,42.21797827980639,44.39332390514032,40
365.0,82.8126582278481,82.53122299493342,77.90699262264555,80.24768768858662,42.28353530634679,44.62423037228787,40
375.0,83.0126582278481,82.70047616883424,77.93552793716962,80.39171616162476,42.308760007209486,44.76494823166462,40
387.0,83.0126582278481,82.70047616883424,77.81736898660296,80.33168513521983,42.368791033614414,44.883107182231285,40
400.0,82.9126582278481,82.66775130021585,77.65689338857831,80.23550009767511,42.43225120254074,45.010857911637544,40
412.0,82.9126582278481,82.70004362802547,77.58429635384772,80.216636274361,42.483407353664475,45.11574727417775,40
425.0,82.9126582278481,82.6577121193816,77.60439674131354,80.22124185291064,42.43647026647096,45.05331537806806,40
437.0,83.0126582278481,82.67502202959845,77.75959716036276,80.29447958952566,42.38054244007279,44.91542486923569,40
450.0,83.1126582278481,82.65651634951405,77.83672372203381,80.30635785631236,42.35015849320169,44.81979262748024,40
462.0,83.0126582278481,82.64429857747217,77.84380874097577,80.24873065621756,42.39556792125461,44.800489836496396,40
475.0,83.0126582278481,82.67502202959845,78.07266848236013,80.34523983231895,42.3297821972795,44.60235354723832,40
487.0,83.2126582278481,82.86490538627913,78.3880021904479,80.55531495256092,42.30959043371821,44.47690319583123,40
500.0,83.5126582278481,83.09416675032384,78.5203148581133,80.67370575906028,42.42046099126355,44.57385189221054,40
515.0,83.5126582278481,83.18557368030467,78.39388137965508,80.60418152051277,42.5813921597919,44.791692300649586,40
530.0,83.2126582278481,82.82072471629064,77.90236930444897,80.12410557659533,42.696619139695315,44.918355411841674,40
545.0,82.6126582278481,82.22982949554988,77.25041338382668,79.47473609166394,42.75509340388594,44.9794161117232,40
560.0,81.91265822784811,81.48087546412624,76.44276394636137,78.83660181594377,42.64427364818248,45.038111517764875,40
580.0,81.4126582278481,80.9337829981153,75.94739922194617,78.46752038904168,42.466262609073624,44.986383776169134,40
600.0,81.2126582278481,80.70184372769923,75.9549355283061,78.50893354353965,42.19291018415957,44.74690819939313,40
615.0,81.1126582278481,80.46114729175117,75.7770257539694,78.40330078417409,42.05784650757708,44.68412153778178,40
630.0,81.5126582278481,80.94399091121467,76.05416453444064,78.81498862694153,42.12900228427314,44.889826376774025,40
650.0,82.1126582278481,81.60710759804729,76.5020193013174,79.40776104842217,42.19934654962512,45.10508829672989,40
670.0,82.5126582278481,82.02897187589855,76.754014763901,79.70789968320325,42.3210721926953,45.27495711199755,40
690.0,82.31265822784809,81.93505761715316,76.734172587217,79.70251824454196,42.2325393726112,45.20088502993616,40
710.0,82.4126582278481,81.99764990823721,76.91110480435255,79.96219510628177,42.03545480195544,45.08654510388466,40
730.0,82.7126582278481,82.16063326928192,76.76057798720231,80.15924176766748,42.001391501614435,45.400055282079606,40
750.0,82.7126582278481,82.09111011919953,76.29609866092437,79.95091976681084,42.140190352388686,45.795011458275155,40
775.0,82.5126582278481,81.80615795677821,75.67198746239197,79.43361639235944,42.37254156441877,46.13417049438624,40
800.0,82.5126582278481,81.95085605719109,75.78959151308945,79.57478113163984,42.37607492555125,46.16126454410164,40
825.0,82.31265822784809,81.79713702797937,75.61455592559128,79.46125961666928,42.33587741131009,46.1825811023881,40
850.0,81.7126582278481,81.11938031467844,74.8211204765478,78.65955000109906,42.459830313579374,46.29825983813063,40
875.0,81.7126582278481,81.23475271079047,74.8505183479351,78.6276582131309,42.607094497659574,46.38423436285538,40
900.0,82.4126582278481,81.82523972414513,75.1584284716121,79.00978153678543,42.81545818735971,46.66681125253304,40
925.0,82.5126582278481,81.88517390160749,74.87552103773618,78.74528413604672,43.13988976556077,47.00965286387131,40
950.0,82.2126582278481,81.54776982262155,74.32080255887183,78.17826538984485,43.369504432776694,47.226967263749714,40
975.0,82.31265822784809,81.63120778527917,74.32201544690194,78.15231516725952,43.47889261801966,47.30919233837723,40
1000.0,82.5126582278481,81.66352940599123,74.24856765515864,77.93917579597061,43.724353610020614,47.41496175083259,40
1030.0,82.6126582278481,81.7305884408634,74.472537554831,78.0270303590473,43.7035580818161,47.25805088603239,40
1060.0,82.31265822784809,81.53675331437685,74.81433986260855,78.2969468870656,43.23980642731125,46.722413451768304,40
1090.0,81.7126582278481,80.86798147503234,74.44218871794408,77.90554440274815,42.96243707228419,46.42579275708826,40
1120.0,81.8126582278481,80.95143371997445,74.51255820162234,78.02259423736334,42.92883948261111,46.438875518352106,40
1150.0,81.6126582278481,80.80883935107538,74.32585331471067,78.01517389902588,42.793665452049495,46.48298603636471,40
1180.0,81.2126582278481,80.53975191510006,74.13925154299876,78.04244280729364,42.497309107806416,46.40050037210129,40
1220.0,81.2126582278481,80.60681800101902,74.24342760317086,78.33070886375094,42.27610913726808,46.363390397848164,40
1250.0,81.7126582278481,81.01654599311846,74.45850699234698,78.63687904062637,42.37966695249209,46.55803900077147,40
1280.0,82.4126582278481,81.58847981496221,74.85034173577132,79.12913082484452,42.45934899011769,46.73813807919089,40
1320.0,82.5126582278481,81.46393706344385,74.45158568755622,78.74851721789342,42.71541984555043,47.01235137588763,40
1360.0,82.1126582278481,81.08848008788101,73.80226169675345,77.94165730708687,43.14682278079414,47.28621839112756,40
1400.0,81.5126582278481,80.46873035564026,72.84634833202388,76.99472908366447,43.474001271975794,47.62238202361638,40
1450.0,81.6126582278481,80.64966622127119,73.01695688075023,77.03794521062292,43.61172101064827,47.63270934052096,40
1500.0,81.5126582278481,80.46892939842463,72.31279926762832,76.4125755325228,44.05635386590184,48.15613013079631,40
1550.0,82.31265822784809,81.3662562235815,73.06130672172847,77.04236891960745,44.32388730397405,48.30494950185303,40
1600.0,82.6126582278481,81.65997250181468,73.50610108452665,77.3510728564255,44.308899645389175,48.15387141728803,40
1650.0,83.2126582278481,82.23252915350224,74.13741082872963,77.96441440563945,44.268114747862796,48.09511832477261,40
1700.0,83.31265822784812,82.37392782839677,74.77874615417124,78.56496892205593,43.80895890634085,47.59518167422553,40
1750.0,83.0126582278481,82.10047762220177,74.48984439349258,78.12079509159332,43.97968253060844,47.61063322870919,40
1800.0,82.6126582278481,81.8070129005539,74.34636683849203,77.63020696587529,44.17680593467861,47.46064606206187,40
1850.0,82.7126582278481,81.53775314787634,74.0567816938646,77.14046873244823,44.39728441542812,47.48097145401175,40
1900.0,82.6126582278481,81.64272142438014,74.9504161544171,77.5267704813917,44.11595094298845,46.69230526996304,40
1950.0,82.7126582278481,82.06986941639317,76.49065833800988,78.89168964292418,43.178179773469,45.579211078383295,40
2000.0,83.1126582278481,82.9209326724235,77.62995639683996,80.28178668909227,42.63914598333123,45.290976275583546,40
2060.0,83.5126582278481,83.16741644766199,77.54244483035637,80.53928215809592,42.62813428956608,45.62497161730562,40
2120.0,83.7126582278481,83.70584852833026,78.51026167214242,81.25547631619013,42.45037221214014,45.195586856187845,40
2180.0,84.5126582278481,84.29790094672599,79.6533365579185,82.19966263554838,42.09823831117761,44.644564388807495,40
2240.0,85.5126582278481,85.20441857116268,79.98409749418684,82.5249545340469,42.67946403711578,45.220321076975836,40
2300.0,85.7126582278481,84.70151571440452,78.91867666305002,81.7586401794558,42.942875534948726,45.7828390513545,40
2360.0,85.2126582278481,83.77822224383819,77.92864657461955,80.93996413865305,42.83825810518513,45.84957566921864,40
2400.0,84.7126582278481,83.01621421452822,76.23120753345339,79.65798067866993,43.35823353585829,46.78500668107483,40
2500.0,84.5126582278481,82.63995185396497,75.86032521539272,79.54416232202416,43.09578953194081,46.77962663857225,40
2580.0,84.7126582278481,82.99798150819106,76.43588300485044,79.79988672937606,43.198094778815005,46.56209850334062,40
2650.0,84.7126582278481,83.41215260734785,76.70247955603607,80.20339528740635,43.2087573199415,46.70967305131178,40
2720.0,84.41265822784811,83.52162791460884,76.79731924969018,80.38158827843552,43.14003963617333,46.72430866491867,40
2800.0,84.41265822784811,83.59089938422919,76.41598399736989,80.06249113583183,43.528408248397355,47.1749153868593,40
2900.0,84.5126582278481,83.49187396964886,76.25172705579439,80.02268487864642,43.46918909100245,47.240146913854474,40
