Freq,On Axis,Listening Window,Sound Power,Early Reflections,Early Reflections DI,Sound Power DI,DI offset
22.4,-12.5,-4.7228032362979775,-4.577218602936682,-3.8511488168372523,19.128345580539275,19.854415366638705,20
23.0,-12.0,-4.35258973331932,-3.7462291384225352,-3.0766288018140244,18.724039068494704,19.393639405103215,20
23.6,-11.400000000000034,-3.7004836764250513,-2.6331491278279486,-2.01563835460405,18.315154678179,18.932665451402897,20
24.0,-9.399999999999977,-1.6495785586449188,-0.19966547058297124,0.38764158770450763,17.962779853650574,18.550086911938052,20
25.0,-7.900000000000006,-0.08649856809307721,1.7612636274722888,2.3096817085318264,17.603819723375096,18.152237804434634,20
25.8,-7.0,0.9375901277703065,3.2686308996894695,3.7680172034609427,17.169572924309364,17.668959228080837,20
26.5,-6.400000000000034,1.8175301340273506,4.574709839343171,5.038765318063952,16.7787648159634,17.24282029468418,20
27.2,-6.100000000000023,2.5184152822881174,5.639793847982219,6.075025351087021,16.443389931201096,16.8786214343059,20
28.0,-6.0,3.170607201841676,6.673711128292325,7.084749537724889,16.085857664116787,16.49689607354935,20
29.0,-6.199999999999989,3.822445594698536,7.6008529779343235,7.9819188919628346,15.840526702735701,16.221592616764212,20
30.0,-6.300000000000011,4.740391639803761,8.627122211895283,8.996174244493062,15.744217395310699,16.113269427908477,20
30.7,-5.599999999999994,6.643849501114232,10.537455516581872,10.898650088121087,15.745199412993145,16.10639398453236,20
31.5,-4.900000000000006,9.08980308898046,12.919748900070346,13.261416510043802,15.828386578936659,16.170054188910115,20
32.5,-4.599999999999994,11.629894319045434,15.215680758870263,15.560195770357922,16.069698548687512,16.41421356017517,20
33.5,-4.599999999999994,13.959428402769419,17.219684910700806,17.568468702366033,16.390959700403386,16.739743492068612,20
34.5,-5.099999999999994,15.706884887494965,18.58216530101825,18.93252831367292,16.774356573822047,17.124719586476715,20
35.5,-5.699999999999989,16.72713239258104,19.159349496400836,19.518387472625534,17.208744919955507,17.567782896180205,20
36.5,-4.0,18.699437590563406,20.76518685468949,21.13367425356546,17.565763336997946,17.934250735873917,20
37.5,-2.4000000000000057,19.4562453298455,21.183759330696603,21.56017530456444,17.896070025281062,18.2724859991489,20
38.7,-1.1999999999999886,18.935674235486545,20.381131456358048,20.770980167871983,18.164694067614562,18.554542779128496,20
40.0,-0.09999999999999432,17.791064929530194,18.976460253501926,19.379217965773933,18.41184696375626,18.814604676028267,20
41.2,1.1999999999999886,16.243211558004845,17.17235303967169,17.58798659011009,18.655224967894753,19.070858518333154,20
42.5,3.1999999999999886,16.03864338612911,16.770536574549,17.20152071726426,18.83712266886485,19.26810681158011,20
43.7,5.300000000000011,15.836750565022243,16.43256086148284,16.881567616016383,18.95518294900586,19.4041897035394,20
45.0,7.0,15.42614159060031,15.903329664785218,16.367225399768415,19.058916190831894,19.52281192581509,20
46.2,8.300000000000011,15.324170439418765,15.678287802787025,16.16553271686621,19.158637722552555,19.64588263663174,20
47.5,9.599999999999994,14.988586396600851,15.227187123408726,15.749075365898108,19.239511030702744,19.761399273192126,20
48.7,11.5,15.572644889374288,15.739816586061096,16.298030290675428,19.27461459869886,19.832828303313192,20
50.0,13.099999999999994,16.127913844226896,16.272823162483974,16.874549325508752,19.253364518718143,19.855090681742922,20
51.5,14.199999999999989,16.553069515538425,16.652580607335295,17.29701027668142,19.256059238857006,19.90048890820313,20
53.0,15.199999999999989,17.012427482755214,17.105590429909455,17.792530341744538,19.219897141010676,19.90683705284576,20
54.5,16.5,17.975354995265235,18.09904910411987,18.80861425089111,19.166740744374124,19.876305891145364,20
56.0,17.599999999999994,18.781056827734545,18.995333244989013,19.713271886218592,19.067784941515953,19.785723582745533,20
58.0,18.30000000000001,19.332436796893376,19.649865105354422,20.349570310286538,18.982866486606838,19.682571691538953,20
60.0,19.0,19.934567463945086,20.425463150939322,21.075792097230874,18.858775366714212,19.509104313005764,20
61.5,19.900000000000006,20.725604018662068,21.438844863267207,22.030899322581035,18.694704696081033,19.28675915539486,20
63.0,20.400000000000006,21.271058860926672,22.227064772205836,22.73807605756744,18.532982803359232,19.043994088720837,20
65.0,20.900000000000006,21.760717161786715,23.11124723791019,23.49216141783529,18.268555743951424,18.649469923876524,20
67.0,21.80000000000001,22.668934824650535,24.518992411353963,24.731521183812674,17.93741364083786,18.14994241329657,20
69.0,22.19999999999999,23.27298559759612,25.83656117256953,25.801924622274555,17.471060975321564,17.436424425026587,20
71.0,22.400000000000006,23.73161273594056,27.18091535399526,26.81277228168932,16.91884045425124,16.550697381945298,20
73.0,22.69999999999999,24.68739666522697,29.185146978754716,28.376243945684877,16.311152719542093,15.502249686472254,20
75.0,22.80000000000001,26.693449397765505,32.32429800272661,30.93017164245714,15.763277755308366,14.369151395038898,20
77.5,24.0,31.540700078368445,37.634682005884144,35.725727589730866,15.81497248863758,13.9060180724843,20
80.0,26.0,33.900044038067875,39.68188186264521,37.454311930424666,16.44573210764321,14.218162175422663,20
82.5,29.30000000000001,33.714135149250296,38.670840114470224,36.38482601709222,17.329309132158073,15.043295034780073,20
85.0,32.900000000000006,34.52615530494677,38.25787536396854,36.13669757190269,18.389457733044082,16.268279940978232,20
87.5,35.900000000000006,36.40978742529094,39.46751617755595,37.542290751468755,18.86749667382219,16.942271247734993,20
90.0,38.599999999999994,38.27741525096948,40.49738807222164,38.823663120661195,19.45375213030829,17.780027178747844,20
92.5,40.900000000000006,40.070875013332056,41.568923495997495,40.171931404279206,19.89894360905285,18.50195151733456,20
95.0,42.80000000000001,41.681418384996306,42.65813789394275,41.519434336908404,20.161984048087902,19.023280491053555,20
97.5,44.69999999999999,43.50660444855495,44.212966108807336,43.22625660805136,20.280347840503595,19.293638339747616,20
100.0,46.599999999999994,45.30580939140917,45.6827852548015,44.88857119463387,20.4172381967753,19.62302413660767,20
103.0,48.2,46.9670185872142,47.10081603944808,46.49304155533902,20.47397703187518,19.86620254776612,20
106.0,49.79999999999998,48.55428236981089,48.52400872097559,48.05433440407987,20.499947965731025,20.030273648835305,20
109.0,51.5,50.28018203901573,50.135087648185106,49.79811957476791,20.482062464247818,20.14509439083062,20
112.0,52.900000000000006,51.82141997976379,51.58735569724783,51.35159564481107,20.46982433495272,20.23406428251596,20
115.0,54.400000000000006,53.38230259486133,53.092918764826265,52.93856058851003,20.4437420063513,20.289383830035064,20
118.0,55.7,54.74735886990196,54.44851217102291,54.3426871036765,20.404671766225462,20.298846698879046,20
122.0,56.8,55.99057061279822,55.68469405925981,55.61673116180617,20.37383945099205,20.30587655353841,20
125.0,58.099999999999994,57.318311045546565,56.96215171297145,56.94124359288686,20.377067452659702,20.356159332575118,20
128.0,59.099999999999994,58.380322294558,58.03426612963001,58.0359124190328,20.3444098755252,20.346056164927987,20
132.0,60.099999999999994,59.47023831982969,59.067810429710946,59.099378782458786,20.370859537370904,20.402427890118744,20
136.0,61.099999999999994,60.463809032666845,60.04801775908403,60.10444313510341,20.359365897563436,20.415791273582812,20
140.0,61.900000000000006,61.33465537448973,60.88676246909432,60.960717096977575,20.373938277512153,20.447892905395406,20
145.0,62.8,62.29651365878922,61.82350547638812,61.93065771227984,20.365855946509384,20.473008182401102,20
150.0,63.5,63.03565397125685,62.53104664022413,62.663608105805,20.372045865451852,20.504607331032716,20
155.0,64.1,63.63444145427141,63.13291378329771,63.27887638430383,20.355565069967582,20.5015276709737,20
160.0,64.70000000000002,64.30868263767549,63.79904177776011,63.95605729386932,20.352625343806167,20.50964085991538,20
165.0,65.2,64.87255617019412,64.35114564730316,64.52876748998456,20.343788680209556,20.52141052289096,20
170.0,65.7,65.36174053233641,64.81966832881318,65.01927951000752,20.34246102232889,20.542072203523233,20
175.0,66.1,65.8043599310018,65.24931154236975,65.4602985719454,20.344061359056397,20.555048388632045,20
180.0,66.4,66.11533705491688,65.54953490674369,65.77694774347145,20.338389311445425,20.56580214817319,20
185.0,66.7,66.41533705491689,65.83237930443585,66.0609831682035,20.354353886713383,20.582957750481043,20
190.0,66.9,66.66999142220303,66.08754883521212,66.3243657845055,20.345625637697523,20.582442586990908,20
195.0,67.1,66.83692504995614,66.25069308672799,66.49225982597608,20.34466522398006,20.586231963228144,20
200.0,67.20000000000002,66.9480556334455,66.35518453292875,66.6053101549758,20.34274547846971,20.59287110051676,20
206.0,67.29999999999998,67.03692504995614,66.42477950528473,66.68739693702983,20.349528112926308,20.612145544671407,20
212.0,67.29999999999998,67.06948200046486,66.45460558630893,66.71654522578463,20.35293677468023,20.61487641415593,20
218.0,67.4,67.1153255801652,66.46642872896625,66.74869918419112,20.36662639597408,20.648896851198955,20
224.0,67.4,67.13642341970271,66.46382607065668,66.75229763966945,20.38412578003326,20.67259734904603,20
230.0,67.4,67.12551730818578,66.42360883922044,66.71951449441322,20.40600281377256,20.701908468965343,20
236.0,67.4,67.16948200046485,66.45537635095683,66.76790241992087,20.40157958054398,20.714105649508028,20
240.0,67.5,67.21380072308283,66.45456647238194,66.77497519137256,20.438825531710265,20.759234250700885,20
250.0,67.5,67.22473626024352,66.46007506436266,66.78403255481231,20.440703705431204,20.764661195880862,20
258.0,67.6,67.26977525513126,66.49107189955038,66.8334663552006,20.436308899930665,20.778703355580888,20
265.0,67.6,67.32448764304284,66.50631806460228,66.85871614058678,20.465771502456064,20.81816957844056,20
272.0,67.6,67.36898411684476,66.56196967465299,66.91351514103336,20.4554689758114,20.80701444219177,20
280.0,67.7,67.43539633734207,66.60946582629767,66.97070795758373,20.464688379758343,20.825930511044405,20
290.0,67.7,67.49054080040274,66.66105182934564,67.02699797259848,20.46354282780426,20.829488971057103,20
300.0,67.8,67.54653083445726,66.70282946794826,67.07536655768561,20.471164276771646,20.843701366508995,20
307.0,67.8,67.53513664106822,66.67735186100515,67.06029899983884,20.474837641229385,20.85778478006307,20
315.0,67.7,67.4460186532139,66.60178154329577,66.99570946531531,20.450309187898583,20.844237109918126,20
325.0,67.7,67.40206449525829,66.53189386364865,66.93138909889782,20.470675396360463,20.87017063160964,20
335.0,67.6,67.31328466703154,66.42168262081736,66.83391810145454,20.479366565576996,20.891602046214174,20
345.0,67.5,67.19156700684889,66.24131576555925,66.68952840330908,20.502038603539802,20.950251241289635,20
355.0,67.4,67.0485742822663,66.04964169755209,66.50827071632206,20.540303565944242,20.99893258471421,20
365.0,67.4,66.94053204213068,65.87181688137929,66.37354014406154,20.566991898069148,21.068715160751395,20
375.0,67.29999999999998,66.84155791078685,65.72076835332687,66.25911644420009,20.582441466586758,21.12078955745997,20
387.0,67.29999999999998,66.77520500948067,65.5951381672393,66.16251863359868,20.612686375881992,21.180066842241374,20
400.0,67.29999999999998,66.69991250227902,65.45949491845646,66.06197647448641,20.637936027792605,21.240417583822563,20
412.0,67.29999999999998,66.68964915792436,65.38429819255255,66.00063147073553,20.689017687188837,21.305350965371815,20
425.0,67.29999999999998,66.6896260661247,65.34542989354186,65.9916024586124,20.698023607512297,21.34419617258284,20
437.0,67.29999999999998,66.7115971042511,65.3119562216041,65.977691846748,20.733905257503096,21.39964088264699,20
450.0,67.29999999999998,66.72279863524615,65.28534090515873,65.96862762433501,20.754171010911136,21.437457730087417,20
462.0,67.29999999999998,66.75500725336114,65.27725395591132,65.97180206229801,20.783205191063132,21.477753297449823,20
475.0,67.29999999999998,66.81145969776026,65.2535573728111,65.9868267045336,20.824632993226658,21.557902324949154,20
487.0,67.4,66.8441300674344,65.23677643213284,65.9870098400826,20.8571202273518,21.607353635301564,20
500.0,67.4,66.94103240081745,65.22358183126248,66.03378665917967,20.90724574163778,21.71745056955497,20
515.0,67.5,67.04028916900141,65.22644386682684,66.09715038642162,20.943138782579794,21.81384530217457,20
530.0,67.7,67.19472790813256,65.25546284043077,66.1854200491739,21.009307858958664,21.939265067701797,20
545.0,67.8,67.31644154588338,65.26211506620517,66.2688938605173,21.047547685366084,22.05432647967821,20
560.0,68.0,67.46185005220315,65.26599173580217,66.35454612918755,21.107303923015593,22.195858316400972,20
580.0,68.1,67.58546783712296,65.26894531571116,66.43127237187021,21.154195465252755,22.316522521411798,20
600.0,68.2,67.67768616819396,65.23968957517737,66.4745805579052,21.20310561028876,22.437996593016592,20
615.0,68.2,67.65654152379282,65.12207190394419,66.42862196950453,21.22791955428829,22.534469619848636,20
630.0,68.2,67.63609236068807,65.01997235273028,66.38237916124537,21.2537131994427,22.61612000795779,20
650.0,68.1,67.61334868845528,64.91508337714556,66.34388679948529,21.269461888969985,22.69826531130971,20
670.0,68.0,67.55571378441472,64.79879362160119,66.27731991733205,21.27839386708267,22.75692016281353,20
690.0,68.1,67.59928803099375,64.75314167192434,66.2977695192547,21.301518511739047,22.846146359069408,20
710.0,68.1,67.66201791385589,64.787640860214,66.38409743683856,21.277920477017332,22.874377053641894,20
730.0,68.30000000000001,67.83877332533534,64.90012249415138,66.54595616122334,21.292817164111995,22.938650831183963,20
750.0,68.5,67.98345962927647,65.01743161521466,66.70467306477997,21.2787865644965,22.966028014061806,20
775.0,68.5,68.0599988307467,65.06504207703566,66.77269739334062,21.28730143740607,22.994956753711037,20
800.0,68.6,68.10696632018362,65.05552326359299,66.77424018050036,21.33272613968326,23.051443056590628,20
825.0,68.4,67.98437964924422,64.94881604037302,66.66595522194915,21.31842442729507,23.0355636088712,20
850.0,68.30000000000001,67.88513251017973,64.85864725975729,66.56888930170884,21.316243208470894,23.02648525042244,20
875.0,68.30000000000001,67.8082261814622,64.79604394746963,66.5082620853622,21.2999640961,23.012182233992576,20
900.0,68.5,67.99669712224782,64.98007073895431,66.71278142399368,21.283915698254148,23.016626383293513,20
925.0,68.5,68.02859586121667,64.98055104224636,66.7396473685269,21.28894849268977,23.04804481897031,20
950.0,68.4,67.87315728313928,64.79206398383481,66.58150263048704,21.29165465265224,23.08109329930447,20
975.0,68.2,67.70671086865381,64.56018943289797,66.37864746513763,21.328063403516182,23.146521435755844,20
1000.0,67.8,67.23121134665814,64.0316833072014,65.8716006045878,21.359610742070345,23.199528039456737,20
1030.0,67.6,67.10819169461143,63.82879679819983,65.68108439476963,21.427107299841808,23.279394896411603,20
1060.0,67.9,67.34359506189149,64.02378268314266,65.89346548080013,21.45012958109136,23.319812378748836,20
1090.0,68.4,67.80248705147716,64.41436984238712,66.29366161494085,21.508825436536313,23.38811720909004,20
1120.0,68.69999999999999,68.13567001701284,64.70781319632835,66.59051788454195,21.54515213247089,23.427856820684497,20
1150.0,68.9,68.30301644176535,64.80602188064132,66.71740698429274,21.585609457472614,23.496994561124026,20
1180.0,69.0,68.2934317952832,64.70308549861551,66.64263800411682,21.65079379116638,23.59034629666769,20
1220.0,68.69999999999999,68.03583766742031,64.33986803001491,66.32001703389705,21.715820633523265,23.695969637405398,20
1250.0,68.30000000000001,67.67228677345386,63.82171886685262,65.86286141898643,21.809425354467436,23.850567906601242,20
1280.0,68.1,67.41214630600528,63.362594366420524,65.50291172969189,21.909234576313395,24.04955193958476,20
1320.0,68.2,67.57252832296041,63.2722226686998,65.51847444281599,22.054053880144423,24.30030565426061,20
1360.0,68.5,67.78928177606743,63.26601564595839,65.58079176430097,22.208490011766457,24.523266130109036,20
1400.0,68.8,67.97576330890648,63.242029960275005,65.61710191218754,22.358661396718944,24.733733348631475,20
1450.0,68.69999999999999,67.90624280102591,63.022893630762724,65.48973595120958,22.41650684981633,24.883349170263187,20
1500.0,68.6,67.77412522757723,62.72222813191816,65.32044944575877,22.45367578181846,25.051897095659072,20
1550.0,68.4,67.60299162063632,62.39185168040335,65.14834589212126,22.45464572851506,25.211139940232968,20
1600.0,68.30000000000001,67.47970712851945,62.0637375178832,64.94574083953499,22.53396628898446,25.415969610636253,20
1650.0,68.2,67.34788068724117,61.75472559425391,64.69210099229862,22.655779694942552,25.59315509298726,20
1700.0,68.30000000000001,67.43786785574463,61.729313865773946,64.69712659979966,22.740741255944968,25.70855398997068,20
1750.0,68.5,67.64889527936148,61.898377082494335,64.95955684695113,22.689338432410352,25.750518196867148,20
1800.0,68.6,67.72389012988157,61.86348669256638,65.05650343570443,22.66738669417714,25.860403437315185,20
1850.0,68.1,67.30943665346018,61.349057934228924,64.5858334594991,22.723603193961083,25.960378719231258,20
1900.0,67.7,66.84545704767854,60.74832420603691,64.00420590612225,22.841251141556285,26.097132841641624,20
1950.0,67.9,66.9159421006106,60.69749784440353,64.00882237895723,22.90711972165336,26.218444256207064,20
2000.0,68.5,67.47954808444268,61.121129391879975,64.55574901210971,22.92379907233297,26.358418692562708,20
2060.0,68.8,67.8261565235417,61.34053529706949,64.84387200169037,22.982284521851327,26.485621226472205,20
2120.0,68.6,67.60292702182802,61.00132970739264,64.56393230220525,23.038994719622778,26.60159731443538,20
2180.0,68.0,66.92951110808573,60.187798096910726,63.79767012623127,23.131840981854467,26.74171301117501,20
2240.0,67.8,66.60663645971012,59.74168326459484,63.44723025523942,23.1594062044707,26.864953195115277,20
2300.0,68.2,67.05888519427407,60.08105022245536,63.898104666888074,23.160780527385995,26.97783497181871,20
2360.0,68.5,67.3709035430962,60.29569334442468,64.16643954412416,23.204463998972045,27.075210198671527,20
2400.0,68.2,66.96033903225796,59.800337438261025,63.69399056119454,23.266348471063424,27.160001593996938,20
2500.0,68.0,66.75059360565406,59.509530694612806,63.43098204834098,23.31961155731308,27.241062911041254,20
2580.0,68.2,67.03365145382247,59.76562820289891,63.69074013741013,23.34291131641234,27.268023250923562,20
2650.0,68.6,67.24677256047876,59.9448670429657,63.85898702119974,23.387785539279022,27.301905517513063,20
2720.0,68.5,67.13580258432604,59.74767815248801,63.66602437465636,23.469778209669684,27.388124431838037,20
2800.0,68.5,67.14425053656956,59.721347653498285,63.64381138392379,23.500439152645768,27.422902883071274,20
2900.0,68.8,67.42364247346522,60.07153985873393,63.94713577113406,23.476506702331164,27.352102614731294,20
3000.0,68.9,67.54739402260985,60.15664234218205,63.98283860677607,23.56455541583378,27.390751680427798,20
3070.0,69.0,67.50023185607401,60.04594145591889,63.865073253068346,23.635158603005664,27.454290400155116,20
3150.0,69.2,67.5533688521426,60.292880314853264,64.00370423380318,23.54966461833942,27.260488537289334,20
3250.0,69.2,67.56333093580588,60.4151487670438,63.99628435506351,23.56704658074237,27.148182168762077,20
3350.0,69.2,67.48919962832281,60.576099658849785,64.07422841318159,23.41497121514122,26.913099969473024,20
3450.0,69.2,67.5310410816823,61.16977239299402,64.43719844058299,23.093842641099315,26.361268688688284,20
3550.0,69.2,67.4477917693266,61.58056856402517,64.56413670365077,22.883655065675825,25.86722320530143,20
3650.0,68.9,67.14180519514727,62.02047716252736,64.80802668022076,22.333778514926507,25.121328032619914,20
3750.0,68.4,66.58013982233832,62.30226371144511,64.80967979302092,21.770460029317405,24.277876110893217,20
