Freq "Listening Window"
22.4 -7.20634754009545
23.0 -6.836134037116793
23.6 -6.184027980222524
24.0 -4.1331228624423915
25.0 -2.57004287189055
25.8 -1.5459541760271662
26.5 -0.6660141697701221
27.2 0.03487097849064469
28.0 0.6870628980442035
29.0 1.3389012909010631
30.0 2.256847336006288
30.7 4.1603051973167595
31.5 6.6062587851829875
32.5 9.146350015247961
33.5 11.475884098971946
34.5 13.223340583697492
35.5 14.243588088783568
36.5 16.215893286765933
37.5 16.97270102604803
38.7 16.452129931689072
40.0 15.307520625732721
41.2 13.759667254207372
42.5 13.555099082331637
43.7 13.35320626122477
45.0 12.942597286802837
46.2 12.840626135621292
47.5 12.505042092803379
48.7 13.089100585576816
50.0 13.644369540429423
51.5 14.069525211740952
53.0 14.528883178957742
54.5 15.491810691467762
56.0 16.297512523937073
58.0 16.848892493095903
60.0 17.451023160147614
61.5 18.242059714864595
63.0 18.7875145571292
65.0 19.277172857989243
67.0 20.185390520853062
69.0 20.789441293798646
71.0 21.248068432143086
73.0 22.203852361429497
75.0 24.209905093968032
77.5 29.057155774570973
80.0 31.416499734270403
82.5 31.230590845452824
85.0 32.0426110011493
87.5 33.92624312149347
90.0 35.79387094717201
92.5 37.587330709534584
95.0 39.19787408119883
97.5 41.02306014475748
100.0 42.8222650876117
103.0 44.483474283416726
106.0 46.07073806601342
109.0 47.796637735218255
112.0 49.337875675966316
115.0 50.89875829106386
118.0 52.263814566104486
122.0 53.50702630900075
125.0 54.83476674174909
128.0 55.896777990760526
132.0 56.98669401603222
136.0 57.98026472886937
140.0 58.851111070692255
145.0 59.81296935499175
150.0 60.552109667459376
155.0 61.15089715047394
160.0 61.825138333878016
165.0 62.38901186639664
170.0 62.87819622853894
175.0 63.320815627204325
180.0 63.631792751119406
185.0 63.93179275111942
190.0 64.18644711840555
195.0 64.35338074615866
200.0 64.46451132964803
206.0 64.55338074615867
212.0 64.58593769666739
218.0 64.63178127636773
224.0 64.65287911590524
230.0 64.6419730043883
236.0 64.68593769666738
240.0 64.73025641928535
250.0 64.74119195644604
258.0 64.78623095133379
265.0 64.84094333924537
272.0 64.88543981304728
280.0 64.9518520335446
290.0 65.00699649660527
300.0 65.06298653065978
307.0 65.05159233727075
315.0 64.96247434941642
325.0 64.91852019146081
335.0 64.82974036323407
345.0 64.70802270305141
355.0 64.56502997846883
365.0 64.45698773833321
375.0 64.35801360698937
387.0 64.2916607056832
400.0 64.21636819848155
412.0 64.20610485412689
425.0 64.20608176232723
437.0 64.22805280045363
450.0 64.23925433144868
462.0 64.27146294956367
475.0 64.32791539396278
487.0 64.36058576363693
500.0 64.45748809701998
515.0 64.55674486520394
530.0 64.71118360433509
545.0 64.8328972420859
560.0 64.97830574840567
580.0 65.10192353332549
600.0 65.19414186439649
615.0 65.17299721999535
630.0 65.1525480568906
650.0 65.1298043846578
670.0 65.07216948061725
690.0 65.11574372719627
710.0 65.17847361005842
730.0 65.35522902153787
750.0 65.499915325479
775.0 65.57645452694922
800.0 65.62342201638614
825.0 65.50083534544675
850.0 65.40158820638226
875.0 65.32468187766473
900.0 65.51315281845035
925.0 65.5450515574192
950.0 65.3896129793418
975.0 65.22316656485634
1000.0 64.74766704286067
1030.0 64.62464739081396
1060.0 64.86005075809402
1090.0 65.31894274767969
1120.0 65.65212571321537
1150.0 65.81947213796788
1180.0 65.80988749148572
1220.0 65.55229336362284
1250.0 65.18874246965639
1280.0 64.92860200220781
1320.0 65.08898401916294
1360.0 65.30573747226995
1400.0 65.492219005109
1450.0 65.42269849722844
1500.0 65.29058092377976
1550.0 65.11944731683884
1600.0 64.99616282472198
1650.0 64.8643363834437
1700.0 64.95432355194716
1750.0 65.16535097556401
1800.0 65.2403458260841
1850.0 64.82589234966271
1900.0 64.36191274388106
1950.0 64.43239779681312
2000.0 64.99600378064521
2060.0 65.34261221974423
2120.0 65.11938271803055
2180.0 64.44596680428826
2240.0 64.12309215591264
2300.0 64.5753408904766
2360.0 64.88735923929873
2400.0 64.47679472846049
2500.0 64.26704930185659
2580.0 64.550107150025
2650.0 64.76322825668129
2720.0 64.65225828052857
2800.0 64.66070623277209
2900.0 64.94009816966775
3000.0 65.06384971881238
3070.0 65.01668755227654
3150.0 65.06982454834512
3250.0 65.0797866320084
3350.0 65.00565532452534
3450.0 65.04749677788483
3550.0 64.96424746552913
3650.0 64.6582608913498
3750.0 64.09659551854085
3870.0 63.54492102391916
4000.0 63.45063017842284
4120.0 64.32857724654575
4250.0 65.05802935343823
4370.0 65.82458362921292
4500.0 66.53323417845708
4620.0 67.34416086364392
4750.0 67.06411494943522
4870.0 66.58038054118053
5000.0 67.04350583148364
5150.0 67.61760456031098
5300.0 66.9362434714801
5450.0 66.7116461511525
5600.0 66.96637007467591
5800.0 66.26002373147342
6000.0 65.75435290702231
6150.0 65.58757065839238
6300.0 64.7964623713797
6500.0 64.5237480369669
6700.0 64.87714594069807
6900.0 64.76453479990857
7100.0 64.86997437560738
7300.0 64.81126860308
7500.0 64.32911638728648
7750.0 63.855534380166986
8000.0 63.82548482185763
8250.0 63.87364552213914
8500.0 64.13050706045705
8750.0 64.16217372789542
9000.0 64.1383614778926
9250.0 64.55151817332013
9500.0 64.73320125717088
9750.0 64.56547815508581
10000.0 64.13644542355932
10300.0 63.80086417597269
10600.0 64.23165659066662
10900.0 64.34611699109574
11200.0 63.83331585267342
11500.0 63.498355101109425
11800.0 63.411609274917126
12200.0 62.83451991166508
12500.0 62.87217822517624
12800.0 64.19598231448337
13200.0 63.91984252600926
13600.0 63.90245861135517
14000.0 63.09663701729558
14500.0 62.04973817000025
15000.0 63.09531635601559
15500.0 64.84841815635032
16000.0 63.84285735386048
16500.0 63.44123714047137
17000.0 61.58850806925504
17500.0 60.82992550564846
18000.0 61.002767155065385
18500.0 58.89063575668317
19000.0 62.018940737753084
19500.0 60.388357880285554
