Freq "Sound Power"
22.4 -4.577218602936696
23.0 -3.746229138422521
23.6 -2.633149127827963
24.0 -0.19966547058295703
25.0 1.761263627472303
25.8 3.2686308996894837
26.5 4.5747098393431855
27.2 5.6397938479822045
28.0 6.6737111282922825
29.0 7.600852977934338
30.0 8.62712221189527
30.7 10.537455516581886
31.5 12.91974890007036
32.5 15.215680758870278
33.5 17.21968491070082
34.5 18.582165301018236
35.5 19.15934949640082
36.5 20.765186854689503
37.5 21.18375933069659
38.7 20.381131456358062
40.0 18.97646025350194
41.2 17.172353039671705
42.5 16.770536574549013
43.7 16.432560861482855
45.0 15.903329664785232
46.2 15.678287802787011
47.5 15.227187123408711
48.7 15.739816586061082
50.0 16.272823162483988
51.5 16.65258060733531
53.0 17.10559042990944
54.5 18.099049104119857
56.0 18.995333244989027
58.0 19.649865105354436
60.0 20.425463150939336
61.5 21.438844863267192
63.0 22.22706477220585
65.0 23.111247237910177
67.0 24.518992411353977
69.0 25.836561172569546
71.0 27.180915353995275
73.0 29.1851469787547
75.0 32.32429800272659
77.5 37.63468200588416
80.0 39.6818818626452
82.5 38.67084011447024
85.0 38.25787536396855
87.5 39.467516177555936
90.0 40.497388072221625
92.5 41.56892349599751
95.0 42.65813789394274
97.5 44.21296610880735
100.0 45.682785254801516
103.0 47.10081603944808
106.0 48.52400872097557
109.0 50.135087648185106
112.0 51.58735569724783
115.0 53.092918764826265
118.0 54.44851217102293
122.0 55.68469405925981
125.0 56.96215171297145
128.0 58.03426612963001
132.0 59.067810429710946
136.0 60.04801775908403
140.0 60.886762469094336
145.0 61.82350547638812
150.0 62.53104664022412
155.0 63.132913783297724
160.0 63.79904177776011
165.0 64.35114564730317
170.0 64.81966832881318
175.0 65.24931154236975
180.0 65.54953490674369
185.0 65.83237930443583
190.0 66.0875488352121
195.0 66.25069308672799
200.0 66.35518453292875
206.0 66.42477950528475
212.0 66.45460558630893
218.0 66.46642872896625
224.0 66.4638260706567
230.0 66.42360883922044
236.0 66.45537635095683
240.0 66.45456647238196
250.0 66.46007506436264
258.0 66.49107189955038
265.0 66.5063180646023
272.0 66.56196967465299
280.0 66.60946582629768
290.0 66.66105182934564
300.0 66.70282946794826
307.0 66.67735186100515
315.0 66.60178154329577
325.0 66.53189386364866
335.0 66.42168262081735
345.0 66.24131576555926
355.0 66.0496416975521
365.0 65.87181688137927
375.0 65.72076835332687
387.0 65.5951381672393
400.0 65.45949491845646
412.0 65.38429819255255
425.0 65.34542989354186
437.0 65.3119562216041
450.0 65.28534090515872
462.0 65.27725395591132
475.0 65.2535573728111
487.0 65.23677643213284
500.0 65.22358183126248
515.0 65.22644386682686
530.0 65.25546284043075
545.0 65.26211506620517
560.0 65.26599173580217
580.0 65.26894531571116
600.0 65.23968957517737
615.0 65.12207190394419
630.0 65.01997235273028
650.0 64.91508337714556
670.0 64.79879362160119
690.0 64.75314167192433
710.0 64.787640860214
730.0 64.90012249415139
750.0 65.01743161521466
775.0 65.06504207703567
800.0 65.05552326359299
825.0 64.94881604037302
850.0 64.8586472597573
875.0 64.79604394746963
900.0 64.98007073895431
925.0 64.98055104224638
950.0 64.79206398383481
975.0 64.56018943289797
1000.0 64.0316833072014
1030.0 63.82879679819983
1060.0 64.02378268314266
1090.0 64.41436984238712
1120.0 64.70781319632835
1150.0 64.80602188064132
1180.0 64.70308549861551
1220.0 64.33986803001493
1250.0 63.82171886685262
1280.0 63.362594366420524
1320.0 63.2722226686998
1360.0 63.26601564595839
1400.0 63.24202996027502
1450.0 63.02289363076274
1500.0 62.72222813191816
1550.0 62.39185168040335
1600.0 62.0637375178832
1650.0 61.75472559425393
1700.0 61.729313865773946
1750.0 61.89837708249435
1800.0 61.86348669256638
1850.0 61.34905793422894
1900.0 60.748324206036926
1950.0 60.69749784440354
2000.0 61.12112939187999
2060.0 61.34053529706948
2120.0 61.00132970739266
2180.0 60.18779809691074
2240.0 59.741683264594855
2300.0 60.08105022245536
2360.0 60.29569334442469
2400.0 59.800337438261025
2500.0 59.50953069461282
2580.0 59.76562820289891
2650.0 59.94486704296571
2720.0 59.74767815248802
2800.0 59.721347653498285
2900.0 60.07153985873393
3000.0 60.15664234218205
3070.0 60.04594145591889
3150.0 60.292880314853264
3250.0 60.41514876704379
3350.0 60.576099658849785
3450.0 61.16977239299402
3550.0 61.580568564025185
3650.0 62.02047716252736
3750.0 62.30226371144511
3870.0 62.55009902424574
4000.0 63.23750118566025
4120.0 64.27852646055486
4250.0 64.8644670132989
4370.0 64.79330992945249
4500.0 64.71580611113895
4620.0 64.7138057660078
4750.0 63.6740669625696
4870.0 62.54294758090849
5000.0 62.6322213283089
5150.0 62.70454589178135
5300.0 61.37077611196001
5450.0 60.86311864149471
5600.0 60.948113110659065
5800.0 60.10177551075684
6000.0 60.11969637469868
6150.0 60.73574748337039
6300.0 60.31821032064157
6500.0 60.19039985135687
6700.0 60.66432943885559
6900.0 60.378225175321205
7100.0 60.18447878122528
7300.0 59.90876675520306
7500.0 59.394555530211235
7750.0 59.046647491684
8000.0 59.091887837370805
8250.0 58.9171268115751
8500.0 58.616028766017266
8750.0 58.38165277451374
9000.0 58.11219390171688
9250.0 58.507126470481225
9500.0 58.545468350061185
9750.0 58.123679982159274
10000.0 57.88906685465686
10300.0 58.15331253074224
10600.0 59.19917183047913
10900.0 59.41706549687183
11200.0 59.30020027980186
11500.0 59.499521457605965
11800.0 58.992409137132015
12200.0 57.476750861136466
12500.0 57.51057704410343
12800.0 59.32204717480289
13200.0 58.45380528962157
13600.0 57.53484812715348
14000.0 56.049767727717565
14500.0 54.88809011349781
15000.0 56.405308982219665
15500.0 58.8839675808039
16000.0 57.49925699814578
16500.0 56.14916071777955
17000.0 53.836543431037754
17500.0 53.63140529654895
18000.0 54.805354768118676
18500.0 53.42191570797395
19000.0 56.89980216095752
19500.0 52.85117745022333
