Freq,On Axis,Listening Window,Sound Power,Early Reflections,Early Reflections DI,Sound Power DI,DI offset
20.5078,50.61460000000001,50.06910182812699,53.43349551063899,51.86592726388746,38.20317456423953,36.635606317488,40
21.9727,52.379599999999996,51.98250393735215,56.603509165196826,54.72572562386851,37.256778313483636,35.37899477215532,40
23.4375,54.90849999999999,54.561035880728284,57.445591852954934,56.07914562772969,38.481890252998596,37.11544402777335,40
24.9023,56.66599999999998,56.42264512220258,59.841780087428674,58.328872541687005,38.09377258051558,36.58086503477391,40
26.3672,59.1318,58.98330625207812,62.11037948361178,60.70919395666459,38.27411229541353,36.87292676846634,40
27.832,61.396100000000004,61.31775415092723,64.36107900599504,63.00478255770284,38.31297159322439,36.95667514493219,40
29.2969,63.909800000000004,63.887872628172346,66.66046469441439,65.40795154514636,38.479921083025985,37.22740793375796,40
30.7617,65.939,65.92554932790901,68.50739216039383,67.3453505702174,38.580198757691605,37.418157167515176,40
32.2266,68.2933,68.30434359962088,70.63237712039601,69.56494659852213,38.73939700109875,37.671966479224864,40
33.6914,70.52230000000002,70.54967053584973,72.65480831782331,71.67422085206236,38.875449683787366,37.89486221802642,40
35.1563,72.4411,72.47476220760423,74.34100160913498,73.4541845374569,39.02057767014733,38.13376059846925,40
36.6211,74.1051,74.14187046055734,75.80845757620081,75.00255451755359,39.13931594300375,38.333412884356534,40
38.0859,75.4672,75.50691018281239,77.03228728338094,76.28620773823567,39.220702444576716,38.47462289943145,40
39.5508,76.5808,76.62288802464782,78.0409723830261,77.34044395980607,39.282444064841755,38.58191564162172,40
41.0156,77.5826,77.62222185850072,78.86727563366539,78.24017330581783,39.38204855268289,38.75494622483534,40
42.4805,78.2461,78.28571911036043,79.4439669771764,78.85381623938754,39.43190287097289,38.84175213318403,40
43.9453,78.7766,78.81527352242956,79.88226176676689,79.33227120096693,39.483002321462635,38.933011755662676,40
45.4102,79.159,79.19651153380056,80.17794856656336,79.6658750824783,39.530636451322266,39.0185629672372,40
46.875,79.5088,79.5441883964325,80.4333447752545,79.96170847092013,39.582479925512374,39.110843621178006,40
48.3398,79.6701,79.70653184073977,80.57817382587571,80.11390827299984,39.592623567739935,39.12835801486406,40
51.2695,80.1036,80.13559327230068,80.84592946271567,80.45551913641778,39.680074135882904,39.28966380958501,40
52.7344,80.16100000000002,80.19604594365933,80.9435950874788,80.53676162653677,39.659284317122555,39.25245085618053,40
54.1992,80.1848,80.21740425458484,80.8715659098974,80.51221796531301,39.70518628927182,39.34583834468744,40
55.6641,80.4048,80.43159782893615,80.94913026585026,80.6533713044087,39.778226524527454,39.48246756308589,40
58.5938,80.6554,80.6795364176646,81.11829876778327,80.85887825090775,39.82065816675684,39.56123764988132,40
60.0586,80.6809,80.7037264288947,81.10020149343137,80.86084142105204,39.84288500784265,39.60352493546333,40
62.9883,80.7461,80.76836070958161,81.13430827256376,80.90827989692654,39.86008081265507,39.63405243701786,40
64.4531,80.8159,80.83930261300382,81.22312661662323,80.98729599079536,39.852006622208464,39.61617599638059,40
67.3828,80.864,80.88677851483872,81.2502880175098,81.02142548935103,39.86535302548769,39.63649049732892,40
68.8477,80.8665,80.88825501648773,81.22813339725606,81.01024359578741,39.87801142070032,39.660121619231674,40
71.7773,80.9891,81.00705438773419,81.26748261183234,81.0880874344596,39.91896695327459,39.73957177590185,40
74.707,81.2461,81.25981260225863,81.42922957308907,81.29588370643752,39.96392889582111,39.83058302916956,40
77.6367,81.2497,81.26286681198609,81.41785634792372,81.28994076436454,39.97292604762154,39.84501046406237,40
79.1016,81.188,81.20082374041645,81.35499618021024,81.22754872541036,39.973275015006095,39.84582756020622,40
82.0313,81.1442,81.15567757217678,81.29080298086633,81.17161427223637,39.984063299940416,39.86487459131045,40
84.9609,81.1869,81.19529367334407,81.27452049905587,81.18220313470809,40.01309053863598,39.9207731742882,40
87.8906,81.2658,81.27045395861356,81.28446554770899,81.22446291183415,40.045991046779406,39.98598841090457,40
90.8203,81.1195,81.12264694934048,81.12653218338251,81.06977188353217,40.05287506580831,39.99611476595797,40
95.2148,81.1964,81.19018977653707,80.99922450259965,81.04161436934224,40.148575407194826,40.19096527393742,40
98.1445,81.1512,81.14616379558974,81.00798426087142,81.0217162048406,40.12444759074914,40.13817953471832,40
101.074,81.1279,81.11849426820156,80.91103822341596,80.95955869726322,40.15893557093834,40.2074560447856,40
105.469,81.02749999999999,81.02052420130174,80.88059816090532,80.89003012469564,40.1304940766061,40.13992604039642,40
108.398,81.1174,81.1061676097688,80.90963970022594,80.94790598407636,40.15826162569245,40.196527909542866,40
112.793,81.187,81.17045022623212,80.92547549605928,80.9836995804984,40.186750645733724,40.24497473017284,40
117.188,81.3368,81.31255014387011,80.95286490645104,81.06853419034249,40.24401595352762,40.35968523741907,40
120.117,81.3768,81.35206596685843,81.01023913477864,81.11604607665099,40.236019890207444,40.34182683207979,40
124.512,81.5899,81.55598967998708,81.08339811379433,81.25593427705145,40.30005540293563,40.47259156619275,40
128.906,81.5111,81.47509406224674,80.91358332631731,81.1350981381523,40.33999592409444,40.56151073592943,40
133.301,81.38609999999998,81.34689323072382,80.78980832257575,81.00461113274856,40.34228209797526,40.55708490814807,40
139.16,81.26699999999998,81.22086561153661,80.57163173645348,80.83072306047085,40.390142551065765,40.64923387508313,40
143.555,81.1944,81.14166793696263,80.39191232872884,80.70136142196273,40.440306514999904,40.7497556082338,40
147.949,81.1259,81.06703529800292,80.21445215863149,80.57459071472833,40.49244458327459,40.85258313937143,40
153.809,80.9965,80.93241397517475,79.96530527651134,80.37937448945307,40.55303948572168,40.96710869866341,40
159.668,81.0399,80.97197613188256,79.9304572005636,80.38142268695802,40.59055344492454,41.04151893131896,40
165.527,81.2125,81.13733667217276,79.98430403825759,80.4947236660978,40.64261300607497,41.153032633915174,40
171.387,81.36909999999999,81.28689999735171,79.91683216106009,80.5595968181674,40.727303179184304,41.370067836291625,40
177.246,81.4319,81.35195803553994,79.82531155193978,80.56435835484419,40.78759968069575,41.52664648360016,40
183.105,81.3106,81.2367255755643,79.71397199831499,80.45145332648576,40.78527224907853,41.522753577249304,40
188.965,81.3035,81.231156829871,79.65903393581894,80.42320218021744,40.80795464965355,41.57212289405206,40
196.289,81.09149999999998,81.02357830588276,79.65885159760279,80.31574944712301,40.707828858759754,41.364726708279974,40
203.613,81.0115,80.93245126568,79.45165521500992,80.16946166208773,40.762989603592274,41.48079605067008,40
210.938,81.1268,81.04097693078968,79.41946067524145,80.2134612854388,40.827515645350886,41.62151625554823,40
218.262,80.9466,80.86288437533437,79.3001121197314,80.0609047679858,40.80197960734857,41.56277225560298,40
225.586,81.0125,80.91564333718263,79.27861429267388,80.06482315920427,40.85082017797836,41.63702904450875,40
232.91,81.30549999999998,81.20237651672478,79.26884538032486,80.24712076487799,40.95525575184679,41.93353113639992,40
241.699,81.17119999999998,81.07781743926738,79.21368078113355,80.16052902647094,40.91728841279644,41.86413665813383,40
250.488,81.07449999999999,80.96839695601699,78.91221837380905,79.95287765222696,41.01551930379003,42.056178582207934,40
259.277,81.4968,81.39609707144514,79.28468770735607,80.36244511752196,41.03365195392318,42.11140936408907,40
268.066,80.9668,80.86798019830314,78.92391171865695,79.91472235521886,40.95325784308429,41.94406847964619,40
276.855,81.0765,80.9852942968481,78.75080328036456,79.90046524841051,41.084829048437584,42.23449101648353,40
287.109,81.119,81.0282263976583,78.80058187332403,79.9800988491641,41.04812754849421,42.227644524334266,40
297.363,80.9161,80.82293618003388,78.75733164619898,79.85751215392393,40.96542402610994,42.0656045338349,40
307.617,81.2418,81.15217701136324,78.99065559164492,80.16725902665351,40.984917984709725,42.16152141971831,40
319.336,81.2443,81.12571665208068,79.15736987959163,80.19833419275535,40.92738245932533,41.968346772489056,40
329.59,81.7612,81.625839741646,79.26495699443264,80.49078968510241,41.13505005654359,42.36088274721337,40
341.309,81.5672,81.434293631477,79.40804600502244,80.42603586826448,41.00825776321253,42.02624762645456,40
353.027,81.6661,81.49055518548526,78.79380204313604,80.14192991932562,41.348625266159644,42.69675314234922,40
366.211,81.8057,81.65845217015897,78.74697899669242,80.24425357143312,41.41419859872585,42.91147317346655,40
379.395,82.19850000000001,82.07328861149381,79.01639267985517,80.62848542582306,41.44480318567075,43.056895931638635,40
392.578,81.6588,81.54841494512861,78.81372027002193,80.24593769479459,41.30247725033402,42.73469467510668,40
405.762,81.1144,80.95684410347592,78.25882210102695,79.6205054191356,41.33633868434032,42.698022002448965,40
420.41,81.6603,81.49989824210097,78.1154345197341,79.91327857454324,41.58661966755773,43.384463722366874,40
435.059,81.3079,81.15536818279276,78.11578311456404,79.68709479103451,41.468273391758245,43.03958506822872,40
451.172,81.5988,81.42218149687397,78.03688128358958,79.83037620196039,41.591805294913584,43.385300213284395,40
465.82,81.3864,81.14699462802517,77.80748834891158,79.56585561850255,41.581139009522616,43.33950627911359,40
483.398,81.7033,81.30009882071911,77.46006372891452,79.38306869290146,41.917030127817654,43.840035091804594,40
499.512,83.14739999999999,82.70485580695289,77.50692432968032,80.15153497775434,42.553320829198555,45.197931477272576,40
517.09,82.6812,82.45953020686359,77.81901622381515,80.28340092718588,42.17612927967771,44.640513983048436,40
536.133,81.9591,81.64399620442663,77.20525716827322,79.45620692232981,42.187789282096816,44.43873903615341,40
555.176,82.5453,82.26462660887674,77.19111013102052,79.88007203170974,42.384554577166995,45.07351647785622,40
574.219,82.2626,82.01913890010547,77.18468378737244,79.73713054433213,42.28200835577334,44.83445511273304,40
594.727,81.98469999999999,81.74083838728936,77.14599151503188,79.57319272008152,42.167645667207836,44.59484687225748,40
615.234,82.2913,81.995221561121,76.95747630839928,79.60762901914522,42.38759254197578,45.03774525272172,40
637.207,81.73470000000002,81.42723335417679,76.77121057866019,79.15123651661591,42.27599683756088,44.656022775516604,40
659.18,82.65430000000002,82.35428485826993,77.010925984238,79.79509561069983,42.5591892475701,45.343358874031935,40
682.617,82.2694,81.93918112564403,77.10667083337836,79.52409399097613,42.4150871346679,44.83251029226567,40
707.52,82.5708,82.18978986620887,76.84218798823773,79.49022719782566,42.69956266838321,45.347601877971144,40
732.422,82.7462,82.39641748068597,76.76025539214345,79.58013941104977,42.8162780696362,45.63616208854252,40
757.324,83.07259999999998,82.65821840602452,76.8656280070074,79.67975631944559,42.97846208657893,45.792590399017115,40
785.156,83.00189999999999,82.66815657076106,76.56187853795898,79.60763732074842,43.06051925001263,46.10627803280208,40
811.523,82.5705,82.23827580570959,76.43591861892791,79.28336339910524,42.95491240660435,45.80235718678168,40
840.82,82.5371,82.23743845535886,76.25020921956643,79.2745636800229,42.96287477533596,45.98722923579243,40
870.117,82.0717,81.77892513430085,76.06012088460322,78.907123027512,42.87180210678885,45.71880424969763,40
900.879,82.2258,81.85918012934378,75.99555898622467,78.9287871968065,42.93039293253729,45.86362114311912,40
933.105,82.1109,81.71369568445807,75.97778760784462,78.83825048209955,42.87544520235852,45.735908076613455,40
965.332,82.32449999999999,81.83822388420275,75.88937146183981,78.84026245650814,42.997961427694605,45.94885242236293,40
1000.49,82.5205,82.00457312949108,75.89936958861504,78.82924770288237,43.17532542660871,46.10520354087603,40
1035.64,82.4131,81.8709848311178,75.79712404705025,78.74836458074684,43.12262025037096,46.07386078406755,40
1072.27,82.583,81.98683007592224,75.75087042517005,78.62263308500418,43.36419699091806,46.23595965075219,40
1108.89,82.2526,81.72303845771796,75.63055783395644,78.47831388987423,43.24472456784373,46.09248062376152,40
1148.44,82.1417,81.59420012848582,75.47471424550044,78.30789140684742,43.286308721638406,46.11948588298539,40
1189.45,81.87,81.31754011273613,75.27402107202995,78.00124088594994,43.316299226786185,46.04351904070617,40
1230.47,82.07779999999998,81.55847584891809,75.32484420323995,78.03937463428035,43.51910121463774,46.233631645678145,40
1274.41,82.33730000000001,81.83646727770541,75.51581210608066,78.18337860448177,43.653088673223635,46.32065517162475,40
1319.82,82.3583,81.77883968513771,75.57012194733689,78.07218989041988,43.70664979471783,46.208717737800825,40
1366.7,81.73439999999998,81.1428314682871,75.14017945761191,77.5800753319988,43.5627561362883,46.00265201067519,40
1413.57,81.3147,80.70388427398052,74.90549992016618,77.28602314729075,43.41786112668977,45.79838435381434,40
1463.38,81.24329999999999,80.60299295579635,74.41454645213676,76.9673007174493,43.63569223834705,46.18844650365959,40
1516.11,81.1035,80.47938547279567,74.60085473346791,76.89146227879756,43.58792319399811,45.87853073932776,40
1568.85,80.5752,80.04791245884032,74.75529386539927,76.92521300751956,43.122699451320756,45.29261859344105,40
1624.51,79.5842,79.0174824101501,74.0516074741631,76.20869257211778,42.80878983803231,44.96587493598699,40
1681.64,79.0981,78.42362843617671,73.80073813782396,75.50650713667393,42.91712129950278,44.62289029835276,40
1741.7,79.6239,78.85672524395521,74.11550968489705,76.19877146506364,42.65795377889157,44.74121555905816,40
1803.22,81.497,81.10556298244371,76.64587346179722,78.63299479487951,42.47256818756421,44.45968952064649,40
1866.21,82.0689,81.77167584053544,77.40813758987332,79.7350661941742,42.03660964636124,44.36353825066212,40
1932.13,81.3421,81.29638572873357,77.20503668666618,79.0329108043335,42.26347492440007,44.09134904206739,40
1999.51,81.73039999999999,81.5951719237586,77.2242148358968,79.49846511857488,42.096706805183715,44.3709570878618,40
2069.82,80.819,80.96180783069538,76.84362767646617,79.20489000134235,41.75691782935303,44.11818015422921,40
2143.07,80.41350000000001,80.45991544571348,76.45516895980982,78.77450653065826,41.68540891505522,44.00474648590365,40
2219.24,79.5215,80.43673851089308,76.7455758349811,78.85802522937796,41.57871328151512,43.69116267591198,40
2296.88,78.8724,79.82391258239191,76.37372244891891,78.12010690397567,41.703805678416245,43.450190133473,40
2378.91,78.8779,80.05291515965233,76.6155411568724,78.02684623886331,42.026068920789015,43.43737400277993,40
2462.4,79.0774,80.25924565438656,76.01116158808485,77.98710655034056,42.272139104046005,44.248084066301715,40
2548.83,78.4819,79.57404976357633,75.32685806366605,77.31858454427997,42.255465219296354,44.247191699910275,40
2639.65,79.4978,80.16643968323353,75.49539386713325,77.47695595651636,42.68948372671717,44.67104581610029,40
2731.93,79.4329,80.21872918295938,75.28280456740465,77.38483088038785,42.83389830257153,44.935924615554725,40
2828.61,79.02669999999999,79.89299685405345,74.6612633020874,76.88994845319394,43.00304840085951,45.231733551966045,40
2928.22,79.8004,80.48379335940163,74.8798803917751,77.18959372842089,43.29419963098074,45.60391296762653,40
3030.76,79.5904,80.30001559457789,74.60569978507583,76.89074326897736,43.409272325600526,45.69431580950206,40
3137.7,79.9712,80.47401520827457,74.67141807018838,76.90556817347716,43.5684470347974,45.802597138086185,40
3249.02,80.15650000000001,80.62092816131711,75.02627066128802,77.09604546576806,43.52488269554905,45.594657500029086,40
3363.28,80.2515,80.55821928899782,75.25526371774598,77.11808036101407,43.44013892798375,45.30295557125184,40
3481.93,80.60870000000001,80.63753057976572,75.77267755108774,77.41043684746818,43.22709373229755,44.864853028677985,40
3604.98,81.2873,81.0514239181011,76.35190882395287,77.99925362744979,43.052170290651304,44.699515094148225,40
3732.42,81.4259,80.92450406202329,76.62488906592658,78.32511891113563,42.599385150887656,44.29961499609671,40
3864.26,81.9306,81.09575820343652,76.79104087663003,78.69023307391551,42.40552512952101,44.30471732680648,40
4000.49,81.724,80.5874591918939,76.52687757412625,78.60660410311623,41.98085508877767,44.06058161776765,40
4141.11,81.61979999999998,80.34902375683583,76.44681656088648,78.62645666155386,41.722567095281974,43.90220719594936,40
4287.6,81.6126,80.03222920036895,76.07824675602613,78.4488706540469,41.583358546322046,43.95398244434281,40
4438.48,81.1467,79.8319808523694,76.01508396086356,78.44070094059364,41.391279911775754,43.816896891505834,40
4595.21,81.41879999999999,80.0743813772291,76.15921029822253,78.88415031178833,41.19023106544077,43.91517107900657,40
4756.35,81.36909999999999,80.06968224841432,76.19085243369373,79.00683743804005,41.06284481037427,43.87882981472059,40
4924.8,80.6788,79.96194439402656,75.9632415666191,78.92642019270421,41.035524201322346,43.998702827407456,40
5097.66,80.8149,80.13834670504185,75.8561862463546,78.99523014462967,41.14311656041218,44.28216045868726,40
5277.83,80.4259,80.23189349492856,75.88604283146368,79.0756475987838,41.15624589614475,44.34585066346487,40
5463.87,80.012,80.15940069450583,75.75894340892908,79.05999010025818,41.09941059424766,44.40045728557675,40
5657.23,80.1605,80.42266298155455,75.86563148838766,79.06023640366412,41.36242657789043,44.55703149316689,40
5856.45,80.54349999999998,80.84184445976436,75.98854983178946,79.13798602730255,41.703858432461814,44.853294627974904,40
6062.99,80.9965,80.9945298359652,75.86549123366007,79.02950131205024,41.96502852391495,45.12903860230513,40
6276.86,81.7623,81.28224217761777,75.81304296080657,79.04081003622959,42.24143214138819,45.469199216811205,40
6498.05,82.23269999999998,81.59729211914394,75.93133138419287,79.16893642194806,42.42835569719588,45.66596073495107,40
6726.56,82.4502,81.68927622712512,75.8648086366237,79.17872277696151,42.51055345016361,45.82446759050141,40
6963.87,82.5748,81.60688851121277,75.66326382129724,78.98851677923768,42.61837173197509,45.94362468991554,40
7209.96,82.496,81.55579333107214,75.42158220712788,78.8224906059678,42.73330272510434,46.134211123944254,40
7464.84,82.3488,81.41997368396498,75.04666803950977,78.5422635181299,42.87771016583508,46.373305644455215,40
7727.05,82.0545,81.19999361988637,74.73242699658873,78.32280666493087,42.877186954955505,46.46756662329764,40
7999.51,81.78530000000002,81.09876889291105,74.63474142997516,78.26694790279386,42.831820990117194,46.46402746293589,40
8282.23,81.279,80.93904171380451,74.47244427378632,78.1178747198582,42.82116699394632,46.46659744001819,40
8573.73,81.21400000000001,80.97715110101866,74.3448468761414,78.06583089558599,42.91132020543267,46.63230422487726,40
8876.95,80.9585,80.91977116705904,74.21621623128198,77.91423419785987,43.00553696919917,46.70355493577706,40
9188.96,81.22759999999998,81.08758419924976,74.10363397166775,77.87906421033038,43.20851998891938,46.983950227582014,40
9514.16,81.669,81.30742842017021,74.0668173185885,77.96018352504714,43.34724489512307,47.240611101581706,40
9849.61,81.98630000000001,81.41306703617452,73.9608904551008,77.94507955169412,43.4679874844804,47.45217658107373,40
10196.8,81.9761,81.19005792055434,73.58245830457693,77.7478117831932,43.44224613736114,47.607599615977406,40
10555.7,81.83289999999998,81.01352710999475,73.28988500191915,77.53303612808737,43.48049098190738,47.72364210807561,40
10927.7,82.0717,81.04445736786921,73.01014301346744,77.45496650443388,43.58949086343533,48.03431435440177,40
11313.0,82.0958,81.08774117457696,72.76890739318416,77.32120725236751,43.76653392220945,48.3188337813928,40
11712.9,82.289,81.23369091285444,72.65629407123278,77.16494121685714,44.0687496959973,48.57739684162166,40
