Freq,On Axis,Listening Window,Sound Power,Early Reflections,Early Reflections DI,Sound Power DI,DI offset
20.5078,50.81059545454545,50.26509728267243,53.62949096518443,52.061922718432896,38.20317456423953,36.635606317488,40
21.9727,52.575595454545436,52.17849939189759,56.799504619742265,54.92172107841395,37.256778313483636,35.37899477215532,40
23.4375,55.10449545454543,54.75703133527372,57.64158730750037,56.27514108227513,38.481890252998596,37.11544402777335,40
24.9023,56.86199545454542,56.61864057674802,60.03777554197411,58.524867996232445,38.09377258051558,36.58086503477391,40
26.3672,59.32779545454544,59.17930170662356,62.30637493815722,60.90518941121003,38.27411229541353,36.87292676846634,40
27.832,61.59209545454544,61.51374960547267,64.55707446054048,63.20077801224828,38.31297159322439,36.95667514493219,40
29.2969,64.10579545454544,64.08386808271779,66.85646014895983,65.6039469996918,38.479921083025985,37.22740793375796,40
30.7617,66.13499545454543,66.12154478245445,68.70338761493927,67.54134602476284,38.580198757691605,37.418157167515176,40
32.2266,68.48929545454544,68.50033905416632,70.82837257494145,69.76094205306757,38.73939700109875,37.671966479224864,40
33.6914,70.71829545454545,70.74566599039517,72.85080377236875,71.8702163066078,38.875449683787366,37.89486221802642,40
35.1563,72.63709545454545,72.67075766214967,74.53699706368042,73.65017999200234,39.02057767014733,38.13376059846925,40
36.6211,74.30109545454543,74.33786591510278,76.00445303074625,75.19854997209903,39.13931594300375,38.333412884356534,40
38.0859,75.66319545454544,75.70290563735783,77.22828273792638,76.48220319278111,39.220702444576716,38.47462289943145,40
39.5508,76.77679545454544,76.81888347919326,78.23696783757154,77.5364394143515,39.282444064841755,38.58191564162172,40
41.0156,77.77859545454544,77.81821731304616,79.06327108821083,78.43616876036327,39.38204855268289,38.75494622483534,40
42.4805,78.44209545454544,78.48171456490587,79.63996243172184,79.04981169393298,39.43190287097289,38.84175213318403,40
43.9453,78.97259545454544,79.011268976975,80.07825722131233,79.52826665551237,39.483002321462635,38.933011755662676,40
45.4102,79.35499545454545,79.392506988346,80.3739440211088,79.86187053702373,39.530636451322266,39.0185629672372,40
46.875,79.70479545454543,79.74018385097794,80.62934022979994,80.15770392546557,39.582479925512374,39.110843621178006,40
48.3398,79.86609545454544,79.90252729528521,80.77416928042115,80.30990372754528,39.592623567739935,39.12835801486406,40
51.2695,80.29959545454544,80.33158872684612,81.04192491726111,80.65151459096322,39.680074135882904,39.28966380958501,40
52.7344,80.35699545454546,80.39204139820477,81.13959054202424,80.73275708108221,39.659284317122555,39.25245085618053,40
54.1992,80.38079545454544,80.41339970913027,81.06756136444284,80.70821341985845,39.70518628927182,39.34583834468744,40
55.6641,80.60079545454543,80.62759328348159,81.1451257203957,80.84936675895413,39.778226524527454,39.48246756308589,40
58.5938,80.85139545454544,80.87553187221003,81.31429422232871,81.05487370545319,39.82065816675684,39.56123764988132,40
60.0586,80.87689545454543,80.89972188344014,81.29619694797681,81.05683687559748,39.84288500784265,39.60352493546333,40
62.9883,80.94209545454544,80.96435616412705,81.3303037271092,81.10427535147198,39.86008081265507,39.63405243701786,40
64.4531,81.01189545454544,81.03529806754926,81.41912207116867,81.1832914453408,39.852006622208464,39.61617599638059,40
67.3828,81.05999545454544,81.08277396938416,81.44628347205524,81.21742094389647,39.86535302548769,39.63649049732892,40
68.8477,81.06249545454544,81.08425047103317,81.4241288518015,81.20623905033285,39.87801142070032,39.660121619231674,40
71.7773,81.18509545454543,81.20304984227963,81.46347806637777,81.28408288900503,39.91896695327459,39.73957177590185,40
74.707,81.44209545454544,81.45580805680407,81.62522502763451,81.49187916098296,39.96392889582111,39.83058302916956,40
77.6367,81.44569545454544,81.45886226653153,81.61385180246916,81.48593621890998,39.97292604762154,39.84501046406237,40
79.1016,81.38399545454544,81.39681919496189,81.55099163475568,81.4235441799558,39.973275015006095,39.84582756020622,40
82.0313,81.34019545454544,81.35167302672222,81.48679843541177,81.36760972678181,39.984063299940416,39.86487459131045,40
84.9609,81.38289545454543,81.39128912788951,81.4705159536013,81.37819858925353,40.01309053863598,39.9207731742882,40
87.8906,81.46179545454544,81.466449413159,81.48046100225443,81.42045836637959,40.045991046779406,39.98598841090457,40
90.8203,81.31549545454544,81.31864240388592,81.32252763792795,81.26576733807761,40.05287506580831,39.99611476595797,40
95.2148,81.39239545454544,81.38618523108251,81.19521995714508,81.23760982388768,40.148575407194826,40.19096527393742,40
98.1445,81.34719545454544,81.34215925013518,81.20397971541686,81.21771165938604,40.12444759074914,40.13817953471832,40
101.074,81.32389545454544,81.314489722747,81.1070336779614,81.15555415180866,40.15893557093834,40.2074560447856,40
105.469,81.22349545454543,81.21651965584718,81.07659361545076,81.08602557924108,40.1304940766061,40.13992604039642,40
108.398,81.31339545454544,81.30216306431424,81.10563515477138,81.1439014386218,40.15826162569245,40.196527909542866,40
112.793,81.38299545454544,81.36644568077756,81.12147095060472,81.17969503504384,40.186750645733724,40.24497473017284,40
117.188,81.53279545454544,81.50854559841555,81.14886036099648,81.26452964488793,40.24401595352762,40.35968523741907,40
120.117,81.57279545454544,81.54806142140387,81.20623458932408,81.31204153119643,40.236019890207444,40.34182683207979,40
124.512,81.78589545454544,81.75198513453252,81.27939356833977,81.45192973159689,40.30005540293563,40.47259156619275,40
128.906,81.70709545454544,81.67108951679218,81.10957878086275,81.33109359269774,40.33999592409444,40.56151073592943,40
133.301,81.58209545454542,81.54288868526926,80.98580377712119,81.200606587294,40.34228209797526,40.55708490814807,40
139.16,81.46299545454542,81.41686106608205,80.76762719099892,81.02671851501628,40.390142551065765,40.64923387508313,40
143.555,81.39039545454544,81.33766339150807,80.58790778327428,80.89735687650817,40.440306514999904,40.7497556082338,40
147.949,81.32189545454544,81.26303075254836,80.41044761317693,80.77058616927377,40.49244458327459,40.85258313937143,40
153.809,81.19249545454544,81.1284094297202,80.16130073105678,80.57536994399851,40.55303948572168,40.96710869866341,40
159.668,81.23589545454544,81.167971586428,80.12645265510903,80.57741814150346,40.59055344492454,41.04151893131896,40
165.527,81.40849545454545,81.3333321267182,80.18029949280303,80.69071912064324,40.64261300607497,41.153032633915174,40
171.387,81.56509545454543,81.48289545189715,80.11282761560553,80.75559227271285,40.727303179184304,41.370067836291625,40
177.246,81.62789545454544,81.54795349008538,80.02130700648522,80.76035380938963,40.78759968069575,41.52664648360016,40
183.105,81.50659545454543,81.43272103010973,79.90996745286043,80.6474487810312,40.78527224907853,41.522753577249304,40
188.965,81.49949545454544,81.42715228441644,79.85502939036438,80.61919763476288,40.80795464965355,41.57212289405206,40
196.289,81.28749545454542,81.2195737604282,79.85484705214823,80.51174490166845,40.707828858759754,41.364726708279974,40
203.613,81.20749545454544,81.12844672022544,79.64765066955536,80.36545711663317,40.762989603592274,41.48079605067008,40
210.938,81.32279545454544,81.23697238533512,79.61545612978689,80.40945673998424,40.827515645350886,41.62151625554823,40
218.262,81.14259545454544,81.05887982987981,79.49610757427683,80.25690022253124,40.80197960734857,41.56277225560298,40
225.586,81.20849545454544,81.11163879172807,79.47460974721932,80.2608186137497,40.85082017797836,41.63702904450875,40
232.91,81.50149545454542,81.39837197127022,79.4648408348703,80.44311621942343,40.95525575184679,41.93353113639992,40
241.699,81.36719545454542,81.27381289381282,79.40967623567899,80.35652448101638,40.91728841279644,41.86413665813383,40
250.488,81.27049545454543,81.16439241056243,79.1082138283545,80.1488731067724,41.01551930379003,42.056178582207934,40
259.277,81.69279545454543,81.59209252599058,79.48068316190151,80.5584405720674,41.03365195392318,42.11140936408907,40
268.066,81.16279545454545,81.06397565284858,79.11990717320239,80.1107178097643,40.95325784308429,41.94406847964619,40
276.855,81.27249545454544,81.18128975139354,78.94679873491,80.09646070295595,41.084829048437584,42.23449101648353,40
287.109,81.31499545454544,81.22422185220374,78.99657732786947,80.17609430370953,41.04812754849421,42.227644524334266,40
297.363,81.11209545454544,81.01893163457932,78.95332710074442,80.05350760846937,40.96542402610994,42.0656045338349,40
307.617,81.43779545454544,81.34817246590868,79.18665104619036,80.36325448119895,40.984917984709725,42.16152141971831,40
319.336,81.44029545454543,81.32171210662612,79.35336533413707,80.3943296473008,40.92738245932533,41.968346772489056,40
329.59,81.95719545454544,81.82183519619144,79.46095244897808,80.68678513964785,41.13505005654359,42.36088274721337,40
341.309,81.76319545454544,81.63028908602244,79.60404145956788,80.62203132280992,41.00825776321253,42.02624762645456,40
353.027,81.86209545454544,81.6865506400307,78.98979749768148,80.33792537387106,41.348625266159644,42.69675314234922,40
366.211,82.00169545454544,81.8544476247044,78.94297445123786,80.44024902597856,41.41419859872585,42.91147317346655,40
379.395,82.39449545454545,82.26928406603925,79.21238813440061,80.8244808803685,41.44480318567075,43.056895931638635,40
392.578,81.85479545454544,81.74441039967405,79.00971572456737,80.44193314934003,41.30247725033402,42.73469467510668,40
405.762,81.31039545454544,81.15283955802136,78.45481755557239,79.81650087368104,41.33633868434032,42.698022002448965,40
420.41,81.85629545454545,81.69589369664641,78.31142997427953,80.10927402908868,41.58661966755773,43.384463722366874,40
435.059,81.50389545454544,81.3513636373382,78.31177856910948,79.88309024557995,41.468273391758245,43.03958506822872,40
451.172,81.79479545454544,81.61817695141941,78.23287673813502,80.02637165650583,41.591805294913584,43.385300213284395,40
465.82,81.58239545454543,81.34299008257061,78.00348380345702,79.76185107304799,41.581139009522616,43.33950627911359,40
483.398,81.89929545454544,81.49609427526455,77.65605918345996,79.5790641474469,41.917030127817654,43.840035091804594,40
499.512,83.34339545454543,82.90085126149833,77.70291978422576,80.34753043229978,42.553320829198555,45.197931477272576,40
517.09,82.87719545454544,82.65552566140903,78.0150116783606,80.47939638173132,42.17612927967771,44.640513983048436,40
536.133,82.15509545454545,81.83999165897207,77.40125262281866,79.65220237687525,42.187789282096816,44.43873903615341,40
555.176,82.74129545454544,82.46062206342218,77.38710558556596,80.07606748625518,42.384554577166995,45.07351647785622,40
574.219,82.45859545454545,82.21513435465091,77.38067924191787,79.93312599887757,42.28200835577334,44.83445511273304,40
594.727,82.18069545454543,81.9368338418348,77.34198696957732,79.76918817462696,42.167645667207836,44.59484687225748,40
615.234,82.48729545454545,82.19121701566644,77.15347176294472,79.80362447369066,42.38759254197578,45.03774525272172,40
637.207,81.93069545454546,81.62322880872223,76.96720603320563,79.34723197116135,42.27599683756088,44.656022775516604,40
659.18,82.85029545454546,82.55028031281537,77.20692143878344,79.99109106524527,42.5591892475701,45.343358874031935,40
682.617,82.46539545454544,82.13517658018947,77.3026662879238,79.72008944552157,42.4150871346679,44.83251029226567,40
707.52,82.76679545454544,82.38578532075431,77.03818344278316,79.6862226523711,42.69956266838321,45.347601877971144,40
732.422,82.94219545454544,82.59241293523141,76.95625084668889,79.77613486559521,42.8162780696362,45.63616208854252,40
757.324,83.26859545454542,82.85421386056996,77.06162346155284,79.87575177399103,42.97846208657893,45.792590399017115,40
785.156,83.19789545454543,82.8641520253065,76.75787399250441,79.80363277529386,43.06051925001263,46.10627803280208,40
811.523,82.76649545454543,82.43427126025503,76.63191407347335,79.47935885365068,42.95491240660435,45.80235718678168,40
840.82,82.73309545454543,82.4334339099043,76.44620467411187,79.47055913456833,42.96287477533596,45.98722923579243,40
870.117,82.26769545454545,81.97492058884629,76.25611633914866,79.10311848205744,42.87180210678885,45.71880424969763,40
900.879,82.42179545454545,82.05517558388922,76.1915544407701,79.12478265135194,42.93039293253729,45.86362114311912,40
933.105,82.30689545454544,81.90969113900351,76.17378306239006,79.034245936645,42.87544520235852,45.735908076613455,40
965.332,82.52049545454543,82.03421933874819,76.08536691638525,79.03625791105358,42.997961427694605,45.94885242236293,40
1000.49,82.71649545454544,82.20056858403652,76.09536504316048,79.02524315742781,43.17532542660871,46.10520354087603,40
1035.64,82.60909545454544,82.06698028566323,75.99311950159569,78.94436003529228,43.12262025037096,46.07386078406755,40
1072.27,82.77899545454544,82.18282553046768,75.94686587971549,78.81862853954962,43.36419699091806,46.23595965075219,40
1108.89,82.44859545454544,81.9190339122634,75.82655328850188,78.67430934441967,43.24472456784373,46.09248062376152,40
1148.44,82.33769545454544,81.79019558303126,75.67070970004588,78.50388686139286,43.286308721638406,46.11948588298539,40
1189.45,82.06599545454544,81.51353556728156,75.47001652657539,78.19723634049538,43.316299226786185,46.04351904070617,40
1230.47,82.27379545454542,81.75447130346353,75.52083965778539,78.23537008882579,43.51910121463774,46.233631645678145,40
1274.41,82.53329545454545,82.03246273225085,75.7118075606261,78.37937405902721,43.653088673223635,46.32065517162475,40
1319.82,82.55429545454544,81.97483513968315,75.76611740188233,78.26818534496532,43.70664979471783,46.208717737800825,40
1366.7,81.93039545454542,81.33882692283254,75.33617491215735,77.77607078654424,43.5627561362883,46.00265201067519,40
1413.57,81.51069545454544,80.89987972852596,75.10149537471162,77.48201860183619,43.41786112668977,45.79838435381434,40
1463.38,81.43929545454543,80.79898841034179,74.6105419066822,77.16329617199474,43.63569223834705,46.18844650365959,40
1516.11,81.29949545454544,80.67538092734111,74.79685018801335,77.087457733343,43.58792319399811,45.87853073932776,40
1568.85,80.77119545454543,80.24390791338575,74.9512893199447,77.121208462065,43.122699451320756,45.29261859344105,40
1624.51,79.78019545454544,79.21347786469553,74.24760292870855,76.40468802666322,42.80878983803231,44.96587493598699,40
1681.64,79.29409545454544,78.61962389072215,73.9967335923694,75.70250259121937,42.91712129950278,44.62289029835276,40
1741.7,79.81989545454545,79.05272069850065,74.31150513944249,76.39476691960908,42.65795377889157,44.74121555905816,40
1803.22,81.69299545454544,81.30155843698915,76.84186891634266,78.82899024942495,42.47256818756421,44.45968952064649,40
1866.21,82.26489545454544,81.96767129508088,77.60413304441876,79.93106164871963,42.03660964636124,44.36353825066212,40
1932.13,81.53809545454544,81.49238118327901,77.40103214121162,79.22890625887894,42.26347492440007,44.09134904206739,40
1999.51,81.92639545454543,81.79116737830404,77.42021029044224,79.69446057312032,42.096706805183715,44.3709570878618,40
2069.82,81.01499545454544,81.15780328524082,77.03962313101161,79.40088545588779,41.75691782935303,44.11818015422921,40
2143.07,80.60949545454545,80.65591090025892,76.65116441435526,78.9705019852037,41.68540891505522,44.00474648590365,40
2219.24,79.71749545454544,80.63273396543852,76.94157128952654,79.0540206839234,41.57871328151512,43.69116267591198,40
2296.88,79.06839545454544,80.01990803693735,76.56971790346435,78.3161023585211,41.703805678416245,43.450190133473,40
2378.91,79.07389545454544,80.24891061419777,76.81153661141784,78.22284169340875,42.026068920789015,43.43737400277993,40
2462.4,79.27339545454544,80.455241108932,76.20715704263029,78.183102004886,42.272139104046005,44.248084066301715,40
2548.83,78.67789545454544,79.77004521812177,75.52285351821149,77.51457999882541,42.255465219296354,44.247191699910275,40
2639.65,79.69379545454544,80.36243513777897,75.69138932167868,77.6729514110618,42.68948372671717,44.67104581610029,40
2731.93,79.62889545454544,80.41472463750482,75.4788000219501,77.58082633493329,42.83389830257153,44.935924615554725,40
2828.61,79.22269545454543,80.08899230859889,74.85725875663285,77.08594390773938,43.00304840085951,45.231733551966045,40
2928.22,79.99639545454544,80.67978881394707,75.07587584632054,77.38558918296633,43.29419963098074,45.60391296762653,40
3030.76,79.78639545454544,80.49601104912333,74.80169523962127,77.0867387235228,43.409272325600526,45.69431580950206,40
3137.7,80.16719545454544,80.67001066282,74.86741352473382,77.1015636280226,43.5684470347974,45.802597138086185,40
3249.02,80.35249545454545,80.81692361586255,75.22226611583346,77.2920409203135,43.52488269554905,45.594657500029086,40
3363.28,80.44749545454543,80.75421474354326,75.45125917229142,77.3140758155595,43.44013892798375,45.30295557125184,40
3481.93,80.80469545454545,80.83352603431116,75.96867300563318,77.60643230201362,43.22709373229755,44.864853028677985,40
3604.98,81.48329545454544,81.24741937264653,76.54790427849831,78.19524908199523,43.052170290651304,44.699515094148225,40
3732.42,81.62189545454544,81.12049951656873,76.82088452047202,78.52111436568107,42.599385150887656,44.29961499609671,40
3864.26,82.12659545454544,81.29175365798196,76.98703633117547,78.88622852846095,42.40552512952101,44.30471732680648,40
4000.49,81.91999545454544,80.78345464643934,76.72287302867169,78.80259955766167,41.98085508877767,44.06058161776765,40
4141.11,81.81579545454542,80.54501921138127,76.64281201543191,78.8224521160993,41.722567095281974,43.90220719594936,40
4287.6,81.80859545454544,80.22822465491438,76.27424221057157,78.64486610859234,41.583358546322046,43.95398244434281,40
4438.48,81.34269545454544,80.02797630691484,76.211079415409,78.63669639513908,41.391279911775754,43.816896891505834,40
4595.21,81.61479545454543,80.27037683177454,76.35520575276797,79.08014576633377,41.19023106544077,43.91517107900657,40
4756.35,81.56509545454543,80.26567770295976,76.38684788823917,79.20283289258549,41.06284481037427,43.87882981472059,40
4924.8,80.87479545454543,80.157939848572,76.15923702116454,79.12241564724965,41.035524201322346,43.998702827407456,40
5097.66,81.01089545454543,80.3343421595873,76.05218170090004,79.19122559917511,41.14311656041218,44.28216045868726,40
5277.83,80.62189545454544,80.427888949474,76.08203828600912,79.27164305332924,41.15624589614475,44.34585066346487,40
5463.87,80.20799545454544,80.35539614905127,75.95493886347452,79.25598555480362,41.09941059424766,44.40045728557675,40
5657.23,80.35649545454544,80.61865843609999,76.0616269429331,79.25623185820956,41.36242657789043,44.55703149316689,40
5856.45,80.73949545454542,81.0378399143098,76.1845452863349,79.33398148184799,41.703858432461814,44.853294627974904,40
6062.99,81.19249545454544,81.19052529051064,76.0614866882055,79.22549676659568,41.96502852391495,45.12903860230513,40
6276.86,81.95829545454544,81.47823763216321,76.00903841535201,79.23680549077503,42.24143214138819,45.469199216811205,40
6498.05,82.42869545454542,81.79328757368938,76.12732683873831,79.3649318764935,42.42835569719588,45.66596073495107,40
6726.56,82.64619545454543,81.88527168167056,76.06080409116915,79.37471823150695,42.51055345016361,45.82446759050141,40
6963.87,82.77079545454544,81.80288396575821,75.85925927584267,79.18451223378312,42.61837173197509,45.94362468991554,40
7209.96,82.69199545454543,81.75178878561758,75.61757766167332,79.01848606051324,42.73330272510434,46.134211123944254,40
7464.84,82.54479545454544,81.61596913851042,75.24266349405521,78.73825897267534,42.87771016583508,46.373305644455215,40
7727.05,82.25049545454544,81.39598907443181,74.92842245113417,78.5188021194763,42.877186954955505,46.46756662329764,40
7999.51,81.98129545454546,81.29476434745649,74.8307368845206,78.4629433573393,42.831820990117194,46.46402746293589,40
