Freq "Early Reflections"
20.5078 52.061922718432896
21.9727 54.92172107841395
23.4375 56.27514108227513
24.9023 58.524867996232445
26.3672 60.90518941121003
27.832 63.20077801224828
29.2969 65.6039469996918
30.7617 67.54134602476284
32.2266 69.76094205306757
33.6914 71.8702163066078
35.1563 73.65017999200234
36.6211 75.19854997209903
38.0859 76.48220319278111
39.5508 77.5364394143515
41.0156 78.43616876036327
42.4805 79.04981169393298
43.9453 79.52826665551237
45.4102 79.86187053702373
46.875 80.15770392546557
48.3398 80.30990372754528
51.2695 80.65151459096322
52.7344 80.73275708108221
54.1992 80.70821341985845
55.6641 80.84936675895413
58.5938 81.05487370545319
60.0586 81.05683687559748
62.9883 81.10427535147198
64.4531 81.1832914453408
67.3828 81.21742094389647
68.8477 81.20623905033285
71.7773 81.28408288900503
74.707 81.49187916098296
77.6367 81.48593621890998
79.1016 81.4235441799558
82.0313 81.36760972678181
84.9609 81.37819858925353
87.8906 81.42045836637959
90.8203 81.26576733807761
95.2148 81.23760982388768
98.1445 81.21771165938604
101.074 81.15555415180866
105.469 81.08602557924108
108.398 81.1439014386218
112.793 81.17969503504384
117.188 81.26452964488793
120.117 81.31204153119643
124.512 81.45192973159689
128.906 81.33109359269774
133.301 81.200606587294
139.16 81.02671851501628
143.555 80.89735687650817
147.949 80.77058616927377
153.809 80.57536994399851
159.668 80.57741814150346
165.527 80.69071912064324
171.387 80.75559227271285
177.246 80.76035380938963
183.105 80.6474487810312
188.965 80.61919763476288
196.289 80.51174490166845
203.613 80.36545711663317
210.938 80.40945673998424
218.262 80.25690022253124
225.586 80.2608186137497
232.91 80.44311621942343
241.699 80.35652448101638
250.488 80.1488731067724
259.277 80.5584405720674
268.066 80.1107178097643
276.855 80.09646070295595
287.109 80.17609430370953
297.363 80.05350760846937
307.617 80.36325448119895
319.336 80.3943296473008
329.59 80.68678513964785
341.309 80.62203132280992
353.027 80.33792537387106
366.211 80.44024902597856
379.395 80.8244808803685
392.578 80.44193314934003
405.762 79.81650087368104
420.41 80.10927402908868
435.059 79.88309024557995
451.172 80.02637165650583
465.82 79.76185107304799
483.398 79.5790641474469
499.512 80.34753043229978
517.09 80.47939638173132
536.133 79.65220237687525
555.176 80.07606748625518
574.219 79.93312599887757
594.727 79.76918817462696
615.234 79.80362447369066
637.207 79.34723197116135
659.18 79.99109106524527
682.617 79.72008944552157
707.52 79.6862226523711
732.422 79.77613486559521
757.324 79.87575177399103
785.156 79.80363277529386
811.523 79.47935885365068
840.82 79.47055913456833
870.117 79.10311848205744
900.879 79.12478265135194
933.105 79.034245936645
965.332 79.03625791105358
1000.49 79.02524315742781
1035.64 78.94436003529228
1072.27 78.81862853954962
1108.89 78.67430934441967
1148.44 78.50388686139286
1189.45 78.19723634049538
1230.47 78.23537008882579
1274.41 78.37937405902721
1319.82 78.26818534496532
1366.7 77.77607078654424
1413.57 77.48201860183619
1463.38 77.16329617199474
1516.11 77.087457733343
1568.85 77.121208462065
1624.51 76.40468802666322
1681.64 75.70250259121937
1741.7 76.39476691960908
1803.22 78.82899024942495
1866.21 79.93106164871963
1932.13 79.22890625887894
1999.51 79.69446057312032
2069.82 79.40088545588779
2143.07 78.9705019852037
2219.24 79.0540206839234
2296.88 78.3161023585211
2378.91 78.22284169340875
2462.4 78.183102004886
2548.83 77.51457999882541
2639.65 77.6729514110618
2731.93 77.58082633493329
2828.61 77.08594390773938
2928.22 77.38558918296633
3030.76 77.0867387235228
3137.7 77.1015636280226
3249.02 77.2920409203135
3363.28 77.3140758155595
3481.93 77.60643230201362
3604.98 78.19524908199523
3732.42 78.52111436568107
3864.26 78.88622852846095
4000.49 78.80259955766167
4141.11 78.8224521160993
4287.6 78.64486610859234
4438.48 78.63669639513908
4595.21 79.08014576633377
4756.35 79.20283289258549
4924.8 79.12241564724965
5097.66 79.19122559917511
5277.83 79.27164305332924
5463.87 79.25598555480362
5657.23 79.25623185820956
5856.45 79.33398148184799
6062.99 79.22549676659568
6276.86 79.23680549077503
6498.05 79.3649318764935
6726.56 79.37471823150695
6963.87 79.18451223378312
7209.96 79.01848606051324
7464.84 78.73825897267534
7727.05 78.5188021194763
7999.51 78.4629433573393
8282.23 78.31387017440363
8573.73 78.26182635013143
8876.95 78.11022965240531
9188.96 78.07505966487582
9514.16 78.15617897959258
9849.61 78.14107500623956
10196.8 77.94380723773864
10555.7 77.72903158263281
10927.7 77.65096195897932
11313.0 77.51720270691295
11712.9 77.36093667140258
12126.0 77.27234784192214
12553.7 77.3428950514007
12996.1 77.33493757682204
13454.6 77.2317665620889
13929.2 77.12251538948411
14419.9 76.90643275305888
14928.2 76.60296699604162
15455.6 76.29991976677468
16000.5 76.0683326216875
16564.5 75.8423479463972
17148.9 75.56247020369341
17752.4 75.47238951499395
18379.4 75.5338686205003
19026.9 75.64607126587987
19697.8 75.44232852742405
19999.5 75.22882131928101
