Freq "Listening Window"
20.5078 50.06910182812699
21.9727 51.98250393735215
23.4375 54.561035880728284
24.9023 56.42264512220258
26.3672 58.98330625207812
27.832 61.31775415092723
29.2969 63.887872628172346
30.7617 65.92554932790901
32.2266 68.30434359962088
33.6914 70.54967053584973
35.1563 72.47476220760423
36.6211 74.14187046055734
38.0859 75.50691018281239
39.5508 76.62288802464782
41.0156 77.62222185850072
42.4805 78.28571911036043
43.9453 78.81527352242956
45.4102 79.19651153380056
46.875 79.5441883964325
48.3398 79.70653184073977
51.2695 80.13559327230068
52.7344 80.19604594365933
54.1992 80.21740425458484
55.6641 80.43159782893615
58.5938 80.6795364176646
60.0586 80.7037264288947
62.9883 80.76836070958161
64.4531 80.83930261300382
67.3828 80.88677851483872
68.8477 80.88825501648773
71.7773 81.00705438773419
74.707 81.25981260225863
77.6367 81.26286681198609
79.1016 81.20082374041645
82.0313 81.15567757217678
84.9609 81.19529367334407
87.8906 81.27045395861356
90.8203 81.12264694934048
95.2148 81.19018977653707
98.1445 81.14616379558974
101.074 81.11849426820156
105.469 81.02052420130174
108.398 81.1061676097688
112.793 81.17045022623212
117.188 81.31255014387011
120.117 81.35206596685843
124.512 81.55598967998708
128.906 81.47509406224674
133.301 81.34689323072382
139.16 81.22086561153661
143.555 81.14166793696263
147.949 81.06703529800292
153.809 80.93241397517475
159.668 80.97197613188256
165.527 81.13733667217276
171.387 81.28689999735171
177.246 81.35195803553994
183.105 81.2367255755643
188.965 81.231156829871
196.289 81.02357830588276
203.613 80.93245126568
210.938 81.04097693078968
218.262 80.86288437533437
225.586 80.91564333718263
232.91 81.20237651672478
241.699 81.07781743926738
250.488 80.96839695601699
259.277 81.39609707144514
268.066 80.86798019830314
276.855 80.9852942968481
287.109 81.0282263976583
297.363 80.82293618003388
307.617 81.15217701136324
319.336 81.12571665208068
329.59 81.625839741646
341.309 81.434293631477
353.027 81.49055518548526
366.211 81.65845217015897
379.395 82.07328861149381
392.578 81.54841494512861
405.762 80.95684410347592
420.41 81.49989824210097
435.059 81.15536818279276
451.172 81.42218149687397
465.82 81.14699462802517
483.398 81.30009882071911
499.512 82.70485580695289
517.09 82.45953020686359
536.133 81.64399620442663
555.176 82.26462660887674
574.219 82.01913890010547
594.727 81.74083838728936
615.234 81.995221561121
637.207 81.42723335417679
659.18 82.35428485826993
682.617 81.93918112564403
707.52 82.18978986620887
732.422 82.39641748068597
757.324 82.65821840602452
785.156 82.66815657076106
811.523 82.23827580570959
840.82 82.23743845535886
870.117 81.77892513430085
900.879 81.85918012934378
933.105 81.71369568445807
965.332 81.83822388420275
1000.49 82.00457312949108
1035.64 81.8709848311178
1072.27 81.98683007592224
1108.89 81.72303845771796
1148.44 81.59420012848582
1189.45 81.31754011273613
1230.47 81.55847584891809
1274.41 81.83646727770541
1319.82 81.77883968513771
1366.7 81.1428314682871
1413.57 80.70388427398052
1463.38 80.60299295579635
1516.11 80.47938547279567
1568.85 80.04791245884032
1624.51 79.0174824101501
1681.64 78.42362843617671
1741.7 78.85672524395521
1803.22 81.10556298244371
1866.21 81.77167584053544
1932.13 81.29638572873357
1999.51 81.5951719237586
2069.82 80.96180783069538
2143.07 80.45991544571348
2219.24 80.43673851089308
2296.88 79.82391258239191
2378.91 80.05291515965233
2462.4 80.25924565438656
2548.83 79.57404976357633
2639.65 80.16643968323353
2731.93 80.21872918295938
2828.61 79.89299685405345
2928.22 80.48379335940163
3030.76 80.30001559457789
3137.7 80.47401520827457
3249.02 80.62092816131711
3363.28 80.55821928899782
3481.93 80.63753057976572
3604.98 81.0514239181011
3732.42 80.92450406202329
3864.26 81.09575820343652
4000.49 80.5874591918939
4141.11 80.34902375683583
4287.6 80.03222920036895
4438.48 79.8319808523694
4595.21 80.0743813772291
4756.35 80.06968224841432
4924.8 79.96194439402656
5097.66 80.13834670504185
5277.83 80.23189349492856
5463.87 80.15940069450583
5657.23 80.42266298155455
5856.45 80.84184445976436
6062.99 80.9945298359652
6276.86 81.28224217761777
6498.05 81.59729211914394
6726.56 81.68927622712512
6963.87 81.60688851121277
7209.96 81.55579333107214
7464.84 81.41997368396498
7727.05 81.19999361988637
7999.51 81.09876889291105
8282.23 80.93904171380451
8573.73 80.97715110101866
8876.95 80.91977116705904
9188.96 81.08758419924976
9514.16 81.30742842017021
9849.61 81.41306703617452
10196.8 81.19005792055434
10555.7 81.01352710999475
10927.7 81.04445736786921
11313.0 81.08774117457696
11712.9 81.23369091285444
12126.0 81.44474148401535
12553.7 81.63288869834989
12996.1 81.71957243747268
13454.6 81.65770324117014
13929.2 81.54998574371812
14419.9 81.36402149864526
14928.2 81.25638098089071
15455.6 81.17726370201088
16000.5 80.99672087942227
16564.5 80.70957563451765
17148.9 80.37634649057547
17752.4 80.35634588764816
18379.4 80.49980440603859
19026.9 80.63727699098904
19697.8 80.47059674048815
19999.5 80.22938356092793
