Freq "Early Reflections DI"
20.5078 38.25567911987716
21.9727 38.50397606042905
23.4375 38.69405376461353
24.9023 38.96353660325235
26.3672 39.12761539816516
27.832 39.28980239918076
29.2969 39.379377150789765
30.7617 39.476078125903896
32.2266 39.5517439924716
33.6914 39.602483442674966
35.1562 39.64850045975042
36.6211 39.684964726959976
38.0859 39.718330798000395
39.5508 39.74576528268442
41.0156 39.77963136722114
42.4805 39.80224027613232
43.9453 39.82010871515837
45.4102 39.83523633131966
46.875 39.845760604162805
48.3398 39.85980927412767
51.2695 39.886390770319494
52.7344 39.8947985019164
54.1992 39.90041055227263
55.6641 39.906376051871035
58.5938 39.93144665779711
60.0586 39.96153035622292
62.9883 39.991933111986086
64.4531 39.99467308972652
67.3828 40.00333130944338
68.8477 40.02139515028723
71.7773 40.062568513724926
74.707 40.08324682560733
77.6367 40.10150514351187
79.1016 40.109930253382785
82.0312 40.13239753852933
84.9609 40.12764355770297
87.8906 40.124484196425456
90.8203 40.201840808220155
95.2148 40.181798837928326
98.1445 40.20990524571573
101.074 40.23945202435485
105.469 40.30477033761882
108.398 40.342756792156976
112.793 40.3685379811711
117.188 40.384318181629254
120.117 40.39749623767956
124.512 40.38278751843349
128.906 40.375404052797464
133.301 40.411276905180046
139.16 40.414209231177665
143.555 40.40337547527217
147.949 40.50361415623476
153.809 40.62358108117863
159.668 40.62311623826476
165.527 40.79815716691522
171.387 40.73888232284247
177.246 40.50017356039403
183.105 40.76208953194332
188.965 41.182181373873405
196.289 41.25566334870439
203.613 41.04823521907633
210.938 41.12406456509018
218.262 41.20058946408464
225.586 41.15738865690129
232.91 41.278874292152096
241.699 41.3461255963135
250.488 41.33103920879498
259.277 41.44383446785402
268.066 41.50565627791754
276.855 41.48853360141112
287.109 41.449992396666744
297.363 41.41528595656881
307.617 41.682716910852335
319.336 41.47409344950178
329.59 41.52618172057595
341.309 41.59019379264275
353.027 41.741363358243305
366.211 41.69081927007896
379.395 41.72283154077421
392.578 41.95045340534354
405.762 41.87735543572495
420.41 41.98603198547805
435.059 41.96300644383396
451.172 41.954989355624434
465.82 42.03077799049399
483.398 42.162775881510555
499.512 42.26318903838617
517.09 42.2241537629114
536.133 42.60277015260134
555.176 42.59288681248832
574.219 42.66848586361861
594.727 42.998706882413785
615.234 43.01994646133397
637.207 43.09768236718766
659.18 43.47698115616555
682.617 43.54093077660188
707.52 43.377711470000804
732.422 43.55216895483774
757.324 43.81791583998938
785.156 43.98602237818852
811.523 44.067897762072846
840.82 44.04293637897061
870.117 43.914795784037906
900.879 43.919878331944744
933.105 41.67971901364531
965.332 42.24042392789748
1000.49 42.46711872415861
1035.64 41.91219103505124
1072.27 43.36730104628967
1108.89 43.14250681859815
1148.44 43.703209410071395
1189.45 43.87746122027188
1230.47 43.653332231774854
1274.41 43.560250005869435
1319.82 43.922283161414356
1366.7 43.93678510050249
1413.57 43.975641042495596
1463.38 44.129941762344174
1516.11 44.48980089752641
1568.85 44.605105929396956
1624.51 44.69740226529656
1681.64 44.60472383673199
1741.7 44.80450717660662
1803.22 45.062846121200394
1866.21 45.08939354440233
1932.13 44.979580200747165
1999.51 44.962265041634026
2069.82 44.87362136372718
2143.07 44.78193123311448
2219.24 44.31993933885009
2296.88 44.055855632638696
2378.91 44.17595412101795
2462.4 43.56871233138703
2548.83 43.46117598912798
2639.65 43.566739431916815
2731.93 43.48745203009726
2828.61 43.30194270772644
2928.22 43.49302737429991
3030.76 43.560163943380616
3137.7 43.354981335818934
3249.02 43.16233542015355
3363.28 43.180818846010695
3481.93 42.904574915182025
3604.98 43.05577677861503
3732.42 43.29608171675466
3864.26 43.5062100877369
4000.49 43.38544781331882
4141.11 43.4959849492664
4287.6 43.2515731184469
4438.48 43.03645981556721
4595.21 43.017207688641264
4756.35 42.878388183218064
4924.8 43.17072706077755
5097.66 42.92267522805571
5277.83 43.16398501223556
5463.87 42.87156919091535
5657.23 42.97290656086716
5856.45 43.02499772045326
6062.99 43.144107753376076
6276.86 43.12948045833505
6498.05 43.10024043597821
6726.56 43.08155986426087
6963.87 43.00957898741109
7209.96 43.19139349661745
7464.84 43.34942497692997
7727.05 43.34866836420966
7999.51 43.48720892879015
8282.23 43.65520771371736
8573.73 43.62778366016907
8876.95 43.644232530895636
9188.96 43.73252825710571
9514.16 43.86603219019139
9849.61 43.9625871517342
10196.8 44.023026826134284
10555.7 44.00248022423769
10927.7 43.93634165122421
11313.0 43.88164175909614
11712.9 43.85113694936379
12126.0 43.80223834731851
12553.7 43.619804688308506
12996.1 43.32208157362027
13454.6 43.02545136246461
13929.2 42.91457768862604
14419.9 43.04791804970927
14928.2 43.23059189157634
15455.6 43.565880773197804
16000.5 43.87198785150093
16564.5 44.07258199898406
17148.9 44.25774852012515
17752.4 44.27345946453397
18379.4 44.241214429652345
19026.9 44.132475949748056
19697.8 43.99437592702378
19999.5 43.923083016475076
