Freq,On Axis,Listening Window,Sound Power,Early Reflections,Early Reflections DI,Sound Power DI,DI offset
20.5078,61.385999999999996,61.150889259617855,59.775499092300294,60.33309035447931,40.817798905138545,41.37539016731756,40
21.9727,62.3006,62.10245107130535,63.080478294576466,62.44107541896659,39.66137565233876,39.02197277672889,40
23.4375,64.37779999999998,64.25022396150621,65.76090884645704,64.93852530519959,39.31169865630662,38.489315115049166,40
24.9023,66.3788,66.30918808586243,68.17896634080367,67.24452221373923,39.0646658721232,38.13022174505876,40
26.3672,68.44549999999998,68.41954759552378,70.24152425501467,69.355326913884,39.06422068163978,38.178023340509114,40
27.832,70.5101,70.50987913192898,72.19322358968252,71.38522586482493,39.12465326710405,38.316655542246465,40
29.2969,72.1789,72.19260396472984,73.71466783665662,72.98839853402957,39.20420543070027,38.477936128073225,40
30.7617,73.7102,73.73236304597492,75.08081329274721,74.43868731544879,39.29367573052613,38.65154975322771,40
32.2266,74.96440000000001,74.98988201732114,76.17580117431469,75.60974074561527,39.38014127170587,38.81408084300645,40
33.6914,76.0444,76.07189266696082,77.12477009014776,76.62207910901367,39.44981355794715,38.94712257681306,40
35.1562,76.9629,76.99097308893727,77.92837702520455,77.4809607680478,39.51001232088947,39.06259606373271,40
36.6211,78.41459999999998,78.44522655910973,79.33627229630218,78.91256766149492,39.53265889761481,39.10895426280754,40
38.0859,79.0692,79.09761854875383,79.86932170154628,79.50170123034064,39.595917318413186,39.228296847207545,40
39.5508,79.5496,79.57714985231537,80.28111156929269,79.9455435433443,39.63160630897107,39.29603828302268,40
41.0156,80.0005,80.02564374432751,80.63272834140247,80.34278177590669,39.68286196842082,39.39291540292504,40
42.4805,80.50719999999998,80.53138145255294,81.08486165317966,80.82073940093024,39.7106420516227,39.44651979937328,40
43.9453,80.9246,80.94716589060056,81.44063214758229,81.2052901839831,39.74187570661746,39.50653374301827,40
45.4102,81.3092,81.33067084100388,81.77950998288996,81.56588907061905,39.76478177038483,39.55116085811392,40
46.875,81.6663,81.68640816785994,82.09118726081459,81.89882233693427,39.787585830925664,39.595220907045345,40
48.3398,81.9872,82.00576913585385,82.36597878331878,82.19488859649502,39.810880539358834,39.63979035253507,40
51.2695,82.6283,82.64368146343674,82.92668370387086,82.7926544804294,39.85102698300733,39.71699775956587,40
52.7344,82.8936,82.90838275141331,83.17354870669331,83.04862539358537,39.859757357827945,39.73483404472,40
54.1992,83.2087,83.22172150062465,83.44542698233131,83.34135730040455,39.8803642002201,39.77629451829334,40
55.6641,83.50800000000001,83.51903493206787,83.70913214732387,83.62078374312132,39.898251188946546,39.809902784744,40
58.5938,84.1042,84.1127405708353,84.25346665607525,84.18814568206149,39.92459488877381,39.85927391476005,40
60.0586,84.3034,84.31151415614363,84.44643318295539,84.38375173010101,39.92776242604262,39.86508097318824,40
62.9883,84.7454,84.75354112869638,84.90527521113654,84.83347513139775,39.920065997298636,39.84826591755984,40
64.4531,84.9745,84.98039531946654,85.10289848034859,85.04375700316585,39.93663831630069,39.87749683911795,40
67.3828,85.4706,85.47197084090793,85.52461826656894,85.49796255579088,39.97400828511705,39.94735257433899,40
68.8477,85.68809999999999,85.68772703007183,85.71590459215405,85.70115676831469,39.98657026175714,39.97182243791778,40
71.7773,86.0803,86.07712509610806,86.07381554044669,86.07511284698572,40.002012249122345,40.003309555661374,40
74.707,86.5046,86.49849604655793,86.46707787725902,86.48181816825351,40.01667787830442,40.03141816929892,40
77.6367,86.86940000000001,86.85997741817667,86.79172320708939,86.8229396358086,40.037037782368074,40.06825421108728,40
79.1016,87.0215,87.0105303858664,86.92747840206819,86.96497050553,40.0455598803364,40.083051983798214,40
82.0312,87.3376,87.32326076872721,87.20534897782076,87.25831982913388,40.06494093959333,40.11791179090645,40
84.9609,87.6283,87.61157080283893,87.47741667896433,87.53674462469509,40.07482617814384,40.134154123874595,40
87.8906,87.944,87.92504493861657,87.79394529200613,87.84943377941995,40.07561115919661,40.13109964661044,40
90.8203,88.2831,88.25802739076677,88.02284792542706,88.13028514254384,40.12774224822293,40.23517946533971,40
95.2148,88.5481,88.51951093654576,88.29019582914667,88.39324165561348,40.12626928093228,40.22931510739909,40
98.1445,88.731,88.69896053974557,88.45826632125507,88.56603808470955,40.132922455036024,40.2406942184905,40
101.074,88.8607,88.82366342333141,88.5428556037991,88.67086656861179,40.152796854719625,40.28080781953231,40
105.469,89.1876,89.1409914253274,88.74155633385816,88.92739266546083,40.21359875986657,40.39943509146924,40
108.398,89.453,89.40137460965926,88.94049458910371,89.15545134857676,40.245923261082496,40.46088002055555,40
112.793,89.7253,89.66752284430721,89.14654099754898,89.3890985592484,40.27842428505882,40.52098184675823,40
117.188,89.8384,89.77469022683621,89.22955831682462,89.48225089180056,40.29243933503565,40.54513191001159,40
120.117,89.9542,89.88640530215403,89.31423475202726,89.578589598136,40.307815704018026,40.57217055012677,40
124.512,90.049,89.97698782712673,89.40810804138077,89.66149309443763,40.3154947326891,40.56887978574596,40
128.906,90.09129999999999,90.01168050834195,89.40393199070374,89.67074235158545,40.34093815675651,40.607748517638214,40
133.301,90.1037,90.01595283442413,89.33422486728499,89.63561679732211,40.38033603710201,40.68172796713914,40
139.16,90.0308,89.93472554548573,89.21418365401398,89.53127869655899,40.40344684892675,40.720541891471754,40
143.555,89.9511,89.84703532635268,89.08866798383133,89.41824569381666,40.428789632536024,40.75836734252135,40
147.949,89.9008,89.78485415015355,88.93080098976851,89.30163454468796,40.48321960546559,40.854053160385035,40
153.809,89.9734,89.84314553024262,88.82180568200772,89.2745074831605,40.56863804708212,41.0213398482349,40
159.668,90.108,89.97231465919089,88.91616931843397,89.38889819237022,40.583416466820665,41.05614534075691,40
165.527,89.9478,89.80346960365173,88.74764110237648,89.22106185220954,40.58240775144219,41.05582850127526,40
171.387,89.7836,89.6273299794748,88.46925078308516,88.9877552283715,40.6395747511033,41.158079196389636,40
177.246,89.5878,89.42054935443869,88.20844210638484,88.7476803210007,40.67286903343799,41.212107248053854,40
183.105,89.42149999999998,89.23896782143129,87.9834343517062,88.53373185013542,40.70523597129586,41.255533469725094,40
188.965,89.5624,89.36078730712299,87.84642426928816,88.54486966065804,40.81591764646495,41.514363037834826,40
196.289,89.49340000000001,89.28354130028835,87.70241452537053,88.45465905241808,40.82888224787027,41.58112677491782,40
203.613,89.36019999999999,89.13562862256865,87.37296954555812,88.24138071449762,40.89424790807102,41.762659077010525,40
210.938,89.23079999999999,88.99751229064488,87.22016905451747,88.10276573423351,40.89474655641136,41.77734323612741,40
218.262,88.8788,88.62610335629648,86.97585775974423,87.75779805891679,40.86830529737969,41.65024559655225,40
225.586,89.0821,88.80692196792876,86.69211636770595,87.7382232573115,41.068698710617255,42.11480560022281,40
232.91,89.03289999999998,88.75321766407129,86.42214940892667,87.61381447788034,41.13940318619095,42.331068255144615,40
241.699,88.7596,88.4703358789431,86.22943849031059,87.33453419738944,41.13580168155366,42.24089738863252,40
250.488,89.4956,89.17448838540733,86.441039122268,87.79784537418601,41.37664301122132,42.733449263139335,40
259.277,89.0341,88.71418726828307,86.20570210722661,87.44307103470445,41.271116233578624,42.508485161056456,40
268.066,89.0079,88.66456012683709,85.92168369177475,87.26423369977435,41.40032642706274,42.74287643506234,40
276.855,88.9668,88.6374770586731,86.05971418446637,87.34750481244315,41.28997224622995,42.57776287420673,40
287.109,88.9057,88.52584127257433,85.82372450098963,87.18544869141793,41.340392581156394,42.7021167715847,40
297.363,89.5689,89.17463134417875,85.94800497986525,87.7311818873404,41.44344945683835,43.2266263643135,40
307.617,88.7823,88.38542617963736,85.52647375045719,87.0480605266216,41.337365653015766,42.85895242918018,40
319.336,88.5123,88.07606598123004,85.13792287769695,86.68033456451563,41.39573141671441,42.93814310353309,40
329.59,88.5503,88.0940881540339,84.98942235120693,86.63464166036424,41.45944649366966,43.10466580282697,40
341.309,88.0067,87.49612225496216,84.50939790492816,85.98842636818048,41.507695886781676,42.986724350033995,40
353.027,88.375,87.85236083379577,84.5247063891264,86.21745727715168,41.63490355664409,43.32765444466938,40
366.211,89.40700000000001,88.83069923088419,84.83302364717231,86.98367301569067,41.84702621519352,43.99767558371188,40
379.395,89.1687,88.5951633619506,85.04505102523288,86.9388576108561,41.65630575109449,43.55011233671772,40
392.578,88.6026,87.9840022017164,84.60170149487836,86.38141502124607,41.60258718047032,43.38230070683804,40
405.762,88.1359,87.44193812827062,83.94694950813553,85.72405994990999,41.717878178360635,43.49498862013509,40
420.41,88.3633,87.63240107210473,84.25153996252693,85.99915119517196,41.633249876932766,43.38086110957779,40
435.059,88.7372,87.90089748440222,83.88242505040651,85.69336429863748,42.207533185764746,44.01847243399571,40
451.172,90.0818,89.30418935633796,84.30774409105078,87.04073693374082,42.26345242259714,44.99644526528718,40
465.82,89.23839999999998,88.44806523814484,83.89203096372108,86.39988536481827,42.04817987332656,44.55603427442375,40
483.398,88.8987,88.06398728660147,83.93905868114115,86.23272124625841,41.83126604034307,44.124928605460326,40
499.512,88.36359999999999,87.46031514712365,83.99528777277314,85.84089189969572,41.61942324742793,43.46502737435051,40
517.09,87.28549999999998,86.23419159284725,83.22895530393656,84.57947012351747,41.654721469329786,43.005236288910694,40
536.133,88.7687,87.65902550015656,82.60345512241778,85.1279790967651,42.53104640339146,45.055570377738775,40
555.176,88.822,87.69764369582442,82.87762734550112,85.52960419256591,42.16803950325851,44.8200163503233,40
574.219,88.80769999999998,87.58481402514519,82.7740905447798,85.16341096021065,42.42140306493454,44.8107234803654,40
594.727,89.1069,87.85452216760191,82.42119770302557,85.304615711814,42.54990645578792,45.433324464576344,40
615.234,88.258,86.9770280076266,81.88501295517298,84.78596819844739,42.19105980917921,45.09201505245362,40
637.207,88.077,86.70034453198275,82.15452132750372,84.78987935303881,41.91046517894394,44.545823204479035,40
659.18,87.4392,85.90390386766364,81.69796679734696,83.7505058877872,42.153397979876445,44.20593707031668,40
682.617,87.8494,86.26416082098399,81.38816902511002,83.84604929229329,42.4181115286907,44.87599179587397,40
707.52,88.01910000000001,86.38920704125701,81.26517085570214,84.28049049488331,42.1087165463737,45.12403618555487,40
732.422,86.6459,84.88690970214992,80.63180432889779,83.1273321868474,41.759577515302524,44.255105373252135,40
757.324,86.6246,84.79749137752155,80.50944712759866,83.11104344906343,41.68644792845812,44.28804424992289,40
785.156,85.9735,84.03284847012816,80.10468722928007,82.70976354785418,41.32308492227398,43.928161240848084,40
811.523,85.2725,83.18582698994815,80.26718425263245,82.23695813330812,40.94886885664003,42.91864273731571,40
840.82,85.9494,83.80377028900851,79.79604967802388,81.81749996616232,41.986270322846195,44.007720610984634,40
870.117,85.625,83.44217320617736,79.44074412192602,82.2149690791413,41.22720412703606,44.00142908425134,40
900.879,85.0608,82.77503020404116,79.10816596243419,81.76385525440618,41.01117494963498,43.66686424160697,40
933.105,84.6506,82.32547554946433,78.76513270003028,81.46109060660417,40.864384942860156,43.56034284943405,40
965.332,85.6344,83.29619186338395,78.64286740603947,81.48052084569609,41.81567101768786,44.65332445734448,40
1000.49,84.6929,82.34277114041876,77.77959012511843,80.48985047564115,41.85292066477761,44.56318101530033,40
1035.64,85.6377,83.22978703320896,77.47157728167196,80.63783508675083,42.59195194645814,45.75820975153701,40
1072.27,84.8477,82.41622429399146,76.84582333987122,80.14090724189683,42.275317052094636,45.570400954120245,40
1108.89,84.4691,82.17116004298829,76.60757496009712,79.69030028391526,42.48085975907303,45.563585082891166,40
1148.44,84.25809999999998,82.0909902066548,76.34721082968551,79.601962175667,42.4890280309878,45.743779376969286,40
1189.45,84.2412,82.14732487495937,76.5459392006884,79.7512915958677,42.39603327909167,45.60138567427097,40
1230.47,84.8412,82.61943175084889,76.39305303109613,80.04044546477905,42.578986286069835,46.22637871975276,40
1274.41,84.505,82.34619167106277,76.93154875788777,80.27725291034285,42.06893876071992,45.414642913175,40
1319.82,83.7518,82.22263835974192,77.79039640532184,81.09537185191844,41.12726650782348,44.43224195442008,40
1366.7,83.9493,82.61826525977474,78.33754377492241,80.8593938827859,41.75887137698885,44.280721484852336,40
1413.57,83.2823,82.23487356041194,78.71037631172726,80.72974824474026,41.50512531567168,43.52449724868468,40
1463.38,83.6393,82.66481537025757,79.57511225017362,81.52864955459032,41.136165815667255,43.08970312008395,40
1516.11,84.11529999999999,83.1421126240232,80.67157591673205,82.7875410333082,40.354571590715,42.470536707291146,40
1568.85,85.09960000000001,84.05947572653358,80.91085988792275,83.22818198225332,40.83129374428026,43.14861583861082,40
1624.51,84.7715,84.15636906686831,81.3303064281263,83.64338317797754,40.51298588889077,42.826062638742,40
1681.64,84.537,83.80303784415034,81.63218783319184,83.86242850595076,39.94060933819958,42.1708500109585,40
1741.7,85.93460000000002,84.94184595758392,81.95897735443893,83.9377029651112,41.00414299247272,42.98286860314499,40
1803.22,87.06730000000002,86.0874455982396,82.52005067387802,84.55605872668774,41.53138687155186,43.56739492436158,40
1866.21,87.15029999999999,86.59256997753175,82.53310336478799,84.94399976494587,41.64857021258588,44.05946661274376,40
1932.13,86.9648,86.45833776058035,82.50057558818455,84.9451259413908,41.51321181918955,43.9577621723958,40
1999.51,86.3775,86.34031768460684,82.59299403632878,85.02926811802294,41.311049566583904,43.74732364827807,40
2069.82,87.6534,87.18594515163956,82.6360204784602,85.31315885235963,41.87278629927992,44.54992467317936,40
2143.07,87.9829,87.43767264142461,82.37949969916144,85.1893618192828,42.24831082214182,45.05817294226317,40
2219.24,88.14689999999999,87.348761867455,82.16437324955432,85.15741071232995,42.19135115512505,45.18438861790068,40
2296.88,88.8923,88.03390954748747,82.40791458049328,85.372773461221,42.66113608626647,45.625994966994185,40
2378.91,88.6775,88.09268771317215,82.1314786372967,85.28789922624337,42.804788486928786,45.96120907587546,40
2462.4,87.8151,86.96263175437987,81.28628630259897,84.6552411100786,42.307390644301265,45.676345451780904,40
2548.83,88.3683,87.25668849143335,81.10972509561553,84.44821999570404,42.808468495729315,46.14696339581782,40
2639.65,88.7296,87.7260983276821,80.96102184128098,84.3257129717779,43.40038535590419,46.765076486401114,40
2731.93,87.3869,86.5762618384716,79.93799715833651,83.39970514642991,43.176556692041686,46.63826468013508,40
2828.61,86.88479999999998,86.09442344593948,79.3426839196251,82.79076722707049,43.303656218868994,46.75173952631438,40
2928.22,87.24339999999998,86.47342120617444,79.32787527808637,82.68295892134942,43.79046228482501,47.14554592808807,40
3030.76,86.6761,86.08262370309986,78.9837151357045,82.27723707502231,43.80538662807754,47.098908567395355,40
3137.7,86.2415,85.65491535647736,78.74151610717983,81.99793254839084,43.656982808086525,46.91339924929753,40
3249.02,86.8578,86.32183935529899,79.18122707817139,82.38954775342759,43.9322916018714,47.1406122771276,40
3363.28,86.758,86.38578639650382,79.28689978180725,82.52434978134377,43.861436615160045,47.09888661469657,40
3481.93,87.4436,86.7646462536953,79.54435648113643,82.94464905706783,43.81999719662747,47.22028977255887,40
3604.98,88.21520000000001,87.5906403834314,79.85846295764227,83.5370966041745,44.05354377925691,47.73217742578913,40
3732.42,88.9355,88.2771043442435,80.49653012230817,84.28315445505233,43.99394988919117,47.780574221935325,40
3864.26,89.4197,88.6708868773296,80.5823183892124,84.49053769436796,44.180349182961635,48.08856848811719,40
4000.49,90.03,89.36734288529341,81.08531284237256,85.04271150100988,44.324631384283535,48.28203004292085,40
4141.11,90.0733,89.5560257408444,81.30822324042943,85.41319093105301,44.142834809791395,48.24780250041498,40
4287.6,90.0471,89.58758637062303,81.67582124018233,85.63431228901901,43.95327408160402,47.9117651304407,40
4438.48,89.9618,89.76956081463317,81.83263239792898,85.74652943308206,44.02303138155111,47.93692841670419,40
4595.21,89.3844,89.32307034769863,81.65320510455378,85.59249897029389,43.73057137740474,47.669865243144855,40
4756.35,89.0622,89.1606608696505,81.59640675036994,85.52163275441114,43.639028115239356,47.56425411928056,40
4924.8,89.2925,89.02930146350403,81.43809638889473,85.22895622915938,43.80034523434465,47.59120507460929,40
5097.66,90.18529999999998,89.10098629652812,81.37522304615912,85.4088869363339,43.69209936019422,47.725763250369,40
5277.83,89.1312,88.66061623577717,80.88714131951045,84.9160115515318,43.744604684245374,47.77347491626672,40
5463.87,90.01069999999999,89.07084329365185,80.87596817877724,85.13493488436833,43.93590840928351,48.194875114874606,40
5657.23,90.3931,88.86460020715005,80.66082880928793,84.95531885696826,43.909281350181786,48.20377139786211,40
5856.45,90.0896,88.80245382670506,80.4632393273721,84.86684584819037,43.935607978514696,48.33921449933297,40
6062.99,89.27940000000001,88.35147546956179,80.09058956763019,84.4665498971489,43.8849255724129,48.2608859019316,40
6276.86,89.6435,88.35849194150751,79.9023754368913,84.1399206622143,44.218571279293215,48.456116504616205,40
6498.05,88.5864,87.6852052723407,79.51720384309775,83.72678727153426,43.95841800080643,48.16800142924295,40
6726.56,87.7056,87.55239354050867,79.51851868442347,83.7661848108038,43.78620872970488,48.033874856085205,40
6963.87,88.5701,87.63860604216774,79.42619983414085,83.80009025626828,43.83851578589946,48.21240620802689,40
7209.96,87.97139999999999,87.29588566598781,79.1196704348445,83.46201286248376,43.83387280350405,48.17621523114332,40
7464.84,87.9007,87.14778545457554,78.94813177967335,83.26747657048824,43.8803088840873,48.199653674902194,40
7727.05,89.1042,87.36724194475107,78.93836547531048,83.17595239168212,44.191289553068955,48.428876469440596,40
7999.51,88.3198,87.36008544242083,79.22912471030072,83.35668057534068,44.00340486708015,48.1309607321201,40
8282.23,88.7116,87.25049913176545,79.46044670449245,83.47393517719314,43.77656395457231,47.790052427273,40
8573.73,88.4327,87.10475211512171,79.6972361497659,83.30686820562843,43.79788390949328,47.40751596535581,40
8876.95,87.1833,86.45810603594255,80.16212770597187,83.4620768378447,42.996029198097844,46.29597832997068,40
9188.96,86.2564,86.19293109354138,81.20268722463932,84.57239357166179,41.620537521879584,44.990243868902056,40
9514.16,86.3452,86.62455771153137,82.00263963382595,85.41203003805998,41.212527673471385,44.621918077705416,40
9849.61,88.24430000000001,88.68048218809695,82.66135108902456,86.13066261033576,42.549819577761184,46.01913109907238,40
10196.8,90.51820000000001,90.01459048780512,83.02836054819535,86.94751669209931,43.06707379570581,46.98622993960977,40
10555.7,91.6848,90.97044190520056,83.06799624342159,87.24251893160199,43.72792297359857,47.90244566177897,40
10927.7,92.3021,91.29742313306431,83.15516289982304,87.3385500306677,43.95887310239661,48.142260233241274,40
11313.0,92.1182,91.24341051685495,82.93962690084834,87.16998741408048,44.07342310277447,48.30378361600661,40
11712.9,91.8544,91.12794035267342,82.39083943446226,86.61140234905294,44.51653800362048,48.737100918211155,40
12126.0,91.4489,90.93780313923052,82.13975370687308,86.5441977721898,44.39360536704072,48.798049432357445,40
