Freq "On Axis"
20.5078 63.08952424242423
21.9727 64.00412424242424
23.4375 66.08132424242423
24.9023 68.08232424242424
26.3672 70.14902424242422
27.832 72.21362424242423
29.2969 73.88242424242424
30.7617 75.41372424242424
32.2266 76.66792424242425
33.6914 77.74792424242423
35.1562 78.66642424242424
36.6211 80.11812424242422
38.0859 80.77272424242423
39.5508 81.25312424242424
41.0156 81.70402424242424
42.4805 82.21072424242422
43.9453 82.62812424242424
45.4102 83.01272424242424
46.875 83.36982424242424
48.3398 83.69072424242424
51.2695 84.33182424242423
52.7344 84.59712424242424
54.1992 84.91222424242423
55.6641 85.21152424242425
58.5938 85.80772424242424
60.0586 86.00692424242423
62.9883 86.44892424242424
64.4531 86.67802424242424
67.3828 87.17412424242424
68.8477 87.39162424242423
71.7773 87.78382424242423
74.707 88.20812424242423
77.6367 88.57292424242425
79.1016 88.72502424242424
82.0312 89.04112424242423
84.9609 89.33182424242423
87.8906 89.64752424242424
90.8203 89.98662424242424
95.2148 90.25162424242424
98.1445 90.43452424242423
101.074 90.56422424242423
105.469 90.89112424242424
108.398 91.15652424242424
112.793 91.42882424242424
117.188 91.54192424242423
120.117 91.65772424242424
124.512 91.75252424242424
128.906 91.79482424242423
133.301 91.80722424242424
139.16 91.73432424242424
143.555 91.65462424242423
147.949 91.60432424242424
153.809 91.67692424242423
159.668 91.81152424242424
165.527 91.65132424242424
171.387 91.48712424242424
177.246 91.29132424242424
183.105 91.12502424242422
188.965 91.26592424242423
196.289 91.19692424242425
203.613 91.06372424242423
210.938 90.93432424242422
218.262 90.58232424242424
225.586 90.78562424242423
232.91 90.73642424242422
241.699 90.46312424242424
250.488 91.19912424242423
259.277 90.73762424242423
268.066 90.71142424242424
276.855 90.67032424242424
287.109 90.60922424242423
297.363 91.27242424242424
307.617 90.48582424242424
319.336 90.21582424242423
329.59 90.25382424242423
341.309 89.71022424242423
353.027 90.07852424242424
366.211 91.11052424242425
379.395 90.87222424242424
392.578 90.30612424242423
405.762 89.83942424242424
420.41 90.06682424242423
435.059 90.44072424242424
451.172 91.78532424242424
465.82 90.94192424242422
483.398 90.60222424242424
499.512 90.06712424242423
517.09 88.98902424242422
536.133 90.47222424242423
555.176 90.52552424242424
574.219 90.51122424242422
594.727 90.81042424242423
615.234 89.96152424242423
637.207 89.78052424242424
659.18 89.14272424242424
682.617 89.55292424242424
707.52 89.72262424242425
732.422 88.34942424242423
757.324 88.32812424242424
785.156 87.67702424242424
811.523 86.97602424242423
840.82 87.65292424242423
870.117 87.32852424242424
900.879 86.76432424242424
933.105 86.35412424242423
965.332 87.33792424242424
1000.49 86.39642424242423
1035.64 87.34122424242423
1072.27 86.55122424242424
1108.89 86.17262424242423
1148.44 85.96162424242422
1189.45 85.94472424242424
1230.47 86.54472424242424
1274.41 86.20852424242423
1319.82 85.45532424242424
1366.7 85.65282424242423
1413.57 84.98582424242424
1463.38 85.34282424242424
1516.11 85.81882424242423
1568.85 86.80312424242425
1624.51 86.47502424242424
1681.64 86.24052424242424
1741.7 87.63812424242425
1803.22 88.77082424242425
1866.21 88.85382424242422
1932.13 88.66832424242423
1999.51 88.08102424242423
2069.82 89.35692424242424
2143.07 89.68642424242424
2219.24 89.85042424242422
2296.88 90.59582424242424
2378.91 90.38102424242423
2462.4 89.51862424242424
2548.83 90.07182424242424
2639.65 90.43312424242424
2731.93 89.09042424242423
2828.61 88.58832424242422
2928.22 88.94692424242422
3030.76 88.37962424242424
3137.7 87.94502424242424
3249.02 88.56132424242423
3363.28 88.46152424242423
3481.93 89.14712424242424
3604.98 89.91872424242425
3732.42 90.63902424242424
3864.26 91.12322424242424
4000.49 91.73352424242424
4141.11 91.77682424242424
4287.6 91.75062424242424
4438.48 91.66532424242423
4595.21 91.08792424242424
4756.35 90.76572424242424
4924.8 90.99602424242424
5097.66 91.88882424242422
5277.83 90.83472424242424
5463.87 91.71422424242422
5657.23 92.09662424242424
5856.45 91.79312424242424
6062.99 90.98292424242425
6276.86 91.34702424242424
6498.05 90.28992424242423
6726.56 89.40912424242424
6963.87 90.27362424242423
7209.96 89.67492424242423
7464.84 89.60422424242424
7727.05 90.80772424242424
7999.51 90.02332424242424
8282.23 90.41512424242424
8573.73 90.13622424242423
8876.95 88.88682424242424
9188.96 87.95992424242424
9514.16 88.04872424242424
9849.61 89.94782424242425
10196.8 92.22172424242424
10555.7 93.38832424242423
10927.7 94.00562424242423
11313.0 93.82172424242424
11712.9 93.55792424242424
12126.0 93.15242424242423
12553.7 92.42682424242423
12996.1 92.42522424242424
13454.6 92.46732424242424
13929.2 92.11222424242422
14419.9 91.18142424242424
14928.2 90.44442424242423
15455.6 89.98112424242424
16000.5 89.50692424242423
16564.5 89.49502424242424
17148.9 89.70422424242423
17752.4 88.61022424242424
18379.4 85.93102424242426
19026.9 83.45942424242423
19697.8 80.19012424242423
19999.5 77.96452424242423
