Freq,On Axis,Listening Window,Sound Power,Early Reflections,Early Reflections DI,Sound Power DI,DI offset
22.4,9.334177215189868,6.662993647945285,8.938493272861905,11.454555646015876,45.20843800192941,47.72450037508338,50
23.0,11.234177215189902,9.403073366551723,11.568589666458251,14.395513317398752,45.00756004915297,47.83448370009347,50
23.6,13.43417721518989,13.186091224505816,14.2700701806192,17.17077675787135,46.015314466634464,48.916021043886616,50
24.0,17.234177215189902,15.465717145159147,17.665590242412662,19.613573549739215,45.85214359541993,47.800126902746484,50
25.0,20.63417721518988,17.270197949777582,20.748753981714287,21.47285579841332,45.79734215136426,46.521443968063295,50
25.8,23.734177215189902,18.971723245588635,23.579051270826085,22.816315505666893,46.15540773992174,45.39267197476255,50
26.5,26.734177215189902,20.78180433876969,26.40277214375766,23.704540671196725,47.077263667572964,44.37903219501203,50
27.2,29.334177215189868,22.92387800769643,29.496050018320403,25.082182725386645,47.841695282309786,43.42782798937603,50
28.0,31.43417721518989,24.933481170986056,32.15484816115611,26.319550334462775,48.61393083652328,42.778633009829946,50
29.0,33.13417721518988,26.496238414739366,34.540958847599086,26.669849498367626,49.82638891637174,41.95527956714028,50
30.0,35.3341772151899,28.608669508460594,36.75446072299121,26.361104466922882,52.24756504153771,41.85420878546938,50
30.7,38.8341772151899,31.33465719677295,38.73095007182525,28.296336592378907,53.038320604394045,42.603707124947704,50
31.5,42.13417721518988,34.08846647903616,39.858180039900674,30.613528827822307,53.47493765121385,44.23028643913548,50
32.5,45.43417721518989,37.229118578235216,39.8083703553219,33.3089666471173,53.920151931117914,47.42074822291332,50
33.5,49.2341772151899,40.64365023950663,42.08907491149955,37.06889471765692,53.57475552184971,48.554575328007076,50
34.5,53.43417721518989,44.76388955353204,45.34432937196769,41.42299366032711,53.34089589320493,49.41956018156435,50
35.5,59.8341772151899,51.27596528894185,50.271759870291476,48.06918771197914,53.20677757696271,51.00420541865037,50
36.5,62.93417721518989,54.388609777240106,53.00679060913325,51.4420285326851,52.946581244555006,51.38181916810686,50
37.5,62.8341772151899,54.3303741857232,53.19045517699257,51.83601846277659,52.49435572294661,51.13991900873063,50
38.7,57.93417721518989,51.12608939549483,49.710832169418694,48.766049024764726,52.360040370730104,51.415257226076136,50
40.0,55.534177215189885,51.17856335766092,49.69267115148446,48.55047454885431,52.62808880880661,51.48589220617646,50
41.2,56.2341772151899,52.841343239318434,51.26808291584152,50.1337514302416,52.70759180907683,51.573260323476916,50
42.5,58.3341772151899,54.01230135620264,53.71648550005901,52.887501462568224,51.12479989363442,50.29581585614363,50
43.7,60.63417721518988,55.81387745928441,56.09259958400324,56.580220178254734,49.23365728102968,49.721277875281174,50
45.0,62.8341772151899,57.88645252481871,58.998321244525215,60.000349197922844,47.886103326895864,48.88813128029349,50
46.2,65.7341772151899,60.969101467576564,62.79935331232244,63.252079766847885,47.71702170072868,48.169748155254126,50
47.5,64.8341772151899,63.25171015018029,64.93775198905934,64.91936007778756,48.33235007239273,48.31395816112095,50
48.7,63.8341772151899,64.46665141056394,64.36580009735286,64.01141642830109,50.45523498226285,50.10085131321108,50
50.0,65.8341772151899,66.518260164146,65.71544362408375,65.7503969150305,50.76786324911549,50.80281654006225,50
51.5,71.0341772151899,69.61579712492306,68.66430367792479,68.5725533198754,51.043243805047666,50.95149344699827,50
53.0,76.8341772151899,72.86133095848172,71.67849040733569,71.59374850522599,51.26758245325573,51.18284055114603,50
54.5,74.5341772151899,73.50694063961276,71.11160266627641,71.88417480888859,51.62276583072418,52.39533797333635,50
56.0,74.93417721518989,74.97204117282298,72.31320802285339,73.17296919423094,51.79907197859204,52.658833149969595,50
58.0,77.63417721518991,76.87089027072503,74.70639102086042,75.17696046448609,51.69392980623894,52.164499249864605,50
60.0,79.3341772151899,78.69165120419912,76.611020784272,77.06448467280698,51.627166531392135,52.08063041992712,50
61.5,80.3341772151899,80.54353382853644,78.33047827416398,79.03053014217112,51.51300368636532,52.21305555437246,50
63.0,82.93417721518989,82.46099194012803,80.21678860292013,81.1594843188193,51.30150762130873,52.24420333720789,50
65.0,85.23417721518987,84.2907655324943,82.22366695396533,83.25013939659124,51.04062613590307,52.06709857852897,50
67.0,85.93417721518989,85.95748991951689,84.04052470596913,85.00985440758328,50.94763551193361,51.916965213547755,50
69.0,87.43417721518989,87.46714922092727,85.65478541734966,86.53071532066966,50.93643390025761,51.81236380357761,50
71.0,89.3341772151899,88.7861619839902,87.0546388564776,87.82448290167983,50.96167908231037,51.7315231275126,50
73.0,89.93417721518989,89.65050521271327,88.35377992497845,88.88657576690031,50.76392944581296,51.296725287734816,50
75.0,90.6341772151899,90.35916207840249,89.36748161761443,89.7662452949368,50.5929167834657,50.99168046078806,50
77.5,91.2341772151899,90.97032326629717,90.14058880321025,90.4557761870567,50.51454707924047,50.82973446308692,50
80.0,91.2341772151899,91.29130319992206,90.76043353751876,90.95920927333316,50.3320939265889,50.53086966240329,50
82.5,91.8341772151899,91.66904809480403,91.24761938666164,91.38787021651004,50.28117787829399,50.421428708142386,50
85.0,92.1341772151899,92.01342701345308,91.61812338568656,91.73918796022795,50.27423905322513,50.39530362776652,50
87.5,92.3341772151899,92.30109906635039,91.91801475368618,92.04421474311343,50.25688432323696,50.38308431266421,50
90.0,92.8341772151899,92.64617417161726,92.23929337343168,92.39100663194557,50.25516753967169,50.40688079818558,50
92.5,92.93417721518989,92.968274778112,92.51681986348021,92.68666042958354,50.281614348528464,50.451454914631796,50
95.0,93.3341772151899,93.23468889323038,92.71616715676178,92.94294885524285,50.29174003798754,50.5185217364686,50
97.5,93.3341772151899,93.46828069110818,92.78743594945384,93.11818325369306,50.350097437415116,50.68084474165434,50
100.0,93.7341772151899,93.72343563050052,92.8338024803943,93.28767572493642,50.4357599055641,50.88963315010622,50
103.0,93.8341772151899,93.92317913523652,92.8617914701664,93.40814239144757,50.515036743788954,51.06138766507013,50
106.0,94.03417721518991,94.0565992743951,92.86996059617107,93.4822686211911,50.574330653204,51.18663867822403,50
109.0,93.8341772151899,94.00186656080602,92.79795067087798,93.4510584809741,50.550808079831924,51.20391588992804,50
112.0,93.93417721518989,93.97890616576711,92.69628932080181,93.37554309432176,50.60336307144536,51.282616844965304,50
115.0,93.5341772151899,93.72394273789995,92.42769703311485,93.12203993710644,50.60190280079351,51.29624570478509,50
118.0,93.3341772151899,93.36776704206987,91.9753329628339,92.70233738382575,50.66542965824412,51.39243407923597,50
122.0,93.1341772151899,93.21215313300367,91.73890703087098,92.47865710592049,50.73349602708318,51.47324610213269,50
125.0,93.1341772151899,93.13443306174577,91.67459581578973,92.4020757322027,50.73235732954306,51.45983724595604,50
128.0,93.1341772151899,93.03468889323037,91.60756128591903,92.289206767397,50.74548212583336,51.427127607311334,50
132.0,93.03417721518989,93.01342701345308,91.46114193683042,92.17434995743045,50.83907705602263,51.55228507662267,50
136.0,93.23417721518989,93.12470620632573,91.49526278922191,92.24518686055869,50.87951934576704,51.629443417103815,50
140.0,93.3341772151899,93.22470620632575,91.47305247247141,92.27863413048838,50.946072075837364,51.75165373385434,50
145.0,93.43417721518989,93.30263391965234,91.38793156349755,92.26807408278503,51.0345598368673,51.91470235615479,50
150.0,93.43417721518989,93.32470620632574,91.25364907787659,92.22275297144878,51.10195323487696,52.071057128449155,50
155.0,93.5341772151899,93.34718303184398,91.11633671768666,92.16886493454487,51.17831809729911,52.23084631415732,50
160.0,93.5341772151899,93.31519735233302,90.95695553302814,92.05925221104727,51.25594514128575,52.35824181930488,50
165.0,93.43417721518989,93.19307656214245,90.75998493644425,91.90751523187151,51.28556133027094,52.4330916256982,50
170.0,93.3341772151899,93.0723300996235,90.55294069403499,91.72643266839505,51.34589743122845,52.51938940558851,50
175.0,93.23417721518989,93.0157172563052,90.38614779532236,91.58649860931496,51.429218646990236,52.629569460982836,50
180.0,93.1341772151899,92.89507892479867,90.20620978026938,91.4331134678336,51.46196545696506,52.68886914452929,50
185.0,93.03417721518989,92.79507892479867,90.07176638955262,91.31091513072403,51.48416379407465,52.72331253524605,50
190.0,92.93417721518989,92.68698303799583,89.90620452895246,91.16075568544014,51.52622735255569,52.78077850904337,50
195.0,93.03417721518989,92.69886511228027,89.74887585801144,91.06063554100886,51.63822957127141,52.94998925426883,50
200.0,93.03417721518989,92.70992485922787,89.55538833606582,90.96924127575434,51.740683583473526,53.15453652316205,50
206.0,93.1341772151899,92.83196021578124,89.33805052488677,90.96921315523578,51.86274706054546,53.49390969089447,50
212.0,93.3341772151899,92.98673054612831,89.13849399491716,91.02722015584845,51.95951039027986,53.84823655121116,50
218.0,93.43417721518989,93.16313937213914,89.03890984587423,91.12941293604716,52.03372643609198,54.12422952626491,50
224.0,93.6341772151899,93.33196021578124,88.94670436226772,91.17202652723081,52.159933688550424,54.38525585351351,50
230.0,93.8341772151899,93.44503253609074,88.84557659536293,91.13934308534895,52.30568945074178,54.59945594072781,50
236.0,93.7341772151899,93.36096740765691,88.52654841380641,90.91671793127779,52.44424947637913,54.834418993850505,50
240.0,93.5341772151899,93.09255975612697,88.04367229349938,90.58947322287966,52.50308653324731,55.04888746262759,50
250.0,93.1341772151899,92.80153077663397,87.61521722018297,90.29879797597535,52.50273280065862,55.186313556451,50
258.0,92.8341772151899,92.59702894261648,87.5657346949286,90.2588479782564,52.33818096436008,55.03129424768788,50
265.0,92.63417721518991,92.53772331710512,87.75269429113196,90.36964764616921,52.168075670935906,54.78502902597316,50
272.0,92.8341772151899,92.7357004246917,88.20973135313328,90.66641829305814,52.06928213163356,54.52596907155842,50
280.0,92.8341772151899,92.8244497860935,88.45733890680293,90.78717291804108,52.037276868052416,54.367110879290564,50
290.0,92.8341772151899,92.76852862387491,88.41585155629116,90.70924302428263,52.059285599592286,54.352677067583755,50
300.0,92.73417721518987,92.71240442705663,88.80053131688888,90.96005378804034,51.752350639016285,53.91187311016775,50
307.0,92.5341772151899,92.49078036487991,88.87766326631359,90.87868907122922,51.61209129365069,53.61311709856632,50
315.0,92.43417721518989,92.18345754075386,88.24489941101655,90.25257404894222,51.93088349181164,53.93855812973732,50
325.0,92.3341772151899,92.08645968257127,87.88578483056352,89.92626652899087,52.16019315358041,54.20067485200775,50
335.0,92.43417721518989,92.0785566661674,87.62129165941361,89.72045156153962,52.35810510462778,54.45726500675379,50
345.0,92.73417721518987,92.21889870599497,87.34456655366596,89.57671576453644,52.64218294145853,54.87433215232902,50
355.0,92.93417721518989,92.39326473453958,86.99852630039672,89.47213377827013,52.92113095626945,55.394738434142866,50
365.0,93.1341772151899,92.57153901537043,86.83126082286724,89.53096200243365,53.04057701293678,55.7402781925032,50
375.0,93.23417721518989,92.65338518489419,86.66315810602202,89.52179667256705,53.13158851232714,55.99022707887217,50
387.0,93.03417721518989,92.46508721079371,86.33437370691686,89.26499821263661,53.2000889981571,56.13071350387685,50
400.0,92.63417721518991,92.01405638406196,85.6411511393647,88.69035489595788,53.32370148810408,56.372905244697264,50
412.0,92.0341772151899,91.30417160019854,84.58513927876629,87.81376792338298,53.49040367681556,56.71903232143225,50
425.0,91.1341772151899,90.40948808079642,83.4477509216947,86.827038678082,53.58244940271442,56.961737159101716,50
437.0,90.0341772151899,89.43557096989076,82.30738903517357,85.82058524400696,53.6149857258838,57.12818193471719,50
450.0,89.13417721518988,88.57024673900456,81.54084749498884,85.06082080788015,53.50942593112441,57.02939924401572,50
462.0,88.6341772151899,88.23801462357868,82.05512836989024,85.17509676101548,53.0629178625632,56.18288625368844,50
475.0,88.93417721518989,88.8656532149881,84.18038801444557,86.78702701950131,52.07862619548679,54.68526520054253,50
487.0,89.5341772151899,88.8583628389255,83.15704410546883,86.42666351142458,52.43169932750092,55.701318733456674,50
500.0,90.53417721518989,89.89677277921152,83.61222994646032,86.89217078073118,53.00460199848034,56.2845428327512,50
515.0,91.3341772151899,90.64652041352632,84.34713859466683,87.48124236518191,53.165278048344405,56.29938181885949,50
530.0,91.73417721518989,91.08549179805112,85.01388096543583,88.02403087869247,53.06146091935865,56.07161083261529,50
545.0,91.63417721518988,91.04842160504245,84.83647466953087,87.86171234304818,53.18670926199427,56.21194693551158,50
560.0,91.2341772151899,90.52595970300354,83.8402836154346,87.10154752659905,53.42441217640449,56.685676087568936,50
580.0,90.53417721518989,89.84921299418008,82.78652789615431,86.33529577703524,53.51391721714484,57.06268509802577,50
600.0,90.0341772151899,89.40386278279784,82.00916593497661,85.81231712936201,53.59154565343583,57.39469684782124,50
615.0,90.0341772151899,89.34864730763275,81.73660789988432,85.69415462501756,53.654492682615185,57.612039407748426,50
630.0,90.53417721518989,89.83238572176887,82.06700642321427,86.07353137096483,53.75885435080404,57.765379298554606,50
650.0,91.1341772151899,90.39078299958395,82.648852920145,86.60716653929025,53.7836164602937,57.741930079438944,50
670.0,91.63417721518988,90.78460219779292,82.97882713394262,86.92869686290497,53.85590533488795,57.805775063850305,50
690.0,91.73417721518989,90.84534034973086,82.9629400117015,86.90333719696271,53.94200315276815,57.882400338029356,50
710.0,91.63417721518988,90.56650202196587,82.40401141853089,86.4462824208076,54.12021960115827,58.16249060343499,50
730.0,91.2341772151899,90.11770466000507,81.56496770242002,85.76177268265351,54.35593197735156,58.552736957585054,50
750.0,90.8341772151899,89.81857265426791,81.15107522935607,85.45377083459628,54.36480181967163,58.66749742491184,50
775.0,90.3341772151899,89.474855657559,80.84935777889802,85.22202712502408,54.25282853253492,58.62549787866098,50
800.0,89.8341772151899,89.08132226544627,80.49026799392598,84.88738673825824,54.19393552718803,58.59105427152029,50
825.0,89.23417721518989,88.50517266844126,79.75277417906109,84.2008918703427,54.30428079809856,58.75239848938017,50
850.0,89.13417721518988,88.20514136661882,79.14922279861773,83.58432813208556,54.62081323453326,59.05591856800109,50
875.0,89.23417721518989,88.12329404292244,78.73121077717718,83.22570796217778,54.89758608074466,59.392083265745256,50
900.0,89.43417721518989,88.19340974501657,78.52489457474003,83.15757824498664,55.03583150002993,59.668515170276535,50
925.0,89.43417721518989,88.07910042094942,78.20890590148318,82.92933140605331,55.14976901489611,59.87019451946624,50
950.0,89.13417721518988,87.63799533473772,77.69681779289135,82.41557114087998,55.22242419385775,59.94117754184637,50
975.0,88.93417721518989,87.4357569615576,77.60507828847241,82.2010969253481,55.234660036209505,59.83067867308519,50
1000.0,89.13417721518988,87.61266619415925,78.24148646364043,82.37094723467568,55.24171895948356,59.37117973051882,50
1030.0,89.73417721518989,87.89275112870475,79.00380960258094,82.82720675089715,55.0655443778076,58.8889415261238,50
1060.0,90.23417721518987,88.43134376370085,79.32412927270991,83.1979549573862,55.23338880631465,59.10721449099094,50
1090.0,90.73417721518989,89.02040585072717,79.48896646407908,83.40230112491784,55.61810472580933,59.53143938664809,50
1120.0,91.1341772151899,89.60524645864868,80.18473571903972,83.93171274860038,55.673533710048304,59.42051073960896,50
1150.0,91.43417721518989,89.80024196430466,80.39113737666892,84.0856333792252,55.71460858507946,59.40910458763574,50
1180.0,91.53417721518991,90.09829983657283,81.00743877963568,84.65814494337081,55.44015489320202,59.09086105693716,50
1220.0,91.53417721518991,90.26956999694762,81.17557549650306,84.8483170011602,55.42125299578743,59.093994500444566,50
1250.0,91.2341772151899,89.98198229872744,80.82857116582085,84.45752678026383,55.52445551846361,59.1534111329066,50
1280.0,90.93417721518989,89.82836913441508,80.5989900406054,84.37247357164694,55.45589556276815,59.22937909380968,50
1320.0,91.2341772151899,90.35977146788345,81.52916758546118,85.09441819126083,55.26535327662262,58.83060388242227,50
1360.0,91.93417721518989,91.42203692626812,83.09877468098274,86.44361580627609,54.978421119992035,58.32326224528538,50
1400.0,92.5341772151899,91.89816511158202,83.2825394271808,86.75180411626934,55.146360995312676,58.61562568440122,50
1450.0,92.5341772151899,91.7774645776564,83.06808025070094,86.58877936402948,55.188685213626925,58.70938432695546,50
1500.0,92.0341772151899,91.34515344799237,82.56159140325829,86.063059783601,55.28209366439137,58.78356204473408,50
1550.0,91.53417721518991,90.8984070849271,82.38684902061323,85.66316292166886,55.235244163258244,58.511558064313874,50
1600.0,91.53417721518991,90.87327960954752,83.0538252645409,86.00767013588698,54.86560947366054,57.81945434500662,50
1650.0,91.2341772151899,90.73496710260932,83.7722269295963,86.41325677144609,54.32171033116323,56.96274017301302,50
1700.0,90.53417721518989,90.14459855587751,83.47370905057532,86.09710158955394,54.047496966323564,56.670889505302185,50
1750.0,89.6341772151899,89.3183612450577,82.89376435169136,85.35887551412478,53.959485730932926,56.42459689336634,50
1800.0,89.03417721518991,88.51847020041396,82.38713382227914,84.70322128223454,53.81524891817942,56.13133637813482,50
1850.0,88.93417721518989,88.02651185202744,82.02807775609898,84.27850473959406,53.748007112433385,55.99843409592846,50
1900.0,88.93417721518989,88.42331213775105,82.32346834151795,84.65906047469294,53.76425166305812,56.0998437962331,50
1950.0,89.13417721518988,88.83223589068376,82.28139650940378,84.80204808613622,54.03018780454754,56.550839381279985,50
2000.0,89.73417721518989,89.00453628173523,82.01279915824064,84.67933077214394,54.325205509591285,56.99173712349459,50
2060.0,90.3341772151899,89.40621027503711,82.22033714169203,84.93757100566296,54.46863926937415,57.18587313334508,50
2120.0,91.1341772151899,90.3384283083371,83.08556411740855,85.82579046135635,54.51263784698075,57.25286419092855,50
2180.0,91.93417721518989,90.73350471451353,83.08444054161659,86.01006593840765,54.72343877610588,57.64906417289694,50
2240.0,92.3341772151899,90.78929586308145,82.79571093892453,85.84423690212049,54.945058960960964,57.99358492415692,50
2300.0,92.1341772151899,90.56854592521466,82.29252245236974,85.52218381259901,55.046362112615654,58.276023472844926,50
2360.0,91.93417721518989,90.29379455119869,81.3404301052512,84.90859349390897,55.38520105728972,58.953364445947486,50
2400.0,91.53417721518991,90.05252107098443,80.94262805139056,84.54067528189458,55.51184578908985,59.10989301959387,50
2500.0,91.0341772151899,89.36470630213131,80.02949982010122,83.78087245940482,55.58383384272649,59.33520648203009,50
2580.0,90.43417721518989,88.65198506486526,79.01050735181013,82.99819448841495,55.653790576450305,59.641477713055124,50
2650.0,90.23417721518987,88.63436584652743,79.4980972794404,83.23044800965557,55.403917836871855,59.13626856708703,50
2720.0,90.6341772151899,89.49612153585883,80.85655794095489,84.24528578783426,55.25083574802457,58.63956359490395,50
2800.0,91.3341772151899,90.27120824206955,81.44187406283119,84.95260542303015,55.3186028190394,58.82933417923836,50
2900.0,92.3341772151899,91.14865125674324,82.31440144107036,85.76009409631794,55.38855716042529,58.83424981567288,50
