Freq "Rear Wall Bounce"
22.4 9.05175109455557
23.0 11.35064592945956
23.6 14.547715300744287
24.0 17.98830706465266
25.0 21.1452991156212
25.8 24.164552789945432
26.5 26.213509568486487
27.2 24.132950498862826
28.0 23.888141423629932
29.0 24.29679735818287
30.0 25.600892225725786
30.7 28.487475038387842
31.5 31.235842024126626
32.5 33.98097456810136
33.5 36.5739493431641
34.5 38.90667386385398
35.5 41.080190344762556
36.5 42.746997338746766
37.5 44.71051211639319
38.7 47.26418650518646
40.0 51.229908439473675
41.2 54.72575203975104
42.5 56.808225847448384
43.7 58.24409951994795
45.0 60.25974666880181
46.2 63.93746386114144
47.5 67.11298471494656
48.7 68.31229340445441
50.0 73.26079890198922
51.5 72.17095475140398
53.0 71.44013479863348
54.5 71.84961869608729
56.0 72.79593445109653
58.0 73.7368572019855
60.0 74.36225218530178
61.5 74.78495640556734
63.0 75.05082750357673
65.0 75.35456940238213
67.0 75.81681967600996
69.0 76.37633901923265
71.0 77.02985623784694
73.0 77.83054813200856
75.0 78.55240546575222
77.5 79.08448447668135
80.0 79.54363451706087
82.5 79.84627301584172
85.0 79.908714652537
87.5 79.89843921337092
90.0 80.06999659198569
92.5 80.11661497327368
95.0 80.10015891923682
97.5 79.80440202408957
100.0 79.4340231890824
103.0 79.05388520286768
106.0 78.46552759971519
109.0 78.00165528358129
112.0 77.52389933895607
115.0 77.2050992514721
118.0 76.78992036472677
122.0 76.68789454523386
125.0 76.65370969259739
128.0 76.6859674331053
132.0 76.75112338645707
136.0 76.61889811438073
140.0 76.31655340970705
145.0 75.80006842174795
150.0 75.35808926622455
155.0 74.87164637759132
160.0 74.53955734211452
165.0 74.30232055044252
170.0 74.06193812353621
175.0 73.9991429572963
180.0 74.18977546437105
185.0 74.39486249450671
190.0 75.00582104905789
195.0 75.25901454075826
200.0 75.3546175567377
206.0 75.45027486698302
212.0 75.14693474985002
218.0 74.6784921558036
224.0 74.2748608586279
230.0 75.11284242920746
236.0 75.13155046346041
240.0 74.69132246575394
250.0 74.70059838690672
258.0 74.90373270908533
265.0 74.44448084412073
272.0 73.79620713344767
280.0 73.55782769344229
290.0 73.4332514232501
300.0 73.2707264972958
307.0 73.35935618193875
315.0 73.55777006691922
325.0 73.01590036578872
335.0 72.39612023785642
345.0 72.834340056919
355.0 73.21609952331899
365.0 73.4296001552314
375.0 73.55050323695268
387.0 73.77340729084504
400.0 73.54063168982196
412.0 72.67188032602698
425.0 71.4515519386289
437.0 70.59768645608689
450.0 70.34158415582226
462.0 70.93705770348762
475.0 72.08882021830952
487.0 72.71381738510745
500.0 72.21117588083571
515.0 71.50769049264058
530.0 70.98822720071935
545.0 70.5069785392623
560.0 70.37427292655507
580.0 69.2185705141242
600.0 67.69127120782309
615.0 66.42352937803308
630.0 65.59983074493191
650.0 65.1964919480777
670.0 65.21406036727427
690.0 65.27600688364511
710.0 65.11170517912045
730.0 64.74417790802572
750.0 64.56669518198889
775.0 64.27097293701544
800.0 64.42794266359985
825.0 64.32345346002732
850.0 64.23626590868058
875.0 65.01126286394575
900.0 64.51175148213537
925.0 63.78780457218549
950.0 64.40204082820287
975.0 65.7419979528176
1000.0 66.35797046143004
1030.0 65.19394687455042
1060.0 65.10530883558914
1090.0 64.60519133476133
1120.0 64.1568183443134
1150.0 64.37185249159982
1180.0 63.15539899122878
1220.0 62.07493571492728
1250.0 61.59929210120717
1280.0 60.6910665895865
1320.0 61.58340862374061
1360.0 62.019939362703866
1400.0 60.309301145616644
1450.0 59.83157601529227
1500.0 58.51853291672431
1550.0 58.84751225651843
1600.0 59.65381831873367
1650.0 59.41537292820662
1700.0 58.046344868956595
1750.0 57.30937120685802
1800.0 57.631562338264175
1850.0 58.5144403640886
1900.0 60.18434726130303
1950.0 60.93529984392474
2000.0 59.909797719357
2060.0 57.95982199026699
2120.0 56.874139377223585
2180.0 58.15131923468999
2240.0 58.24579164909618
2300.0 58.78846826643182
2360.0 58.79659016038184
2400.0 59.070186705500745
2500.0 58.19440724466874
2580.0 57.172886236132214
2650.0 56.22425245140458
2720.0 55.085560649836694
2800.0 54.03990526209661
2900.0 51.619012657153135
3000.0 50.79479652742013
3070.0 51.81325658985499
3150.0 54.236641736375205
3250.0 54.8127135981331
3350.0 55.66651329769978
3450.0 55.910678239328476
3550.0 55.54400290140781
3650.0 55.29503166551736
3750.0 54.32098651822632
3870.0 52.763705279916664
4000.0 53.410209813976664
4120.0 56.057572326848046
4250.0 56.958456081059396
4370.0 56.227998272803504
4500.0 55.66521268735379
4620.0 55.310602583681046
4750.0 55.34546808315024
4870.0 56.03881295207479
5000.0 56.47043073357473
5150.0 54.7708478694651
5300.0 53.29921806429469
5450.0 53.04047049173006
5600.0 50.419551963994635
5800.0 48.64174423892497
6000.0 53.244675863620884
6150.0 53.308130096636305
6300.0 56.34782458006312
6500.0 56.56564437556902
6700.0 54.55891431454218
6900.0 49.68901052122315
7100.0 48.85044544026091
7300.0 53.66164420497857
7500.0 54.89346185102859
7750.0 54.14099705890864
8000.0 53.942585702696036
8250.0 55.09662115847475
8500.0 52.51046150919457
8750.0 48.46087708072615
9000.0 54.13223080287135
9250.0 56.69454153429909
9500.0 56.006419380183914
9750.0 53.91491642564692
10000.0 51.06192848923071
10300.0 53.72139543988105
10600.0 56.61134302441168
10900.0 54.67057015436036
11200.0 54.30829258282692
11500.0 50.876478364743136
11800.0 51.67765937734045
12200.0 56.11494302286836
12500.0 54.79096482595965
12800.0 50.16741284471921
13200.0 53.83011662046006
13600.0 55.30068452009145
14000.0 54.18617666878596
14500.0 51.09474369274473
15000.0 50.789501982876615
15500.0 51.12057275903241
16000.0 47.78836847005594
16500.0 45.92387988622296
17000.0 44.617057373413544
17500.0 42.31175321621076
18000.0 43.33009729860895
18500.0 41.93808695380578
19000.0 35.37536195287795
19500.0 31.03744434857468
