Freq "Side Wall Bounce"
22.4 10.003412818494368
23.0 12.671757018849135
23.6 16.52306419791698
24.0 19.315364525094125
25.0 21.598125374270907
25.8 23.6912133043014
26.5 24.95260410498541
27.2 23.212077529934945
28.0 23.464886436181146
29.0 24.2145567838826
30.0 25.90609161820764
30.7 29.44284571263033
31.5 33.07310943565248
32.5 36.73805926298179
33.5 38.92397040337936
34.5 40.67158701178663
35.5 42.38878404279352
36.5 44.06021089348023
37.5 45.983848897946004
38.7 48.418080569279724
40.0 52.254505304089335
41.2 55.61015104458171
42.5 57.909271226873386
43.7 59.73124177247445
45.0 62.061215940360626
46.2 65.69589183458962
47.5 68.6537646546281
48.7 69.69636661832804
50.0 74.46770064615286
51.5 74.19540833415643
53.0 74.73867466025808
54.5 75.0712245580205
56.0 75.78245791007193
58.0 76.36699533215756
60.0 76.79385167879653
61.5 77.0871204652751
63.0 77.1926622235528
65.0 77.31557166729884
67.0 77.46872634267102
69.0 77.73285188381915
71.0 78.11830528140122
73.0 78.61291694270648
75.0 79.07515958747508
77.5 79.40767832819223
80.0 79.72739137448652
82.5 79.8783745810959
85.0 79.84544565053919
87.5 79.78447294736202
90.0 79.87678537002513
92.5 79.80658656055296
95.0 79.839342279284
97.5 79.78554524405486
100.0 79.73365234588682
103.0 79.72068261611307
106.0 79.50063201143858
109.0 79.30083186630647
112.0 79.08513199905376
115.0 79.0023604878918
118.0 78.76112102757293
122.0 78.6887175895201
125.0 78.60126806909828
128.0 78.52851579982011
132.0 78.34087486031765
136.0 78.1459660521647
140.0 77.75123092739987
145.0 77.32850114271388
150.0 77.13404687663811
155.0 76.90922618798815
160.0 76.75929750317923
165.0 76.59104789541018
170.0 76.68552440147167
175.0 76.94073256276499
180.0 77.05037490500463
185.0 77.35017444984256
190.0 77.71553809268795
195.0 77.84486214243461
200.0 78.11686494177545
206.0 78.29483361156765
212.0 78.33646184658274
218.0 78.67286120108659
224.0 79.11896530579307
230.0 79.7072044183102
236.0 78.94569720232995
240.0 78.17333123193052
250.0 78.37769437219974
258.0 78.56544213818285
265.0 78.32901130562728
272.0 78.09928578544063
280.0 78.00573446169554
290.0 77.70016829491827
300.0 77.30924544310676
307.0 77.27610023092238
315.0 77.29802950861988
325.0 76.34206881428163
335.0 75.29945805435021
345.0 75.61818627416137
355.0 76.38893349376275
365.0 77.35552729061321
375.0 78.06367875724463
387.0 78.39240650470627
400.0 78.11440195927095
412.0 77.37228975646822
425.0 76.73594806267214
437.0 76.71854609680484
450.0 77.19643054909513
462.0 77.79998160995036
475.0 78.27546351981083
487.0 78.26227286690546
500.0 77.80810632505566
515.0 77.55823898152886
530.0 77.74776736469208
545.0 78.06615974180043
560.0 78.39410598859993
580.0 77.5378780228473
600.0 76.5344149738958
615.0 75.45123340587945
630.0 74.34734553815015
650.0 73.68803433238496
670.0 73.54690990696206
690.0 73.43137174559813
710.0 73.53911108119746
730.0 73.50371635501195
750.0 73.11165316715184
775.0 72.45141304705184
800.0 72.02271667514721
825.0 72.1529091349433
850.0 72.66304371251076
875.0 74.59209737774657
900.0 75.2241621990438
925.0 74.76509136141051
950.0 74.10873466688143
975.0 73.41315776436363
1000.0 74.53807652382561
1030.0 74.42366226807842
1060.0 75.1943116067449
1090.0 75.61481011735943
1120.0 75.93575667368445
1150.0 75.6566968676204
1180.0 75.10218933941142
1220.0 74.50046392455248
1250.0 74.34490537174152
1280.0 73.95790555477109
1320.0 73.76793271574756
1360.0 74.3612049526008
1400.0 73.11998434092247
1450.0 72.09354832707233
1500.0 71.63639745441978
1550.0 71.00755314693446
1600.0 70.47560398418808
1650.0 69.9415321250918
1700.0 69.2267466735139
1750.0 69.5950249262539
1800.0 69.84602551247939
1850.0 70.13684029640076
1900.0 71.21320946807408
1950.0 72.16168543800629
2000.0 71.55824010555285
2060.0 70.82309255671252
2120.0 70.40624928331198
2180.0 70.75942300122215
2240.0 70.86829809448491
2300.0 72.28841470081409
2360.0 72.43861795124164
2400.0 71.86792084207866
2500.0 71.69787489417506
2580.0 71.81616086748905
2650.0 72.16994405351835
2720.0 72.208099351028
2800.0 71.39791192512826
2900.0 68.61791395825377
3000.0 68.16031999813578
3070.0 67.91084310307768
3150.0 69.49452124398235
3250.0 69.88876340352574
3350.0 71.10609679094607
3450.0 71.44718842403203
3550.0 72.30957675876861
3650.0 72.67224153933672
3750.0 71.1646922205646
3870.0 69.27047802727024
4000.0 70.07331801630237
4120.0 72.32747389767839
4250.0 73.83984958887618
4370.0 73.74429608034035
4500.0 73.88882249778821
4620.0 73.33703119093859
4750.0 72.09995982958735
4870.0 71.05895814824785
5000.0 71.64850084420807
5150.0 70.93317954905274
5300.0 71.29662015729234
5450.0 73.04035616854945
5600.0 71.90184324948014
5800.0 70.79690685072656
6000.0 69.99496438078015
6150.0 70.98734553289724
6300.0 73.41526908439728
6500.0 73.73508907328146
6700.0 72.68349981616753
6900.0 68.26039518262225
7100.0 70.7466749531795
7300.0 72.95818274752563
7500.0 72.46442127565847
7750.0 71.16749276011562
8000.0 69.00265657330742
8250.0 72.01657693102645
8500.0 73.6436698104665
8750.0 71.63699314417445
9000.0 70.96298204244134
9250.0 72.43586449677038
9500.0 73.41026531487353
9750.0 73.4234975368858
10000.0 71.37163272513759
10300.0 73.09115490756447
10600.0 74.5884289827607
10900.0 72.65821594864329
11200.0 72.9713253357558
11500.0 73.05727148422453
11800.0 71.10896488670467
12200.0 70.69040475496466
12500.0 73.54005967638636
12800.0 71.26322066523872
13200.0 71.49331658818507
13600.0 73.42785438171329
14000.0 73.49957688775378
14500.0 74.1875988091683
15000.0 70.83367855851309
15500.0 68.9658236162495
16000.0 65.97841564941463
16500.0 63.042376542087524
17000.0 63.1749285547461
17500.0 62.98557819024225
18000.0 62.0345221727993
18500.0 61.84791237440648
19000.0 55.21129601537582
19500.0 48.792214221505205
