Freq "Side Wall Bounce"
22.4 9.7211343374817
23.0 12.389478537836439
23.6 16.240785716904313
24.0 19.033086044081458
25.0 21.31584689325824
25.8 23.40893482328873
26.5 24.670325623972687
27.2 22.929799048922277
28.0 23.18260795516848
29.0 23.932278302869904
30.0 25.623813137194972
30.7 29.160567231617634
31.5 32.790830954639816
32.5 36.455780781969125
33.5 38.64169192236669
34.5 40.38930853077396
35.5 42.10650556178085
36.5 43.777932412467564
37.5 45.701570416933336
38.7 48.135802088267056
40.0 51.97222682307664
41.2 55.327872563569045
42.5 57.626992745860704
43.7 59.448963291461766
45.0 61.778937459347944
46.2 65.41361335357695
47.5 68.37148617361542
48.7 69.41408813731536
50.0 74.18542216514017
51.5 73.91312985314374
53.0 74.4563961792454
54.5 74.78894607700782
56.0 75.50017942905926
58.0 76.08471685114489
60.0 76.51157319778386
61.5 76.80484198426242
63.0 76.9103837425401
65.0 77.03329318628614
67.0 77.18644786165834
69.0 77.45057340280647
71.0 77.83602680038854
73.0 78.3306384616938
75.0 78.79288110646239
77.5 79.12539984717955
80.0 79.44511289347383
82.5 79.59609610008323
85.0 79.56316716952651
87.5 79.50219446634935
90.0 79.59450688901245
92.5 79.52430807954026
95.0 79.5570637982713
97.5 79.50326676304218
100.0 79.45137386487413
103.0 79.43840413510038
106.0 79.2183535304259
109.0 79.01855338529377
112.0 78.80285351804109
115.0 78.72008200687911
118.0 78.47884254656024
122.0 78.4064391085074
125.0 78.31898958808561
128.0 78.24623731880743
132.0 78.05859637930497
136.0 77.86368757115201
140.0 77.46895244638718
145.0 77.04622266170121
150.0 76.85176839562544
155.0 76.62694770697546
160.0 76.47701902216654
165.0 76.3087694143975
170.0 76.40324592045899
175.0 76.65845408175232
180.0 76.76809642399195
185.0 77.06789596882987
190.0 77.43325961167527
195.0 77.56258366142193
200.0 77.83458646076278
206.0 78.01255513055497
212.0 78.05418336557005
218.0 78.39058272007391
224.0 78.83668682478039
230.0 79.42492593729753
236.0 78.66341872131729
240.0 77.89105275091784
250.0 78.09541589118707
258.0 78.28316365717018
265.0 78.0467328246146
272.0 77.81700730442795
280.0 77.72345598068286
290.0 77.4178898139056
300.0 77.02696696209408
307.0 76.99382174990971
315.0 77.01575102760718
325.0 76.05979033326894
335.0 75.01717957333753
345.0 75.3359077931487
355.0 76.10665501275008
365.0 77.07324880960054
375.0 77.78140027623196
387.0 78.1101280236936
400.0 77.83212347825827
412.0 77.09001127545555
425.0 76.45366958165947
437.0 76.43626761579216
450.0 76.91415206808244
462.0 77.5177031289377
475.0 77.99318503879816
487.0 77.97999438589277
500.0 77.52582784404298
515.0 77.27596050051619
530.0 77.4654888836794
545.0 77.78388126078777
560.0 78.11182750758725
580.0 77.25559954183461
600.0 76.25213649288312
615.0 75.16895492486677
630.0 74.06506705713748
650.0 73.40575585137226
670.0 73.26463142594936
690.0 73.14909326458543
710.0 73.25683260018478
730.0 73.22143787399926
750.0 72.82937468613916
775.0 72.16913456603915
800.0 71.74043819413454
825.0 71.87063065393063
850.0 72.38076523149809
875.0 74.30981889673389
900.0 74.94188371803112
925.0 74.48281288039784
950.0 73.82645618586874
975.0 73.13087928335096
1000.0 74.25579804281293
1030.0 74.14138378706572
1060.0 74.91203312573222
1090.0 75.33253163634673
1120.0 75.65347819267178
1150.0 75.37441838660772
1180.0 74.81991085839874
1220.0 74.21818544353981
1250.0 74.06262689072884
1280.0 73.6756270737584
1320.0 73.48565423473488
1360.0 74.07892647158812
1400.0 72.83770585990979
1450.0 71.81126984605963
1500.0 71.3541189734071
1550.0 70.72527466592177
1600.0 70.19332550317542
1650.0 69.65925364407912
1700.0 68.94446819250122
1750.0 69.31274644524122
1800.0 69.56374703146669
1850.0 69.85456181538808
1900.0 70.93093098706139
1950.0 71.8794069569936
2000.0 71.27596162454016
2060.0 70.54081407569986
2120.0 70.1239708022993
2180.0 70.47714452020948
2240.0 70.58601961347223
2300.0 72.0061362198014
2360.0 72.15633947022896
2400.0 71.585642361066
2500.0 71.41559641316238
2580.0 71.53388238647638
2650.0 71.88766557250567
2720.0 71.9258208700153
2800.0 71.11563344411557
2900.0 68.33563547724107
3000.0 67.8780415171231
3070.0 67.628564622065
3150.0 69.21224276296968
3250.0 69.60648492251305
3350.0 70.82381830993337
3450.0 71.16490994301935
3550.0 72.02729827775593
3650.0 72.38996305832404
3750.0 70.88241373955192
3870.0 68.98819954625755
4000.0 69.79103953528967
4120.0 72.04519541666569
4250.0 73.5575711078635
4370.0 73.46201759932767
4500.0 73.60654401677553
4620.0 73.0547527099259
4750.0 71.81768134857467
4870.0 70.77667966723517
5000.0 71.36622236319539
5150.0 70.65090106804006
5300.0 71.01434167627967
5450.0 72.75807768753675
5600.0 71.61956476846744
5800.0 70.51462836971389
6000.0 69.71268589976746
6150.0 70.70506705188457
6300.0 73.1329906033846
6500.0 73.45281059226879
6700.0 72.40122133515484
6900.0 67.97811670160957
7100.0 70.46439647216681
7300.0 72.67590426651296
7500.0 72.1821427946458
7750.0 70.88521427910294
8000.0 68.72037809229472
8250.0 71.73429845001375
8500.0 73.36139132945384
8750.0 71.35471466316177
9000.0 70.68070356142864
9250.0 72.15358601575768
9500.0 73.12798683386085
9750.0 73.14121905587312
10000.0 71.08935424412489
10300.0 72.80887642655178
10600.0 74.30615050174802
10900.0 72.3759374676306
11200.0 72.6890468547431
11500.0 72.77499300321186
11800.0 70.82668640569199
12200.0 70.40812627395198
12500.0 73.25778119537368
12800.0 70.98094218422604
13200.0 71.21103810717239
13600.0 73.1455759007006
14000.0 73.21729840674111
14500.0 73.90532032815561
15000.0 70.5514000775004
15500.0 68.6835451352368
16000.0 65.69613716840195
16500.0 62.76009806107484
17000.0 62.89265007373341
17500.0 62.70329970922958
18000.0 61.75224369178663
18500.0 61.56563389339381
19000.0 54.929017534363126
19500.0 48.50993574049254
