Freq "Sound Power"
22.4 43.25475907866115
23.0 45.52251293620591
23.6 45.192431122701834
24.0 43.84820620260746
25.0 43.904136578791366
25.8 44.64938114091149
26.5 44.85611616482302
27.2 45.09461353184321
28.0 47.07796201966514
29.0 48.42655467972469
30.0 48.04902018289232
30.7 47.68680937776958
31.5 48.07996007145846
32.5 51.10115315392173
33.5 53.59596878615315
34.5 55.692005618574655
35.5 58.28040650169561
36.5 60.556194688715465
37.5 62.699901995587055
38.7 64.97733437737512
40.0 67.49682547708073
41.2 69.35536087705258
42.5 70.83535945759397
43.7 72.38429767426638
45.0 73.9160495739812
46.2 75.37791897709212
47.5 76.7848651095052
48.7 77.68322801668677
50.0 78.52706107398629
51.5 79.32161671830653
53.0 80.35551962889758
54.5 81.46966567664823
56.0 82.54201783404936
58.0 83.5127779063181
60.0 84.43195091222037
61.5 85.31081375813844
63.0 86.11432938518921
65.0 86.76682255374885
67.0 87.34009646610016
69.0 87.977572103651
71.0 88.69169325818933
73.0 89.46765834220966
75.0 90.40617261683266
77.5 90.9359705908533
80.0 91.64552361478133
82.5 92.28935003397004
85.0 92.87019354119937
87.5 93.28688313267368
90.0 93.43339241101934
92.5 93.31136209891847
95.0 92.9286855983934
97.5 92.41617591513022
100.0 91.87964136492937
103.0 91.43088486472165
106.0 91.23130820529732
109.0 91.30080334623015
112.0 91.48884703396196
115.0 91.63725005503058
118.0 91.66995121262684
122.0 91.52847194815689
125.0 91.29679804536377
128.0 91.05559774522943
132.0 90.83599804623222
136.0 90.57586115188579
140.0 90.31499017072852
145.0 90.04649567156233
150.0 89.80672043529623
155.0 89.59207827479786
160.0 89.43825557828416
165.0 89.43088167324075
170.0 89.68553983394939
175.0 89.87342135635313
180.0 89.75663232343774
185.0 89.48976818393649
190.0 89.1842390645211
195.0 88.84270078206194
200.0 88.39555323278815
206.0 87.6818838065515
212.0 86.6895578270017
218.0 86.03666294693264
224.0 86.70141027503374
230.0 87.56438410296899
236.0 88.06431227695788
240.0 87.9981744418866
250.0 87.64543769601977
258.0 87.33055143900371
265.0 87.05515579660353
272.0 86.90640983208962
280.0 86.92705387649488
290.0 87.0777119149898
300.0 87.17329348638873
307.0 87.16991287567551
315.0 87.1208459560763
325.0 87.05088096061931
335.0 87.00274287045588
345.0 86.9116134775074
355.0 86.82246785247025
365.0 86.78413148683423
375.0 86.77372863134974
387.0 86.75850390473859
400.0 86.53124090032185
412.0 86.05245469844891
425.0 85.65871001831604
437.0 85.45517967739872
450.0 85.49221631978517
462.0 85.7564727510727
475.0 85.82108692495025
487.0 85.43882611322208
500.0 85.00914923918748
515.0 84.93534566756279
530.0 85.14546151851576
545.0 85.28078149916792
560.0 84.84964999297728
580.0 84.01857345198735
600.0 83.32891788049696
615.0 82.83612302938022
630.0 82.4361174719968
650.0 82.3020028510413
670.0 82.47439197991503
690.0 82.94015174952999
710.0 83.57098989996473
730.0 83.8141651236906
750.0 83.61238634776146
775.0 83.46779607535989
800.0 83.58962403325549
825.0 83.64365596855487
850.0 83.28997458297327
875.0 82.81231309377415
900.0 83.34261381644774
925.0 84.3530150440941
950.0 84.67747901270141
975.0 83.68970347935951
1000.0 82.68724232002724
1030.0 81.8197398902144
1060.0 80.41204684737625
1090.0 79.1859118620955
1120.0 78.14731633421671
1150.0 76.98375395156243
1180.0 76.12179584448805
1220.0 75.65712097372374
1250.0 75.78196236197012
1280.0 76.70235754562225
1320.0 77.87889009921295
1360.0 78.49644215010113
1400.0 78.27800363011136
1450.0 78.28235397148916
1500.0 78.31867918303581
1550.0 77.37301206826746
1600.0 76.55971267693407
1650.0 75.98892265895284
1700.0 75.50636693449715
1750.0 75.42537127876177
1800.0 75.34406895316349
1850.0 76.11859369681895
1900.0 77.42405103850493
1950.0 77.90978577080489
2000.0 78.33306987067095
2060.0 79.41335637284537
2120.0 80.42126240711224
2180.0 80.56790242158189
2240.0 80.03492837019678
2300.0 78.91331972147563
2360.0 78.1332516271132
2400.0 78.52078070559276
2500.0 78.77450772050321
2580.0 78.54678292931396
2650.0 78.43684668055955
2720.0 78.67429685282187
2800.0 79.09265819607398
2900.0 78.85991893440348
3000.0 78.4547632804771
3070.0 78.91820356811775
3150.0 79.75635265236987
3250.0 79.61993853669904
3350.0 79.00919559804532
3450.0 78.7855415797215
3550.0 78.48484283687624
3650.0 78.32253593815877
3750.0 78.59793168637385
3870.0 78.67239694124305
4000.0 78.5001383861077
4120.0 78.84691297418519
4250.0 78.764375827551
4370.0 78.94200731565103
4500.0 79.77414227855074
4620.0 79.76396164151282
4750.0 79.404529292884
4870.0 78.91391373764543
5000.0 77.9821533972549
5150.0 77.17184255666436
5300.0 77.59187399112963
5450.0 79.05898135985932
5600.0 79.58789175195838
5800.0 79.10260584886485
6000.0 78.67737095191185
6150.0 78.40270228630243
6300.0 77.52878830982203
6500.0 77.69711815018822
6700.0 79.53807166433957
6900.0 79.79353975891007
7100.0 78.77764068351713
7300.0 78.11868438564281
7500.0 77.5990036243299
7750.0 78.51731205678884
8000.0 80.46605040836714
8250.0 81.13255463925653
8500.0 80.32985063514471
8750.0 78.13631145466715
9000.0 77.02340769612826
9250.0 79.58074034978782
9500.0 80.77156852821555
9750.0 79.2648875090651
10000.0 78.01698023436296
10300.0 79.73036032133777
10600.0 80.79493788369876
10900.0 80.28849657605168
11200.0 79.26064323408396
11500.0 80.61128799058868
11800.0 81.59190896955492
12200.0 80.53267329200224
12500.0 80.60695608947589
12800.0 81.35045671101817
13200.0 82.13795542367289
13600.0 82.05798768942974
14000.0 81.76023861442086
14500.0 80.99126453187691
15000.0 78.51878596671011
15500.0 76.6826397272608
16000.0 77.12428890322839
16500.0 75.56797345465223
17000.0 72.13285097845164
17500.0 74.37869801494946
18000.0 72.99838961010059
18500.0 62.70788037399029
19000.0 47.909233771984276
19500.0 39.92592082410167
