Freq,On Axis,Listening Window,Sound Power,Early Reflections,Early Reflections DI,Sound Power DI,DI offset
20.0,23.175194057509657,23.13475564641368,22.724394248767766,22.89367602811751,40.24107961829617,40.410361397645914,40
20.2909,26.970653570630958,26.930304343754557,26.5204820696855,26.689642262565997,40.24066208118856,40.40982227406906,40
20.586,29.711140190050713,29.670627246617443,29.26174724571689,29.43062844662282,40.23999879999462,40.40888000090055,40
20.8855,31.88462686699404,31.84440169783295,31.436333586151306,31.604963440310456,40.239438257522494,40.408068111681644,40
21.1893,33.66011360146129,33.61984909745274,33.21199548936849,33.38046974718418,40.239379350268564,40.40785360808425,40
21.4975,35.217087242969,35.1760658183853,34.769293781835785,34.93752963908116,40.238536179304134,40.40677203654951,40
21.8102,36.61106111457664,36.57016914418375,36.16423018663389,36.332083805012246,40.238085339171505,40.405938957549864,40
22.1274,37.877061114576634,37.83605884933962,37.43090404355809,37.59860998681674,40.23744886252288,40.405154805781535,40
22.4492,39.04003521628695,38.999164548151384,38.59479352445422,38.76224129417071,40.23692325398068,40.404371023697166,40
22.7758,40.119009548102724,40.07804590636118,39.67425051041775,39.84157823855219,40.236467667808995,40.40379539594343,40
23.1071,41.127496800301,41.086158087979385,40.68360610599146,40.85061556061521,40.235542527364174,40.402551981987926,40
23.4432,42.07647147728002,42.03492743926748,41.63312084538549,41.79995801171964,40.23496942754784,40.401806593881986,40
23.7841,42.971446384371205,42.92959216342777,42.528801620419756,42.69529548288031,40.23429668054746,40.400790543008014,40
24.1301,43.821421521577264,43.77947398977392,43.37942999324551,43.54575352575557,40.23372046401835,40.40004399652841,40
24.4811,44.632909176474186,44.59091762839694,44.19142228665572,44.35742527412688,40.233492354270055,40.399495341741215,40
24.8372,45.407884658857455,45.365578398464976,44.96729854110512,45.13298096935259,40.23259742911239,40.39827985735985,40
25.1984,46.15034831391077,46.108459946827566,45.711107148846054,45.87643217415339,40.23202777267417,40.39735279798151,40
25.5649,46.86232437160231,46.81967965844524,46.42321101370075,46.588332778522215,40.231346879923024,40.39646864474449,40
25.9368,47.544812486745855,47.502454884497126,47.107051155725856,47.27184228170992,40.230612602787204,40.39540372877127,40
26.3141,48.19778888963006,48.155120288267426,47.76051074521271,47.925116620837,40.230003667430424,40.39460954305471,40
26.6968,48.82376552264577,48.780559204572626,48.38724541439072,48.55147581475575,40.22908338981688,40.39331379018191,40
27.0851,49.421230903671386,49.37810999245673,48.98569555340819,49.14965393172227,40.22845606073446,40.39241443904854,40
27.4791,49.99071947908169,49.94733032775176,49.556038192045406,49.71974291084635,40.22758741690541,40.39129213570635,40
27.8788,50.529185550522214,50.48587623410566,50.09537509719567,50.258756907209886,40.227119326895775,40.39050113690999,40
28.2843,51.039163219160145,50.995982157221704,50.606535339514494,50.76959733441359,40.226384822808114,40.38944681770721,40
28.6957,51.51714111794294,51.4737625785537,51.08553980653886,51.24828483006522,40.22547774848849,40.38822277201484,40
29.1131,51.96411924687297,51.91987048805623,51.53277556374579,51.69515880354314,40.224711684513096,40.387094924310446,40
29.5365,52.37609760595251,52.33175427561349,51.945779947956254,52.107833103638825,40.223921171974666,40.38597432765724,40
29.9661,52.75207619518386,52.70763823742254,52.32280636496466,52.48460311680907,40.223035120613474,40.38483187245788,40
30.402,53.08803406411104,53.043630374107494,52.659812057861814,52.821200579547735,40.22242979455976,40.38381831624568,40
30.8442,53.37901334381132,53.33429701481026,52.95172306102259,53.11289948608524,40.22139752872502,40.38257395378767,40
31.2929,53.62548269491387,53.58051359959046,53.199123604476966,53.35989595509804,40.22061764449242,40.381389995113494,40
31.748,53.824462550020115,53.77984232456771,53.39943018555448,53.55990101803735,40.21994130653036,40.38041213901323,40
32.2098,53.975932764241605,53.930505823019274,53.551392640118735,53.71166792838912,40.218837894630155,40.37911318290054,40
32.6783,54.06940349634402,54.024058501969705,53.645974965502916,53.80583067516977,40.21822782679993,40.37808353646679,40
33.1536,54.1153842721273,54.06983457499746,53.693086173489235,53.85256854908795,40.21726602590951,40.37674840150822,40
33.6359,54.119346514219274,54.07338420500946,53.6980688166351,53.857260082015586,40.216124122993875,40.37531538837436,40
34.1251,54.091327980531844,54.04505174189356,53.67089401940933,53.82968531719223,40.21536642470133,40.37415772248423,40
34.6215,54.06280061158964,54.01604661992289,53.64326981121846,53.801847399346656,40.21419922057623,40.37277680870443,40
35.125,54.07278265335688,54.02615595872328,53.65427970485072,53.81242816127764,40.21372779744564,40.37187625387256,40
35.6359,54.20274742744877,54.1563775913522,53.78577101450236,53.94352798084324,40.212849610508954,40.37060657684984,40
36.1543,54.51671312229641,54.46970508844581,54.10076345384033,54.25824104789979,40.21146404054602,40.36894163460548,40
36.6802,55.08369631500818,55.03648298616062,54.668317212782284,54.82562122144816,40.21086176471246,40.36816577337834,40
37.2137,55.937663391016514,55.89037014160846,55.523699205291194,55.68064243110038,40.209727710508076,40.36667093631726,40
37.755,57.01963138781619,56.97225734379754,56.60652632103813,56.76329962240453,40.208957721393006,40.365731022759405,40
38.3041,58.28010798969342,58.23247174237861,57.86810252088708,58.02440503534501,40.208066707033595,40.36436922149153,40
38.8613,59.61809267869927,59.570140603598645,59.207182442691305,59.36320487892897,40.20693572466968,40.36295816090734,40
39.4265,60.97706274732849,60.929583273640134,60.56779664708918,60.723462393695,40.20612087994513,40.36178662655095,40
40.0,62.30954090309703,62.2612497354819,61.90020626209224,62.05565566533619,40.20559407014571,40.36104347338966,40
40.5818,63.586512583193866,63.53791553687506,63.1785998397186,63.33374885085999,40.20416668601507,40.35931569715646,40
41.1721,64.789485184146,64.74058169237284,64.38241721952943,64.53721850766462,40.20336318470822,40.35816447284341,40
41.771,65.91645870596506,65.86747096209166,65.5104340128506,65.66506451635288,40.202406445738774,40.35703694924106,40
42.3785,66.95393945165499,66.90513776784135,66.54920597495534,66.7035548591434,40.20158290869796,40.35593179288601,40
42.9949,67.90591458501788,67.85657696693411,67.50179614264938,67.65604832646035,40.20052864047376,40.35478082428473,40
43.6203,68.77389063927765,68.72479960607927,68.37088939451712,68.52495476796811,40.19984483811116,40.35391021156215,40
44.2548,69.5518676144444,69.50269054254493,69.15014871974066,69.30388974052195,40.19880080202297,40.35254182280427,40
44.8985,70.2433509501706,70.19402209667126,69.84217868139365,69.9957437438687,40.19827835280256,40.351843415277614,40
45.5515,70.85132953694787,70.80213520719168,70.45123277916088,70.60469156256988,40.1974436446218,40.35090242803081,40
46.2141,71.37830904465807,71.32891871119482,70.97903808941166,71.13227217178816,40.19664653940666,40.34988062178316,40
46.8863,71.82879427980819,71.77902863097674,71.42981271908768,71.58296654096037,40.19606209001637,40.34921591188906,40
47.5683,72.20477539917167,72.1550290054271,71.80679150809782,71.9598433696444,40.19518563578269,40.34823749732928,40
48.2602,72.52275743949102,72.47292113163836,72.12551317283085,72.278441088918,40.19448004272036,40.34740795880751,40
48.9621,72.80123628499598,72.75114174727435,72.40467688106945,72.55761788586881,40.19352386140554,40.3464648662049,40
49.6743,73.06522039749332,73.01547578244445,72.66959704770184,72.82243758272148,40.19303819972298,40.34587873474261,40
50.3968,73.35020543096987,73.30014668324853,72.95487587899666,73.10768898426471,40.192457698983816,40.34527080425187,40
51.1299,73.69619138543197,73.64570375842632,73.30145368896368,73.4542250888575,40.19147866956882,40.344250069462646,40
51.8736,74.14117826088555,74.09026058918317,73.74616023326503,73.89914685794069,40.19111373124248,40.344100355918144,40
52.6281,74.70966315035533,74.65904137419537,74.31557428501662,74.46860823340197,40.1904331407934,40.343467089178745,40
53.3936,75.40565209805959,75.35493372754405,75.01159514695573,75.16474953212678,40.190184195417274,40.34333858058832,40
54.1702,76.20614441324915,76.15571352949891,75.81257435490386,75.96591218110407,40.18980134839484,40.34313917459505,40
54.9581,77.07513497272055,77.02449357377965,76.68161162924284,76.83512121685347,40.189372356926185,40.34288194453681,40
55.7575,77.96362446723819,77.91316099908889,77.57030736818226,77.72397711748461,40.18918388160428,40.34285363090663,40
56.5685,78.83261709899935,78.78282878220381,78.43992404227566,78.59398482699198,40.18884395521182,40.342904739928144,40
57.3914,79.65161065178353,79.60105764747388,79.25809891646254,79.4124219482598,40.188635699214075,40.342958731011336,40
58.2261,80.39760512559347,80.34739075129394,80.0043535484386,80.15903329492369,40.188357456370255,40.34303720285534,40
59.073,81.0510995130519,81.0003927309102,80.65701876372808,80.8122440594374,40.1881486714728,40.34337396718213,40
59.9323,81.60759683629959,81.55706058579355,81.21320316861639,81.36869503857804,40.18836554721551,40.34385741717716,40
60.804,82.0665940731993,82.01617790088889,81.67158415432249,81.82765623614912,40.18852166473977,40.3445937465664,40
61.6884,82.42259223113179,82.37295434403352,82.02768348503965,82.18436692648535,40.18858741754816,40.34527085899387,40
62.5857,82.6935913100978,82.64384348978211,82.29778048368067,82.45507429732896,40.18876919245315,40.346063006101446,40
63.496,82.88959131009781,82.84029028385811,82.49278372067869,82.65086344460079,40.18942683925732,40.34750656317942,40
64.4196,83.03809191452636,82.98829216333964,82.63987879417597,82.79862212170548,40.18967004163416,40.348413369163666,40
65.3566,83.1705940731993,83.12162954786362,82.7718240503884,82.93137757138459,40.19025197647903,40.34980549747522,40
66.3073,83.32709605917776,83.27818126476542,82.9268955087884,83.08741565282828,40.19076561193714,40.35128575597702,40
67.2717,83.54209951305188,83.49307136173543,83.14013272640491,83.30161134815751,40.191460013577924,40.35293863533052,40
68.2502,83.83660270788384,83.7880683103232,83.43325151515401,83.5956750638386,40.1923932464846,40.354816795169185,40
69.2429,84.20860777356012,84.16007356996792,83.80357160821065,83.96700789593697,40.19306567403095,40.356501961757274,40
70.2501,84.63911217724143,84.59084951712691,84.23197245002393,84.39664499203505,40.19420452509186,40.35887706710298,40
71.2719,85.08961709899934,85.04140199874217,84.68029791733558,84.84623184749023,40.19517015125194,40.361104081406594,40
72.3086,85.52362446723818,85.47595761438002,85.11240227489239,85.27961656803127,40.19634104634875,40.36355533948763,40
73.3603,85.91113059783679,85.86373386489956,85.49741882209511,85.66598988364106,40.1977439812585,40.366315042804445,40
74.4274,86.23313497272053,86.1860650119323,85.81674559019649,85.98663980211248,40.19942520981982,40.36931942173581,40
75.5099,86.48564196677201,86.43906293659924,86.06678125391866,86.23820791430575,40.200855022293496,40.37228168268058,40
76.6083,86.67664691728947,86.63017130638231,86.254691111181,86.42781692158438,40.20235438479793,40.375480195201305,40
77.7226,86.82815477478917,86.78205455275469,86.40273114284918,86.57765726367658,40.2043972890781,40.37932340990551,40
78.8531,86.96816030093711,86.92260795299529,86.53932459782433,86.7161308989486,40.20647705404669,40.38328335517096,40
80.0,87.12616605733626,87.08060302676536,86.69354450481599,86.87213800582165,40.208465020943706,40.38705852194937,40
81.1636,87.31667512365453,87.2711565862265,86.88018445314243,87.06084707372767,40.210309512498824,40.39097213308406,40
82.3442,87.5386814556789,87.49436863793045,87.09858678890899,87.28125887719942,40.21310976073103,40.39578184902146,40
83.5419,87.77268801795218,87.7284775848888,87.32772147621378,87.5127333521946,40.21574423269419,40.40075610867501,40
84.757,87.98319138543195,87.93880607557264,87.5335626309486,87.72072164336257,40.21808443221008,40.40524344462405,40
85.9899,88.13719829307732,88.09379570055748,87.68328885862452,87.87274357630098,40.2210521242565,40.41050684193296,40
87.2406,88.20770183324277,88.16479115211231,87.74895447893539,87.94096308243007,40.22382806968224,40.415836673176926,40
88.5096,88.18420543096985,88.14122580444392,87.71952636457469,87.91392213035104,40.22730367409288,40.42169943986923,40
89.797,88.06970908625858,88.02722138057422,87.59983053760249,87.79713728649233,40.23008409408189,40.42739084297173,40
91.1031,87.88770908625858,87.84543436875677,87.41173154966432,87.6117263344105,40.233708034346265,40.433702819092446,40
92.4282,87.67521279910879,87.63320754991689,87.19373832552728,87.39646015470213,40.23674739521476,40.43946922438961,40
93.7726,87.4732127991088,87.43119887061987,86.98506471339758,87.19065817066635,40.24054069995351,40.44613415722229,40
95.1366,87.31221279910878,87.27085738546961,86.8176124373469,87.0262434437303,40.24461394173932,40.453244948122716,40
96.5204,87.19721279910878,87.15618675982803,86.69602678063822,86.90782704862302,40.24835971120501,40.46015997918981,40
97.9243,87.11321279910878,87.07240130981761,86.60458900092132,86.8197086545546,40.252692655263004,40.467812308896285,40
99.3486,87.03170908625859,86.9911717318898,86.51631093217838,86.73466961738775,40.256502114502055,40.47486079971142,40
100.794,86.93520543096987,86.89483494954695,86.41231282203138,86.63402291581194,40.26081203373501,40.482522127515566,40
102.26,86.82270183324276,86.78249053738334,86.29161103729906,86.51684765917635,40.26564287820699,40.490879500084276,40
103.747,86.71519829307734,86.67471051560292,86.17586097488436,86.40483613903838,40.269874376564545,40.49884954071857,40
105.256,86.64119138543197,86.60081527832105,86.09340558616124,86.32603856040191,40.27477671791914,40.50740969215981,40
106.787,86.6186880179522,86.57814200304556,86.0616931875474,86.29832318909794,40.279818813947614,40.51644881549815,40
108.34,86.6466814556789,86.60636232204794,86.08157002712682,86.32184360440014,40.2845187176478,40.52479229492113,40
109.916,86.70467512365454,86.66413953838767,86.13008899676082,86.37440033195132,40.28973920643635,40.534050541626854,40
111.515,86.7636690218798,86.72257972775623,86.17931933991379,86.4278123689521,40.29476735880412,40.54326038784244,40
113.137,86.80216030093712,86.76069025251832,86.20797170821945,86.46054829303212,40.3001419594862,40.55271854429887,40
114.783,86.81215477478916,86.77068952360816,86.2085926464244,86.46535131066193,40.305338212946225,40.56209687718375,40
116.452,86.80614441324914,86.764243768647,86.192098464332,86.45323241816729,40.31101135047972,40.572145304315,40
118.146,86.79963724650764,86.75680452086388,86.17486413377235,86.44023055106516,40.316573969798725,40.581940387091535,40
119.865,86.82013059783678,86.77691646442767,86.18457338734788,86.45453155122226,40.32238491320541,40.59234307707979,40
121.608,86.88412253883273,86.84103046974059,86.2385859243315,86.51304643993846,40.327984029802124,40.602444545409085,40
123.377,86.99561709899936,86.95159216993036,86.3388268777819,86.6179002480325,40.33369192189787,40.61276529214847,40
125.171,87.13410918388975,87.08904629130382,86.46612725449629,86.74966566589966,40.33938062540416,40.62291903680753,40
126.992,87.26660512559347,87.22105369188424,86.58670170858571,86.87524170471669,40.34581198716755,40.63435198329853,40
128.839,87.36609951305189,87.31917868754329,86.67457712724428,86.96756743231361,40.35161125522967,40.64460156029901,40
130.713,87.42809605917776,87.38007682506917,86.72516306485247,87.02278510572727,40.3572917193419,40.6549137602167,40
132.615,87.47859303703636,87.42942567544557,86.76364764370375,87.06610239288723,40.36332328255834,40.66577803174182,40
134.543,87.55309145400938,87.50255289861599,86.82538627913817,87.13282410112257,40.36972879749342,40.677166619477816,40
136.5,87.6615913100978,87.60979509577432,86.92143401061759,87.23401638950338,40.375778706270935,40.68836108515673,40
138.486,87.77159223113176,87.71858741805353,87.02027145666344,87.33722608273878,40.38136133531475,40.698315961390094,40
140.5,87.8675953396204,87.8128369149704,87.10378262795575,87.42560819133215,40.38722872363826,40.70905428701465,40
142.544,87.9240995130519,87.86808147091286,87.14714951778056,87.4742717947343,40.39380967617855,40.72093195313229,40
144.617,87.95010642079468,87.89188214127148,87.16028935610332,87.49215070276313,40.399731438508354,40.73159278516816,40
146.721,87.99011217724141,87.93068467278376,87.1888061980971,87.52534294573331,40.40534172705044,40.74187847468666,40
148.855,88.08412253883274,88.02238676551127,87.26942235142978,87.61096094851338,40.41142581699789,40.75296441408149,40
151.02,88.22363275649691,88.15953322976567,87.39581011698631,87.74226668783564,40.41726654193003,40.76372311277936,40
153.217,88.3656469172895,88.29978594023677,87.52545149797305,87.87677327878535,40.42301266145142,40.77433444226372,40
155.445,88.4641603009371,88.39604105200748,87.61152616153862,87.96740276691322,40.42863828509425,40.784514890468856,40
157.706,88.50217826088556,88.43230378028622,87.637514063402,87.99807961521466,40.434224165071555,40.794789716884225,40
160.0,88.4996948104737,88.42701198360174,87.62189583488143,87.98727675383358,40.43973522976816,40.805116148720316,40
162.327,88.50771656952041,88.43272153237862,87.61735451628005,87.98741074462339,40.44531078775523,40.81536701609858,40
164.688,88.55423628499597,88.47721049005885,87.65276798647825,88.02705921103771,40.45015127902114,40.8244425035806,40
167.084,88.62525309347113,88.54591872148913,87.71200569969815,88.09075925692011,40.45515946456902,40.83391302179098,40
169.514,88.67628003299149,88.59430159349264,87.7506339581976,88.13395671673032,40.46034487676232,40.84366763529505,40
171.98,88.71030904465806,88.62580082465246,87.77243854793298,88.1603027721856,40.465498052466856,40.85336227671948,40
174.481,88.79432953694787,88.7077333262144,87.84588964887857,88.23775604928238,40.46997727693201,40.86184367733583,40
177.019,88.96785644737099,88.87878476982051,88.00888796583166,88.40449887349676,40.47428589632375,40.86989680398885,40
179.594,89.17287901174703,89.08105668769387,88.20261709737514,88.60237612219345,40.478680565500426,40.878439590318735,40
182.206,89.27540851224835,89.18088973578774,88.29393659963401,88.69775842870445,40.4831313070833,40.886953136153735,40
184.856,89.23543314866221,89.13883596589369,88.24374226759187,88.65141279123307,40.48742317466062,40.89509369830182,40
187.545,89.16045870596503,89.06121337218089,88.15876364249034,88.56994364938146,40.49126972279943,40.902449729690545,40
190.273,89.12948518414598,89.02760695719037,88.11797752515334,88.53268259742164,40.49492435976873,40.909629432037036,40
193.041,89.14251258319385,89.03854676284857,88.12220026103958,88.54019066986012,40.498356092988445,40.91634650180899,40
195.849,89.1820337367917,89.07637203790054,88.15291468239104,88.57429826878513,40.50207376911541,40.9234573555095,40
198.697,89.26155540836561,89.15331364357971,88.22310231291064,88.64764358339406,40.50567006018565,40.93021133066907,40
201.587,89.3250775979104,89.21447295405031,88.2784781252204,88.70611070437789,40.508362249672416,40.935994828829905,40
204.52,89.28609267869925,89.17340740702,88.23147406702077,88.66202332924004,40.51138407777995,40.941933339999224,40
207.494,89.1816003054208,89.06722667028838,88.119796741306,88.55305270955485,40.51417396073353,40.94742992898237,40
210.512,89.14712353089136,89.03115911038036,88.07815707878791,88.51423044915697,40.51692866122339,40.95300203159245,40
213.574,89.18863138781619,89.07152523993089,88.11318962358561,88.55186286197166,40.519662377959236,40.95833561634528,40
216.681,89.19313930229134,89.07434594527044,88.1114003343388,88.55245561617562,40.521890329094816,40.96294561093164,40
219.833,89.16764727431658,89.04682693555857,88.07905096289078,88.52262305944235,40.52420387611622,40.967775972667795,40
