Freq "Early Reflections DI"
20.0 40.24107961829617
20.2909 40.24066208118856
20.586 40.23999879999462
20.8855 40.239438257522494
21.1893 40.239379350268564
21.4975 40.238536179304134
21.8102 40.238085339171505
22.1274 40.23744886252288
22.4492 40.23692325398068
22.7758 40.236467667808995
23.1071 40.235542527364174
23.4432 40.23496942754784
23.7841 40.23429668054746
24.1301 40.23372046401835
24.4811 40.233492354270055
24.8372 40.23259742911239
25.1984 40.23202777267417
25.5649 40.231346879923024
25.9368 40.230612602787204
26.3141 40.230003667430424
26.6968 40.22908338981688
27.0851 40.22845606073446
27.4791 40.22758741690541
27.8788 40.227119326895775
28.2843 40.226384822808114
28.6957 40.22547774848849
29.1131 40.224711684513096
29.5365 40.223921171974666
29.9661 40.223035120613474
30.402 40.22242979455976
30.8442 40.22139752872502
31.2929 40.22061764449242
31.748 40.21994130653036
32.2098 40.218837894630155
32.6783 40.21822782679993
33.1536 40.21726602590951
33.6359 40.216124122993875
34.1251 40.21536642470133
34.6215 40.21419922057623
35.125 40.21372779744564
35.6359 40.212849610508954
36.1543 40.21146404054602
36.6802 40.21086176471246
37.2137 40.209727710508076
37.755 40.208957721393006
38.3041 40.208066707033595
38.8613 40.20693572466968
39.4265 40.20612087994513
40.0 40.20559407014571
40.5818 40.20416668601507
41.1721 40.20336318470822
41.771 40.202406445738774
42.3785 40.20158290869796
42.9949 40.20052864047376
43.6203 40.19984483811116
44.2548 40.19880080202297
44.8985 40.19827835280256
45.5515 40.1974436446218
46.2141 40.19664653940666
46.8863 40.19606209001637
47.5683 40.19518563578269
48.2602 40.19448004272036
48.9621 40.19352386140554
49.6743 40.19303819972298
50.3968 40.192457698983816
51.1299 40.19147866956882
51.8736 40.19111373124248
52.6281 40.1904331407934
53.3936 40.190184195417274
54.1702 40.18980134839484
54.9581 40.189372356926185
55.7575 40.18918388160428
56.5685 40.18884395521182
57.3914 40.188635699214075
58.2261 40.188357456370255
59.073 40.1881486714728
59.9323 40.18836554721551
60.804 40.18852166473977
61.6884 40.18858741754816
62.5857 40.18876919245315
63.496 40.18942683925732
64.4196 40.18967004163416
65.3566 40.19025197647903
66.3073 40.19076561193714
67.2717 40.191460013577924
68.2502 40.1923932464846
69.2429 40.19306567403095
70.2501 40.19420452509186
71.2719 40.19517015125194
72.3086 40.19634104634875
73.3603 40.1977439812585
74.4274 40.19942520981982
75.5099 40.200855022293496
76.6083 40.20235438479793
77.7226 40.2043972890781
78.8531 40.20647705404669
80.0 40.208465020943706
81.1636 40.210309512498824
82.3442 40.21310976073103
83.5419 40.21574423269419
84.757 40.21808443221008
85.9899 40.2210521242565
87.2406 40.22382806968224
88.5096 40.22730367409288
89.797 40.23008409408189
91.1031 40.233708034346265
92.4282 40.23674739521476
93.7726 40.24054069995351
95.1366 40.24461394173932
96.5204 40.24835971120501
97.9243 40.252692655263004
99.3486 40.256502114502055
100.794 40.26081203373501
102.26 40.26564287820699
103.747 40.269874376564545
105.256 40.27477671791914
106.787 40.279818813947614
108.34 40.2845187176478
109.916 40.28973920643635
111.515 40.29476735880412
113.137 40.3001419594862
114.783 40.305338212946225
116.452 40.31101135047972
118.146 40.316573969798725
119.865 40.32238491320541
121.608 40.327984029802124
123.377 40.33369192189787
125.171 40.33938062540416
126.992 40.34581198716755
128.839 40.35161125522967
130.713 40.3572917193419
132.615 40.36332328255834
134.543 40.36972879749342
136.5 40.375778706270935
138.486 40.38136133531475
140.5 40.38722872363826
142.544 40.39380967617855
144.617 40.399731438508354
146.721 40.40534172705044
148.855 40.41142581699789
151.02 40.41726654193003
153.217 40.42301266145142
155.445 40.42863828509425
157.706 40.434224165071555
160.0 40.43973522976816
162.327 40.44531078775523
164.688 40.45015127902114
167.084 40.45515946456902
169.514 40.46034487676232
171.98 40.465498052466856
174.481 40.46997727693201
177.019 40.47428589632375
179.594 40.478680565500426
182.206 40.4831313070833
184.856 40.48742317466062
187.545 40.49126972279943
190.273 40.49492435976873
193.041 40.498356092988445
195.849 40.50207376911541
198.697 40.50567006018565
201.587 40.508362249672416
204.52 40.51138407777995
207.494 40.51417396073353
210.512 40.51692866122339
213.574 40.519662377959236
216.681 40.521890329094816
219.833 40.52420387611622
223.03 40.5268269103526
226.274 40.5288405725169
229.565 40.53134675600438
232.905 40.53342979030566
236.292 40.53552122519001
239.729 40.53780751518434
243.216 40.53996843073094
246.754 40.54241016543436
250.343 40.544822586856526
253.984 40.547198498694314
257.678 40.550014058394495
261.426 40.55248607555065
265.229 40.55515295326494
269.087 40.55833625649338
273.001 40.56133331032525
276.972 40.564511730977074
281.0 40.56812653831548
285.088 40.572107581293125
289.234 40.57617778921092
293.441 40.580238950225734
297.709 40.58458311433873
302.04 40.58935379541745
306.433 40.59445007770255
310.89 40.60006327284596
315.412 40.605481748272354
320.0 40.611606168513774
324.655 40.61781962497052
329.377 40.6243057107619
334.168 40.63146201316751
339.028 40.63924056504894
343.959 40.64711518278557
348.962 40.65551279779602
354.038 40.664365171690335
359.188 40.674156173606264
364.412 40.68475277568463
369.713 40.69590725185468
375.09 40.70784080857584
380.546 40.72111575552796
386.081 40.73556996571507
391.697 40.75139668655956
397.394 40.768867960132056
403.175 40.78779478833653
409.039 40.80819038327003
414.989 40.83180861000356
421.025 40.856762144499896
427.149 40.88405781453217
433.362 40.91325618644355
439.665 40.9463467674674
446.06 40.98110565498581
452.548 41.017363392270255
459.131 41.05592700370184
465.809 41.09620293336333
472.584 41.136421663073094
479.458 41.17604790292532
486.432 41.215590989178665
493.507 41.253807035444694
500.686 41.29048705851467
507.968 41.32441075975649
515.357 41.35573220072952
522.853 41.384396721923295
530.458 41.41121631241349
538.174 41.43571020156301
546.002 41.45828232148395
553.943 41.47959959757456
562.001 41.50027357826016
570.175 41.520315762896374
578.469 41.540600231333585
586.883 41.56031011665313
595.419 41.58067515824271
604.08 41.601654198839114
612.866 41.62354257556251
621.78 41.64698960629552
630.824 41.67182555846372
640.0 41.6973542973102
649.309 41.72377157084992
658.753 41.751322519708395
668.335 41.78033165385
678.056 41.809400588573496
687.919 41.83828068107242
697.925 41.866326435912995
708.077 41.89214148528792
718.376 41.91631945158635
728.825 41.937786545467574
739.426 41.9562015918699
750.181 41.97154218069301
761.093 41.98349508775799
772.163 41.99242521423126
783.394 41.99814877455002
794.789 42.001425482591145
806.349 42.001548584359
818.078 41.99959058775423
829.977 41.99563274872003
842.05 41.990950939507044
854.298 41.9864885933372
866.724 41.98400588448253
879.33 41.985439158321554
892.12 41.99380015064226
905.097 42.01027546794242
918.262 42.03637972557647
931.618 42.07248607878503
945.169 42.11843938504286
958.917 42.172978045183186
972.864 42.23377469754617
987.015 42.29939873954956
1001.37 42.36858852671456
1015.94 42.43832208854428
1030.71 42.505781772435924
1045.71 42.57048794086842
1060.92 42.63012380458444
1076.35 42.680712151608674
1092.0 42.72116177569046
1107.89 42.75060365991902
1124.0 42.7698086112469
1140.35 42.783330764047975
1156.94 42.79674776518186
1173.77 42.81542963536923
1190.84 42.842544702836875
1208.16 42.87784401673858
1225.73 42.921143144553355
1243.56 42.97070536506308
1261.65 43.02629968677827
1280.0 43.08855424599004
1298.62 43.16092993627434
1317.51 43.246442510578376
1336.67 43.34851551178359
1356.11 43.466896351085836
1375.84 43.598471186343616
1395.85 43.73311698292582
1416.15 43.85546822603942
1436.75 43.95085351916896
1457.65 44.00983217166413
1478.85 44.030917223421326
1500.36 44.01936209065646
1522.19 43.987057968897375
1544.33 43.947967806925476
1566.79 43.917022432596156
1589.58 43.90538805919914
1612.7 43.91882994824013
1636.16 43.95718193016499
1659.95 44.0152703855709
1684.1 44.08615515809193
1708.6 44.16267613066722
1733.45 44.23847145892708
1758.66 44.31092024245834
1784.24 44.377245221807655
1810.19 44.43974983911741
1836.52 44.5077285068584
1863.24 44.59085704105607
1890.34 44.69813016670116
1917.83 44.83053235463316
1945.73 44.97561168106172
1974.03 45.10481547510794
2002.74 45.17293020152327
2031.87 45.14474028850904
2061.43 45.02356819310873
2091.41 44.861014459396515
2121.83 44.72582155423706
2152.69 44.66299252328051
2184.01 44.674347210452765
2215.77 44.72892842428709
2248.0 44.78300708327953
2280.7 44.80995700002502
2313.87 44.80902848446139
2347.53 44.79235579305215
2381.68 44.764462928428514
2416.32 44.7191977087127
2451.46 44.656710593525986
2487.12 44.60403077506942
2523.3 44.6023231005679
2560.0 44.661101727363956
2597.24 44.738344770382085
2635.01 44.77634553873936
2673.34 44.74761282865039
2712.23 44.676323821322526
2751.68 44.61303660309639
2791.7 44.59205717115725
2832.31 44.60550709558511
2873.5 44.62253479182202
2915.3 44.63344873160429
2957.7 44.6412361155124
3000.72 44.631669999511274
3044.37 44.58390305691074
3088.65 44.494356633260395
3133.58 44.384991389852544
3179.16 44.30917235874833
3225.4 44.320753104030786
3272.31 44.387779251917266
3319.91 44.42610859400871
3368.2 44.38676802437756
3417.19 44.28136789396723
3466.89 44.174506589555904
3517.32 44.11254625703323
3568.48 44.068127970210355
3620.39 43.99722272072893
3673.05 43.9336666598216
3726.47 43.9424010241714
3780.67 43.97211342074621
3835.67 43.91685932745132
3891.46 43.760783942464855
3948.06 43.59422279504625
4005.49 43.51554530343961
4063.75 43.52682682666318
4122.86 43.57441089717541
4182.82 43.60870414410094
4243.66 43.58945321074924
4305.39 43.511829152505115
4368.01 43.438181068011374
4431.55 43.429061390018944
4496.01 43.47895041063083
4561.4 43.50383993469171
4627.75 43.44260678312182
4695.06 43.37478798429075
4763.35 43.362919498288264
4832.64 43.323355699407784
4902.93 43.16775979429873
4974.24 43.0530596347905
5046.6 43.14139833965122
5120.0 43.33651931104059
5194.47 43.54536485762921
5270.03 43.668610621287655
5346.68 43.581273758734284
5424.45 43.486312978547076
5503.35 43.56663493806805
5583.4 43.68891812703133
5664.61 43.710727837176506
5747.01 43.568371954478465
5830.6 43.351625656533486
5915.41 43.41592856079623
6001.45 43.66788635516728
6088.74 43.63222241778037
6177.3 43.393671800225576
6267.15 43.36544901425643
6358.31 43.670622294339225
6450.8 43.73025757093258
6544.62 43.506899250210395
6639.82 43.490295478078195
6736.4 43.65204287753234
6834.38 43.65644372868712
6933.79 43.65543088301604
7034.64 43.65866081288421
7136.96 43.60294397608932
7240.77 43.69737669672739
7346.09 43.72814816069187
7452.94 43.61515900557491
7561.35 43.6614044616356
7671.33 43.79286187725948
7782.91 43.872597883888176
7896.12 43.93207425729679
8010.97 44.009191094488244
8127.49 44.14877648618804
8245.71 44.144899238133775
8365.65 44.144008112971775
8487.33 44.26000949845955
8610.78 44.316176630282655
8736.03 44.3075582127133
8863.09 44.444932006233216
8992.01 44.52250782103917
9122.8 44.5883580968203
9255.5 44.6619661832612
9390.12 44.81368449228796
9526.7 44.855399191807436
9665.27 45.00558733847278
9805.86 45.106387677852666
9948.49 45.19833134904714
10093.2 45.3176557528801
10240.0 45.41417979296885
10388.9 45.454121848115506
10540.1 45.53099690836595
10693.4 45.53309092668076
10848.9 45.55554083033272
11006.7 45.582925215924035
11166.8 45.568226142654396
11329.2 45.63653181450108
11494.0 45.61987375662903
11661.2 45.61621820087353
11830.8 45.54379706971825
12002.9 45.39171922120474
12177.5 45.24909015250479
12354.6 45.018420579106035
12534.3 44.906777111516206
12716.6 44.6400225317127
12901.6 44.5823007340331
13089.2 44.268528193819364
13279.6 44.12422204555148
13472.8 43.98341895722402
13668.8 43.805012977135846
13867.6 43.75302846116952
14069.3 43.58704491041071
14273.9 43.501437480978424
14481.5 43.39846045362641
14692.2 43.41243790460484
14905.9 43.25064733327551
15122.7 43.18610480683063
15342.7 42.882748821572335
15565.8 42.6251084788108
15792.2 42.4124771626916
16021.9 42.089957560522166
16255.0 41.93520475904852
16491.4 41.65776076284352
16731.3 41.6177297627717
16974.7 41.67685699124982
17221.6 41.69855491021704
17472.1 41.34608140370247
17726.2 41.19450039205148
17984.0 41.1335961210809
18245.6 41.07738637479933
18511.0 41.144310823435646
18780.2 41.18816614721911
19053.4 41.19468032768371
19330.5 41.317247090502974
19611.7 41.43170652418449
19897.0 41.40656907628603
