Freq "Floor Bounce"
22.4 93.30348502215958
23.0 93.50348502215958
23.6 93.70348502215958
24.0 93.86912192483535
25.0 94.00348502215957
25.8 94.16912192483537
26.5 94.30348502215958
27.2 94.40348502215959
28.0 94.50348502215958
29.0 94.60348502215957
30.0 94.70348502215958
30.7 94.80348502215958
31.5 94.90348502215957
32.5 94.93680526843409
33.5 95.0034850221596
34.5 95.10348502215959
35.5 95.13680526843407
36.5 95.20348502215958
37.5 95.20348502215958
38.7 95.26912192483536
40.0 95.26912192483536
41.2 95.26912192483536
42.5 95.2360496434327
43.7 95.20348502215958
45.0 95.20348502215958
46.2 95.20348502215958
47.5 95.30348502215958
48.7 95.30348502215958
50.0 95.40348502215957
51.5 95.56912192483537
53.0 95.73680526843408
54.5 95.93680526843407
56.0 96.13680526843407
58.0 96.40270583906477
60.0 96.60270583906478
61.5 96.83680526843408
63.0 97.03680526843408
65.0 97.23680526843408
67.0 97.33680526843408
69.0 97.53680526843408
71.0 97.63680526843407
73.0 97.73680526843407
75.0 97.77142400142228
77.5 97.83680526843406
80.0 97.87142400142227
82.5 97.90348502215957
85.0 97.90348502215957
87.5 97.87142400142227
90.0 97.83680526843406
92.5 97.77142400142228
95.0 97.7049901870516
97.5 97.60499018705161
100.0 97.50499018705162
103.0 97.33986243824914
106.0 97.13986243824912
109.0 96.93986243824914
112.0 96.73986243824912
115.0 96.53986243824912
118.0 96.23986243824913
122.0 95.93986243824914
125.0 95.63986243824912
128.0 95.33986243824913
132.0 95.00499018705162
136.0 94.7049901870516
140.0 94.33680526843408
145.0 94.06912192483537
150.0 93.76912192483536
155.0 93.53680526843408
160.0 93.33680526843408
165.0 93.20348502215958
170.0 93.10656572926717
175.0 93.04223404260793
180.0 92.98463383121617
185.0 92.89237930063997
190.0 92.7730897315655
195.0 92.55723990192979
200.0 92.31227167899611
206.0 92.00305216398873
212.0 91.60612177323515
218.0 91.20446151015324
224.0 90.8058863661488
230.0 90.51032465595459
236.0 90.27035346200131
240.0 90.17960413759732
250.0 90.2279482864991
258.0 90.46108208376187
265.0 90.86108208376186
272.0 91.36108208376186
280.0 91.92794828649909
290.0 92.4984762025963
300.0 93.06562755004718
307.0 93.53729059342362
315.0 93.93729059342361
325.0 94.18500033368437
335.0 94.28500033368437
345.0 94.16562755004719
355.0 94.01412666517628
365.0 93.74460878180612
375.0 93.40845714130182
387.0 92.99242077471533
400.0 92.51108740462487
412.0 92.03235562321387
425.0 91.51064650680514
437.0 91.03781487830365
450.0 90.58044233845114
462.0 90.21156969386358
475.0 90.04493381355655
487.0 89.94493381355656
500.0 90.07422268881123
515.0 90.31530522327961
530.0 90.79833030964357
545.0 91.35233392740558
560.0 91.83432844898893
580.0 92.37663153694939
600.0 92.81080548857935
615.0 93.00571977431159
630.0 93.03507516724036
650.0 92.70888944215797
670.0 92.22126583056412
690.0 91.56926832052017
710.0 90.76884788876552
730.0 89.90228100515219
750.0 89.08293469350988
775.0 88.30835370996718
800.0 87.7083537099672
825.0 87.22701296297149
850.0 86.99265179629495
875.0 86.86200830568089
900.0 86.96216307040802
925.0 87.1206962546305
950.0 87.48492897884297
975.0 87.88277788403704
1000.0 88.40236561441272
1030.0 88.93074920074412
1060.0 89.49768486459334
1090.0 90.07246359676574
1120.0 90.57981381138296
1150.0 91.04285801386659
1180.0 91.37512982885096
1220.0 91.60790695799723
1250.0 91.6595763348046
1280.0 91.44445737621473
1320.0 91.16645633695813
1360.0 90.69083093003542
1400.0 90.21750982933473
1450.0 89.7131762457191
1500.0 89.30039936497795
1550.0 88.93468206843355
1600.0 88.76080357673992
1650.0 88.76826302656866
1700.0 88.88092333332962
1750.0 89.23136996308783
1800.0 89.7226196371762
1850.0 90.34580043857596
1900.0 91.14580043857599
1950.0 91.98649347187133
2000.0 92.96299307979203
2060.0 94.0129145609425
2120.0 95.14104800485356
2180.0 96.26080357673992
2240.0 97.29201259043037
2300.0 98.21391468932006
2360.0 99.02520660419117
2400.0 99.64566469781876
2500.0 100.0239225349567
2580.0 100.12558627616494
2650.0 99.92089861047546
2720.0 99.60412671614853
2800.0 99.13739870552652
2900.0 98.62843326014853
3000.0 97.98075504705811
3070.0 97.39872395614306
3150.0 96.92380077156626
3250.0 96.50403956069488
3350.0 96.15402413235422
3450.0 95.85636503883136
3550.0 95.67169420735715
3650.0 95.49957850035031
3750.0 95.38301809912998
3870.0 95.27693598640062
4000.0 95.1678825283017
4120.0 95.07826724553689
4250.0 95.0169760672383
4370.0 94.92558627616494
4500.0 94.81891109086126
4620.0 94.7997926850567
4750.0 94.74308583174766
4870.0 94.72671730965813
5000.0 94.73823793074779
5150.0 94.79372368895909
5300.0 94.83316266541222
5450.0 94.92520660419115
5600.0 94.99968990316628
5800.0 95.12856544231582
6000.0 95.25689009802754
6150.0 95.33763185076799
6300.0 95.39572796052504
6500.0 95.40309126769557
6700.0 95.4254195187919
6900.0 95.42203390559757
7100.0 95.33302057203811
7300.0 95.2901713876549
7500.0 95.30298254953146
7750.0 95.23637392281533
8000.0 95.1172532486203
8250.0 95.03613026902175
8500.0 94.8193931680234
8750.0 94.63167813418474
9000.0 94.25599446484922
9250.0 93.90922455075871
9500.0 93.36723935302237
9750.0 92.76228889667877
10000.0 92.05931799936963
10300.0 91.15641212739125
10600.0 90.21557532145393
10900.0 89.20547551297972
11200.0 88.1612021821777
11500.0 87.1379454634602
11800.0 86.12693652759431
12200.0 85.2394279212826
12500.0 84.52392253495668
12800.0 83.91067192977562
13200.0 83.44505329146541
13600.0 83.12042386883465
14000.0 82.86641090054081
14500.0 82.75657278201419
15000.0 82.66109764442048
15500.0 82.52218585737901
16000.0 82.46391285874924
16500.0 82.33243391782119
17000.0 82.17502796890663
17500.0 81.97502796890664
18000.0 81.77502796890664
18500.0 81.57502796890665
19000.0 81.31918615297883
19500.0 81.11918615297881
