Freq "Early Reflections"
22.4 60.508157198975525
23.0 62.573375771768056
23.6 62.051211378953624
24.0 60.54481773440192
25.0 60.4474536896487
25.8 61.02426649735828
26.5 61.122518205029664
27.2 61.237344133641685
28.0 63.098399976789736
29.0 64.3578441850582
30.0 63.861565347523154
30.7 63.46079710581624
31.5 63.77022732248621
32.5 66.7346771183506
33.5 69.15441837203606
34.5 71.23112613377116
35.5 73.78029785178786
36.5 76.01050091991551
37.5 78.13109605348349
38.7 80.40730887273615
40.0 82.90292329627259
41.2 84.7375573513256
42.5 86.21165863424984
43.7 87.7767231220706
45.0 89.30513976910449
46.2 90.77406738620913
47.5 92.1734094533934
48.7 93.09690330995033
50.0 93.970805525777
51.5 94.78107759945956
53.0 95.84456190604068
54.5 96.97198401601962
56.0 98.07873263489076
58.0 99.08140521498952
60.0 100.04749022778306
61.5 100.98673653444578
63.0 101.83250763802425
65.0 102.50760823613797
67.0 103.15409311530493
69.0 103.80420900583209
71.0 104.58552229829152
73.0 105.4231387182859
75.0 106.41752838051046
77.5 107.04336830403001
80.0 107.77304268180382
82.5 108.48038549285228
85.0 109.11642764013583
87.5 109.60856277107169
90.0 109.8286158884202
92.5 109.75141410706185
95.0 109.44908504104949
97.5 109.01700839160843
100.0 108.53453112914266
103.0 108.16915652973407
106.0 108.04209924728694
109.0 108.17236518743236
112.0 108.4248456177972
115.0 108.63675576861338
118.0 108.73563171282025
122.0 108.67080832906113
125.0 108.52282571729815
128.0 108.36051446916974
132.0 108.16989867647673
136.0 107.96633982858367
140.0 107.76974328391783
145.0 107.55032659855254
150.0 107.36387119970699
155.0 107.19643436154806
160.0 107.09362482905142
165.0 107.11694517420186
170.0 107.40917412113849
175.0 107.64485200229886
180.0 107.55682216512052
185.0 107.31629333277836
190.0 107.01486671718223
195.0 106.67716900723397
200.0 106.2363966605181
206.0 105.5432443052177
212.0 104.57908172807583
218.0 103.96273419482928
224.0 104.66430170676712
230.0 105.62024769204073
236.0 106.20840933777876
240.0 106.26865478305332
250.0 106.11486951245459
258.0 105.99274115804315
265.0 105.90566468259802
272.0 105.92593548983119
280.0 106.02795757519493
290.0 106.17696388085083
300.0 106.2270058054772
307.0 106.12833881652747
315.0 105.93573800928965
325.0 105.73065046356953
335.0 105.57835415048696
345.0 105.46965546538239
355.0 105.38219492591286
365.0 105.48068716353045
375.0 105.7210124874556
387.0 105.96418728686474
400.0 105.93358177722693
412.0 105.58727384185714
425.0 105.21773000597177
437.0 104.90048164331101
450.0 104.76170727105496
462.0 104.82949060951361
475.0 104.6797932020245
487.0 104.23922842148566
500.0 103.94969305713242
515.0 104.13840711044777
530.0 104.65715036510768
545.0 104.9967061658049
560.0 104.62961213127603
580.0 103.76316174777425
600.0 102.98404442646623
615.0 102.49876635313593
630.0 102.21214365190897
650.0 102.24847195367083
670.0 102.53393739033123
690.0 103.04136362996536
710.0 103.66717859676304
730.0 104.0249553597051
750.0 104.1207739247174
775.0 104.35692698462631
800.0 104.6435834904051
825.0 104.49669726531553
850.0 103.66541720210991
875.0 102.54233012117321
900.0 102.26318305538129
925.0 102.41253792858613
950.0 102.14364002098995
975.0 101.6662707590205
1000.0 102.05160215816629
1030.0 102.64251855795438
1060.0 102.07089342824382
1090.0 100.76829152471309
1120.0 99.29347762412537
1150.0 97.92120375355718
1180.0 97.26759231232013
1220.0 97.12504569640942
1250.0 97.4039806954789
1280.0 98.28893561685625
1320.0 99.41669364675427
1360.0 100.2979265844301
1400.0 100.79053542735944
1450.0 101.99877782749503
1500.0 103.70562206129983
1550.0 104.34727478538683
1600.0 104.2866437977673
1650.0 103.80560274006321
1700.0 102.65519546624282
1750.0 101.40786610381473
1800.0 100.07789798473985
1850.0 99.65510195489267
1900.0 99.9736986968604
1950.0 99.75467278579268
2000.0 99.36335702533191
2060.0 99.69306611828473
2120.0 100.3200239497358
2180.0 100.37543112340741
2240.0 100.0805222297111
2300.0 99.38175148752399
2360.0 98.75089657972318
2400.0 99.22134634310717
2500.0 99.42983666081783
2580.0 99.1744942393281
2650.0 99.28718920854631
2720.0 99.83382605813242
2800.0 100.41665541355135
2900.0 100.21154704205732
3000.0 100.00424754924889
3070.0 100.59258505663367
3150.0 101.29545407352404
3250.0 100.89436359887314
3350.0 100.0574245900107
3450.0 99.88593609708269
3550.0 99.78257302334914
3650.0 99.62501507902194
3750.0 99.66041941150736
3870.0 99.8596216235618
4000.0 99.82685907994683
4120.0 99.95649173137984
4250.0 99.78010542456227
4370.0 100.06657350347017
4500.0 101.01716557863857
4620.0 101.02133871811972
4750.0 100.52517353057921
4870.0 100.11094984848647
5000.0 99.31104177281584
5150.0 98.42587606163491
5300.0 98.87540249052206
5450.0 100.20794025295375
5600.0 100.86260488040405
5800.0 100.4751221423644
6000.0 100.24021697265809
6150.0 99.75434297858168
6300.0 98.81195122721785
6500.0 99.1107118209598
6700.0 100.9109475944493
6900.0 100.97876290466645
7100.0 99.95803035546776
7300.0 99.39945065581038
7500.0 98.50921656501767
7750.0 98.98087395876891
8000.0 100.98753357967468
8250.0 101.55024400090618
8500.0 101.3354668405906
8750.0 99.51342578566572
9000.0 98.8973340372083
9250.0 102.04200081580338
9500.0 103.67300559766586
9750.0 102.21943154756669
10000.0 100.73997306269864
10300.0 102.32574218616627
10600.0 102.91663135970107
10900.0 102.36765319343414
11200.0 101.56797193554259
11500.0 102.77507506340821
11800.0 102.99587693054637
12200.0 101.74515630526498
12500.0 101.77040479868913
12800.0 102.79291389169694
13200.0 104.00259800352012
13600.0 104.3740215958435
14000.0 103.90074427831146
14500.0 102.63248504002463
15000.0 100.37279162298825
15500.0 100.37858467045662
16000.0 100.01627966504155
16500.0 99.36504470439824
17000.0 98.16078644172937
17500.0 97.52709409869587
18000.0 96.00292690642156
18500.0 86.72410681611434
19000.0 75.71333963234373
19500.0 71.35310875536855
