Freq "Listening Window"
22.4 61.23536100122723
23.0 63.33536100122723
23.6 62.83536100122723
24.0 61.33536100122723
25.0 61.26945253554453
25.8 61.88050017092459
26.5 61.980500170924586
27.2 62.11450151839213
28.0 63.99203842311863
29.0 65.2805001709246
30.0 64.80354610191523
30.7 64.45985688544124
31.5 64.7805001709246
32.5 67.75985688544125
33.5 70.19203842311862
34.5 72.2805001709246
35.5 74.85985688544125
36.5 77.10328449402553
37.5 79.25985688544125
38.7 81.54849764652045
40.0 84.05985688544123
41.2 85.90328449402553
42.5 87.40328449402553
43.7 89.00328449402554
45.0 90.52621015383258
46.2 92.02621015383258
47.5 93.4376277601377
48.7 94.38274948127022
50.0 95.27118649106582
51.5 96.10328449402552
53.0 97.18274948127022
54.5 98.32621015383258
56.0 99.4376277601377
58.0 100.46063752019826
60.0 101.43762776013772
61.5 102.38274948127022
63.0 103.23762776013771
65.0 103.9376277601377
67.0 104.58274948127021
69.0 105.24928032556396
71.0 106.03762776013771
73.0 106.88274948127022
75.0 107.89428176701229
77.5 108.53762776013771
80.0 109.28274948127023
82.5 109.99428176701228
85.0 110.63762776013772
87.5 111.1376277601377
90.0 111.34928032556395
92.5 111.30578351092603
95.0 111.01725487435672
97.5 110.56063752019828
100.0 110.11725487435673
103.0 109.74928032556397
106.0 109.61725487435672
109.0 109.76063752019829
112.0 110.01725487435672
115.0 110.26063752019827
118.0 110.36063752019827
122.0 110.28274948127023
125.0 110.16063752019826
128.0 110.00578351092604
132.0 109.81725487435673
136.0 109.61725487435672
140.0 109.44037254002033
145.0 109.22896215694925
150.0 109.06063752019827
155.0 108.91725487435671
160.0 108.81725487435673
165.0 108.82896215694926
170.0 109.12896215694926
175.0 109.40604496832917
180.0 109.32896215694925
185.0 109.06090170960879
190.0 108.80604496832919
195.0 108.46090170960878
200.0 108.04063796503014
206.0 107.38405159795619
212.0 106.42948833002333
218.0 105.82948833002334
224.0 106.55280582280594
230.0 107.52948833002333
236.0 108.1414342834443
240.0 108.2414342834443
250.0 108.09856891052
258.0 108.01060009802595
265.0 107.95385262189534
272.0 107.99987890724901
280.0 108.13211963372265
290.0 108.31218623262103
300.0 108.41218623262105
307.0 108.34808714028244
315.0 108.19234999311512
325.0 108.01430148513214
335.0 107.89500810861799
345.0 107.82892665788968
355.0 107.77536192456705
365.0 107.90215882872974
375.0 108.17856707363397
387.0 108.45929610408736
400.0 108.47291545245658
412.0 108.14415447971925
425.0 107.78987324261455
437.0 107.48987324261455
450.0 107.38987324261456
462.0 107.47151939484651
475.0 107.32597755276416
487.0 106.8939504814089
500.0 106.64191879942946
515.0 106.83461669343167
530.0 107.33154606279794
545.0 107.66854111297295
560.0 107.28665339871903
580.0 106.40850543903392
600.0 105.6456006516833
615.0 105.18614944949388
630.0 104.93560994111976
650.0 105.04839100133023
670.0 105.42008890912453
690.0 106.02096618788711
710.0 106.78161197329494
730.0 107.24886961149488
750.0 107.45116938282027
775.0 107.81083782608226
800.0 108.1863322335073
825.0 108.112871179851
850.0 107.29968438835442
875.0 106.20132208858303
900.0 105.93808581998898
925.0 106.198421939425
950.0 106.11163570346967
975.0 105.95981304382015
1000.0 106.68806781153897
1030.0 107.61769709853684
1060.0 107.30462121063808
1090.0 106.14156349913051
1120.0 104.70325646988425
1150.0 103.27672437816577
1180.0 102.50535706271475
1220.0 102.2317662097673
1250.0 102.35326707924807
1280.0 102.96258784184815
1320.0 103.68761842940869
1360.0 104.05382300809848
1400.0 104.06812171234448
1450.0 104.96343868704588
1500.0 106.7912229339729
1550.0 107.84100902195645
1600.0 108.34293784794944
1650.0 108.42005639634641
1700.0 107.74353776490534
1750.0 106.84509051154471
1800.0 105.67482893183757
1850.0 105.21463933536145
1900.0 105.3892604322099
1950.0 105.05255940439835
2000.0 104.61536283659959
2060.0 104.95551049277367
2120.0 105.62250365743341
2180.0 105.69494643166195
2240.0 105.39597734571018
2300.0 104.69634975786235
2360.0 104.08582955295887
2400.0 104.54851757400716
2500.0 104.7453580624398
2580.0 104.47104126499997
2650.0 104.58802161966625
2720.0 105.11382119428947
2800.0 105.65158222516499
2900.0 105.40567690612093
3000.0 105.16796136903693
3070.0 105.74335899837487
3150.0 106.42501692771951
3250.0 106.01060618198602
3350.0 105.21792393116397
3450.0 105.08082654658017
3550.0 105.02105021206697
3650.0 104.85725753718839
3750.0 104.89126481121615
3870.0 105.05937485690797
4000.0 105.0832585268484
4120.0 105.26518366047449
4250.0 105.09884570338502
4370.0 105.31626290014337
4500.0 106.19764031075132
4620.0 106.17014792191355
4750.0 105.77006448560874
4870.0 105.41605638993227
5000.0 104.59819097690938
5150.0 103.75498131509272
5300.0 104.14717190541222
5450.0 105.45934810377038
5600.0 106.16308341604233
5800.0 105.80848804729105
6000.0 105.66285162120194
6150.0 105.27455914601056
6300.0 104.36524198434691
6500.0 104.64709066110699
6700.0 106.4744082231625
6900.0 106.62921086827863
7100.0 105.6940286324474
7300.0 105.09976499028284
7500.0 104.27300788653837
7750.0 104.8000718530428
8000.0 106.85954287911115
8250.0 107.4102093254283
8500.0 107.12867170570966
8750.0 105.21771394227076
9000.0 104.44718171724455
9250.0 107.39767610232035
9500.0 109.02520559576365
9750.0 107.69662115436226
10000.0 106.54289572981386
10300.0 108.21855995641447
10600.0 108.83265051518485
10900.0 108.23310905031386
11200.0 107.31839948639289
11500.0 108.48960053116116
11800.0 108.9303822913136
12200.0 107.80276342898465
12500.0 107.81844402474633
12800.0 108.82273254579425
13200.0 109.79287201813197
13600.0 110.31491486904062
14000.0 110.03659524841261
14500.0 108.96333648579866
15000.0 106.38062675452906
15500.0 105.99314952777333
16000.0 106.15472540555592
16500.0 104.87524120364128
17000.0 102.88836437557605
17500.0 104.44230021831757
18000.0 103.13061257331888
18500.0 92.86254065158964
19000.0 80.71508039958121
19500.0 76.60859368657327
