Freq "On Axis"
22.4 62.727848101265835
23.0 64.82784810126583
23.6 64.32784810126583
24.0 62.82784810126583
25.0 62.82784810126583
25.8 63.42784810126585
26.5 63.527848101265846
27.2 63.62784810126584
28.0 65.52784810126582
29.0 66.82784810126583
30.0 66.42784810126585
30.7 66.02784810126582
31.5 66.32784810126583
32.5 69.32784810126583
33.5 71.82784810126583
34.5 73.82784810126583
35.5 76.42784810126585
36.5 78.72784810126583
37.5 80.82784810126583
38.7 83.12784810126584
40.0 85.62784810126584
41.2 87.52784810126583
42.5 89.02784810126583
43.7 90.62784810126584
45.0 92.12784810126584
46.2 93.62784810126584
47.5 95.02784810126583
48.7 96.02784810126583
50.0 96.82784810126584
51.5 97.72784810126583
53.0 98.82784810126584
54.5 99.92784810126584
56.0 101.02784810126583
58.0 102.12784810126584
60.0 103.02784810126585
61.5 104.02784810126583
63.0 104.82784810126583
65.0 105.52784810126585
67.0 106.22784810126583
69.0 106.92784810126585
71.0 107.62784810126584
73.0 108.52784810126583
75.0 109.52784810126582
77.5 110.12784810126584
80.0 110.92784810126582
82.5 111.62784810126584
85.0 112.22784810126583
87.5 112.72784810126583
90.0 113.02784810126585
92.5 112.92784810126584
95.0 112.62784810126584
97.5 112.22784810126583
100.0 111.72784810126583
103.0 111.42784810126584
106.0 111.22784810126583
109.0 111.42784810126584
112.0 111.62784810126584
115.0 111.92784810126585
118.0 112.02784810126582
122.0 111.92784810126585
125.0 111.82784810126584
128.0 111.62784810126584
132.0 111.42784810126584
136.0 111.22784810126583
140.0 111.12784810126584
145.0 110.92784810126582
150.0 110.72784810126583
155.0 110.52784810126585
160.0 110.42784810126584
165.0 110.52784810126585
170.0 110.82784810126586
175.0 111.02784810126583
180.0 111.02784810126583
185.0 110.72784810126583
190.0 110.42784810126584
195.0 110.12784810126584
200.0 109.72784810126583
206.0 109.02784810126583
212.0 108.12784810126584
218.0 107.52784810126583
224.0 108.22784810126583
230.0 109.22784810126583
236.0 109.82784810126583
240.0 109.92784810126584
250.0 109.82784810126583
258.0 109.72784810126583
265.0 109.62784810126584
272.0 109.72784810126583
280.0 109.82784810126583
290.0 110.02784810126583
300.0 110.12784810126584
307.0 110.02784810126583
315.0 109.92784810126584
325.0 109.72784810126583
335.0 109.62784810126584
345.0 109.62784810126584
355.0 109.52784810126582
365.0 109.62784810126584
375.0 109.92784810126584
387.0 110.22784810126583
400.0 110.22784810126583
412.0 109.92784810126584
425.0 109.62784810126584
437.0 109.32784810126584
450.0 109.22784810126583
462.0 109.32784810126584
475.0 109.22784810126583
487.0 108.82784810126584
500.0 108.52784810126583
515.0 108.72784810126583
530.0 109.22784810126583
545.0 109.62784810126584
560.0 109.22784810126583
580.0 108.42784810126582
600.0 107.62784810126584
615.0 107.22784810126583
630.0 106.92784810126585
650.0 107.12784810126584
670.0 107.52784810126583
690.0 108.12784810126584
710.0 108.92784810126584
730.0 109.42784810126585
750.0 109.62784810126584
775.0 110.02784810126583
800.0 110.42784810126584
825.0 110.32784810126584
850.0 109.52784810126582
875.0 108.42784810126582
900.0 108.12784810126584
925.0 108.42784810126582
950.0 108.42784810126582
975.0 108.42784810126582
1000.0 109.32784810126584
1030.0 110.42784810126584
1060.0 110.32784810126584
1090.0 109.22784810126583
1120.0 107.82784810126584
1150.0 106.42784810126584
1180.0 105.62784810126584
1220.0 105.22784810126583
1250.0 105.02784810126583
1280.0 105.22784810126583
1320.0 105.32784810126584
1360.0 104.82784810126583
1400.0 103.52784810126583
1450.0 103.92784810126584
1500.0 106.22784810126583
1550.0 107.52784810126583
1600.0 108.42784810126582
1650.0 109.02784810126583
1700.0 108.92784810126584
1750.0 108.62784810126584
1800.0 107.92784810126584
1850.0 107.92784810126584
1900.0 108.32784810126586
1950.0 108.12784810126584
2000.0 107.62784810126584
2060.0 107.82784810126584
2120.0 108.32784810126586
2180.0 108.42784810126582
2240.0 108.22784810126583
2300.0 107.62784810126584
2360.0 107.02784810126582
2400.0 107.62784810126584
2500.0 107.82784810126584
2580.0 107.52784810126583
2650.0 107.52784810126583
2720.0 108.02784810126585
2800.0 108.52784810126583
2900.0 108.32784810126586
3000.0 107.82784810126584
3070.0 108.22784810126583
3150.0 109.12784810126584
3250.0 109.12784810126584
3350.0 108.32784810126586
3450.0 107.72784810126583
3550.0 107.12784810126584
3650.0 106.82784810126584
3750.0 107.22784810126583
3870.0 107.52784810126583
4000.0 107.62784810126584
4120.0 108.02784810126585
4250.0 107.92784810126584
4370.0 108.02784810126585
4500.0 108.72784810126583
4620.0 108.72784810126583
4750.0 108.42784810126582
4870.0 108.12784810126584
5000.0 107.42784810126584
5150.0 106.72784810126583
5300.0 107.12784810126584
5450.0 108.52784810126583
5600.0 108.82784810126584
5800.0 108.22784810126583
6000.0 108.02784810126585
6150.0 108.02784810126585
6300.0 107.22784810126583
6500.0 107.42784810126584
6700.0 109.22784810126583
6900.0 109.42784810126585
7100.0 108.52784810126583
7300.0 108.02784810126585
7500.0 107.22784810126583
7750.0 107.82784810126584
8000.0 109.72784810126583
8250.0 110.32784810126584
8500.0 109.92784810126584
8750.0 108.02784810126585
9000.0 107.22784810126583
9250.0 110.02784810126583
9500.0 111.22784810126583
9750.0 109.62784810126584
10000.0 108.22784810126583
10300.0 109.72784810126583
10600.0 110.62784810126584
10900.0 110.02784810126583
11200.0 109.02784810126583
11500.0 110.52784810126585
11800.0 111.12784810126584
12200.0 109.92784810126584
12500.0 110.02784810126583
12800.0 111.12784810126584
13200.0 112.12784810126584
13600.0 112.62784810126584
14000.0 112.42784810126584
14500.0 111.82784810126584
15000.0 109.82784810126583
15500.0 108.52784810126583
16000.0 109.32784810126584
16500.0 108.42784810126582
17000.0 105.82784810126586
17500.0 108.12784810126584
18000.0 106.82784810126584
18500.0 97.02784810126582
19000.0 82.42784810126585
19500.0 75.12784810126584
