Freq "Sound Power"
22.4 59.92845906687033
23.0 61.97142194253435
23.6 61.4299636019813
24.0 59.89856416954872
25.0 59.77477810090771
25.8 60.338473507045094
26.5 60.407723913390655
27.2 60.49739839797182
28.0 62.34008325329383
29.0 63.57066326689743
30.0 63.05584620056392
30.7 62.62413198935634
31.5 62.901857856407915
32.5 65.84432089996322
33.5 68.24812405644543
34.5 70.29452100406242
35.5 72.81643514846157
36.5 75.0289485209661
37.5 77.12117747770604
38.7 79.36333692080997
40.0 81.83644525312091
41.2 83.66038951465858
42.5 85.1137561550952
43.7 86.64230385978833
45.0 88.1465586952426
46.2 89.59491687087521
47.5 90.97855311730342
48.7 91.88340607148866
50.0 92.72327886999584
51.5 93.51609656589268
53.0 94.5504640241664
54.5 95.6702177454512
56.0 96.75334553910241
58.0 97.74031353729411
60.0 98.68086572293825
61.5 99.59760041961289
63.0 100.44198173133616
65.0 101.10027308430466
67.0 101.71718628688643
69.0 102.35963551759079
71.0 103.12791819395356
73.0 103.94620046549853
75.0 104.92535049331066
77.5 105.53495211788253
80.0 106.25902602362552
82.5 106.95693726178781
85.0 107.57017524809271
87.5 108.05054258785692
90.0 108.2597752911785
92.5 108.17912477891578
95.0 107.86121733005614
97.5 107.41862408322484
100.0 106.93140014091404
103.0 106.5380999846307
106.0 106.40851675103511
109.0 106.53516238795662
112.0 106.77231873768896
115.0 106.97631866882587
118.0 107.07385717539846
122.0 106.99430326473858
125.0 106.8425219008321
128.0 106.65878559063677
132.0 106.46318958906666
136.0 106.25042424340657
140.0 106.04151806823944
145.0 105.81789502199696
150.0 105.61797023060278
155.0 105.44182390082834
160.0 105.32087170453998
165.0 105.33456105735952
170.0 105.61213033345106
175.0 105.83415652302371
180.0 105.73447658560445
185.0 105.48103672869102
190.0 105.16116286765383
195.0 104.81369486191747
200.0 104.35455760813052
206.0 103.63883971711849
212.0 102.66087342819375
218.0 102.01585988102512
224.0 102.70294005986884
230.0 103.63575691563577
236.0 104.20519302234321
240.0 104.24105853416583
250.0 104.04862151424248
258.0 103.8969948586553
265.0 103.78221680684292
272.0 103.77383266654894
280.0 103.84433668820242
290.0 103.94934321753864
300.0 103.97002801766452
307.0 103.83832534840475
315.0 103.61901746520526
325.0 103.38083922090789
335.0 103.19804932649626
345.0 103.05424189058984
355.0 102.95217717767463
365.0 103.01752914043509
375.0 103.25228511067552
387.0 103.47188569917101
400.0 103.41737905110953
412.0 103.05469647767042
425.0 102.64507478555639
437.0 102.30559319231665
450.0 102.12322801284007
462.0 102.14990654835498
475.0 101.96425113378719
487.0 101.47069951105559
500.0 101.11831911741135
515.0 101.24174019396784
530.0 101.68061167977272
545.0 101.9296871621328
560.0 101.46371570136054
580.0 100.46668224435108
600.0 99.58925856339269
615.0 98.96735450177212
630.0 98.57325188830531
650.0 98.5127928673074
670.0 98.71112354490405
690.0 99.14548528828713
710.0 99.72460250038827
730.0 100.05901770849466
750.0 100.14852680246658
775.0 100.39801579882828
800.0 100.73922248253348
825.0 100.68380093514371
850.0 99.9338684810882
875.0 98.90739589765354
900.0 98.69177183268292
925.0 98.8194273805861
950.0 98.42487753035657
975.0 97.73646454376224
1000.0 97.82194259162173
1030.0 98.11583872006672
1060.0 97.31312176213909
1090.0 95.91256536671096
1120.0 94.44209983184841
1150.0 93.16245320954656
1180.0 92.66305064332944
1220.0 92.74702450045098
1250.0 93.24573560694915
1280.0 94.25788898823257
1320.0 95.43957952707085
1360.0 96.36672567271675
1400.0 97.0721810742484
1450.0 98.59009112814256
1500.0 100.49751212492018
1550.0 101.20698808347218
1600.0 101.19809454970739
1650.0 100.68821404467714
1700.0 99.43288978065091
1750.0 98.11521126124809
1800.0 96.6715115706335
1850.0 96.09173059141212
1900.0 96.25864418941185
1950.0 95.9160524378846
2000.0 95.44124866433563
2060.0 95.7430818100358
2120.0 96.32655132617224
2180.0 96.323267354689
2240.0 95.9637726891438
2300.0 95.20998505706181
2360.0 94.53584419708064
2400.0 94.93334573543075
2500.0 95.07871059865231
2580.0 94.81255876661608
2650.0 94.91862539232922
2720.0 95.46695845749048
2800.0 95.98098590526025
2900.0 95.68908971392908
3000.0 95.45107239068848
3070.0 96.06824068689698
3150.0 96.74719475331919
3250.0 96.31997087745269
3350.0 95.51117661451501
3450.0 95.35025754420322
3550.0 95.28765484493333
3650.0 95.11684608163235
3750.0 95.00640409264284
3870.0 95.11085507697437
4000.0 95.04912145402281
4120.0 95.21828258778477
4250.0 95.15887764001958
4370.0 95.48126980392288
4500.0 96.3910482646633
4620.0 96.36277078670275
4750.0 95.89781704786832
4870.0 95.45503036673979
5000.0 94.596901456982
5150.0 93.67562323949278
5300.0 94.11836655916206
5450.0 95.48981615594207
5600.0 96.13121060068345
5800.0 95.69789218737655
6000.0 95.48859419851702
6150.0 94.98434097324791
6300.0 94.0890876942671
6500.0 94.47632824140432
6700.0 96.29784728507992
6900.0 96.35977180636223
7100.0 95.30860402417758
7300.0 94.61921344389708
7500.0 93.67908932802129
7750.0 94.05847271121596
8000.0 96.02706016975718
8250.0 96.64681091614875
8500.0 96.50489698281406
8750.0 94.56552231617594
9000.0 93.95670268504777
9250.0 97.10431783267714
9500.0 98.78320678397141
9750.0 97.34228190894802
10000.0 96.0163737077503
10300.0 97.54181643272508
10600.0 98.05116690053048
10900.0 97.49706386409869
11200.0 96.68185053895111
11500.0 97.81593565080301
11800.0 97.93633651324642
12200.0 96.50289031675153
12500.0 96.52783166241582
12800.0 97.62102561129088
13200.0 98.92167967677669
13600.0 99.23377406013364
14000.0 98.70026437443676
14500.0 97.7532798267667
15000.0 95.93984979988728
15500.0 95.07563083496962
16000.0 94.70260771857515
16500.0 94.25623651319938
17000.0 93.71776206109308
17500.0 92.00237865953015
18000.0 90.79887638733423
18500.0 81.95292195141751
19000.0 71.80167305382214
19500.0 66.6522909307978
