Freq "Ceiling Bounce"
22.4 33.335130591779816
23.0 34.035130591779804
23.6 34.70076749445563
24.0 35.3007674944556
25.0 35.90076749445562
25.8 36.50076749445559
26.5 37.06769521305294
27.2 37.63358982688
28.0 38.20076749445563
29.0 38.80076749445563
30.0 39.3007674944556
30.7 39.83358982687999
31.5 40.40076749445562
32.5 40.90076749445562
33.5 41.43358982687995
34.5 41.90076749445562
35.5 42.40076749445562
36.5 42.90076749445562
37.5 43.33358982687997
38.7 43.83358982687996
40.0 44.30076749445561
41.2 44.73358982687998
42.5 45.233589826879964
43.7 45.66769521305295
45.0 46.133589826879984
46.2 46.5669218511605
47.5 47.033589826879975
48.7 47.43358982687995
50.0 47.83358982687996
51.5 48.33358982687997
53.0 48.73358982687998
54.5 49.13358982687997
56.0 49.533589826879975
58.0 50.0
60.0 50.39999999999999
61.5 50.8
63.0 51.2
65.0 51.63358982687997
67.0 52.033589826879975
69.0 52.43358982687998
71.0 52.83358982687996
73.0 53.2
75.0 53.633589826879984
77.5 54.033589826879975
80.0 54.3669218511605
82.5 54.766921851160504
85.0 55.166921851160495
87.5 55.5669218511605
90.0 55.96692185116049
92.5 56.366921851160484
95.0 56.70076749445562
97.5 57.100767494455624
100.0 57.500767494455616
103.0 57.866921851160484
106.0 58.266921851160504
109.0 58.633589826879984
112.0 59.000767494455616
115.0 59.40076749445561
118.0 59.766921851160504
122.0 60.10076749445561
125.0 60.500767494455616
128.0 60.80076749445561
132.0 61.16692185116051
136.0 61.500767494455616
140.0 61.80076749445561
145.0 62.0669218511605
150.0 62.30076749445563
155.0 62.53358982687999
160.0 62.733589826879964
165.0 62.90076749445561
170.0 63.033589826879975
175.0 63.20076749445562
180.0 63.3669218511605
185.0 63.533589826879975
190.0 63.70076749445563
195.0 63.90076749445561
200.0 64.00076749445562
206.0 64.00076749445562
212.0 64.00076749445562
218.0 63.90076749445561
224.0 63.73513059177982
230.0 63.56845083805433
236.0 63.43513059177984
240.0 63.40306957104252
250.0 63.238211298887435
258.0 62.971508007869375
265.0 62.70690501035459
272.0 62.776091754492214
280.0 63.0069050103546
290.0 63.176091754492205
300.0 63.37609175449222
307.0 63.64576719438469
315.0 63.7457671943847
325.0 63.64576719438469
335.0 63.38219967332303
345.0 63.15260953202218
355.0 62.78219967332305
365.0 62.945767194384715
375.0 63.5404416794549
387.0 63.63663575667185
400.0 63.06845083805433
412.0 62.30076749445563
425.0 62.168450838054326
437.0 62.80076749445561
450.0 63.06769521305294
462.0 62.76769521305293
475.0 63.13821129888743
487.0 63.57928732607432
500.0 63.424024870260226
515.0 63.03331023801675
530.0 62.87662798253905
545.0 62.57662798253904
560.0 62.02179738688896
580.0 62.52179738688895
600.0 62.85521969308378
615.0 62.789156301296416
630.0 62.55016923070221
650.0 62.66668552790021
670.0 62.55017075212571
690.0 62.545767194384695
710.0 62.4489851487955
730.0 62.71627940083641
750.0 62.353809743594454
775.0 62.865888460596864
800.0 63.02758719283594
825.0 63.012271783156194
850.0 62.03513059177983
875.0 64.45667255930051
900.0 65.44391724861639
925.0 66.63469773360897
950.0 66.67757950460712
975.0 65.0165581917717
1000.0 64.60432912249857
1030.0 65.34852015458806
1060.0 65.67100612011481
1090.0 65.19430744544665
1120.0 64.47245249207646
1150.0 64.10921140720403
1180.0 63.54197022557484
1220.0 63.06001642302817
1250.0 62.4694198636673
1280.0 61.41457895753311
1320.0 60.67100612011481
1360.0 60.71904449785343
1400.0 60.48759923684217
1450.0 57.33669399809315
1500.0 58.92057765478033
1550.0 62.34852015458806
1600.0 61.79389595883673
1650.0 60.68759923684219
1700.0 59.697809843818575
1750.0 60.47089600007291
1800.0 60.47404084094025
1850.0 60.55218761292407
1900.0 60.8527499421436
1950.0 63.01115315731634
2000.0 62.481262425954995
2060.0 61.381262425955
2120.0 59.57089600007292
2180.0 58.936380880391454
2240.0 60.262269196577236
2300.0 60.96096514237182
2360.0 61.30542400732661
2400.0 61.773879612228185
2500.0 62.42926676879422
2580.0 63.49238562216105
2650.0 64.79897445130925
2720.0 65.44659692804834
2800.0 65.9552233498861
2900.0 66.58143621591468
3000.0 66.55334575272603
3070.0 64.88256065499534
3150.0 64.07655346032068
3250.0 63.3022520696168
3350.0 61.830793371182295
3450.0 60.36632763805379
3550.0 59.558683627337544
3650.0 57.55934253122257
3750.0 55.959846234552
3870.0 53.89384735732175
4000.0 50.40328448017462
4120.0 52.50129694043203
4250.0 58.389662578766135
4370.0 63.16512911208581
4500.0 65.91832613468222
4620.0 66.23049751401601
4750.0 65.51659062692784
4870.0 64.83805552087092
5000.0 63.59985839331692
5150.0 62.81375532712194
5300.0 63.738129180619495
5450.0 66.63099025260486
5600.0 68.67775058035541
5800.0 69.34588560685647
6000.0 68.87377663616932
6150.0 68.23331023801676
6300.0 68.3849349246085
6500.0 67.93647412390415
6700.0 68.00265313251614
6900.0 68.9993022971987
7100.0 69.41444948768435
7300.0 67.56037054085448
7500.0 63.67866856622021
7750.0 60.91820761005414
8000.0 59.38205670268607
8250.0 59.232834048081244
8500.0 59.71837626972828
8750.0 59.53749266009871
9000.0 56.75609608810669
9250.0 55.176178751853726
9500.0 55.73511176024287
9750.0 56.722885309497144
10000.0 55.43497163186696
10300.0 52.90117762353391
10600.0 49.45520360903416
10900.0 47.61347960017949
11200.0 46.09722021923541
11500.0 43.81192126753356
11800.0 48.07244993229337
12200.0 50.96837679776489
12500.0 50.47943051913933
12800.0 47.48252976687645
13200.0 46.32286360876539
13600.0 45.944532293864796
14000.0 45.345836133355235
14500.0 47.802974718429894
15000.0 48.15119501300417
15500.0 45.97833608253556
16000.0 44.5836702890592
16500.0 40.566233703277035
17000.0 40.38726784761427
17500.0 44.67883038042292
18000.0 46.76226741403312
18500.0 45.898101906578376
19000.0 37.818361504266235
19500.0 30.24155809784942
