Freq "Rear Wall Bounce"
22.4 32.19407660288256
23.0 32.81803921681724
23.6 33.42838979084034
24.0 34.12961226488166
25.0 34.78410489222922
25.8 35.469679221586816
26.5 36.07634122756012
27.2 36.68655394062738
28.0 37.27289496714515
29.0 37.86502339147624
30.0 38.43402274717833
30.7 38.97026532526341
31.5 39.52029746985677
32.5 40.053505860235774
33.5 40.58956646818818
34.5 41.09929042571808
35.5 41.60968572692032
36.5 42.148664658363074
37.5 42.670422717399035
38.7 43.18895620646116
40.0 43.68895620646114
41.2 44.16679687565541
42.5 44.6558028717871
43.7 45.145517502990984
45.0 45.58678406254478
46.2 46.04551750299099
47.5 46.496961105694226
48.7 46.96560263588202
50.0 47.41208606417531
51.5 47.843346401876616
53.0 48.31727153371418
54.5 48.733031455042564
56.0 49.16390852482124
58.0 49.58508699373742
60.0 50.01159697742624
61.5 50.43230961291931
63.0 50.80048474912019
65.0 51.26366410712862
67.0 51.674388759776704
69.0 52.07438875977668
71.0 52.4743887597767
73.0 52.84262627231129
75.0 53.26366967090756
77.5 53.642386245008154
80.0 54.00024238132342
82.5 54.40024238132342
85.0 54.78982442471231
87.5 55.16366967090755
90.0 55.54238624500816
92.5 55.91087719539237
95.0 56.300242381323415
97.5 56.63207461914125
100.0 57.01063540689215
103.0 57.3898244247123
106.0 57.74790087682783
109.0 58.12124483242414
112.0 58.50024238132342
115.0 58.84790087682782
118.0 59.210635406892166
122.0 59.55841976530091
125.0 59.9161848525667
128.0 60.24790087682783
132.0 60.55841976530094
136.0 60.85841976530092
140.0 61.16891323790382
145.0 61.45841976530092
150.0 61.684970917670526
155.0 61.92702163779168
160.0 62.08497091767053
165.0 62.25841976530093
170.0 62.40629485407716
175.0 62.558419765300926
180.0 62.73783704666168
185.0 62.90653688434675
190.0 63.09564314766972
195.0 63.29564314766971
200.0 63.422338545987515
206.0 63.543720204541486
212.0 63.56024661917404
218.0 63.519230942151964
224.0 63.447280579752615
230.0 63.38649202571166
236.0 63.35647728034537
240.0 63.32254757656112
250.0 63.12254757656113
258.0 62.6925445662058
265.0 62.24403082800039
272.0 61.98307482165524
280.0 61.917936464866855
290.0 61.88921561828295
300.0 61.94257214374848
307.0 62.18850305516189
315.0 62.295969585134685
325.0 62.173414141815655
335.0 61.84161031211046
345.0 61.254227162344336
355.0 60.545890818084956
365.0 60.35900391842091
375.0 60.88632452988183
387.0 61.15674779658649
400.0 60.8479654904139
412.0 60.27806335991386
425.0 59.979815063113236
437.0 60.149609327475744
450.0 59.876375775768835
462.0 59.41441078198892
475.0 59.96135986205029
487.0 60.65598062826979
500.0 60.79784906443962
515.0 60.57180261375136
530.0 60.51974531041803
545.0 59.99082048829639
560.0 58.89105784372204
580.0 58.997012534746816
600.0 59.2584515857249
615.0 59.0189761376231
630.0 58.23709556079321
650.0 57.55112373823896
670.0 57.55108951578187
690.0 58.19424983371198
710.0 58.33312750863793
730.0 58.161725522159884
750.0 57.56537398042626
775.0 57.72490703632006
800.0 56.90912415005798
825.0 56.424336254495884
850.0 56.3516932897475
875.0 59.92968037106199
900.0 60.85842496947835
925.0 60.927480127413816
950.0 60.32563594553906
975.0 59.70045805194522
1000.0 58.26574989590739
1030.0 57.3310819143898
1060.0 58.025076917116394
1090.0 56.58465884281986
1120.0 56.509849361087404
1150.0 56.66514184582876
1180.0 54.84575868405584
1220.0 53.4651453200464
1250.0 52.98166823529304
1280.0 50.93711097576181
1320.0 51.31165474993416
1360.0 50.19488184920267
1400.0 50.5391015847148
1450.0 52.93445192481755
1500.0 54.127405341719836
1550.0 52.49705225100948
1600.0 49.33169613066421
1650.0 50.61136731529734
1700.0 49.831724075357954
1750.0 51.12197276708376
1800.0 52.13815648283496
1850.0 52.73787112544028
1900.0 52.69837051662266
1950.0 54.18786629058853
2000.0 53.4513135774157
2060.0 52.49370622453479
2120.0 51.50577788520033
2180.0 51.21280834531494
2240.0 52.20615999217385
2300.0 52.8858784209003
2360.0 53.328740519677226
2400.0 53.33198074594107
2500.0 53.44972885061348
2580.0 53.952361445220035
2650.0 54.28401484887134
2720.0 54.663150144027284
2800.0 54.349788247142556
2900.0 53.270976105222815
3000.0 52.34874449113879
3070.0 50.877888705548656
3150.0 48.51122728823508
3250.0 47.19330289727131
3350.0 46.13421898516563
3450.0 46.308990343923426
3550.0 46.81128296368546
3650.0 47.14592462916495
3750.0 47.384461078960896
3870.0 47.41162539457106
4000.0 45.38360669404575
4120.0 44.8379893295367
4250.0 46.94048877942741
4370.0 49.942926114912396
4500.0 49.65992693605021
4620.0 46.184088343902175
4750.0 42.82419842460881
4870.0 39.46606837916009
5000.0 41.40832595228078
5150.0 45.04038777636033
5300.0 48.85472886849152
5450.0 52.709210516081626
5600.0 55.52734965132544
5800.0 55.2307698128766
6000.0 53.64637993758363
6150.0 52.682860726601604
6300.0 50.56348901275338
6500.0 48.00770467495205
6700.0 43.95518373680555
6900.0 40.75671563267865
7100.0 47.37498634291315
7300.0 49.396865040479256
7500.0 47.60560563937682
7750.0 44.653855114965836
8000.0 40.627300307253975
8250.0 35.041928495344095
8500.0 30.45294957830218
8750.0 27.99208467334789
9000.0 27.131041532423595
9250.0 33.36264797998747
9500.0 39.327722689997145
9750.0 41.2978976451041
10000.0 42.494177145595
10300.0 41.17686328232868
10600.0 35.855222013457436
10900.0 29.143122665298662
11200.0 25.673073215735073
11500.0 23.775089500731028
11800.0 27.849481653314953
12200.0 31.185633866378637
12500.0 30.671778370864203
12800.0 27.12252688703275
13200.0 23.371010742353874
13600.0 22.033199157209864
14000.0 20.913264965513903
14500.0 21.31116491852073
15000.0 19.746136393748472
15500.0 12.953096263134384
16000.0 18.751849372026086
16500.0 20.725042518149664
17000.0 24.301112581835852
17500.0 23.32691904472226
18000.0 19.198467591743324
18500.0 18.758124700464336
19000.0 11.906167015709926
19500.0 6.473389753147146
