Freq "Rear Wall Bounce"
22.4 30.018127235793962
23.0 30.64208984972864
23.6 31.252440423751743
24.0 31.95366289779306
25.0 32.608155525140624
25.8 33.29372985449822
26.5 33.90039186047152
27.2 34.51060457353878
28.0 35.09694560005655
29.0 35.689074024387644
30.0 36.25807338008973
30.7 36.79431595817481
31.5 37.34434810276817
32.5 37.877556493147175
33.5 38.41361710109958
34.5 38.92334105862948
35.5 39.43373635983172
36.5 39.972715291274476
37.5 40.494473350310436
38.7 41.01300683937256
40.0 41.513006839372544
41.2 41.99084750856681
42.5 42.479853504698504
43.7 42.969568135902385
45.0 43.41083469545618
46.2 43.86956813590239
47.5 44.32101173860563
48.7 44.78965326879342
50.0 45.236136697086714
51.5 45.66739703478802
53.0 46.14132216662558
54.5 46.557082087953965
56.0 46.98795915773264
58.0 47.40913762664882
60.0 47.83564761033764
61.5 48.25636024583071
63.0 48.62453538203159
65.0 49.08771474004002
67.0 49.498439392688105
69.0 49.89843939268808
71.0 50.2984393926881
73.0 50.666676905222694
75.0 51.08772030381896
77.5 51.466436877919556
80.0 51.82429301423482
82.5 52.224293014234824
85.0 52.61387505762371
87.5 52.98772030381895
90.0 53.36643687791956
92.5 53.734927828303775
95.0 54.124293014234816
97.5 54.45612525205265
100.0 54.83468603980355
103.0 55.2138750576237
106.0 55.57195150973923
109.0 55.94529546533554
112.0 56.32429301423482
115.0 56.67195150973922
118.0 57.03468603980357
122.0 57.38247039821231
125.0 57.7402354854781
128.0 58.07195150973923
132.0 58.38247039821234
136.0 58.682470398212324
140.0 58.992963870815224
145.0 59.28247039821232
150.0 59.50902155058193
155.0 59.751072270703084
160.0 59.90902155058193
165.0 60.08247039821233
170.0 60.23034548698856
175.0 60.38247039821233
180.0 60.56188767957308
185.0 60.73058751725815
190.0 60.91969378058112
195.0 61.11969378058111
200.0 61.246389178898916
206.0 61.36777083745289
212.0 61.38429725208544
218.0 61.343281575063365
224.0 61.271331212664016
230.0 61.21054265862306
236.0 61.180527913256775
240.0 61.14659820947252
250.0 60.94659820947253
258.0 60.5165951991172
265.0 60.06808146091179
272.0 59.80712545456664
280.0 59.74198709777826
290.0 59.71326625119435
300.0 59.76662277665988
307.0 60.01255368807329
315.0 60.120020218046086
325.0 59.99746477472706
335.0 59.66566094502186
345.0 59.07827779525574
355.0 58.36994145099636
365.0 58.18305455133231
375.0 58.710375162793234
387.0 58.98079842949789
400.0 58.6720161233253
412.0 58.10211399282526
425.0 57.80386569602464
437.0 57.973659960387145
450.0 57.70042640868024
462.0 57.23846141490032
475.0 57.78541049496169
487.0 58.48003126118119
500.0 58.62189969735102
515.0 58.39585324666276
530.0 58.34379594332943
545.0 57.814871121207794
560.0 56.71510847663344
580.0 56.82106316765822
600.0 57.0825022186363
615.0 56.8430267705345
630.0 56.06114619370461
650.0 55.37517437115036
670.0 55.37514014869327
690.0 56.01830046662338
710.0 56.15717814154933
730.0 55.985776155071285
750.0 55.38942461333766
775.0 55.54895766923146
800.0 54.73317478296938
825.0 54.248386887407285
850.0 54.1757439226589
875.0 57.75373100397339
900.0 58.68247560238975
925.0 58.75153076032522
950.0 58.14968657845046
975.0 57.52450868485662
1000.0 56.08980052881879
1030.0 55.1551325473012
1060.0 55.849127550027795
1090.0 54.408709475731264
1120.0 54.333899993998806
1150.0 54.48919247874016
1180.0 52.66980931696724
1220.0 51.289195952957805
1250.0 50.805718868204444
1280.0 48.76116160867321
1320.0 49.135705382845565
1360.0 48.018932482114074
1400.0 48.3631522176262
1450.0 50.75850255772895
1500.0 51.95145597463124
1550.0 50.32110288392088
1600.0 47.155746763575614
1650.0 48.435417948208745
1700.0 47.655774708269355
1750.0 48.94602339999516
1800.0 49.96220711574636
1850.0 50.56192175835168
1900.0 50.52242114953406
1950.0 52.01191692349993
2000.0 51.275364210327105
2060.0 50.31775685744619
2120.0 49.32982851811173
2180.0 49.03685897822634
2240.0 50.03021062508525
2300.0 50.7099290538117
2360.0 51.15279115258863
2400.0 51.15603137885247
2500.0 51.27377948352488
2580.0 51.776412078131436
2650.0 52.10806548178274
2720.0 52.487200776938685
2800.0 52.17383888005396
2900.0 51.095026738134216
3000.0 50.17279512405019
3070.0 48.70193933846006
3150.0 46.33527792114648
3250.0 45.01735353018271
3350.0 43.95826961807703
3450.0 44.13304097683483
3550.0 44.63533359659686
3650.0 44.96997526207635
3750.0 45.2085117118723
3870.0 45.23567602748246
4000.0 43.207657326957154
4120.0 42.6620399624481
4250.0 44.76453941233881
4370.0 47.7669767478238
4500.0 47.48397756896161
4620.0 44.00813897681358
4750.0 40.64824905752021
4870.0 37.29011901207149
5000.0 39.23237658519218
5150.0 42.864438409271735
5300.0 46.67877950140292
5450.0 50.53326114899303
5600.0 53.35140028423684
5800.0 53.054820445788
6000.0 51.47043057049503
6150.0 50.506911359513005
6300.0 48.38753964566478
6500.0 45.83175530786345
6700.0 41.77923436971695
6900.0 38.58076626559005
7100.0 45.19903697582455
7300.0 47.22091567339066
7500.0 45.42965627228822
7750.0 42.47790574787724
8000.0 38.451350940165376
8250.0 32.865979128255496
8500.0 28.277000211213583
8750.0 25.81613530625929
9000.0 24.955092165334996
9250.0 31.186698612898873
9500.0 37.15177332290855
9750.0 39.1219482780155
10000.0 40.318227778506404
10300.0 39.00091391524008
10600.0 33.67927264636884
10900.0 26.967173298210064
11200.0 23.497123848646474
11500.0 21.59914013364243
11800.0 25.673532286226354
12200.0 29.00968449929004
12500.0 28.495829003775604
12800.0 24.94657751994415
13200.0 21.195061375265276
13600.0 19.857249790121266
14000.0 18.737315598425305
14500.0 19.135215551432132
15000.0 17.570187026659873
15500.0 10.777146896045785
16000.0 16.575900004937488
16500.0 18.549093151061065
17000.0 22.125163214747253
17500.0 21.15096967763366
18000.0 17.022518224654725
18500.0 16.582175333375737
19000.0 9.730217648621327
19500.0 4.297440386058547
