Freq "Side Wall Bounce"
22.4 30.419338057047916
23.0 31.05220258144896
23.6 31.652202581448954
24.0 32.35329048974844
25.0 33.00469757163676
25.8 33.656679625880706
26.5 34.26845731874226
27.2 34.86236640194377
28.0 35.43927970317406
29.0 36.039279703174024
30.0 36.598379863970244
30.7 37.152467435863564
31.5 37.69326739240383
32.5 38.2298560078791
33.5 38.75246743586356
34.5 39.25246743586356
35.5 39.74782651021555
36.5 40.28479833419379
37.5 40.82145806915383
38.7 41.31815248777931
40.0 41.814919718050355
41.2 42.29314055509996
42.5 42.79314055509996
43.7 43.27175110442685
45.0 43.71211554278417
46.2 44.1908195710246
47.5 44.650255786885204
48.7 45.06941865799214
50.0 45.548402507436315
51.5 45.9871039071672
53.0 46.427284161891045
54.5 46.84699614257908
56.0 47.30654683897735
58.0 47.70654683897734
60.0 48.106546838977344
61.5 48.54562135036638
63.0 48.94562135036636
65.0 49.36525046415624
67.0 49.76525046415626
69.0 50.16525046415625
71.0 50.58524537525323
73.0 50.96525046415625
75.0 51.38524537525324
77.5 51.78524537525323
80.0 52.16525046415624
82.5 52.52544274915902
85.0 52.925442749159025
87.5 53.28524537525323
90.0 53.685245375253224
92.5 54.06525046415626
95.0 54.46525046415625
97.5 54.8263529535519
100.0 55.206084417099724
103.0 55.56525046415626
106.0 55.926352953551906
109.0 56.3263529535519
112.0 56.7263529535519
115.0 57.08571002121359
118.0 57.426352953551906
122.0 57.8263529535519
125.0 58.126352953551894
128.0 58.5263529535519
132.0 58.8263529535519
136.0 59.12635295355191
140.0 59.426352953551906
145.0 59.72635295355189
150.0 59.98660768318506
155.0 60.2263529535519
160.0 60.40561117305662
165.0 60.5263529535519
170.0 60.70561117305662
175.0 60.82635295355191
180.0 61.0263529535519
185.0 61.2263529535519
190.0 61.345621350366365
195.0 61.5263529535519
200.0 61.62635295355191
206.0 61.7263529535519
212.0 61.70654683897734
218.0 61.62635295355191
224.0 61.46801908339582
230.0 61.34747581675445
236.0 61.268019083395835
240.0 61.228215664184795
250.0 61.070352281413214
258.0 60.69224573587976
265.0 60.41679129847824
272.0 60.32146548962259
280.0 60.4065433582088
290.0 60.52980427096747
300.0 60.677478916297126
307.0 60.92317723183316
315.0 60.98896942884587
325.0 60.897281787468266
335.0 60.67095193417229
345.0 60.30087763100985
355.0 59.908957049618884
365.0 60.04637804709967
375.0 60.744448857355344
387.0 60.931398718920114
400.0 60.37876047461017
412.0 59.63420993118769
425.0 59.41814693478231
437.0 59.91814693478231
450.0 60.05300671220295
462.0 59.827165239042905
475.0 60.32527759665303
487.0 60.892914500733916
500.0 60.80329788942688
515.0 60.394790609334386
530.0 60.170291875845216
545.0 59.73467482409996
560.0 58.95279270881925
580.0 59.300871462973014
600.0 59.58017567096794
615.0 59.4223346260358
630.0 59.15984889408187
650.0 59.29908425259
670.0 59.37432284190128
690.0 59.48112337009126
710.0 59.35781262747633
730.0 59.58241445844342
750.0 59.486871562135796
775.0 60.048621999035596
800.0 59.9706679168463
825.0 59.98357543791317
850.0 59.195128361300014
875.0 61.91627521274787
900.0 62.491425836445295
925.0 63.16872610788695
950.0 63.353241916006304
975.0 62.075965064795206
1000.0 61.18970406696105
1030.0 62.015057539484424
1060.0 62.393972253958616
1090.0 61.904318632887204
1120.0 61.64264150499874
1150.0 61.03900941035672
1180.0 59.99746060375181
1220.0 59.55028429312049
1250.0 58.948453549181785
1280.0 57.6588989895151
1320.0 57.24319116614611
1360.0 56.9801256158002
1400.0 57.52383562389392
1450.0 58.94419552007678
1500.0 60.321068317135904
1550.0 58.788777883631774
1600.0 55.80544006814011
1650.0 55.47907884103676
1700.0 55.10579033807273
1750.0 56.96753729820335
1800.0 58.069017642905855
1850.0 58.585146740075494
1900.0 58.81406714318812
1950.0 60.718325437848215
2000.0 59.83443870503395
2060.0 58.77521057196849
2120.0 57.31968943166675
2180.0 57.14331641543186
2240.0 58.14503709099676
2300.0 58.7063779887549
2360.0 59.149160277336655
2400.0 59.37502418620425
2500.0 59.818527253694576
2580.0 60.67189972956813
2650.0 61.30211756036852
2720.0 62.084122721619785
2800.0 62.536112077961
2900.0 62.5968887573541
3000.0 62.05384718048119
3070.0 60.64432901628765
3150.0 58.95162006555264
3250.0 57.24574062763029
3350.0 55.46532273038972
3450.0 53.37567980061956
3550.0 52.420760385334795
3650.0 50.335103571645185
3750.0 49.28786700402042
3870.0 49.91346409068631
4000.0 48.480613695211694
4120.0 50.25591124558178
4250.0 54.449579922589116
4370.0 58.95253309297237
4500.0 61.37625069089153
4620.0 60.971113663018905
4750.0 59.80770815985782
4870.0 58.95251205206467
5000.0 59.53541297310252
5150.0 60.485674547549486
5300.0 62.51723073083111
5450.0 65.20375528380964
5600.0 66.84655719299121
5800.0 66.13711186908657
6000.0 65.83237052652831
6150.0 65.02572264969743
6300.0 64.84495527438753
6500.0 64.23408775975926
6700.0 64.1299014370093
6900.0 63.81022231351327
7100.0 63.597578293942256
7300.0 61.883989963031574
7500.0 59.086816845706785
7750.0 56.9892970564432
8000.0 55.770272371878285
8250.0 54.784327167193474
8500.0 55.227404732163045
8750.0 54.755934405861545
9000.0 52.22492051112564
9250.0 50.786488322474845
9500.0 50.3305747020407
9750.0 50.27329515130565
10000.0 51.44797242308247
10300.0 51.10673215517276
10600.0 48.10041447669651
10900.0 44.706877959640785
11200.0 43.618972699791094
11500.0 41.17089093552786
11800.0 42.21728754656642
12200.0 44.85850128428334
12500.0 44.422384700643725
12800.0 42.51880309033394
13200.0 42.30164680200654
13600.0 40.56294871968009
14000.0 39.906894213874686
14500.0 42.33477614356294
15000.0 43.7630972445343
15500.0 41.62307591538532
16000.0 39.843313334444694
16500.0 36.78113536335069
17000.0 40.99171357161746
17500.0 42.721559386231526
18000.0 42.12755817148979
18500.0 40.37691902097185
19000.0 32.038013596866584
19500.0 27.194817946280743
