Freq "Rear Wall Bounce"
22.4 26.362608636729405
23.0 26.89525995739983
23.6 27.449301261788705
24.0 27.924864632183287
25.0 28.395242198770163
25.8 28.856578924577533
26.5 29.382953333807777
27.2 30.17273214019629
28.0 31.161497105825603
29.0 32.30452929677166
30.0 33.64120570714191
30.7 35.1614971058256
31.5 36.76909610282358
32.5 38.11001912431625
33.5 38.8398677343295
34.5 39.31770864984911
35.5 39.94883893514195
36.5 41.03754183892538
37.5 42.34536065155133
38.7 43.394624599750856
40.0 44.094624599750844
41.2 44.783949863428305
42.5 46.11196350331515
43.7 47.90627046294192
45.0 49.32281643024679
46.2 50.306270462941924
47.5 51.21286189487712
48.7 52.30198403202586
50.0 53.64243385956844
51.5 55.18227126765136
53.0 56.808994728050166
54.5 58.481081276096276
56.0 59.979079050489744
58.0 61.19971549328828
60.0 62.6405812976579
61.5 64.50264418834311
63.0 66.44883192471895
65.0 68.40055796442763
67.0 70.45237418797223
69.0 72.49869334513538
71.0 74.3305368973309
73.0 75.6346719488225
75.0 76.27105493262054
77.5 76.80359107893379
80.0 77.3558028717871
82.5 77.397953954396
85.0 77.46659142905551
87.5 77.86074741756224
90.0 78.21443042702971
92.5 78.9933949156434
95.0 80.14742664365772
97.5 81.05922857528238
100.0 81.55922857528239
103.0 81.69241497652033
106.0 81.46196883601046
109.0 81.13694288065497
112.0 80.94933005342213
115.0 80.40549806589875
118.0 79.71826532472737
122.0 79.65023425141698
125.0 80.50364758225714
128.0 80.93252297744228
132.0 80.46760357569505
136.0 80.25266065282901
140.0 79.9239962345776
145.0 79.20395396632031
150.0 79.3681712560295
155.0 80.14944569663457
160.0 80.21843190667944
165.0 79.59394898630174
170.0 79.14344075236609
175.0 79.32952080076636
180.0 79.55552827769374
185.0 79.57422768540424
190.0 79.9788899840475
195.0 80.42161705229454
200.0 79.95768044733683
206.0 79.57203175385102
212.0 79.57203175385102
218.0 79.41526660895336
224.0 79.13961716667481
230.0 78.7737248397889
236.0 78.43513943975289
240.0 78.44954137286554
250.0 78.68394800146957
258.0 78.65625647407508
265.0 78.59107949147243
272.0 78.7769983945355
280.0 78.9377446489424
290.0 78.93324801764189
300.0 78.71277543340406
307.0 78.43299533747226
315.0 78.03811512018622
325.0 77.79481955897054
335.0 77.50563821438732
345.0 77.07534456190098
355.0 76.74124049227154
365.0 76.46785500460709
375.0 76.19156676453885
387.0 75.91844697329397
400.0 75.47131091399844
412.0 75.21795600393946
425.0 75.05461084421093
437.0 75.14842586068173
450.0 75.38553342341345
462.0 75.46914306333592
475.0 75.40349923535929
487.0 75.2791118732813
500.0 75.18799570822661
515.0 75.15768314752529
530.0 75.03473057761578
545.0 74.84387954984369
560.0 74.50974331020099
580.0 74.00569475182795
600.0 73.41885761673069
615.0 72.77336807150252
630.0 72.21172795144618
650.0 71.94868358966333
670.0 71.98114444058564
690.0 72.12776534388438
710.0 72.16162209093046
730.0 72.03694574438647
750.0 71.72454933603576
775.0 71.2725609828668
800.0 70.84336233236245
825.0 70.48034792076464
850.0 70.1908193504332
875.0 69.97757255934924
900.0 69.80783427022861
925.0 69.57153729171773
950.0 69.27555009485313
975.0 68.77918776474382
1000.0 68.17710181786211
1030.0 67.49994837730013
1060.0 66.79769379474104
1090.0 66.25012447488831
1120.0 65.90402494208229
1150.0 65.76224610977984
1180.0 65.80350991847766
1220.0 65.91344237816458
1250.0 66.05417524362223
1280.0 66.10060072740761
1320.0 65.95975851152235
1360.0 65.60515484434144
1400.0 65.01507493261929
1450.0 64.3904053830638
1500.0 64.15783704452518
1550.0 64.58774453573538
1600.0 65.4246911742661
1650.0 66.34992149407692
1700.0 67.10014693614599
1750.0 67.74593150117761
1800.0 68.31246950907925
1850.0 68.74586509647015
1900.0 69.02456892435454
1950.0 69.09739019663992
2000.0 68.95976239071756
2060.0 68.62470355048495
2120.0 68.10475909083212
2180.0 67.48904894253907
2240.0 66.84983007529826
2300.0 66.49376328960395
2360.0 66.39546305216733
2400.0 66.4506402075312
2500.0 66.61040897132133
2580.0 66.72429036392509
2650.0 66.63945099986326
2720.0 66.57797959882531
2800.0 66.60107634127228
2900.0 66.34019277275608
3000.0 65.87655574317508
3070.0 65.49796230531568
3150.0 65.43908886258927
3250.0 65.36531132744636
3350.0 65.28965279554896
3450.0 65.583899007789
3550.0 66.12472010633063
3650.0 66.67859078697143
3750.0 66.5763506756681
3870.0 65.73102535162612
4000.0 65.18769082649014
4120.0 65.2539255326203
4250.0 65.15129502400809
4370.0 65.03101276611149
4500.0 64.84336299454331
4620.0 64.52664595676448
4750.0 64.38008171508339
4870.0 64.34555351741209
5000.0 64.26511685363188
5150.0 64.00280210585548
5300.0 63.34229345225795
5450.0 62.75922683430146
5600.0 62.12139157482112
5800.0 61.71509122826511
6000.0 61.52923289127189
6150.0 61.23876689855605
6300.0 60.94295923199799
6500.0 60.7294686169454
6700.0 61.086531270989795
6900.0 61.27189791943833
7100.0 60.93691727102511
7300.0 60.349670399059406
7500.0 59.92922638647035
7750.0 60.34153909670219
8000.0 60.80694360918788
8250.0 60.60358411861226
8500.0 59.7657658777962
8750.0 59.26721060406193
9000.0 58.64886431651148
9250.0 57.308671586072975
9500.0 56.19549992705511
9750.0 55.735364968941994
10000.0 55.53375074778255
10300.0 54.70253071987166
10600.0 54.34146770276509
10900.0 54.98911589097192
11200.0 55.70527933017577
11500.0 55.67001425249545
11800.0 53.717204777890814
12200.0 50.5259215502286
12500.0 49.31210610488195
12800.0 51.29470865357747
13200.0 53.411101013404064
13600.0 54.03971852585603
14000.0 53.508940353379
14500.0 51.91362896253504
15000.0 50.46781359518424
15500.0 50.514767058906344
16000.0 50.29192999980735
16500.0 48.194344434126876
17000.0 44.64033780941888
17500.0 40.614725341300826
18000.0 39.14415832609804
18500.0 39.70932489830854
19000.0 39.53561991197442
19500.0 38.11634691022492
