Freq "Side Wall Bounce"
22.4 22.503300174236628
23.0 23.059367921109597
23.6 23.65936792110962
24.0 24.167275518657036
25.0 24.70750258683556
25.8 25.201908325920883
26.5 25.835748312929397
27.2 26.635748312929408
28.0 27.670105712402503
29.0 28.88597802559569
30.0 30.285978025595668
30.7 31.84038761185836
31.5 33.556740256643636
32.5 34.93308362420986
33.5 35.76900923065158
34.5 36.30546656607363
35.5 37.02482764622066
36.5 38.15952406808701
37.5 39.53694944601595
38.7 40.71625833297769
40.0 41.47447803859724
41.2 42.2502572603902
42.5 43.68983920293435
43.7 45.547475816754414
45.0 47.106084417099694
46.2 48.20608441709969
47.5 49.165250464156216
48.7 50.40515918035949
50.0 51.82497160998345
51.5 53.50469661069728
53.0 55.224971609983456
54.5 56.98571002121356
56.0 58.60654683897728
58.0 59.96617337026491
60.0 61.507934054351765
61.5 63.49126273639861
63.0 65.55303545122534
65.0 67.61579106912875
67.0 69.79768724078548
69.0 71.97908326370798
71.0 73.90144049324314
73.0 75.28369092555266
75.0 76.10654335820877
77.5 76.74796316140842
80.0 77.41101782459945
82.5 77.57591144925037
85.0 77.79933656394103
87.5 78.28276592459517
90.0 78.76493971262916
92.5 79.6486179704542
95.0 80.906697480401
97.5 81.95681704968992
100.0 82.53714969524682
103.0 82.80379588427084
106.0 82.65681704968992
109.0 82.40379588427085
112.0 82.34843679009316
115.0 81.91337320167776
118.0 81.33314827961335
122.0 81.35574261746166
125.0 82.28095472645705
128.0 82.78095472645704
132.0 82.38095472645705
136.0 82.24903866135317
140.0 81.99186266815114
145.0 81.34903866135318
150.0 81.59186266815114
155.0 82.41467225441065
160.0 82.53444143159048
165.0 81.96036552992645
170.0 81.56036552992646
175.0 81.76036552992645
180.0 82.02012891711088
185.0 82.0833407052845
190.0 82.54613833553273
195.0 83.00029433234097
200.0 82.54613833553273
206.0 82.18619755409308
212.0 82.24613833553273
218.0 82.06918869972152
224.0 81.83218981780642
230.0 81.46918869972153
236.0 81.15531413629769
240.0 81.23218981780641
250.0 81.48171344807993
258.0 81.5016328803324
265.0 81.52492003817147
272.0 81.85150418725011
280.0 82.13820089201703
290.0 82.23820089201702
300.0 82.1888016943524
307.0 82.0759130049295
315.0 81.90342215477627
325.0 81.87464526366007
335.0 81.80280130304958
345.0 81.60280130304957
355.0 81.49053318958549
365.0 81.4429700064639
375.0 81.37198990232385
387.0 81.24297000646388
400.0 80.94297000646388
412.0 80.75509109036022
425.0 80.65509109036022
437.0 80.69591579474279
450.0 80.8724721718197
462.0 80.83788400504726
475.0 80.56750037291401
487.0 80.3091365344628
500.0 80.03771909209739
515.0 79.88735828446501
530.0 79.81007998989895
545.0 79.7727273954094
560.0 79.65684628709221
580.0 79.52709392511714
600.0 79.30724114746276
615.0 79.01023541654335
630.0 78.81180585784189
650.0 78.84968107335665
670.0 79.11684431117315
690.0 79.44642116502304
710.0 79.63975100886289
730.0 79.65037279019998
750.0 79.496005238886
775.0 79.30504422133514
800.0 79.14824732580949
825.0 79.0934022775822
850.0 79.10204147692271
875.0 79.1474000906014
900.0 79.04785808651353
925.0 78.79900295218542
950.0 78.44208962506148
975.0 77.94529028581886
1000.0 77.49207727048297
1030.0 77.05801597414167
1060.0 76.69072758455081
1090.0 76.411777390354
1120.0 76.18122312623721
1150.0 75.95216831535014
1180.0 75.90367015127659
1220.0 76.05748447633808
1250.0 76.34324011749729
1280.0 76.65290622506271
1320.0 76.739126623205
1360.0 76.45833013197522
1400.0 75.98934440888065
1450.0 75.393672531402
1500.0 74.859480384297
1550.0 74.69666371256565
1600.0 75.12310719965315
1650.0 75.9477573136792
1700.0 76.79057673146147
1750.0 77.3989223265058
1800.0 77.81765562671055
1850.0 78.1878070436259
1900.0 78.62418241237829
1950.0 78.94214509578607
2000.0 79.0451335573086
2060.0 78.97582025222603
2120.0 78.85555141593274
2180.0 78.58882450712102
2240.0 78.1723796592863
2300.0 77.74672894120552
2360.0 77.49714396190416
2400.0 77.5371449017847
2500.0 77.67053968077244
2580.0 78.00978589774702
2650.0 78.28703573838202
2720.0 78.51168155505385
2800.0 78.58476520473265
2900.0 78.4824064123345
3000.0 78.05977108025998
3070.0 77.70065820205913
3150.0 77.6455625374965
3250.0 77.72190269365555
3350.0 77.916567776843
3450.0 78.50796105580915
3550.0 79.18977460505421
3650.0 79.81011535504781
3750.0 79.87834947382292
3870.0 79.32828128547465
4000.0 78.98052533154002
4120.0 79.07922225084472
4250.0 78.99222774311215
4370.0 78.8146426636336
4500.0 78.6888440493371
4620.0 78.74017916328046
4750.0 78.85533446278306
4870.0 78.9988169625526
5000.0 78.91385391561111
5150.0 78.31412341399404
5300.0 77.58734507483034
5450.0 77.26763986673816
5600.0 77.17289704322766
5800.0 77.19340782935086
6000.0 77.24512010958222
6150.0 77.07731574766204
6300.0 76.65916536879486
6500.0 76.22515400802546
6700.0 76.1048002191106
6900.0 76.05228634290266
7100.0 76.15433809034378
7300.0 76.42428252302186
7500.0 76.70735252786727
7750.0 77.05491163449598
8000.0 77.44876123594999
8250.0 77.25224748172914
8500.0 76.72481562837854
8750.0 77.02538733048928
9000.0 76.85713288287093
9250.0 75.43591595266656
9500.0 74.27183874634731
9750.0 74.1329153215678
10000.0 74.22094849899128
10300.0 73.62389566469786
10600.0 73.70583099870032
10900.0 74.78857236543645
11200.0 75.6653192258183
11500.0 75.70142183527277
11800.0 74.04080334073072
12200.0 71.61838154408709
12500.0 70.8426479199952
12800.0 72.57151484127334
13200.0 74.98199008008287
13600.0 76.09005668839885
14000.0 75.8133220474578
14500.0 74.1521922736744
15000.0 72.93136334242199
15500.0 73.32824867509916
16000.0 73.50992285802032
16500.0 72.31036231751342
17000.0 69.6078567750687
17500.0 65.27314504060374
18000.0 62.483229497701686
18500.0 62.395748797426435
19000.0 62.16523620817618
19500.0 61.14538250933832
