Freq,Floor Bounce,Ceiling Bounce,Front Wall Bounce,Side Wall Bounce,Rear Wall Bounce,Total Early Reflection
20.5078,58.02128695813366,57.10138269599915,57.39805086112955,57.192348273353986,64.63987523131314,60.1122301179349
21.9727,60.14720383716582,59.57685477678872,59.60748709748884,59.6297123962932,66.50020666971704,62.16985876954652
23.4375,61.48473566791341,61.31422028544645,61.05268762316847,61.372089309878604,68.14937678830555,63.779313691543265
24.9023,63.8587574592038,64.2064532934435,63.56917212285104,64.26167674067837,69.82273091472226,65.93469514942257
26.3672,66.02927642633911,65.39640598052364,65.59276128417952,65.65658059410578,70.63201870688235,67.21680776992352
27.832,67.05112896959082,67.56319991312354,66.85137288305627,67.6139779656281,72.17705949274222,68.79688819276063
29.2969,68.1024678825583,68.27694724100203,67.88634881923917,68.38912368180256,72.44744469644729,69.42521460887023
30.7617,69.93324496409856,70.12320086687501,69.79238193297482,70.21110398530465,73.54936499635352,70.99056176170433
32.2266,71.09911972594489,71.15403490228229,70.92267053548227,71.32310072321292,74.36406257211115,71.99577656099356
33.6914,72.14196140830559,72.24735986300125,71.98798706893153,72.4160342983256,75.20890198071287,72.99210371629547
35.1562,73.49469819872317,73.58407657749875,73.35641597326449,73.76921014335021,76.28251928425762,74.25369048133658
36.6211,74.35488704139377,74.47811151919119,74.23227686048001,74.62895200606647,76.83054954251305,75.02516692398754
38.0859,75.14594890163644,75.17087900236703,74.99371591847286,75.40725448893724,77.48129766952815,75.74948830678323
39.5508,75.85916068843324,75.92508951217224,75.71688856505031,76.14381469975203,78.03241337147612,76.42836529933936
41.0156,76.73086429868455,76.73652817391795,76.58740446437217,76.97334241308155,78.69553246786137,77.22171364788974
42.4805,77.44477939183294,77.45099670847182,77.2948555113231,77.7121027635154,79.30883593621829,77.91132188119735
43.9453,77.92306486569657,77.90643489597397,77.77614425176873,78.15603240266385,79.61357105335532,78.33217262681133
45.4102,78.67293679963937,78.67127354451812,78.53284797475986,78.91154223228659,80.25525326402555,79.05827973659558
46.875,79.26018256946166,79.23696779858638,79.11646530321892,79.48454006601904,80.73464395130219,79.60998794352044
48.3398,79.8220883099049,79.78373172449245,79.67408721932055,80.04244557968599,81.21201764956199,80.1458080834486
51.2695,80.89383489907515,80.82645114836873,80.74640907198349,81.08844269667722,82.07680546736248,81.15520659569603
52.7344,81.32460421003915,81.24562034418499,81.17270128076933,81.51535133824831,82.45220273361024,81.56861314642794
54.1992,81.78045357382227,81.68564370969654,81.62414015772693,81.95889806986955,82.82652271207745,81.99842113889883
55.6641,82.18868798590952,82.07499856214798,82.0329419260032,82.34800530671984,83.12006928558769,82.37194017050786
58.5938,82.88759647998022,82.749639091806,82.7269902762911,83.02866736026267,83.70262205452954,83.03437676714742
60.0586,83.20361601869752,83.05367020117474,83.04239477858621,83.33078971240508,83.94296383153352,83.32770851652484
62.9883,83.80666729190432,83.61273059404812,83.63814513335649,83.89780637670802,84.38764398401527,83.87783430043508
64.4531,84.07953351010443,83.8638308216556,83.90987116385497,84.1476561123026,84.55863685167436,84.11902626799662
67.3828,84.55477614957397,84.32013458972563,84.38631281363749,84.6082407944782,84.90395036550268,84.5595208902775
68.8477,84.65214901344447,84.43277437588614,84.48634148313654,84.71335583115268,84.99396491347541,84.66027322591219
71.7773,84.94540073943342,84.66715491333278,84.7609893941013,84.97460279550916,85.19860714961364,84.91327482464045
74.707,85.15136016629002,84.84424753235771,84.96202225935754,85.15841353154677,85.31956809763741,85.09029112775657
77.6367,85.24729542060277,84.92841415935271,85.05845210796942,85.23742305151922,85.33600426135268,85.1640033335914
79.1016,85.2333735447923,84.90811615583796,85.04534609593772,85.21342305906246,85.27544886396524,85.137315780463
82.0312,85.22682003796737,84.90205480173316,85.04510146986541,85.19857383220692,85.20072193035546,85.1164159233229
84.9609,85.2430127196261,84.88865528087231,85.045078492682,85.19578286185342,85.18757945276897,85.11394727412676
87.8906,85.33224098577477,84.92850086270874,85.11952482544748,85.24262249155899,85.2135497090836,85.16944418018392
90.8203,85.38955078151636,84.92651888114474,85.16800840180713,85.25744680730293,85.16943625984047,85.18481303223795
95.2148,85.29586483505173,84.823897349112,85.08174328340611,85.13833611901387,84.95148381208283,85.06125196237096
98.1445,85.17267524687338,84.68084948856507,84.96069315482495,84.99014430307875,84.74331759436856,84.91318398964752
101.074,85.06256437267004,84.55346475668885,84.85637556340019,84.84735171086515,84.51811714018905,84.77239639807621
105.469,85.02155365652425,84.48350308815898,84.81250776110787,84.76875233356094,84.33232576288029,84.69065078826154
108.398,84.89544844316293,84.3331334315669,84.67163423897073,84.63668573723767,84.23779539902479,84.56152098363606
112.793,84.6079645471778,84.01396438618492,84.37515858533665,84.31845235673232,83.97682063092287,84.26489522305702
117.188,84.46594149735797,83.74985801340506,84.21658450092374,84.07094323307997,83.55641376689428,84.0240726555476
120.117,84.61827650633808,83.81286502838687,84.35708248888346,84.14934493592499,83.47742019109455,84.10141528049238
124.512,84.67314741061656,83.89853386021082,84.41032813945014,84.24937383612479,83.68902572880275,84.19834822099617
128.906,84.43290604575324,83.66467981947463,84.18171550708999,83.99803289666906,83.44238231511835,83.95836416794204
133.301,84.32967942048094,83.52913110283455,84.09237671913732,83.83703621729988,83.10810155310625,83.80015597480471
139.16,84.0727834466697,83.25020389713319,83.79940812092693,83.59816177745117,82.81084456986758,83.52821139979253
143.555,83.90040136674493,82.95510077088177,83.6021162616727,83.36561746998228,82.62162902931277,83.31263532037508
147.949,83.91037473537908,82.92816872614746,83.62994641660956,83.29400257031091,82.64285739096968,83.30518882792775
153.809,83.80213619195553,83.02180054362184,83.61307895827309,83.27125358475719,82.35610240122898,83.24170259359668
159.668,83.23542759841892,82.40050083495075,82.9687709691388,82.62283120874665,81.5479424796853,82.59253877982752
165.527,83.1187824028247,82.11236318907805,82.83745355935288,82.29073855789753,81.25073403669619,82.3690781545886
171.387,83.55048560451823,82.25174387352426,83.1819310659617,82.61493529035606,81.29040639216443,82.64673975238703
177.246,83.49057649668256,82.42668225938225,83.21584199082646,82.76323391638005,81.78265053185376,82.77665818980552
183.105,83.39499376078501,82.24179905471313,83.13017488089336,82.56873989247943,81.45293971612377,82.61063649707597
188.965,83.41645036866156,82.2487879931912,83.16609903277418,82.52674714880769,81.37571141276638,82.60519834928286
196.289,83.44072846664193,82.26315807006327,83.15832037380751,82.54317013707447,81.2633227131912,82.59845915966187
203.613,82.9677801736069,81.66752962783369,82.69985161597458,81.94166767907362,80.69078950749653,82.0665241554594
210.938,83.20567329253494,81.78742476311498,82.91925159320174,81.9935099539726,80.01405043197445,82.11947014589074
218.262,83.34221809412219,81.91678750679012,83.02674039369552,82.30670033615986,80.43952081352671,82.31908490741202
225.586,83.12346498899744,81.69803141937302,82.83682691130679,82.0567207770143,80.58940700559148,82.15056150106984
232.91,82.96088417553074,81.45816023537583,82.67889812520343,81.69504216250598,80.11916578077069,81.89471661920247
241.699,83.20631575755229,81.6041930253627,82.93127293824372,81.91437495775136,79.60204149481692,82.02461060391278
250.488,82.90670641779178,81.09531856252518,82.61053112834846,81.5121885335947,79.24546567134345,81.65592266797427
259.277,83.45721530499524,81.5219884881572,83.15913938023647,81.8933534029236,78.78059376994948,82.04546287285164
268.066,83.83862624745672,82.27766586101534,83.5883255834093,82.78720285608459,79.9517959199944,82.68733783600405
276.855,82.8410597429929,81.46466227410033,82.62370245003663,81.60526612860147,79.74198607975511,81.78621601594871
287.109,82.83833849561688,81.14395195553477,82.60908993908608,81.47549455532976,78.7611489024875,81.58581653126254
297.363,83.32755304074506,81.78545709212705,83.14786775891805,82.0931221757775,78.68519094190714,82.0857395296902
307.617,83.2311376579002,81.69116028345692,82.95011483517152,82.1050332311707,79.37256376247166,82.06398103938892
319.336,82.3849698263181,81.06721815708931,82.21571999441244,81.37320628726009,78.81869268742184,81.34158477443927
329.59,82.25532495770794,80.77887872950674,82.08320717861328,81.02607641384874,78.75391197481942,81.14605886266108
341.309,82.70276834111371,80.95536289213527,82.42963906151854,81.14620362168922,78.0541918094155,81.33534823523328
353.027,82.48280509058586,80.56347901846141,82.34533381151854,80.84490286484441,77.57935801004427,81.08113314070887
366.211,82.94083064503654,81.39907448247766,82.84175161772193,82.03406062957619,77.54720380455885,81.72490789820142
379.395,82.364251515935,80.79666447869889,82.26890504325597,81.24053092982814,77.61341959914789,81.15201793192216
392.578,82.42065404076206,80.86130290938434,82.3957174868294,81.40670365298463,77.1567658758394,81.20814308802575
405.762,81.97618390229727,80.57119799982542,81.8443000221617,80.96820226719541,77.69931188949018,80.85244988027875
420.41,82.07709631254727,80.29288598073106,81.94687194410129,80.53147574806647,76.69675411447056,80.6790616544553
435.059,82.69802661232089,79.79585783699457,82.42775513954564,80.13537817201092,77.57388985146981,80.91168689614787
451.172,83.1513025321814,80.19089931537148,82.89175565957665,80.46030794255566,77.3320156735765,81.27745969283573
465.82,83.3237397968437,80.06102772457865,83.08451244642434,80.88764498640975,76.09076264596857,81.35551819872464
483.398,82.99637652529732,79.38573761201451,82.91861287092661,80.87503926843503,76.69775481841461,81.14653477269822
499.512,82.13655613626477,79.15464217049107,82.6536135469564,80.70333562599156,76.070634009047,80.70509279588052
517.09,81.93212928750974,79.34704991950878,82.33322208554472,80.35644199758623,75.26027733390154,80.45581589242653
536.133,81.95204886350403,79.36146409275047,82.41243140194406,81.00147228252195,75.52939895083958,80.63717400732635
555.176,81.00700094342217,78.97467690202637,81.75159211291341,79.94235778687107,75.67133089358967,79.91523475339815
574.219,81.48068619271116,78.63347724920239,82.08727330129102,80.37446510881576,74.97006330720475,80.13467685026144
594.727,80.34946797968507,78.85265426762524,80.975136450502,80.17613389502998,75.63565050534801,79.55285887194691
615.234,82.97971420681225,79.92609843135179,82.86652564880949,81.10433075415588,78.24954283317321,81.37466377945861
637.207,84.41906215391006,80.35578241940658,84.24450196487727,81.17445445439009,77.8555349259544,82.26853124096446
659.18,83.31453526525792,80.19090033288163,83.54007552593376,80.8017656010722,76.64019440144108,81.53121449735617
682.617,83.51934023367379,79.77733648980022,84.0048371566873,80.31825916914586,77.41871656622423,81.66807035937899
707.52,84.24822492838413,81.0882373246192,84.65816584232701,80.53812202623419,77.1569802926646,82.31411778561454
732.422,82.76067018322944,81.02057687146983,84.13144561560767,80.9579473957124,76.90470376677135,81.74894742903307
757.324,83.17207124132638,81.21934516626249,84.33073386681663,80.89858189279775,76.5337721488924,81.92608295663746
785.156,82.90647981199382,81.0111210200099,84.33671060098061,80.55600037295861,75.75674619266047,81.72736795541688
811.523,82.233327005675,80.39392339706689,83.74088156401785,80.45743017083397,75.20400355318117,81.19006789224281
840.82,81.39471678989203,79.53563975175172,83.80900018744714,80.65607016721098,77.42842328924837,81.07028933188076
870.117,81.51670338080096,79.37980913808853,82.57968847483778,81.37140060910522,78.71466291326627,80.94209423582981
900.879,83.71831548654126,81.23744372843412,82.62516282043303,80.94075289865498,76.27755088352856,81.57174401160647
933.105,83.85937197624847,80.21184774333292,83.29227523374676,79.8001275640664,73.9448124999258,81.3475333512576
965.332,83.92714352814076,79.9336745721173,83.52858458209187,79.97760014696809,72.89521064795136,81.39757763637539
1000.49,84.21662892079303,79.92440586146374,83.42723894835538,80.12669235667198,72.91476192048867,81.49211676149328
1035.64,84.44339381504359,79.99238438160955,83.63937897798097,79.8102748331322,72.69743745618884,81.60481858829047
1072.27,84.95435985846656,79.41141978384164,83.30209012013674,79.6902182928896,72.36358008538451,81.61065436583115
1108.89,85.05925509937263,78.1178422698226,83.16280032483313,79.16831095809056,72.2564451931556,81.41095594008584
1148.44,85.34552108186091,77.61510290743709,82.3476978229136,78.96218550299965,71.29263637341867,81.23243656259592
1189.45,85.50785330161492,78.51954664264669,81.79957294978732,77.01928068434995,72.17728008483934,81.10429255856334
1230.47,85.7245089269991,78.26879543964776,81.7573769167668,77.32908658535044,72.23101965036876,81.2150663681849
1274.41,85.81117060953258,78.38892470561856,81.59943191100164,77.18478686413502,71.3867645613138,81.21073465840209
1319.82,86.25284029371367,79.11202290562011,81.50590571894776,77.193126886314,70.76634216010235,81.51831986767073
1366.7,85.98118151787315,79.11610945757761,80.93439821536745,76.3809362291383,70.60996236763465,81.18558643028621
1413.57,84.8843544965351,78.9400787401516,79.66993233913358,75.29345623070164,70.24772601441725,80.19834321305262
1463.38,84.1313578525193,78.64883702420195,77.86792022798844,74.19384438024727,68.99068844487621,79.32029578168307
1516.11,83.56479287523584,78.38198273146598,76.69677516440973,73.62818957343816,68.81470979912011,78.73369398853467
1568.85,83.40863427721482,78.28313695092946,77.75603030910776,74.86015629888115,69.00339836479368,78.86239165775561
1624.51,83.0988423958455,78.13192553465619,78.86428097700147,75.84195246235399,69.49058053496532,78.95898854450884
1681.64,83.07854273689728,78.53420817265895,79.69826727367953,76.4550486675497,70.21535429476958,79.2688436811117
1741.7,82.87967225138033,79.29670567210661,79.93447894062946,76.51235922574702,70.23400363119052,79.37492920539671
1803.22,82.47589843379261,79.80390254473271,80.8221637933943,77.35985273223251,70.55454905219327,79.62919231371464
1866.21,82.34906552735819,80.6778583292216,81.12566040824274,77.67473425186304,69.92636179262769,79.88210307467679
1932.13,82.03459337645849,81.05273864561035,80.98484360464039,77.45435057916777,69.4929992098552,79.79717403698524
1999.51,81.54248346767722,81.3449297555564,81.55370873295539,77.5831872777276,69.98001617520814,79.9054184986635
2069.82,81.13142055389243,81.6706698195204,81.69661125949918,77.88779485389448,70.17722765111353,79.9683911020781
2143.07,80.91157511856416,81.86236171421955,81.35555783250356,78.14259143918295,69.45517876064736,79.89054661010604
2219.24,79.83992131887354,82.22831820685094,81.1182895584405,78.10583617269069,69.80489031381074,79.70353453188636
2296.88,79.81378748876315,81.94713231136008,81.6721666947621,78.45923342515924,70.08247792599386,79.81968401773946
2378.91,79.96240596848148,81.39188431470083,80.85738034661362,77.96827043164978,69.66242733216922,79.35137158246171
2462.4,79.29843195021945,81.25815189789266,80.00053520395127,77.49856738844005,68.89300814794703,78.83847215052086
2548.83,79.12699862503098,80.53382005449048,80.39045687027033,77.84323185752032,68.75605069798483,78.72324433517626
2639.65,79.09345955027851,79.59223688999106,80.04271459887813,77.62074397630104,68.54642976547093,78.3015529763212
2731.93,78.86808196688273,79.47796262174187,79.6897070148323,77.26696440308446,68.24597412506057,78.04559584026802
2828.61,78.43987922209178,78.8744497451622,79.84829866263146,77.16240875406652,67.71328584410813,77.80307011526443
2928.22,78.77409561013685,78.74637092180294,79.56214201640043,77.6062254289859,67.77089016219473,77.84410192965326
3030.76,78.62751677391074,78.97494513177085,78.58976540793257,77.47024057731544,67.77352101879833,77.57384032236294
3137.7,78.77822859693339,78.40702689561833,78.4531795039321,77.69581363862652,67.73769662992038,77.47530523899056
3249.02,79.14568943355744,78.37917610996621,77.91679861143673,77.84374185568645,67.50689300046889,77.4724332207168
3363.28,79.71681279225314,78.11947002726849,78.2337205259112,77.62243099291106,68.0552418654319,77.6246788760083
3481.93,79.56866314052952,77.32619088259298,78.6651780614762,78.07193706355585,67.69446704894284,77.60637957580927
3604.98,79.87628735336239,77.50034302845549,79.2116833103731,78.20809612345911,68.05194586181979,77.91562565296503
3732.42,80.13612270863412,77.55549819743001,79.42560328209407,78.42163446420673,68.38262798648904,78.11805443974743
3864.26,80.31376478969958,78.17448877513988,79.6914617552195,79.36488005449712,69.82919376336693,78.60129270346606
4000.49,81.04114301039299,77.5556386206201,77.926793059343,79.83304795181468,70.18399022566037,78.48500244532181
4141.11,81.08355251879233,78.13923223634913,76.40955810623487,79.79729785666791,69.90044967035351,78.35627568876163
4287.6,81.19359621472732,77.96014455261201,76.56833484653974,79.32581618945758,68.58101807976759,78.22640801800064
4438.48,81.64623050607399,78.67712566457548,77.49563847728162,78.70280994220855,67.4462054192864,78.52166774530127
4595.21,81.82034441149507,78.53359762988043,77.95501241964064,78.45880845231316,67.64362176203821,78.59493133924835
4756.35,81.51086633443896,79.19152451879903,78.82947876934317,78.88711768328528,66.16344045852486,78.8368958456197
4924.8,81.85898029382444,79.14064701342726,79.05126120099816,79.36400844579222,67.4929730877885,79.11520731694097
5097.66,81.77192998569888,79.00030300308887,79.07647296925941,80.3260952147871,67.96314188490604,79.29129887419268
5277.83,82.23542734424821,79.02438958216075,80.05262945966925,80.5780707017746,67.52810454370946,79.71567506951483
5463.87,82.64024779425222,78.77832811950287,82.04581618137603,79.73101159297428,66.79910488440593,80.15438703831688
5657.23,82.69812789920172,78.59709928431175,82.37435808050428,78.74555557010221,65.52531305807516,80.08397746006963
5856.45,82.59665172430944,78.17200886620688,82.3627633842653,78.2758438747083,64.85616571038953,79.91282565261372
6062.99,82.46879005512811,77.14000743155836,82.4893343361294,77.90249568001727,64.53068071346073,79.73349954279452
6276.86,82.37369417977341,76.5901355069311,82.53225237286611,77.84230862233855,64.78708573077012,79.65056816286713
6498.05,82.29075193574567,76.53430577110736,82.9567358893045,78.47707431799763,64.6937359420867,79.87132413962394
6726.56,82.22331220528736,76.50511605300628,83.20819674024331,78.61046626558735,64.52697956613915,79.96819408993204
6963.87,82.36029193079241,76.47610175762875,82.9789493849767,78.14853225661597,63.792881747984694,79.84859327668391
7209.96,82.41605689970324,76.61873790116196,82.59106317435845,77.41906299462076,63.47812678035004,79.63173301756461
7464.84,82.38818526566706,76.96906191252022,82.58653005023605,77.07424603886071,62.76671252178036,79.6127992479321
7727.05,82.42773540352471,76.84301789359817,82.89992797295199,76.92682096164398,61.89167175709957,79.72241058731414
7999.51,82.58527134063992,76.62622701776236,83.10743841771433,76.5621949699029,60.8113604725567,79.80804416542225
8282.23,82.37399358973316,76.84568709282753,83.04079912564728,75.92259648054703,59.35224379314087,79.66132460272726
8573.73,82.096574478649,76.87785604518567,82.75677977097152,75.12595056157188,56.94347783939182,79.37005193086952
8876.95,82.02443869237182,76.69992640377782,82.52615585071895,74.32300426682974,54.667831668783265,79.16358979753839
9188.96,81.85485299500188,76.81465823220914,82.42716477601756,73.62676076876178,54.080270495911066,79.02526535555458
9514.16,81.84582306251792,76.67755156548344,82.32271511121716,72.89213227701828,54.88657401269015,78.9207243276954
