Freq "Listening Window"
20.5078 53.066828692938444
21.9727 55.91444051775174
23.4375 57.33515528848248
24.9023 58.75376497877444
26.3672 60.310809185911765
27.832 61.68801614752688
29.2969 62.92939923879719
30.7617 64.25358255636922
32.2266 65.33971184958673
33.6914 66.419815506113
35.1562 67.3924160881234
36.6211 68.315947219317
38.0859 69.34110588295292
39.5508 70.16636660083297
41.0156 71.0495963096931
42.4805 71.8256907615322
43.9453 72.547827881276
45.4102 73.28887555760724
46.875 74.01921886017443
48.3398 74.66423284926545
51.2695 75.9003101954019
52.7344 76.43188851035605
54.1992 76.91419159597693
55.6641 77.46546087507797
58.5938 78.41960944007207
60.0586 78.81412841998232
62.9883 79.45806791956143
64.4531 79.88496986300991
67.3828 80.47018306586533
68.8477 80.70805514806683
71.7773 81.11032210844536
74.707 81.57129939310201
77.6367 81.98193186413936
79.1016 82.13700933480122
82.0312 82.33401747919056
84.9609 82.63652789945795
87.8906 82.90060687205985
90.8203 83.41412556831008
95.2148 83.58329400777286
98.1445 83.79894087062772
101.074 83.91018592942616
105.469 84.28099133130046
108.398 84.54526285484972
112.793 84.80143981371845
117.188 85.01872324552023
120.117 85.16428903262663
124.512 85.4143860707337
128.906 85.47592849056231
133.301 85.57506854097285
139.16 85.60366105393621
143.555 85.75694588874649
147.949 85.79717967985394
153.809 85.75706355131294
159.668 85.83028724471781
165.527 85.94791374743504
171.387 85.87425656715509
177.246 85.83629470703983
183.105 85.7000619954567
188.965 85.75169886197335
196.289 85.79853522037801
203.613 85.63619922919628
210.938 85.64632794130095
218.262 85.53988270724098
225.586 85.33218949038414
232.91 85.33336450814103
241.699 85.20372698879767
250.488 85.19307448976313
259.277 85.36459122890349
268.066 84.90305208256491
276.855 84.72584354787719
287.109 84.51455517336903
297.363 84.81199409797513
307.617 85.239016238099
319.336 85.08237229371466
329.59 85.29432329834803
341.309 85.20607524768722
353.027 85.32062493920783
366.211 85.63735782713081
379.395 86.11614642241581
392.578 85.88773541833804
405.762 85.59816174650223
420.41 86.4811640920865
435.059 86.82773991579717
451.172 87.09075452489317
465.82 87.37018748641432
483.398 87.09747616249409
499.512 87.28893585061094
517.09 87.29321803797936
536.133 86.52920760378903
555.176 86.52132822949517
574.219 86.93143902327932
594.727 86.4383869494218
615.234 86.060997703648
637.207 86.2929510146742
659.18 86.21333704858122
682.617 85.5729319358836
707.52 85.55032074156547
732.422 85.39922934779331
757.324 84.73686500537484
785.156 84.97757628438683
811.523 84.5213809301289
840.82 84.41074375743128
870.117 84.60493699124663
900.879 84.76952207700516
933.105 84.3753592814824
965.332 84.70180220490123
1000.49 85.21838580911584
1035.64 84.79207353755068
1072.27 84.62847240310622
1108.89 84.29559532169579
1148.44 84.03202823692433
1189.45 85.03007452698077
1230.47 84.99052877862681
1274.41 84.83939927360477
1319.82 84.37632466057914
1366.7 84.3679518381448
1413.57 83.95351267550389
1463.38 84.51373986767697
1516.11 84.88144204975347
1568.85 85.0910620897046
1624.51 84.48276367828088
1681.64 83.72771909443343
1741.7 83.79100788978059
1803.22 84.18814022887462
1866.21 84.02314485946654
1932.13 83.77798839710228
1999.51 83.7157529939086
2069.82 84.10736031255207
2143.07 83.77890791904449
2219.24 83.15550506699954
2296.88 83.6025743351335
2378.91 84.04426632299298
2462.4 83.11150619408339
2548.83 82.99224078449632
2639.65 83.97181037198251
2731.93 83.53162342967424
2828.61 83.33688982094267
2928.22 83.86651811281045
3030.76 83.94695068874427
3137.7 83.47708709886889
3249.02 83.65322099150715
3363.28 83.91709629174272
3481.93 83.70475350347913
3604.98 83.51116156213139
3732.42 83.7079743020486
3864.26 83.46116197764887
4000.49 83.39957258216828
4141.11 83.53838161772792
4287.6 83.30107478256707
4438.48 83.48829636598111
4595.21 83.86408016770197
4756.35 83.62685180044058
4924.8 83.95114221588948
5097.66 83.62214547315473
5277.83 83.94606864525883
5463.87 83.93883474452082
5657.23 83.60950794747913
5856.45 83.40972499071576
6062.99 83.28507405518715
6276.86 82.79784019335659
6498.05 82.44666033651554
6726.56 82.56932099843766
6963.87 82.42994795483177
7209.96 82.44948550655094
7464.84 82.6101313455748
7727.05 82.57346497726114
7999.51 82.50423084384222
8282.23 82.75857164793337
8573.73 83.03588501065656
8876.95 83.08316823439692
9188.96 83.02346999338805
9514.16 82.84979836815155
9849.61 82.63395292394044
10196.8 82.40512234119427
10555.7 82.49369986715159
10927.7 82.40182082775497
11313.0 82.19804972835986
11712.9 82.15950498162022
12126.0 82.23108423925193
12553.7 82.27122367220495
12996.1 82.0854326095808
13454.6 82.0049956008457
13929.2 82.14777363745027
14419.9 82.1791099271436
14928.2 82.21511230778655
15455.6 82.39425085677986
16000.5 82.49320465663303
16564.5 82.50181784798822
17148.9 82.31234744022613
17752.4 81.89444324318194
18379.4 81.3245085540599
19026.9 80.6711737981645
19697.8 79.77875979817132
19999.5 79.45788879165154
