Freq "On Axis"
20.5078 52.81410000000001
21.9727 55.6572
23.4375 57.08
24.9023 58.499399999999994
26.3672 60.055899999999994
27.832 61.4328
29.2969 62.6756
30.7617 63.999099999999984
32.2266 65.0851
33.6914 66.16540000000002
35.1562 67.1381
36.6211 68.0624
38.0859 69.0881
39.5508 69.9137
41.0156 70.7968
42.4805 71.5735
43.9453 72.29689999999998
45.4102 73.0373
46.875 73.7707
48.3398 74.415
51.2695 75.6515
52.7344 76.182
54.1992 76.66370000000002
55.6641 77.2172
58.5938 78.17290000000001
60.0586 78.5701
62.9883 79.2074
64.4531 79.63690000000001
67.3828 80.2262
68.8477 80.4652
71.7773 80.8678
74.707 81.3294
77.6367 81.7399
79.1016 81.8944
82.0312 82.09009999999999
84.9609 82.3882
87.8906 82.6518
90.8203 83.1817
95.2148 83.3451
98.1445 83.56060000000001
101.074 83.67210000000001
105.469 84.0478
108.398 84.31500000000001
112.793 84.5734
117.188 84.7946
120.117 84.9412
124.512 85.188
128.906 85.25179999999999
133.301 85.35280000000002
139.16 85.3863
143.555 85.5448
147.949 85.5859
153.809 85.54530000000001
159.668 85.6215
165.527 85.7393
171.387 85.67110000000001
177.246 85.63949999999998
183.105 85.5074
188.965 85.5665
196.289 85.6137
203.613 85.4575
210.938 85.4741
218.262 85.363
225.586 85.1629
232.91 85.17299999999999
241.699 85.04610000000001
250.488 85.0441
259.277 85.2121
268.066 84.7651
276.855 84.58230000000002
287.109 84.4097
297.363 84.7325
307.617 85.1519
319.336 85.0014
329.59 85.20730000000002
341.309 85.1459
353.027 85.25669999999998
366.211 85.57279999999999
379.395 86.051
392.578 85.80829999999999
405.762 85.5311
420.41 86.4165
435.059 86.75680000000001
451.172 87.0055
465.82 87.2888
483.398 87.0013
499.512 87.2043
517.09 87.20900000000002
536.133 86.4206
555.176 86.4295
574.219 86.8385
594.727 86.3251
615.234 85.96229999999998
637.207 86.2044
659.18 86.11660000000002
682.617 85.4783
707.52 85.55070000000002
732.422 85.39729999999999
757.324 84.71840000000002
785.156 85.1001
811.523 84.6797
840.82 84.55230000000002
870.117 84.84079999999999
900.879 84.9868
933.105 84.5922
965.332 85.0276
1000.49 85.5126
1035.64 85.0093
1072.27 84.9717
1108.89 84.58739999999999
1148.44 84.3464
1189.45 85.3459
1230.47 85.2396
1274.41 85.1532
1319.82 84.5633
1366.7 84.72870000000002
1413.57 84.3187
1463.38 84.9965
1516.11 85.3927
1568.85 85.6846
1624.51 84.7733
1681.64 84.1509
1741.7 84.4446
1803.22 84.6854
1866.21 84.57889999999999
1932.13 84.409
1999.51 84.4129
2069.82 84.7294
2143.07 84.28919999999998
2219.24 83.67790000000001
2296.88 84.1098
2378.91 84.4416
2462.4 83.43139999999998
2548.83 83.48199999999999
2639.65 84.50840000000001
2731.93 84.01550000000002
2828.61 83.9542
2928.22 84.4047
3030.76 84.3309
3137.7 83.8005
3249.02 84.1991
3363.28 84.5064
3481.93 84.27579999999999
3604.98 84.0193
3732.42 84.2705
3864.26 83.82030000000002
4000.49 84.0073
4141.11 84.2914
4287.6 83.9137
4438.48 84.1837
4595.21 84.4234
4756.35 84.47679999999998
4924.8 84.8262
5097.66 84.4054
5277.83 85.0249
5463.87 85.00869999999999
5657.23 84.4479
5856.45 84.1964
6062.99 83.9544
6276.86 83.33630000000001
6498.05 82.7134
6726.56 82.7025
6963.87 82.4264
7209.96 82.3565
7464.84 82.159
7727.05 82.0783
7999.51 81.93680000000002
8282.23 81.98709999999998
8573.73 82.3582
8876.95 82.73190000000001
9188.96 82.6583
9514.16 82.5674
9849.61 82.4146
10196.8 82.3937
10555.7 82.7624
10927.7 82.68239999999999
11313.0 82.6658
11712.9 82.751
12126.0 82.78759999999998
12553.7 82.6958
12996.1 82.1963
13454.6 82.2489
13929.2 82.5802
14419.9 82.2779
14928.2 82.387
15455.6 82.8402
16000.5 82.8442
16564.5 83.0118
17148.9 83.04
17752.4 82.5298
18379.4 81.61149999999999
19026.9 80.15999999999998
19697.8 77.4618
19999.5 76.11319999999999
