Freq,Floor Bounce,Ceiling Bounce,Front Wall Bounce,Side Wall Bounce,Rear Wall Bounce,Total Early Reflection
20.5078,47.78459791255557,46.89686129528454,48.15303476097321,50.114374729947684,48.81942697372659,48.49063302429792
21.9727,54.203270235405114,53.549637537035466,54.235360227543595,55.326993138561846,54.59666605439878,54.421617462296155
23.4375,58.627782537448326,58.112084520866205,58.620842808646444,59.31338924469296,58.66649092814643,58.685078560702806
24.9023,62.542830668689874,62.16210533625306,62.53250403455206,62.945640824955376,62.35554112618854,62.515533973770914
26.3672,66.0448669618774,65.74841779578506,66.04126149875512,66.30045060328902,65.7423308393052,65.9805639049215
27.832,69.1762930953669,68.92614195029877,69.17767960789558,69.33404184564917,68.78204082463408,69.08372670158244
29.2969,72.06659530502529,71.85030087758231,72.07238398982979,72.15629109245181,71.6099300286908,71.95557810111934
30.7617,74.49510013475461,74.29713468202053,74.50352312666979,74.54222230570177,74.00187912453886,74.37259731777726
32.2266,76.5946914806065,76.43408616229853,76.62418565327675,76.62900547069877,76.06537731904021,76.4746564384136
33.6914,78.23254102785752,78.08656784980192,78.26765564299917,78.23720820219808,77.65839345631197,78.10232113598889
35.1563,79.42082035832343,79.27682420139112,79.45777029901818,79.39995928294138,78.81867704593,79.28107537964867
36.6211,80.20003262993309,80.05967403123705,80.23867567942156,80.15695551329368,79.56033188195971,80.05007693722973
38.0859,80.91817118412867,80.79215134170431,80.9583745081677,80.86317105007258,80.29904771549258,80.77266265716777
39.5508,81.33588792259721,81.21656674628306,81.38087561162403,81.26836512280246,80.6984123777472,81.18688617212192
41.0156,81.70567033268642,81.5880198214028,81.7539433064084,81.62649506473471,81.05435086214783,81.55284897618988
42.4805,82.13336192225024,82.02307509908336,82.18801393440769,82.042730199377,81.44680519303587,81.97477476016898
43.9453,82.48165102754186,82.38866483445327,82.54400420617387,82.39140055101682,81.80911077127689,82.33074591525406
45.4102,82.8079004477973,82.72543380278182,82.88144795734726,82.70731384309609,82.09325518142772,82.65195608220006
46.875,83.17035395548733,83.07295660805507,83.24332477723914,83.04902968096627,82.3796748790824,82.9937616733317
48.3398,83.48654624953922,83.3721365370138,83.54806174167146,83.36530806012146,82.75113378137374,83.31374524324974
51.2695,84.211790453943,84.07391268077997,84.27039906490548,84.07053397679266,83.46252694611105,84.02714370616377
52.7344,84.63053386900634,84.51038429675377,84.69929922755168,84.48382773137662,83.87400502995077,84.44925302068638
54.1992,85.03139897299641,84.8851643278862,85.09964899756834,84.85697028974838,84.18354646622556,84.82324806490607
55.6641,85.26774103104918,85.11872401304106,85.33144926201,85.10176059819197,84.47990264643047,85.07018064658476
58.5938,85.90644190157386,85.74026202810809,85.96744033672725,85.73616317447633,85.1496339196214,85.70941307552644
60.0586,86.24348635640924,86.06807369711628,86.30475701311903,86.06555159499206,85.47432276693036,86.0409455629543
62.9883,86.92622103249803,86.74100679242542,86.99114933362196,86.73821980527534,86.14991376577449,86.71920990038997
64.4531,87.25049886877433,87.05451547609766,87.31498182311364,87.05572950873412,86.46996448782079,87.03912904244594
67.3828,87.80601382462854,87.57511380210578,87.86624569197858,87.59236451096825,87.00700263078846,87.57971602944832
68.8477,88.04936236795132,87.80037095650839,88.10860925807285,87.82378891698895,87.22737857633729,87.81283043757617
71.7773,88.68281871072139,88.39699372525207,88.73790977433237,88.4273330811547,87.81434051781196,88.4239658892626
74.707,89.25160180073189,88.96629330404494,89.31459851481483,88.9877838926881,88.36850944698944,88.99035026383265
77.6367,89.5477819086244,89.2936570666461,89.62753546212592,89.29603967734953,88.71515900849826,89.30753762081349
79.1016,89.64253341964127,89.39890110055799,89.73020196796415,89.39111195382037,88.81817355521007,89.40759307227466
82.0313,89.93868723446478,89.69392278483558,90.03532967032233,89.67696465899876,89.09919029310896,89.70076651047071
84.9609,90.23026097269137,89.96937005256751,90.33130456337271,89.95301914781334,89.37620515328743,89.98445779561484
87.8906,90.22242318985238,89.96708841652784,90.33572822910816,89.92748598075141,89.3041544119763,89.9657860543897
90.8203,90.22046089264994,89.93668258497406,90.32726576009308,89.9070519255742,89.29881986164179,89.95248953392019
95.2148,90.26626550866622,89.92479939378165,90.37072669246729,89.90546340897082,89.28792062002827,89.96723119534732
98.1445,90.13293484589109,89.7569469918491,90.2372213138,89.7391059505992,89.10491574082081,89.81206197823548
101.074,90.04114806202612,89.67168729190024,90.16073546130012,89.6227015032989,88.93592181248508,89.70709295300813
105.469,89.91007861110106,89.51448852419755,90.03721604604453,89.4409611211772,88.6884413187864,89.54329360543623
108.398,89.92972727496432,89.50709159031948,90.05823627986818,89.4294200483004,88.57548615978833,89.53024641179819
112.793,89.9510511218497,89.51676023666683,90.088987258169,89.43992656496786,88.53491382875914,89.53939227893795
117.188,89.88756140351089,89.47744640929497,90.04484961754272,89.38577259612984,88.51396113304172,89.49370255811868
120.117,89.87149545236473,89.42700886391461,90.02221160782355,89.35453438626281,88.4957708104108,89.4660145374543
124.512,89.71318603565369,89.23128536479734,89.86004397176998,89.1773146418495,88.37309992110916,89.30148583810438
128.906,89.61817619151996,89.16300656708738,89.79756294476783,89.06158027452997,88.20400006542631,89.20329494950589
133.301,89.47341313432395,89.10843210894166,89.69732592337974,88.93446705622375,88.05355525678758,89.08926588748496
139.16,89.32271654142176,88.88277749990876,89.5326714166515,88.72657244306934,87.83529956151881,88.89872316780816
143.555,89.2064065127307,88.6565759559672,89.40303502008656,88.53418610820411,87.60340500508224,88.72497845399434
147.949,89.11800187856502,88.53790983973222,89.33843288193334,88.3818262065238,87.30365095294984,88.59196955183673
153.809,89.12520836532494,88.5438800797797,89.38202587231142,88.33098396448071,86.89286620831584,88.53693611114271
159.668,89.21947481984971,88.58141959776583,89.46281981187111,88.42299575287538,86.97854012895017,88.61500883477446
165.527,89.43246385696148,88.74988060460893,89.66701307450893,88.60053618476238,87.15668513849866,88.80549432831086
171.387,89.36504057203948,88.62851210819639,89.60961795637009,88.49190659918915,87.16107737614851,88.7320127577848
177.246,89.16088614727778,88.44435714101483,89.43373555162896,88.29646777012759,86.8906090755669,88.53119895502782
183.105,88.86778405707621,88.21543032449938,89.21182116952048,87.95384196921835,86.46388055388599,88.24107211569482
188.965,89.09944796222054,88.34098634389187,89.43045473074139,88.09380303843948,86.02624216080946,88.34747051443078
196.289,89.14537249700777,88.16709801110589,89.40546849772265,88.13446229235754,86.19016319991943,88.34529957932148
203.613,89.06918412915341,88.09138776158595,89.36213720784788,87.97557155080577,85.90134198023287,88.23662709766828
210.938,89.0282585471385,88.15942987262821,89.37492531011341,87.96699873833049,85.66079919995818,88.2143373362069
218.262,88.82439938020123,87.95964759621019,89.20718779778767,87.85599093369044,85.4572283987938,88.03843347784094
225.586,88.90161591656762,88.11913780777368,89.36759307862172,87.84113023485904,85.64559758037129,88.1487777225945
232.91,89.3369171031827,88.42672294935052,89.79202669317525,88.23268033774056,85.30468692745015,88.46663616445119
241.699,89.07565441036618,88.06897736346767,89.47746647498744,88.21471805662043,85.19667192685117,88.23447848050816
250.488,88.76217804937481,87.66886937009316,89.2653835873544,87.82562064594413,84.7211008906244,87.90102360991501
259.277,89.57960379253717,88.491560274567,90.0666720609269,88.57109108898689,84.47259486474658,88.60873744071529
268.066,88.70406378957297,87.676245392096,89.20973107827345,87.79143084640197,84.84729977241909,87.87876787420008
276.855,89.1028903921403,87.87483896968413,89.5909419696001,88.03256296128224,83.7177055246056,88.07210457098645
287.109,89.07794766941117,88.13261547562031,89.63315699282907,88.07305135938626,83.7582152550621,88.13912019775637
297.363,89.31789255474445,88.16262399354623,89.87149264863389,88.36582626988579,83.92031150393538,88.34237202457284
307.617,89.42985579969356,88.2090532996726,90.03296890133038,88.84062427633108,84.06218369777702,88.53355252218662
319.336,88.3768821568305,87.20897186627467,89.10671194993004,88.02228017028524,84.24237361397678,87.67593180224287
329.59,88.46543948653789,87.2237284766437,89.20811024684673,88.13343448341746,83.84212185612955,87.71763933645202
341.309,88.09916713582486,86.94714910822702,88.75069214198106,87.86516792146702,84.17384215290478,87.42534408318893
353.027,87.84627923613547,86.00979259567306,88.6590347972714,86.84082061419413,83.70172557075972,86.91971727795254
366.211,88.5259421511039,86.87391771482507,89.45970468685003,87.86538043357623,82.77080954793864,87.60878004463497
379.395,89.2800061064645,87.50781616345985,90.29699427745297,88.72158386105158,82.52368309763983,88.33168135125166
392.578,88.25195304492581,86.51669177156496,89.17590384176461,88.31469328371759,83.78760372609102,87.57666791767316
405.762,87.73483817800377,85.60725846079278,88.6963544613907,87.40124740421659,83.7957998802934,86.96759910827032
420.41,88.18785186562143,85.95813478367508,89.42612975481723,87.85278601637235,83.4115678314897,87.41725527617075
435.059,87.88354251556046,85.78251229992544,89.04391211595556,87.94513495601619,84.33905485037063,87.30773603073118
451.172,88.93443327446136,86.09672391185313,89.99348189962598,86.70145870994583,83.80198798353084,87.62811285517694
465.82,88.7169481701613,86.33874243601085,89.87519884054731,87.24349624927197,81.58013363854745,87.51318763193262
483.398,86.29131440345968,86.19642563416403,88.05740844981935,86.02587013387094,80.98920116769006,86.03722859120859
499.512,86.35654679237919,83.68639460716663,86.53114121121187,84.26306415345576,79.74017968026604,84.70358946866963
517.09,87.84975339110144,84.6997727369522,88.31691743237342,86.08357503904811,82.05299548371192,86.3338908735814
536.133,88.92405217026831,85.62966249009995,89.76918898832349,84.67208273173605,83.30875179473365,87.16307779716138
555.176,89.97810235460676,86.89803324577946,91.1308497097524,86.50511899686596,81.0295337050261,88.2684194612458
574.219,90.14621924359038,87.37058731973461,91.6751567348976,88.08758626024016,80.72178811734841,88.82255407538597
594.727,90.40383088001232,87.00845181989492,92.2959914158685,88.03121254691507,82.65346770689584,89.15507347715233
615.234,89.74839066711021,86.39875003123052,91.56015845606598,87.06304084978973,81.18333794974993,88.39123142335636
637.207,89.46597329063906,86.54472369955447,91.96928679086325,89.09918199240337,79.77145213387095,88.82738278252921
659.18,89.19048363338655,84.93628099410515,91.59035513312502,88.81390613355856,80.47255421858097,88.39641917600615
682.617,88.18506025511104,84.38223216286713,90.57943482116079,87.32151975669467,81.08329125315893,87.3933215308656
707.52,88.60876900528766,84.19596459478878,90.7670478740906,87.63235478759145,79.80724764338446,87.5697993448657
732.422,88.73055276692791,85.66369334544542,90.44904622957385,87.35891463022526,80.62025512320015,87.60970417586894
757.324,89.32634625408167,86.16982667708552,91.01801655192196,87.55291467959032,80.68555107294614,88.0899287514024
785.156,89.2112216284919,86.11091900043428,91.21693679858544,87.97558292067815,79.93552110427655,88.18447008310739
811.523,88.19424691182448,86.01040257760425,90.01628380949936,86.46963157313958,80.06785748550968,87.17301442903883
840.82,88.33557503449745,85.82623366704851,90.21718111193107,87.26474015655583,80.04697150929798,87.40235191800681
870.117,88.18326872689008,85.04423887659621,90.03849810516934,86.0196711100627,81.50130880411555,87.03761223169383
900.879,87.87016132376644,85.600532192969,89.78017374822542,85.67708919457158,80.16031959283,86.81147017941645
933.105,87.60987491141611,85.35696635357914,89.08497667992042,85.0302648923705,78.11902716230611,86.26007502838145
965.332,87.45574964126092,85.5912583551905,88.26031749274865,84.44600958236093,78.1097372042091,85.87034610869296
1000.49,87.57617673097447,86.24828525986145,87.78309233480738,83.13683309524009,76.28937491573093,85.66439103251375
1035.64,87.86151025662873,86.55788062213657,86.50856387183238,82.85675949269026,78.36375402536252,85.49752753175011
1072.27,88.1802686170723,86.60157667772108,87.50086345699407,84.34601000086704,76.86572769958303,86.01629569363405
1108.89,88.49590978879536,87.0959934023605,87.2181697796087,85.06558976004607,77.78462883925215,86.28952324679527
1148.44,88.41616800268109,86.7731171494315,88.09817259424922,85.83581292989854,77.98763935151787,86.55469671845783
1189.45,88.32742962956165,85.90723471553684,89.21941546040993,86.77983717534485,79.05030643351517,86.92374895219216
1230.47,88.80878878836133,86.66257738508473,89.07918493678632,86.48625017810869,79.1308176305847,87.09255350138807
1274.41,88.49513818907096,87.0567382822681,88.63963315146515,85.11348445318559,79.25170782445558,86.72980614933871
1319.82,87.67335272293052,86.22881366735206,88.88833620889953,85.1598061986258,77.34630244835557,86.35767284571696
1366.7,86.84409642968856,86.41277405726359,88.38868747121975,84.23286221712388,78.38694032963772,85.9002719542495
1413.57,86.9029772248119,86.69459446554644,88.0573681424587,84.71732465843195,77.4644774245719,85.90773174149763
1463.38,86.95389541302082,86.60124468545168,88.29966070994394,83.9813171700546,75.67069989064662,85.83461366942755
1516.11,87.04031116574632,87.05178892387258,88.76668458825652,83.78184739520786,74.83590548769848,86.09631565685486
1568.85,86.51692723839568,87.58697420877104,88.9348429208736,82.41940450378546,74.86874629033323,86.0420102115823
1624.51,85.98361368137132,87.12989313170701,88.7303053679973,82.36045409640805,74.10566701659295,85.69948342737018
1681.64,85.93036530766842,87.30007032730691,88.76249163999682,82.20496040753386,75.39573055519085,85.7557057856865
1741.7,86.7307589293016,87.61733042990427,88.71103445116731,80.96163463265236,73.49789405463629,85.88643248117994
1803.22,87.34575851962707,88.28688297404467,88.5246827558311,81.2652782171726,74.55860979133224,86.2141180768882
1866.21,86.96304206353729,87.7466817808821,88.39909142098827,82.29674781738939,75.52063099581866,85.997043575816
1932.13,88.06081307925797,87.52013894843546,87.71226058867333,80.52813586606385,74.82845805314491,85.8852877813175
1999.51,88.01204325158818,87.42841595732673,87.55515648325095,82.68039336831758,75.08239637442921,85.96153765083477
2069.82,87.42967564876845,87.83421416646172,86.41430905367258,82.66702343535631,77.27886689548691,85.65099721772268
2143.07,88.12829449988858,87.75583493714461,85.87543830355045,83.1831054699524,77.47567971166993,85.79149301917131
2219.24,87.96052552868161,88.56328443630724,86.04196121836958,83.17384873005341,77.33692040462998,86.03662826748064
2296.88,88.09551046784476,87.80380467227697,86.06577467322519,82.51554701311757,74.98545569078246,85.71065649375417
2378.91,88.46349496822083,86.79617189509467,85.94398511328448,82.67698563915255,75.89613703701038,85.55657404130764
2462.4,88.63157253541762,87.22746911348622,86.03505922392357,82.12532460333361,73.24728728431906,85.66659996736652
2548.83,87.47254099529965,86.81288250151988,85.77393350358828,81.95709934624756,72.71391018072332,85.03075446504225
2639.65,88.07370584456356,86.75449212081742,85.9446795958746,81.05307719059212,73.60270789764894,85.20831786403546
2731.93,87.76133850598572,86.97377599940592,86.07773049743815,80.5133473028639,72.01870602098442,85.12991226431956
2828.61,87.46380258190021,85.98388752186021,85.47410175314126,79.76329480470523,70.78669908010075,84.5138478878265
2928.22,87.81482628102773,86.57709902673452,85.77008062904964,80.31971970179104,69.7214545497865,84.92453605370187
3030.76,87.52546785479785,86.17436695746005,85.26962799828843,79.95959774507443,68.31377539157889,84.5405294071385
3137.7,87.5828747046934,85.58511304001576,84.99130543813781,79.13371014331582,65.86078545035957,84.26959357309315
3249.02,87.84431253812465,85.11101939114933,85.43007425726923,78.68573609437775,65.48156231240989,84.34480206674098
3363.28,87.92475412643805,85.03815172574653,85.83497090960502,78.6534712795264,66.84464646492746,84.47337142895367
3481.93,89.0134961721579,85.57879305748395,86.35981261956093,79.68460320456045,68.56009690324275,85.29116686875656
3604.98,89.87700753795181,86.92080004991192,86.66503758076165,80.74918516787994,69.21418097865815,86.13918942398217
3732.42,89.37054317321486,87.04165600472172,86.21060880781589,81.08526791637287,67.24320279417182,85.84935166703363
3864.26,89.34626192014133,87.51183050125273,86.13577296627686,80.5819781686447,66.30448910901117,85.91840768707519
4000.49,88.39848900114677,87.06766403536062,85.3247342313335,79.90406590555106,65.88348787886551,85.16698672641657
4141.11,88.14447766639528,87.45797704087974,85.63948947806536,79.20021325382584,64.38747359053158,85.21542917070249
4287.6,88.1169138318755,87.04478701724636,85.97805125970677,78.72224766033713,65.25952649744775,85.12824479347927
4438.48,88.32330917554506,87.64061022689617,86.3764237613789,78.50108354802354,65.13615114026288,85.48707543014429
4595.21,88.23586193470537,87.56614368186436,86.7126030946089,78.35070348590222,65.15048039895376,85.50940652130596
4756.35,88.8306484813262,87.12032948171472,86.9414073103194,78.07816717061782,63.517287451174525,85.65889777489
4924.8,88.3179117872883,87.28497348547695,87.05869379292649,78.03721624668053,63.06196022168152,85.5333030243511
5097.66,88.30801561974117,87.62403421433677,87.50848221014328,77.03652632251135,61.258770006624474,85.73169745571035
5277.83,88.62951985469833,86.82416293684201,87.48570523268445,75.8065458455163,59.960828936200784,85.58765692114216
5463.87,88.37122685400969,86.56345469221226,87.33065190632634,74.83072136474259,60.67811918112781,85.34771879218178
5657.23,88.29094923854636,87.01853414320766,87.34378474116521,74.33343143339938,60.989126480670706,85.4378472183934
5856.45,88.34802898630358,87.02183199572791,87.52106761446979,74.07933862021719,61.23609466120888,85.51279532265193
6062.99,88.2804775614873,86.69503067974287,87.45761218902042,73.71170610154802,62.58462592290107,85.37176425356085
6276.86,88.43934796580731,86.30902516243975,87.53602250835594,74.22845160610501,62.19041577532602,85.36748039333857
6498.05,88.6004730833539,86.16320027372352,87.57163326562119,74.82304707981069,62.86082974126097,85.42041496787246
6726.56,88.37808774248997,85.81516603521682,87.62660770394137,75.00256732224427,62.89272072125988,85.26967736063806
6963.87,87.92051543997896,85.77549830642943,87.43084642526411,75.2717115020153,61.58654192875869,85.01368354499112
7209.96,87.71789858149769,85.85356574033048,87.53967480957324,75.00873631222893,62.700361794478056,84.98926111977161
7464.84,87.62155968291296,85.77107268875223,87.43245625180822,73.82441091931315,61.97762990443451,84.87232469596012
7727.05,87.64866285496785,85.75619563622882,87.1951027460513,72.70485355710298,60.56156624433575,84.77784845020491
7999.51,87.85637132632104,85.41423676805894,87.1032965253867,72.31030062154663,59.210234524607955,84.74045559402214
8282.23,87.7356728736609,84.86421600122269,86.95405229886734,72.45341250770082,56.62755040477674,84.51528486521525
8573.73,87.86479999594252,84.72218097046078,87.00614264024586,70.83877870928627,54.68665479576626,84.54103948659834
8876.95,87.96961548280237,84.65488685278385,86.93753283155036,69.81023937895918,54.42902150515195,84.54085094070811
9188.96,88.0645895754797,84.37099578480091,86.91574733276985,69.78680720101121,51.01030350512423,84.51849646057619
9514.16,88.02477338658802,83.93177358246716,86.66413241073826,69.096555046969,52.37220620529331,84.32655974991233
