Freq "Side Wall Bounce"
20.5078 49.82404897237194
21.9727 55.0366673809861
23.4375 59.02306348711721
24.9023 62.65531506737963
26.3672 66.01012484571328
27.832 69.04371608807342
29.2969 71.86596533487607
30.7617 74.25189654812603
32.2266 76.33867971312303
33.6914 77.94688244462233
35.1563 79.10963352536564
36.6211 79.86662975571794
38.0859 80.57284529249684
39.5508 80.97803936522672
41.0156 81.33616930715897
42.4805 81.75240444180126
43.9453 82.10107479344107
45.4102 82.41698808552034
46.875 82.75870392339053
48.3398 83.07498230254572
51.2695 83.78020821921692
52.7344 84.19350197380088
54.1992 84.56664453217263
55.6641 84.81143484061623
58.5938 85.44583741690059
60.0586 85.77522583741631
62.9883 86.44789404769959
64.4531 86.76540375115837
67.3828 87.30203875339251
68.8477 87.5334631594132
71.7773 88.13700732357896
74.707 88.69745813511236
77.6367 89.00571391977378
79.1016 89.10078619624463
82.0313 89.38663890142301
84.9609 89.66269339023759
87.8906 89.63716022317567
90.8203 89.61672616799845
95.2148 89.61513765139507
98.1445 89.44878019302345
101.074 89.33237574572316
105.469 89.15063536360145
108.398 89.13909429072466
112.793 89.14960080739212
117.188 89.0954468385541
120.117 89.06420862868707
124.512 88.88698888427376
128.906 88.77125451695423
133.301 88.64414129864801
139.16 88.4362466854936
143.555 88.24386035062837
147.949 88.09150044894805
153.809 88.04065820690496
159.668 88.13266999529964
165.527 88.31021042718663
171.387 88.2015808416134
177.246 88.00614201255185
183.105 87.6635162116426
188.965 87.80347728086373
196.289 87.8441365347818
203.613 87.68524579323002
210.938 87.67667298075474
218.262 87.56566517611469
225.586 87.5508044772833
232.91 87.94235458016482
241.699 87.92439229904468
250.488 87.53529488836838
259.277 88.28076533141115
268.066 87.50110508882622
276.855 87.7422372037065
287.109 87.78272560181051
297.363 88.07550051231004
307.617 88.55029851875534
319.336 87.7319544127095
329.59 87.84310872584172
341.309 87.57484216389128
353.027 86.55049485661839
366.211 87.57505467600049
379.395 88.43125810347584
392.578 88.02436752614184
405.762 87.11092164664085
420.41 87.5624602587966
435.059 87.65480919844045
451.172 86.41113295237008
465.82 86.95317049169623
483.398 85.7355443762952
499.512 83.97273839588001
517.09 85.79324928147237
536.133 84.38175697416031
555.176 86.21479323929022
574.219 87.79726050266441
594.727 87.74088678933933
615.234 86.77271509221399
637.207 88.80885623482763
659.18 88.52358037598282
682.617 87.03119399911893
707.52 87.34202903001571
732.422 87.06858887264951
757.324 87.26258892201457
785.156 87.6852571631024
811.523 86.17930581556384
840.82 86.97441439898009
870.117 85.72934535248696
900.879 85.38676343699584
933.105 84.73993913479475
965.332 84.15568382478519
1000.49 82.84650733766435
1035.64 82.56643373511452
1072.27 84.0556842432913
1108.89 84.77526400247032
1148.44 85.5454871723228
1189.45 86.48951141776911
1230.47 86.19592442053295
1274.41 84.82315869560985
1319.82 84.86948044105006
1366.7 83.94253645954814
1413.57 84.4269989008562
1463.38 83.69099141247885
1516.11 83.49152163763212
1568.85 82.12907874620971
1624.51 82.0701283388323
1681.64 81.91463464995812
1741.7 80.67130887507662
1803.22 80.97495245959685
1866.21 82.00642205981364
1932.13 80.2378101084881
1999.51 82.39006761074184
2069.82 82.37669767778057
2143.07 82.89277971237665
2219.24 82.88352297247766
2296.88 82.22522125554183
2378.91 82.3866598815768
2462.4 81.83499884575787
2548.83 81.66677358867182
2639.65 80.76275143301638
2731.93 80.22302154528816
2828.61 79.47296904712948
2928.22 80.0293939442153
3030.76 79.66927198749869
3137.7 78.84338438574008
3249.02 78.395410336802
3363.28 78.36314552195066
3481.93 79.3942774469847
3604.98 80.4588594103042
3732.42 80.79494215879713
3864.26 80.29165241106895
4000.49 79.61374014797532
4141.11 78.9098874962501
4287.6 78.43192190276139
4438.48 78.2107577904478
4595.21 78.06037772832647
4756.35 77.78784141304207
4924.8 77.74689048910479
5097.66 76.7462005649356
5277.83 75.51622008794055
5463.87 74.54039560716684
5657.23 74.04310567582364
5856.45 73.78901286264144
6062.99 73.42138034397227
6276.86 73.93812584852927
6498.05 74.53272132223495
6726.56 74.71224156466853
6963.87 74.98138574443955
7209.96 74.71841055465319
7464.84 73.53408516173741
7727.05 72.41452779952724
7999.51 72.01997486397089
8282.23 72.16308675012507
8573.73 70.54845295171053
8876.95 69.51991362138344
9188.96 69.49648144343547
9514.16 68.80622928939326
9849.61 67.93801209918426
10196.8 67.20376930590339
10555.7 67.2652988873011
10927.7 68.36510479858373
11313.0 70.14073182960178
11712.9 71.28672919911047
12126.0 71.33117156874223
12553.7 70.86131651772381
12996.1 70.8711717764315
13454.6 70.70717690763232
13929.2 70.1425804985356
14419.9 69.86121840790864
14928.2 69.2130886970399
15455.6 68.50562550053397
16000.5 68.46873926199981
16564.5 67.69959953679624
17148.9 66.49615182847847
17752.4 64.7331568853023
18379.4 62.99176549497864
19026.9 62.3119939932063
19697.8 61.630693970199985
19999.5 61.402843469802775
