Freq "Side Wall Bounce"
22.4 35.044562709258784
23.0 36.544562709258784
23.6 37.97091081616698
24.0 39.88279410045136
25.0 41.528020840102116
25.8 42.899756931946214
26.5 44.2121172035739
27.2 45.92727555633958
28.0 47.43984354446282
29.0 48.786437048185874
30.0 50.18643704818588
30.7 51.772251922516844
31.5 53.14674421449486
32.5 54.401184561360694
33.5 55.901184561360665
34.5 57.24915533226458
35.5 58.44915533226457
36.5 59.797701038182495
37.5 61.01157364091442
38.7 62.12781611293822
40.0 63.24191338893482
41.2 64.27729077940036
42.5 65.23282866069296
43.7 66.16615848130134
45.0 66.99752757398001
46.2 67.84119797169828
47.5 68.59752757398
48.7 69.39752757398001
50.0 70.1314646590843
51.5 70.78769578306711
53.0 71.46342603813576
54.5 72.06342603813577
56.0 72.63901990367313
58.0 73.27166633319868
60.0 73.87166633319869
61.5 74.47166633319867
63.0 75.07166633319868
65.0 75.62392770053675
67.0 76.22392770053675
69.0 76.76360418966827
71.0 77.33975611585205
73.0 77.91632368460753
75.0 78.43975611585205
77.5 78.87676320601149
80.0 79.31632368460753
82.5 79.73411056775991
85.0 80.15026912693264
87.5 80.55026912693265
90.0 80.89276413712138
92.5 81.1875955421688
95.0 81.45026912693264
97.5 81.70392777064082
100.0 81.90392777064082
103.0 82.10392777064082
106.0 82.2847327541983
109.0 82.42057708523296
112.0 82.60392777064082
115.0 82.73875963207824
118.0 82.90145567674689
122.0 83.03875963207825
125.0 83.13875963207825
128.0 83.21971828696674
132.0 83.25566017296019
136.0 83.35566017296019
140.0 83.35566017296019
145.0 83.37411596697677
150.0 83.41430204033975
155.0 83.37411596697677
160.0 83.31430204033975
165.0 83.25522934619624
170.0 83.11430204033974
175.0 82.97845335650551
180.0 82.77845335650552
185.0 82.50102936932025
190.0 82.22454424337784
195.0 81.86696205052245
200.0 81.47321141278725
206.0 81.02206702207444
212.0 80.58827198098874
218.0 80.12097348830314
224.0 79.69929260963245
230.0 79.3221776579422
236.0 78.9291928554566
240.0 78.59851589760278
250.0 78.35768606050145
258.0 78.24944570645765
265.0 78.29095950736261
272.0 78.43942092431787
280.0 78.72795912659936
290.0 79.02795912659936
300.0 79.408424625931
307.0 79.73506915378967
315.0 80.03346894950133
325.0 80.31730467797819
335.0 80.57400888332059
345.0 80.75704460549487
355.0 80.8736337725684
365.0 80.90320517313943
375.0 80.8529861035656
387.0 80.6894437045642
400.0 80.51638330131435
412.0 80.26145351419619
425.0 79.98374224024384
437.0 79.6799730439158
450.0 79.39077137308175
462.0 79.03163711444934
475.0 78.65969497216811
487.0 78.34011244712782
500.0 77.93509493694135
515.0 77.623909217372
530.0 77.30059994901535
545.0 77.03066074476207
560.0 76.77091070768276
580.0 76.5004139068455
600.0 76.11664013503255
615.0 75.6627532977421
630.0 75.16690311834763
650.0 74.7108483040336
670.0 74.43301474090238
690.0 74.2667214222191
710.0 74.10200643628487
730.0 73.75507740085595
750.0 73.35307508394364
775.0 72.95093181780373
800.0 72.92396109391102
825.0 73.73741122984062
850.0 74.88402074615486
875.0 75.42292107437032
900.0 75.01330637055646
925.0 74.04217996743887
950.0 73.49054430139749
975.0 74.33652168636324
1000.0 75.68157914934679
1030.0 76.28660244363512
1060.0 76.030691564157
1090.0 75.88490585655767
1120.0 76.97881776640399
1150.0 78.8525064028802
1180.0 79.58863139553414
1220.0 77.47064537997112
1250.0 74.26538058143946
1280.0 73.6746292616056
1320.0 74.80505550138476
1360.0 74.83593568910085
1400.0 73.49340524620244
1450.0 73.47152514905459
1500.0 75.46718106852411
1550.0 75.0779288895573
1600.0 72.46206712746435
1650.0 69.66428786099247
1700.0 68.86267880324424
1750.0 69.87212448265606
1800.0 70.01007345140842
1850.0 69.34946159504248
1900.0 69.38556028546346
1950.0 69.45912728435825
2000.0 69.0003642459704
2060.0 67.96076487018361
2120.0 68.17896909773094
2180.0 67.44285457459257
2240.0 65.43716380955621
2300.0 64.72454918367295
2360.0 65.23475228243106
2400.0 65.91451710861375
2500.0 66.53485851702952
2580.0 67.30156040626797
2650.0 67.93176093547957
2720.0 67.5810141864075
2800.0 66.78014276288292
2900.0 66.72484106477468
3000.0 66.25579500911714
3070.0 66.15702194882755
3150.0 66.25244163459469
3250.0 66.95037085047173
3350.0 67.60810203912997
3450.0 68.18203475920859
3550.0 68.60851830905844
3650.0 69.05124267509433
3750.0 68.45477151532272
3870.0 67.87303039587755
4000.0 67.5322885760088
4120.0 67.71078532400723
4250.0 67.78581214029555
4370.0 67.78404406995351
4500.0 68.01070365914298
4620.0 68.02143092223928
4750.0 68.51177192634218
4870.0 68.6630677404376
5000.0 69.41876680878151
5150.0 70.25102277427422
5300.0 70.1785778176666
5450.0 69.61620633875448
5600.0 69.76764797739597
5800.0 69.49536738514436
6000.0 70.28808389615824
6150.0 71.6703568356866
6300.0 73.50922860363984
6500.0 72.42365817365136
6700.0 69.23660883505495
6900.0 69.17700714974123
7100.0 69.81945338450625
7300.0 71.74894041071985
7500.0 73.43253864411088
7750.0 69.9654105047739
8000.0 67.02050535059458
8250.0 69.88249537923892
8500.0 71.73706812742749
8750.0 71.94580181525174
9000.0 68.22874566447217
9250.0 70.00830763927986
9500.0 70.20796643317482
9750.0 72.16431605545726
10000.0 68.39958595914912
10300.0 68.91252285062207
10600.0 69.62886831597527
10900.0 69.53613255034753
11200.0 68.92873018600999
11500.0 69.74244649293034
11800.0 69.39676608559894
12200.0 70.43168512792346
12500.0 71.35113116203244
12800.0 71.1263073470298
13200.0 69.55466071908613
13600.0 68.83372040859666
14000.0 65.0600930368666
14500.0 66.53498066154428
15000.0 65.96742446393047
15500.0 67.7246719007008
16000.0 64.04157958474084
16500.0 64.17921207293679
17000.0 67.08233314650666
17500.0 62.68229379946928
18000.0 67.28921111237416
18500.0 68.38624469164884
19000.0 69.34702017881428
19500.0 57.40754036011852
