Freq,On Axis,Listening Window,Sound Power,Early Reflections,Early Reflections DI,Sound Power DI,DI offset
22.4,7.699999999999989,12.089394286986106,9.473032279061556,10.565422420171615,31.52397186681449,32.61636200792455,30
23.0,9.099999999999994,12.297421487814944,10.579571186466694,11.602672921361972,30.694748566452972,31.71785030134825,30
23.6,10.099999999999966,11.660269983016917,11.506005518756353,12.435344771784543,29.224925211232375,30.154264464260564,30
24.0,12.300000000000011,13.56658512145745,13.65852726368189,14.32886257601109,29.23772254544636,29.90805785777556,30
25.0,14.300000000000011,15.721782808776965,15.672705960050962,16.132019969975573,29.58976283880139,30.049076848726003,30
25.8,16.0,17.317938132542054,17.252157352991844,17.52919672699653,29.788741405545522,30.06578077955021,30
26.5,17.599999999999994,18.755331718945058,18.649002668851438,18.75746183430587,29.997869884639186,30.10632905009362,30
27.2,20.099999999999994,22.228796299249467,21.380930322902742,21.60608310146671,30.62271319778276,30.847865976346725,30
28.0,22.30000000000001,25.87078652182629,24.10802860862384,24.56177239916343,31.30901412266286,31.76275791320245,30
29.0,24.0,29.779986970036504,26.875166228936735,27.658882422449892,32.12110454758661,32.90482074109977,30
30.0,26.599999999999994,33.92104552180683,30.783812074573262,31.532714375295882,32.38833114651095,33.13723344723357,30
30.7,30.80000000000001,35.51566632525788,34.15773058619567,34.18475283785634,31.330913487401546,31.357935739062214,30
31.5,34.19999999999999,37.00979801579874,37.37365597768263,36.82567132455219,30.184126691246547,29.636142038116105,30
32.5,38.5,40.70736641916534,42.290865458735965,41.65380828808023,29.05355813108511,28.416500960429374,30
33.5,42.400000000000006,46.43303283584493,47.307916648231554,46.84392729300862,29.589105542836307,29.125116187613372,30
34.5,44.30000000000001,48.6138212233066,48.8952244369237,48.38408001393324,30.22974120937336,29.718596786382903,30
35.5,45.80000000000001,50.319501655843425,51.01897567410458,50.7235217594031,29.595979896440326,29.300525981738843,30
36.5,46.19999999999999,50.34180136998518,52.65405919388117,52.331204227540965,28.01059714244421,27.68774217610401,30
37.5,46.599999999999994,50.85636502594491,53.74721412085209,53.28068122800087,27.575683797944038,27.109150905092818,30
38.7,46.599999999999994,50.27629000383752,52.8082733208209,52.31661690079336,27.959673103044153,27.468016683016614,30
40.0,47.69999999999999,50.353063919315545,51.95606858237883,51.60838463606308,28.744679283252466,28.396995336936712,30
41.2,48.900000000000006,51.46860995755594,52.42484404295645,52.20492632943811,29.263683628117832,29.04376591459949,30
42.5,51.5,53.21626792389111,54.12650318353769,53.84859298639114,29.36767493749997,29.089764740353417,30
43.7,54.599999999999994,55.61372101169508,56.47539204533645,56.15807857664153,29.455642435053548,29.13832896635863,30
45.0,57.30000000000001,57.59137063374965,58.427282836370836,58.25229697900855,29.3390736547411,29.164087797378812,30
46.2,58.400000000000006,57.558190662978916,58.335345750655364,58.257456325510745,29.30073433746817,29.222844912323552,30
47.5,59.599999999999994,58.09344982701796,59.0542245888099,58.98311651249104,29.110333314526926,29.03922523820806,30
48.7,61.20000000000002,59.35600177883748,61.55518328988727,61.25771938535196,28.09828239348552,27.800818488950213,30
50.0,62.30000000000001,60.81109041053752,64.74636029657168,63.973870023626205,26.837220386911312,26.064730113965837,30
51.5,62.400000000000006,61.759528559137664,62.85659549983919,62.958247561202484,28.80128099793518,28.902933059298476,30
53.0,63.5,63.48938841695832,62.72432849017436,63.55335726512206,29.93603115183626,30.765059926783962,30
54.5,65.7,65.0100551261556,63.361809722992206,64.40638370692659,30.603671419229016,31.6482454031634,30
56.0,67.1,66.31847040764443,64.44717889384765,65.5068904738352,30.811579933809227,31.871291513796777,30
58.0,68.0,67.7556998731342,66.01195291548856,67.01750862272218,30.73819125041203,31.74374695764564,30
60.0,69.0,68.84043078404191,67.16729641140029,68.09719386947633,30.743236914565585,31.673134372641627,30
61.5,70.1,69.65521785148191,68.08706349019603,68.90071948115445,30.754498370327454,31.568154361285877,30
63.0,70.9,70.54269085824258,68.96090020507833,69.7141573751646,30.828533483077976,31.581790653164248,30
65.0,71.6,71.46135919630184,69.79571013985083,70.52915538007399,30.932203816227855,31.665649056451016,30
67.0,72.2,72.05722773674805,70.5593506286231,71.25453523768256,30.802692499065486,31.497877108124953,30
69.0,72.6,72.47151414642991,71.10511226730088,71.73969838970363,30.731815756726277,31.36640187912903,30
71.0,72.9,72.69207927156954,71.441606996551,71.97057290807686,30.72150636349268,31.250472275018538,30
73.0,72.9,72.80230816861717,72.02406083929912,72.3371216798018,30.465186488815377,30.77824732931805,30
75.0,73.4,73.2137887032907,72.69502132714992,72.88813912258335,30.32564958070735,30.518767376140786,30
77.5,74.0,73.7795187093958,73.35653854176329,73.51582911896875,30.26368959042705,30.422980167632517,30
80.0,74.2,74.07950687011969,73.81081432721422,73.93358883621686,30.14591803390283,30.26869254290547,30
82.5,74.5,74.26948173034685,74.09869582083124,74.12751670494332,30.141965025403536,30.170785909515615,30
85.0,74.6,74.4568615655304,74.34369876394241,74.32387061466648,30.132990950863928,30.11316280158799,30
87.5,74.7,74.62293110248063,74.54525101405103,74.51699689312498,30.105934209355652,30.077680088429602,30
90.0,74.7,74.65635648403186,74.67135282605776,74.61989540245604,30.036461081575823,29.985003657974104,30
92.5,74.6,74.57823306508388,74.63708063803593,74.5609606096592,30.017272455424674,29.941152427047953,30
95.0,74.5,74.48951489542682,74.49790970484607,74.44667641422416,30.042838481202665,29.991605190580756,30
97.5,74.4,74.43410347591829,74.34901850146076,74.34895533417668,30.085148141741612,30.08508497445753,30
100.0,74.2,74.36717378562656,74.09964605170552,74.18953597125245,30.17763781437411,30.267527733921042,30
103.0,74.0,74.08977136039707,73.72923384033827,73.86955059910322,30.220220761293845,30.3605375200588,30
106.0,73.9,73.90051167804047,73.46383449577642,73.64336795449012,30.257143723550357,30.43667718226405,30
109.0,73.6,73.71301162318547,73.2455782465556,73.46916855039615,30.243843072789318,30.46743337662987,30
112.0,73.4,73.5340975629221,72.97030504963101,73.23880469462742,30.29529286829468,30.56379251329109,30
115.0,73.1,73.26768347817136,72.65454288408792,72.94137478670068,30.326308691470686,30.613140594083447,30
118.0,72.9,72.96717965375996,72.33528797242866,72.63260923415751,30.334570419602443,30.631891681331297,30
122.0,72.6,72.70025584655586,72.09333773086355,72.37110345322014,30.32915239333572,30.60691811569231,30
125.0,72.30000000000001,72.42395507181003,71.83957277747476,72.10687344466335,30.317081627146678,30.58438229433527,30
128.0,72.1,72.05635648403187,71.56859171925359,71.8041736341537,30.252182849878167,30.487764764778277,30
132.0,71.8,71.80076749445563,71.38028364687443,71.57512658395441,30.225640910501212,30.420483847581195,30
136.0,71.6,71.5669218511605,71.1666229759898,71.32991636408886,30.23700548707164,30.400298875170705,30
140.0,71.29999999999998,71.31173585711586,70.96314531078525,71.07986395920037,30.231871897915497,30.348590546330612,30
145.0,71.1,71.02319152961712,70.93965569197974,70.93139383348877,30.091797696128353,30.083535837637385,30
150.0,70.9,70.86845110823646,70.5317593641015,70.59950187783318,30.26894923040328,30.336691744134953,30
155.0,70.7,70.67874146142715,70.0672350025105,70.25961583924934,30.419125622177816,30.61150645891665,30
160.0,70.6,70.52293110248064,69.649906618206,69.99946431033153,30.523466792149108,30.873024484274637,30
165.0,70.5,70.42419779300914,69.59477302345186,69.93769630107076,30.486501491938384,30.829424769557278,30
170.0,70.5,70.28274948127022,69.36402641836534,69.7418243461039,30.54092513516632,30.918723062904874,30
175.0,70.5,70.30354610191523,69.16056542618153,69.62749155708165,30.676054544833576,31.142980675733696,30
180.0,70.5,70.27049505401905,69.0412881283205,69.52807357120166,30.74242148281739,31.22920692569855,30
185.0,70.6,70.33079481760015,69.12416683195795,69.58211057110631,30.748684246493838,31.2066279856422,30
190.0,70.6,70.39481215838124,69.12210308060006,69.57558269421449,30.819229464166753,31.272709077781187,30
195.0,70.7,70.44063796503013,69.05715163441776,69.55474932837738,30.88588863665275,31.38348633061237,30
200.0,70.6,70.32287712129704,68.68118726216562,69.30267264380625,31.020204477490793,31.641689859131418,30
206.0,70.6,70.36709576916812,68.16019904901678,69.09200024819583,31.275095520972286,32.206896720151335,30
212.0,70.6,70.36390198076043,67.70304160066702,68.94866802285385,31.41523395790658,32.66086038009341,30
218.0,70.7,70.41778854116447,67.31892916840556,68.85588670583083,31.561901835333643,33.09885937275891,30
224.0,70.8,70.47653755130845,67.13381016794281,68.83283933199223,31.64369821931622,33.34272738336564,30
230.0,70.9,70.51165711849532,67.1029714340773,68.83155788527364,31.680099233221682,33.40868568441802,30
236.0,70.9,70.5678872514914,67.2087563496814,68.83886712014447,31.72902013134693,33.359130901810005,30
240.0,71.0,70.59128085577083,67.06696031079396,68.76418551306173,31.8270953427091,33.524320544976874,30
250.0,71.0,70.68051737509727,66.91639602798764,68.81094091191086,31.869576463186405,33.76412134710962,30
258.0,70.9,70.69481215838124,67.00473671958478,68.94740756021933,31.747404598161907,33.690075438796455,30
265.0,70.9,70.72647644578223,67.18041523662777,69.09403440660333,31.632442039178898,33.54606120915446,30
272.0,70.9,70.7578600586078,67.46741902997071,69.25280430021024,31.50505575839756,33.29044102863709,30
280.0,70.9,70.8454944791988,67.85046549124843,69.47025622503703,31.375238254161772,32.99502898795038,30
290.0,70.9,70.8454944791988,68.00776837276717,69.52117448955866,31.324319989640145,32.83772610643163,30
300.0,70.7,70.6902725709036,67.84186505868668,69.36288218751388,31.327390383389726,32.84840751221692,30
307.0,70.6,70.55634471847233,67.59834124909278,69.15502502519458,31.401319693277756,32.95800346937955,30
315.0,70.7,70.53762776013771,67.4338559656498,69.0159441703801,31.521683589757615,33.10377179448791,30
325.0,70.9,70.64980404287097,67.22734411753791,68.90020289976617,31.749601143104798,33.42245992533306,30
335.0,71.20000000000002,70.92725112058156,67.27783615620248,69.05204503692525,31.87520608365631,33.649414964379076,30
345.0,71.6,71.30867140692638,67.77694077464467,69.5780645185333,31.730606888393083,33.53173063228171,30
355.0,71.9,71.51165711849531,67.85659806796278,69.74182979981896,31.76982731867635,33.65505905053253,30
365.0,72.0,71.69882484139399,67.74576346619486,69.77834951081718,31.920475330576807,33.95306137519913,30
375.0,72.0,71.66735356144409,67.47780746618503,69.637749722852,32.02960383859208,34.18954609525906,30
387.0,71.7,71.30279053944192,67.03486158493199,69.2421831065562,32.06060743288572,34.26792895450993,30
400.0,71.20000000000002,70.80719135340352,66.36533367534904,68.66126568334505,32.145925670058475,34.44185767805449,30
412.0,71.20000000000002,70.68930868197542,65.94123941244882,68.38399953431272,32.3053091476627,34.748069269526596,30
425.0,71.29999999999998,70.7609075141713,65.70277707719698,68.2965674218586,32.464340092312696,35.05813043697431,30
437.0,71.29999999999998,70.77304334183366,65.47319323453524,68.23021458881506,32.5428287530186,35.29985010729841,30
450.0,71.29999999999998,70.86745135551284,65.43610508295659,68.2999017354179,32.56754962009494,35.431346272556254,30
462.0,71.4,71.03743946145272,65.88354132464845,68.6046879614088,32.43275150004392,35.15389813680427,30
475.0,71.5,71.20954282022787,66.22854927039401,68.82999331333941,32.37954950688845,34.980993549833855,30
487.0,71.5,71.31883774168757,66.57958682167497,69.0298491650797,32.28898857660788,34.73925092001261,30
500.0,71.5,71.21986874707348,66.57525685438537,68.9526430047413,32.26722574233217,34.644611892688104,30
515.0,71.20000000000002,70.87969783707307,66.2043554968663,68.57417032997809,32.30552750709498,34.67534234020677,30
530.0,70.8,70.51237443747381,65.79782538192056,68.18326540950648,32.329109027967334,34.71454905555325,30
545.0,70.4,70.15451882030496,65.36925414851255,67.75059251439187,32.40392630591309,34.785264671792405,30
560.0,70.3,69.94962385695945,64.70533745909948,67.28171418812349,32.66790966883596,35.244286397859966,30
580.0,70.6,70.13597978177071,64.71382173572165,67.32891567454811,32.8070641072226,35.42215804604906,30
600.0,71.0,70.49129189564064,65.14639698605704,67.66599985806042,32.825292037580226,35.3448949095836,30
615.0,71.1,70.69783908880896,65.85872226159896,68.11595535364589,32.581883735163075,34.839116827210006,30
630.0,71.1,70.44850746743353,65.37810523625137,67.78287626839811,32.66563119903542,35.07040223118216,30
650.0,71.0,70.42758156424718,64.8013413480485,67.4292081416263,32.99837342262087,35.62624021619868,30
670.0,71.20000000000002,70.67203757306117,65.27571349682941,67.73033128437248,32.94170628868869,35.396324076231764,30
690.0,71.8,71.16141094747397,65.86624424644029,68.21602808912431,32.94538285834966,35.29516670103368,30
710.0,72.5,71.81697172570713,66.39518676793266,68.806922366294,33.01004935941313,35.42178495777448,30
730.0,73.0,72.26733044728682,66.7558857992718,69.25734817198457,33.00998227530225,35.51144464801503,30
750.0,72.9,72.2946166131712,66.86681244431051,69.3647593413405,32.9298572718307,35.42780416886069,30
775.0,72.30000000000001,71.75266254409101,66.64747481539557,69.23476731410994,32.517895229981065,35.10518772869544,30
800.0,71.4,70.82730678079056,66.26398525361112,68.90475219821869,31.922554582571877,34.56332152717944,30
825.0,70.6,69.99192380625487,65.7915058211752,68.55310613843909,31.438817667815783,34.20041798507967,30
850.0,69.9,69.31601928707335,65.58766387166892,68.41216473153032,30.90385455554302,33.72835541540442,30
875.0,68.9,68.52790376011319,65.22566985118829,68.10070064181103,30.42720311830216,33.302233908924904,30
900.0,67.8,67.32807852992286,64.26084509672171,67.2307385475132,30.097339982409665,33.06723343320115,30
925.0,68.0,67.54060974809795,64.13692041143763,67.11266439294207,30.427945355155884,33.40368933666032,30
950.0,69.4,68.7358349181489,63.40126708946288,66.7192107407516,32.01662417739729,35.33456782868602,30
975.0,70.4,69.75793039886256,63.513180812147766,67.27944873613185,32.4784816627307,36.24474958671479,30
1000.0,70.7,70.14060557418519,64.61001379017745,68.19824641870744,31.942359155477746,35.53059178400774,30
1030.0,70.9,70.28607575502139,64.15980285857788,67.7699140014525,32.51616175356888,36.12627289644351,30
1060.0,71.20000000000002,70.4673078442332,63.52484065874803,67.31029508441111,33.157012759822095,36.94246718548517,30
1090.0,71.20000000000002,70.33472045966738,62.7848917044719,66.8795703223818,33.455150137285585,37.54982875519548,30
1120.0,70.3,69.65480794491643,62.27692862353453,66.54028481990628,33.11452312501015,37.3778793213819,30
1150.0,69.1,68.50187196849211,61.571042207575715,65.98102291660732,32.520849051884795,36.930829760916396,30
1180.0,68.70000000000002,68.11607960277689,61.69583319626717,65.81211712650081,32.303962476276084,36.42024640650972,30
1220.0,69.1,68.41515770281305,61.50157449883439,65.38528723321721,33.029870469595835,36.91358320397866,30
1250.0,69.9,68.88147303816943,61.03025415267322,65.11876259857729,33.76271043959214,37.85121888549621,30
1280.0,70.5,69.49198947862611,60.95655915234599,65.28243152750662,34.20955795111949,38.53543032628012,30
1320.0,70.4,69.56216080017069,60.87312924240621,64.96675532675746,34.59540547341322,38.68903155776448,30
1360.0,70.4,69.67548697304751,61.310909916263014,65.07381886773348,34.60166810531403,38.3645770567845,30
1400.0,71.1,69.94256772198136,61.11409719448325,65.00757242356919,34.934995298412176,38.82847052749811,30
1450.0,70.8,69.59574738851317,61.536374137072045,65.23639231114953,34.359355077363645,38.05937325144113,30
1500.0,69.6,68.54704112900444,61.092731014178185,64.6249699711995,33.922071157804936,37.45431011482626,30
1550.0,68.79999999999998,68.03594601211029,60.496283611943966,63.93677084507917,34.09917516703112,37.53966240016632,30
1600.0,68.0,67.44248659058727,60.139916657979626,63.48237559370121,33.96011099688606,37.30256993260764,30
1650.0,67.6,66.98081660846216,59.66270370098016,63.049148812792964,33.9316677956692,37.318112907482,30
1700.0,68.6,67.98496822314746,60.1525697499612,63.608492707593044,34.37647551555442,37.83239847318626,30
1750.0,69.3,68.43854698284895,59.870411252626695,63.50456263348386,34.93398434936509,38.56813573022225,30
1800.0,69.80000000000001,68.81025675766085,59.92818298574528,63.62907748370728,35.181179273953575,38.88207377191557,30
1850.0,69.9,68.69819426409731,59.68104739688624,63.38859317485199,35.30960108924532,39.01714686721107,30
1900.0,69.6,68.4275314691395,59.696248235161576,63.21317132731372,35.21436014182578,38.73128323397792,30
1950.0,69.4,68.45867423104686,60.185761483033545,63.40914238349637,35.04953184755048,38.27291274801331,30
2000.0,69.2,68.08779173792958,60.13334491204935,63.30542173563603,34.78237000229355,37.954446825880225,30
2060.0,68.6,67.64556906216251,59.52709484199568,62.93509461923429,34.710474442928216,38.11847422016683,30
2120.0,68.2,67.29957935144563,59.47836234376658,62.74900090753256,34.55057844391307,37.82121700767905,30
2180.0,68.1,67.1296561705349,59.69449611932062,63.02905218450928,34.10060398602562,37.43516005121428,30
2240.0,67.9,67.12329797641503,59.46047212334156,62.909948057219594,34.21334991919544,37.66282585307347,30
2300.0,67.5,66.7238951669932,58.94305811516628,62.38477080537979,34.339124361613415,37.78083705182692,30
2360.0,67.4,66.53869101877119,59.09444405891007,62.41235004973832,34.12634096903287,37.44424695986112,30
2400.0,67.6,66.5398364386567,59.5164347862614,62.94042985465171,33.599406584004996,37.02340165239531,30
2500.0,67.5,66.25913615518084,59.35244688798238,62.90380954362192,33.35532661155892,36.90668926719846,30
2580.0,67.9,66.4051116715876,59.392502997355024,62.92351120427129,33.48160046731631,37.01260867423258,30
2650.0,66.6,65.42288448711639,58.99973191646339,62.589869134525856,32.833015352590536,36.423152570653,30
2720.0,66.8,65.31385257368571,59.350943541658665,63.02328041747603,32.29057215620968,35.96290903202704,30
2800.0,67.9,66.38320056176335,59.73455345482789,63.5740798868859,32.80912067487745,36.64864710693546,30
2900.0,68.4,66.71817180105603,59.589884352347084,63.74112301493341,32.97704878612262,37.128287448708946,30
3000.0,69.2,67.47628250905031,59.87064958505327,64.24050215972541,33.2357803493249,37.605632923997035,30
3070.0,69.9,68.16688861959632,60.17845474778579,64.55929429732677,33.60759432226955,37.98843387181053,30
3150.0,70.4,68.8211733442686,60.3927855414052,64.9751824455083,33.845990898760306,38.4283878028634,30
3250.0,70.5,68.80127263046691,60.42857924573639,65.00785487145569,33.79341775901122,38.372693384730525,30
3350.0,70.5,68.83505325917085,60.287381276448016,64.92667636103064,33.908376898140205,38.54767198272283,30
3450.0,70.1,68.15557142334615,59.51582590635881,64.26115121639882,33.89442020694733,38.63974551698733,30
3550.0,69.80000000000001,67.92853474253143,59.30073214432646,64.04881477243372,33.87971997009771,38.627802598204966,30
3650.0,69.7,67.96356533736233,59.28240482024745,63.92064092789951,34.04292440946281,38.681160517114876,30
3750.0,69.4,67.88159665215335,59.00854253060629,63.48066130915586,34.400935342997485,38.87305412154706,30
3870.0,69.2,68.02388826570306,58.95372105841807,63.42840061556842,34.59548765013464,39.070167207284996,30
4000.0,68.79999999999998,67.3510805454313,58.55476971412514,62.679933114098304,34.671147431333,38.79631083130616,30
4120.0,68.9,67.2411902347533,58.51365667387793,62.59504000811111,34.64615022664219,38.72753356087537,30
4250.0,69.6,67.82063517246876,58.913754479054475,63.2687054398089,34.55192973265986,38.90688069341428,30
4370.0,69.9,68.59719747089937,59.623212200614674,64.19839004862298,34.39880742227639,38.9739852702847,30
