Freq,On Axis,Listening Window,Sound Power,Early Reflections,Early Reflections DI,Sound Power DI,DI offset
22.4,8.808860759493655,13.198255046479744,10.581893038555165,11.674283179665252,31.52397186681449,32.61636200792458,30
23.0,10.20886075949366,13.40628224730861,11.688431945960332,12.711533680855638,30.694748566452972,31.717850301348278,30
23.6,11.208860759493632,12.769130742510583,12.61486627825002,13.54420553127818,29.224925211232403,30.154264464260564,30
24.0,13.40886075949362,14.675445880951088,14.767388023175556,15.4377233355047,29.23772254544639,29.908057857775532,30
25.0,15.408860759493678,16.83064356827063,16.7815667195446,17.24088072946924,29.58976283880139,30.04907684872603,30
25.8,17.108860759493666,18.42679889203569,18.361018112485482,18.638057486490197,29.788741405545494,30.06578077955021,30
26.5,18.70886075949366,19.864192478438724,19.757863428345104,19.866322593799538,29.997869884639186,30.10632905009362,30
27.2,21.20886075949366,23.337657058743105,22.48979108239641,22.714943860960375,30.62271319778273,30.847865976346696,30
28.0,23.40886075949365,26.979647281319927,25.216889368117478,25.67063315865707,31.30901412266286,31.76275791320245,30
29.0,25.108860759493666,30.88884772953014,27.9840269884304,28.76774318194356,32.12110454758658,32.90482074109974,30
30.0,27.70886075949366,35.0299062813005,31.8926728340669,32.64157513478955,32.38833114651095,33.1372334472336,30
30.7,31.90886075949365,36.62452708475155,35.266591345689335,35.293613597349974,31.330913487401574,31.357935739062214,30
31.5,35.308860759493655,38.1186587752924,38.4825167371763,37.93453208404583,30.184126691246576,29.636142038116105,30
32.5,39.608860759493666,41.81622717865898,43.39972621822963,42.762669047573866,29.05355813108511,28.416500960429346,30
33.5,43.50886075949364,47.54189359533859,48.41677740772519,47.952788052502285,29.589105542836307,29.1251161876134,30
34.5,45.40886075949365,49.72268198280027,50.00408519641735,49.49294077342688,30.229741209373387,29.718596786382918,30
35.5,46.90886075949365,51.42836241533708,52.12783643359822,51.83238251889675,29.595979896440326,29.300525981738858,30
36.5,47.308860759493655,51.45066212947884,53.76291995337482,53.44006498703462,28.010597142444226,27.687742176104024,30
37.5,47.70886075949366,51.96522578543858,54.856074880345744,54.38954198749454,27.575683797944038,27.109150905092832,30
38.7,47.70886075949366,51.38515076333118,53.917134080314554,53.42547766028703,27.959673103044153,27.46801668301663,30
40.0,48.808860759493655,51.4619246788092,53.064929341872485,52.717245395556745,28.744679283252452,28.396995336936712,30
41.2,50.00886075949364,52.57747071704958,53.5337048024501,53.31378708893176,29.263683628117818,29.043765914599476,30
42.5,52.60886075949365,54.32512868338476,55.235363943031345,54.95745374588479,29.36767493749997,29.089764740353417,30
43.7,55.70886075949366,56.72258177118874,57.5842528048301,57.26693933613518,29.455642435053562,29.138328966358642,30
45.0,58.40886075949365,58.7002313932433,59.53614359586447,59.3611577385022,29.3390736547411,29.164087797378826,30
46.2,59.50886075949364,58.66705142247258,59.444206510149016,59.3663170850044,29.300734337468185,29.222844912323566,30
47.5,60.70886075949366,59.20231058651163,60.163085348303554,60.09197727198469,29.11033331452694,29.039225238208076,30
48.7,62.308860759493655,60.46486253833115,62.66404404938092,62.366580144845614,28.098282393485533,27.800818488950227,30
50.0,63.40886075949365,61.91995117003117,65.85522105606532,65.08273078311986,26.837220386911312,26.06473011396585,30
51.5,63.50886075949364,62.868389318631316,63.96545625933284,64.06710832069614,28.80128099793518,28.902933059298476,30
53.0,64.60886075949364,64.59824917645196,63.83318924966801,64.66221802461568,29.936031151836275,30.765059926783948,30
54.5,66.80886075949365,66.11891588564924,64.47067048248587,65.51524446642026,30.603671419228988,31.648245403163372,30
56.0,68.20886075949363,67.42733116713808,65.5560396533413,66.61575123332884,30.81157993380924,31.871291513796777,30
58.0,69.10886075949365,68.86456063262787,67.12081367498222,68.12636938221581,30.738191250412058,31.743746957645655,30
60.0,70.10886075949365,69.94929154353557,68.27615717089394,69.20605462896998,30.743236914565585,31.673134372641627,30
61.5,71.20886075949365,70.76407861097556,69.19592424968968,70.00958024064809,30.754498370327468,31.568154361285877,30
63.0,72.00886075949367,71.65155161773623,70.06976096457197,70.82301813465826,30.828533483077976,31.581790653164262,30
65.0,72.70886075949365,72.57021995579551,70.90457089934449,71.63801613956764,30.93220381622787,31.665649056451016,30
67.0,73.30886075949365,73.16608849624168,71.66821138811673,72.36339599717621,30.802692499065472,31.497877108124953,30
69.0,73.70886075949365,73.58037490592355,72.21397302679452,72.84855914919729,30.731815756726263,31.36640187912903,30
71.0,74.00886075949366,73.80094003106319,72.55046775604464,73.07943366757051,30.72150636349268,31.250472275018552,30
73.0,74.00886075949366,73.91116892811083,73.13292159879276,73.44598243929545,30.465186488815377,30.778247329318063,30
75.0,74.50886075949367,74.32264946278437,73.80388208664357,73.996999882077,30.325649580707363,30.5187673761408,30
77.5,75.10886075949365,74.88837946888944,74.46539930125695,74.62468987846239,30.26368959042705,30.42298016763249,30
80.0,75.30886075949365,75.18836762961334,74.91967508670785,75.04244959571051,30.14591803390283,30.268692542905484,30
82.5,75.60886075949367,75.37834248984052,75.20755658032488,75.23637746443697,30.14196502540355,30.170785909515644,30
85.0,75.70886075949363,75.56572232502407,75.45255952343607,75.43273137416011,30.132990950863956,30.113162801588004,30
87.5,75.80886075949365,75.73179186197429,75.65411177354468,75.62585765261863,30.105934209355652,30.077680088429602,30
90.0,75.80886075949365,75.76521724352551,75.78021358555141,75.72875616194969,30.036461081575823,29.985003657974104,30
92.5,75.70886075949363,75.68709382457753,75.74594139752958,75.66982136915286,30.017272455424674,29.941152427047953,30
95.0,75.60886075949367,75.59837565492047,75.60677046433972,75.55553717371782,30.04283848120265,29.991605190580756,30
97.5,75.50886075949366,75.54296423541194,75.45787926095441,75.45781609367033,30.085148141741612,30.08508497445753,30
100.0,75.30886075949365,75.47603454512021,75.20850681119917,75.2983967307461,30.17763781437411,30.267527733921042,30
103.0,75.10886075949365,75.1986321198907,74.83809459983192,74.97841135859687,30.22022076129383,30.360537520058784,30
106.0,75.00886075949366,75.00937243753413,74.57269525527008,74.75222871398375,30.25714372355037,30.43667718226405,30
109.0,74.70886075949365,74.82187238267913,74.35443900604925,74.57802930988979,30.243843072789346,30.467433376629884,30
112.0,74.50886075949367,74.64295832241575,74.07916580912465,74.34766545412106,30.295292868294695,30.563792513291105,30
115.0,74.20886075949366,74.37654423766502,73.76340364358157,74.05023554619433,30.326308691470686,30.613140594083447,30
118.0,74.00886075949366,74.0760404132536,73.44414873192233,73.74146999365117,30.33457041960243,30.63189168133127,30
122.0,73.70886075949365,73.80911660604951,73.2021984903572,73.47996421271378,30.329152393335733,30.60691811569231,30
125.0,73.40886075949365,73.53281583130368,72.94843353696841,73.215734204157,30.317081627146678,30.58438229433527,30
128.0,73.20886075949363,73.16521724352553,72.67745247874726,72.91303439364737,30.252182849878167,30.487764764778277,30
132.0,72.90886075949365,72.90962825394926,72.4891444063681,72.68398734344808,30.225640910501184,30.420483847581167,30
136.0,72.70886075949365,72.67578261065415,72.27548373548345,72.4387771235825,30.237005487071656,30.400298875170705,30
140.0,72.40886075949365,72.42059661660952,72.07200607027892,72.18872471869402,30.231871897915497,30.3485905463306,30
145.0,72.20886075949365,72.13205228911077,72.04851645147338,72.04025459298242,30.091797696128353,30.0835358376374,30
150.0,72.00886075949367,71.97731186773011,71.64062012359516,71.70836263732683,30.26894923040328,30.336691744134953,30
155.0,71.80886075949365,71.7876022209208,71.17609576200415,71.36847659874299,30.419125622177816,30.61150645891665,30
160.0,71.70886075949366,71.63179186197428,70.75876737769966,71.10832506982518,30.523466792149094,30.873024484274623,30
165.0,71.60886075949365,71.5330585525028,70.70363378294552,71.04655706056441,30.486501491938384,30.829424769557278,30
170.0,71.60886075949365,71.39161024076387,70.47288717785901,70.85068510559753,30.540925135166333,30.91872306290486,30
175.0,71.60886075949365,71.41240686140888,70.26942618567519,70.7363523165753,30.676054544833576,31.142980675733696,30
180.0,71.60886075949365,71.37935581351272,70.15014888781415,70.63693433069531,30.742421482817406,31.229206925698563,30
185.0,71.70886075949366,71.4396555770938,70.23302759145162,70.69097133059998,30.748684246493823,31.206627985642186,30
190.0,71.70886075949366,71.5036729178749,70.23096384009371,70.68444345370814,30.819229464166753,31.272709077781187,30
195.0,71.80886075949365,71.54949872452379,70.16601239391142,70.66361008787104,30.88588863665275,31.38348633061237,30
200.0,71.70886075949366,71.43173788079069,69.79004802165926,70.4115334032999,31.020204477490793,31.641689859131432,30
206.0,71.70886075949366,71.47595652866175,69.26905980851043,70.2008610076895,31.275095520972258,32.20689672015132,30
212.0,71.70886075949366,71.47276274025408,68.81190236016069,70.0575287823475,31.41523395790658,32.660860380093396,30
218.0,71.80886075949365,71.52664930065812,68.42778992789923,69.96474746532449,31.56190183533363,33.098859372758895,30
224.0,71.90886075949365,71.5853983108021,68.24267092743648,69.94170009148588,31.64369821931622,33.34272738336563,30
230.0,72.00886075949367,71.62051787798896,68.21183219357096,69.94041864476729,31.680099233221668,33.408685684418,30
236.0,72.00886075949367,71.67674801098507,68.31761710917505,69.94772787963814,31.72902013134693,33.35913090181002,30
240.0,72.10886075949364,71.70014161526447,68.17582107028761,69.87304627255538,31.827095342709086,33.52432054497686,30
250.0,72.10886075949364,71.78937813459092,68.02525678748131,69.91980167140451,31.869576463186405,33.76412134710961,30
258.0,72.00886075949367,71.80367291787489,68.11359747907844,70.05626831971298,31.747404598161907,33.690075438796455,30
265.0,72.00886075949367,71.83533720527586,68.28927599612142,70.20289516609697,31.632442039178898,33.546061209154445,30
272.0,72.00886075949367,71.86672081810146,68.57627978946437,70.36166505970388,31.505055758397575,33.29044102863709,30
280.0,72.00886075949367,71.95435523869244,68.95932625074208,70.57911698453069,31.375238254161758,32.99502898795036,30
290.0,72.00886075949367,71.95435523869244,69.11662913226083,70.63003524905233,31.324319989640117,32.83772610643162,30
300.0,71.80886075949365,71.79913333039724,68.95072581818035,70.47174294700753,31.327390383389712,32.848407512216895,30
307.0,71.70886075949366,71.665205477966,68.70720200858645,70.26388578468824,31.401319693277756,32.95800346937955,30
315.0,71.80886075949365,71.64648851963136,68.54271672514345,70.12480492987373,31.52168358975763,33.10377179448791,30
325.0,72.00886075949367,71.75866480236463,68.33620487703158,70.00906365925984,31.749601143104798,33.42245992533306,30
335.0,72.30886075949365,72.03611188007521,68.38669691569615,70.1609057964189,31.87520608365631,33.64941496437906,30
345.0,72.70886075949365,72.41753216642003,68.88580153413832,70.68692527802696,31.73060688839307,33.53173063228171,30
355.0,73.00886075949366,72.62051787798896,68.96545882745644,70.85069055931262,31.769827318676334,33.655059050532515,30
365.0,73.10886075949367,72.80768560088762,68.85462422568853,70.88721027031083,31.920475330576792,33.9530613751991,30
375.0,73.10886075949367,72.77621432093774,68.5866682256787,70.74661048234567,32.02960383859207,34.18954609525905,30
387.0,72.80886075949365,72.41165129893557,68.14372234442564,70.35104386604985,32.06060743288572,34.26792895450993,30
400.0,72.30886075949365,71.91605211289718,67.47419443484269,69.77012644283869,32.14592567005849,34.44185767805449,30
412.0,72.30886075949365,71.79816944146907,67.05010017194247,69.49286029380639,32.30530914766268,34.748069269526596,30
425.0,72.40886075949365,71.86976827366495,66.81163783669065,69.40542818135226,32.46434009231268,35.058130436974295,30
437.0,72.40886075949365,71.88190410132731,66.58205399402891,69.33907534830871,32.5428287530186,35.2998501072984,30
450.0,72.40886075949365,71.97631211500651,66.54496584245024,69.40876249491156,32.56754962009495,35.43134627255627,30
462.0,72.50886075949366,72.14630022094637,66.99240208414211,69.71354872090245,32.43275150004392,35.15389813680426,30
475.0,72.60886075949365,72.31840357972152,67.33741002988766,69.93885407283307,32.37954950688845,34.980993549833855,30
487.0,72.60886075949365,72.42769850118123,67.68844758116862,70.13870992457336,32.28898857660786,34.73925092001261,30
500.0,72.60886075949365,72.32872950656713,67.68411761387902,70.06150376423493,32.2672257423322,34.644611892688104,30
515.0,72.30886075949365,71.98855859656672,67.31321625635996,69.68303108947174,32.30552750709498,34.675342340206754,30
530.0,71.90886075949365,71.62123519696746,66.90668614141421,69.29212616900011,32.32910902796735,34.71454905555325,30
545.0,71.50886075949366,71.2633795797986,66.4781149080062,68.85945327388552,32.403926305913075,34.78526467179239,30
560.0,71.40886075949365,71.05848461645311,65.81419821859313,68.39057494761713,32.66790966883599,35.24428639785998,30
580.0,71.70886075949366,71.24484054126438,65.8226824952153,68.43777643404175,32.80706410722263,35.42215804604908,30
600.0,72.10886075949364,71.6001526551343,66.2552577455507,68.77486061755407,32.825292037580226,35.3448949095836,30
615.0,72.20886075949365,71.80669984830261,66.96758302109261,69.22481611313955,32.58188373516306,34.839116827210006,30
630.0,72.20886075949365,71.55736822692718,66.48696599574501,68.89173702789178,32.6656311990354,35.07040223118217,30
650.0,72.10886075949364,71.53644232374084,65.91020210754215,68.53806890111996,32.99837342262089,35.626240216198696,30
670.0,72.30886075949365,71.78089833255484,66.38457425632305,68.83919204386615,32.94170628868869,35.39632407623179,30
690.0,72.90886075949365,72.2702717069676,66.97510500593394,69.32488884861796,32.945382858349646,35.295166701033665,30
710.0,73.60886075949365,72.92583248520077,67.50404752742631,69.91578312578766,33.01004935941312,35.42178495777446,30
730.0,74.10886075949365,73.37619120678048,67.86474655876545,70.36620893147821,33.009982275302264,35.51144464801503,30
750.0,74.00886075949366,73.40347737266485,67.97567320380416,70.47362010083415,32.9298572718307,35.42780416886069,30
775.0,73.40886075949365,72.86152330358465,67.75633557488922,70.3436280736036,32.51789522998105,35.10518772869543,30
800.0,72.50886075949366,71.93616754028423,67.37284601310478,70.01361295771234,31.92255458257189,34.563321527179454,30
825.0,71.70886075949366,71.10078456574853,66.90036658066887,69.66196689793276,31.43881766781577,34.20041798507965,30
850.0,71.00886075949364,70.42488004656698,66.69652463116257,69.52102549102398,30.903854555543006,33.72835541540441,30
875.0,70.00886075949366,69.63676451960683,66.33453061068194,69.20956140130468,30.427203118302145,33.30223390892489,30
900.0,68.90886075949365,68.4369392894165,65.36970585621535,68.33959930700685,30.09733998240965,33.06723343320115,30
925.0,69.10886075949365,68.64947050759159,65.24578117093128,68.2215251524357,30.427945355155884,33.40368933666031,30
950.0,70.50886075949366,69.84469567764253,64.51012784895653,67.82807150024524,32.01662417739729,35.334567828686005,30
975.0,71.50886075949366,70.86679115835621,64.62204157164143,68.38830949562552,32.47848166273069,36.244749586714775,30
1000.0,71.80886075949365,71.24946633367884,65.7188745496711,69.30710717820111,31.94235915547773,35.53059178400774,30
1030.0,72.00886075949367,71.39493651451504,65.26866361807153,68.87877476094616,32.51616175356888,36.12627289644351,30
1060.0,72.30886075949365,71.57616860372687,64.63370141824169,68.41915584390476,33.15701275982211,36.942467185485185,30
1090.0,72.30886075949365,71.44358121916102,63.893752463965555,67.98843108187543,33.455150137285585,37.54982875519546,30
1120.0,71.40886075949365,70.76366870441008,63.3857893830282,67.64914557939991,33.114523125010166,37.37787932138188,30
1150.0,70.20886075949365,69.61073272798575,62.67990296706938,67.08988367610098,32.52084905188477,36.93082976091637,30
1180.0,69.80886075949365,69.22494036227053,62.804693955760825,66.92097788599446,32.30396247627607,36.420246406509705,30
1220.0,70.20886075949365,69.5240184623067,62.61043525832804,66.49414799271086,33.029870469595835,36.91358320397866,30
1250.0,71.00886075949364,69.99033379766308,62.13911491216686,66.22762335807094,33.76271043959214,37.85121888549622,30
1280.0,71.60886075949365,70.60085023811976,62.065419911839626,66.39129228700027,34.20955795111949,38.535430326280135,30
1320.0,71.50886075949366,70.67102155966433,61.981990001899874,66.07561608625112,34.59540547341321,38.68903155776445,30
1360.0,71.50886075949366,70.78434773254116,62.419770675756666,66.18267962722713,34.60166810531403,38.3645770567845,30
1400.0,72.20886075949365,71.05142848147501,62.2229579539769,66.11643318306284,34.934995298412176,38.82847052749811,30
1450.0,71.90886075949365,70.70460814800683,62.6452348965657,66.34525307064317,34.35935507736366,38.05937325144113,30
1500.0,70.70886075949363,69.6559018884981,62.20159177367182,65.73383073069316,33.922071157804936,37.45431011482627,30
1550.0,69.90886075949365,69.14480677160392,61.60514437143762,65.04563160457282,34.099175167031106,37.53966240016631,30
1600.0,69.10886075949365,68.55134735008093,61.24877741747329,64.59123635319486,33.96011099688607,37.30256993260764,30
1650.0,68.70886075949365,68.08967736795583,60.771564460473826,64.15800957228662,33.93166779566921,37.318112907482,30
1700.0,69.70886075949365,69.09382898264111,61.26143050945487,64.7173534670867,34.37647551555442,37.832398473186245,30
1750.0,70.40886075949365,69.5474077423426,60.97927201212033,64.61342339297751,34.93398434936509,38.56813573022227,30
1800.0,70.90886075949365,69.9191175171545,61.03704374523893,64.73793824320094,35.18117927395356,38.88207377191557,30
1850.0,71.00886075949364,69.80705502359095,60.78990815637988,64.49745393434563,35.30960108924532,39.01714686721107,30
1900.0,70.70886075949363,69.53639222863315,60.80510899465524,64.32203208680734,35.21436014182581,38.731283233977905,30
1950.0,70.50886075949366,69.56753499054052,61.2946222425272,64.51800314299004,35.04953184755048,38.272912748013326,30
2000.0,70.30886075949365,69.19665249742324,61.24220567154299,64.41428249512968,34.78237000229356,37.954446825880254,30
2060.0,69.70886075949365,68.75442982165616,60.63595560148933,64.04395537872794,34.710474442928216,38.11847422016683,30
2120.0,69.30886075949365,68.40844011093928,60.587223103260214,63.85786166702623,34.550578443913054,37.82121700767907,30
2180.0,69.20886075949366,68.23851693002857,60.80335687881427,64.13791294400292,34.10060398602565,37.4351600512143,30
2240.0,69.00886075949366,68.23215873590868,60.5693328828352,64.01880881671325,34.21334991919544,37.662825853073485,30
2300.0,68.60886075949365,67.83275592648685,60.05191887465992,63.49363156487344,34.339124361613415,37.780837051826936,30
2360.0,68.50886075949364,67.64755177826484,60.20330481840374,63.52121080923199,34.12634096903285,37.444246959861104,30
2400.0,68.70886075949365,67.64869719815036,60.62529554575505,64.04929061414538,33.59940658400498,37.02340165239531,30
2500.0,68.60886075949365,67.36799691467448,60.46130764747605,64.01267030311558,33.355326611558894,36.90668926719843,30
2580.0,69.00886075949366,67.51397243108127,60.50136375684869,64.03237196376496,33.48160046731631,37.01260867423258,30
2650.0,67.70886075949365,66.53174524661004,60.10859267595704,63.69872989401949,32.83301535259055,36.423152570653,30
2720.0,67.90886075949365,66.42271333317936,60.4598043011523,64.13214117696968,32.29057215620968,35.962909032027056,30
2800.0,69.00886075949366,67.49206132125701,60.84341421432154,64.68294064637954,32.80912067487748,36.64864710693547,30
