Freq,Floor Bounce,Ceiling Bounce,Front Wall Bounce,Side Wall Bounce,Rear Wall Bounce,Total Early Reflection
20.5078,50.922645888947486,44.09889541439209,50.044088460214496,43.75766862209683,58.01254229597042,52.586016767977
21.9727,54.49727093003885,48.612207590784394,54.07337624596842,49.45599856439297,58.96522228493377,54.73047881836597
23.4375,55.88334443066698,50.609289604775554,55.21179426993082,51.30294329586049,60.12488544938135,56.01801493050273
24.9023,56.670751802342565,50.71407865972016,55.84486519564702,51.705168463754816,60.748469829293484,56.63281462577747
26.3672,58.18818927190661,53.28586450814943,57.329459842975425,54.07649510466915,62.15494385636329,58.20962715912357
27.832,59.82025819473991,55.929194365464625,59.116183254068304,56.40298636800894,62.60792605163563,59.47123129218498
29.2969,61.21891857607072,57.16873160594831,60.574142340903464,57.772919949091076,64.27723546807107,60.9778950276753
30.7617,62.064351629602,58.89595531992559,61.45451773883083,59.35781273850979,65.48329163500435,62.137276567765056
32.2266,62.87972618838556,60.03460087677779,62.28540785662575,60.46346893824746,66.49015658051785,63.10083509360534
33.6914,63.93210827550119,61.620118088843256,63.37979455741329,62.018838832867075,67.7421280093575,64.3585390361874
35.1562,65.1777081799794,63.20612988987064,64.68492616061197,63.562811499143734,68.83567418279134,65.6222784440169
36.6211,66.47318707966828,64.65936418159795,66.02883263496439,65.05578290970293,69.97378475906457,66.9043768715268
38.0859,66.63824013422821,65.18549227213988,66.11715846175768,65.5905677707773,70.88672990290839,67.46471686129705
39.5508,67.9231194845272,67.02002068181585,67.52188841267498,67.32397503161891,71.9035789859653,68.78368963721968
41.0156,69.31414319399464,68.43944621834859,68.97602572426662,68.72885370320667,72.79281093105851,69.9918049865265
42.4805,70.34413479071665,69.6605446252291,70.02947444066159,69.9435378984049,73.69934741534381,71.03464898371413
43.9453,71.52345429832707,70.80896074808749,71.25104208799016,71.06037545910029,74.43290253932139,72.04689572696161
45.4102,72.42722614840994,71.79830090915436,72.15242778414351,72.08338463318066,75.54364196553209,73.05471388502342
46.875,73.2331698002016,72.70726254258832,72.93585169930195,73.03254148114407,76.34941517270398,73.89570205697902
48.3398,74.05210134069246,73.67131850969466,73.81352084033658,73.94962430806596,76.9412465998466,74.68487868210265
51.2695,75.90035960061536,75.45598832461893,75.67133618013769,75.76411492058993,78.24268972070661,76.34212200865491
52.7344,76.7670383758977,76.3971082059401,76.59286360027309,76.62220883638312,78.85958980926536,77.15345321859049
54.1992,77.46789052814945,77.10417221515564,77.30955853757665,77.33777385489797,79.71670894949689,77.90755569730659
55.6641,77.84120229661822,77.44939311147634,77.57805672838279,77.8583354295146,80.56874502168459,78.43519055487766
58.5938,78.89614753283888,78.73247153058232,78.65015522617554,79.10415386272827,81.48932227383384,79.52110250836405
60.0586,79.55318671851002,79.43320763187576,79.33348018940602,79.76460807149276,81.87878357816345,80.10818511799248
62.9883,80.82041989638047,80.67396107458923,80.61406203361385,80.99953265043955,82.79466470799775,81.26429719897102
64.4531,81.37685199970002,81.2220088557735,81.17017687555314,81.54847473509263,83.22284545428454,81.78167635669298
67.3828,82.28445103129938,82.14749472199951,82.08672234434643,82.46449234648344,83.9573609778663,82.64809433953731
68.8477,82.65675281153634,82.51690954989765,82.4584022864831,82.83694440504856,84.2543914759314,82.999575802827
71.7773,83.42183730466162,83.28880108267727,83.22705809535455,83.60966517056288,84.87562629661163,83.73006653180387
74.707,84.21715937227152,84.10321800186644,84.0338256724694,84.41077090431756,85.51414454941892,84.4917855263079
77.6367,84.7782216851813,84.65689956015213,84.59608069400728,84.97030903617292,85.93493401138788,85.01632788648438
79.1016,84.99209617740085,84.86893391084159,84.8110859507012,85.18340270471147,86.08634924357555,85.21456248159934
82.0312,85.52069927935575,85.39345664081425,85.33868309038256,85.70710909904625,86.50277114634348,85.71408733654181
84.9609,85.96487181370415,85.83466870886825,85.77380237425739,86.16171260478107,86.9150009319893,86.1504969010606
87.8906,86.25172454029264,86.11450160568258,86.05738906774381,86.43755613992874,87.0828238520401,86.4051198555115
90.8203,86.5476661982636,86.40345444422542,86.35976245346194,86.71961366435967,87.22772459039065,86.6632836834594
95.2148,87.08997272836314,86.92425743887976,86.89991023615596,87.21885444449009,87.56322639596341,87.14606054304458
98.1445,87.27870356953005,87.11698445960465,87.10898114052615,87.3965279011943,87.60610766006161,87.30548173076973
101.074,87.26473049647988,87.13310164819924,87.10516836545413,87.42288279237135,87.59302575312184,87.30767128472003
105.469,87.51480255531494,87.35210831473239,87.33377428726797,87.64656294852593,87.75300330573778,87.52312297224867
108.398,87.69622610300165,87.51966831094764,87.50742595902885,87.80286220123442,87.87914411999145,87.68360952317708
112.793,87.88770888865348,87.6841120816834,87.70439656089019,87.9802771675555,87.99399241779318,87.85211561282793
117.188,87.94213783322077,87.6621847742622,87.73748311647233,87.97622665599711,87.90436886234737,87.84620390953584
120.117,87.96770499448053,87.70248806504053,87.76132850859199,87.984823136114,87.80591608410398,87.84591488927475
124.512,88.1369566625066,87.83501588465226,87.91614545855148,88.13889579581421,87.90390111482101,87.9880428535232
128.906,88.14850081355657,87.82451249295455,87.93058139060795,88.14539552715878,87.84545365061993,87.9812075445828
133.301,88.18939330248166,87.86728483758576,87.98572728027808,88.16523536795772,87.75472912427985,87.99571227534906
139.16,87.7546171126143,87.43219652213162,87.5270382541653,87.80980351641168,87.68002838783754,87.6430204593565
143.555,87.79910911793834,87.36494795048993,87.53690578616717,87.72723490999033,87.51667363527181,87.59176947107436
147.949,87.94206294429942,87.43989767100122,87.68468250255259,87.75256842939763,87.21811929894174,87.6147605598112
153.809,87.78068956750013,87.28999654602246,87.54181542537641,87.60524505430912,87.00525782450457,87.45292531307717
159.668,87.7878529127327,87.2391059439608,87.52202093011265,87.56971438600762,86.97982472961594,87.42872176973479
165.527,87.92500804936822,87.41870460908068,87.67441956495132,87.72572723080766,87.13340871492099,87.58399850045544
171.387,87.5837129643841,87.12413764231925,87.36385333881815,87.408323894697,86.8846707757567,87.27970450796627
177.246,87.36764951121367,86.85335407094446,87.12403654209405,87.14474510002161,86.59290426092673,87.02470416175453
183.105,87.32882870594432,86.74553441343186,87.07348300883613,87.00914390844291,86.39414069459356,86.92174059321636
188.965,87.12006495741822,86.51532288633022,86.88076622185208,86.76985448870936,86.1033722411721,86.69154899423391
196.289,87.40138224912185,86.71559354464831,87.1364098559569,86.95598549220072,86.03952989169285,86.87385064000489
203.613,87.22222849845693,86.60468883730805,86.98190379552064,86.78560341576544,85.78600607371267,86.70282609063293
210.938,87.11051319701387,86.31832889632197,86.83034365027451,86.5661806118088,85.59104678683511,86.51345262769674
218.262,87.08663708897441,86.35783403260159,86.76895008242744,86.53288186977166,85.60094697674741,86.49731954376965
225.586,86.95811597756119,86.07070274817677,86.62975565064816,86.30016486099488,85.4026601080199,86.303859672402
232.91,86.86126063273271,85.96237714631727,86.54875955124032,86.13642609564332,85.12565144936593,86.16612383141482
241.699,86.78624480067116,85.72726763456363,86.42160425447565,85.95694164539808,84.70231279982623,85.9750701755906
250.488,86.90284262462832,85.43008212964061,86.42565127326195,85.80636173397697,84.51630827542392,85.89277761340186
259.277,86.96745306042409,85.84274851925373,86.57426775557136,86.09228970692058,84.55078554259146,86.08011083142443
268.066,86.64686981314593,85.40989083171475,86.2649340480666,85.70330804556775,84.47305256413055,85.76257861250164
276.855,86.52975242271192,85.22623121420742,86.13572617314155,85.5731700390783,83.99104023975758,85.57543199223281
287.109,86.22452105921391,85.20034894282225,85.82127763058655,85.31982572197127,84.17406961923257,85.40154143476387
297.363,85.74371652629544,84.28709671190016,85.39548372274716,84.64155623916041,85.03642286421815,85.05175092549061
307.617,87.45433089864126,84.95081727299343,87.00700966831141,85.46458429366722,84.94394331789144,86.09642744017728
319.336,87.14979848757211,85.26105016201933,86.83493638223908,85.36207663857006,84.2169397601517,85.89920058646847
329.59,87.07211205237356,85.27451845120099,86.75597313033568,85.4931899181024,83.63133354392906,85.80981045647827
341.309,87.32733076528424,85.18566054900896,86.85018395788953,85.4145213020903,83.25746826275731,85.83032137581465
353.027,87.19843634536763,84.96611605134974,86.87333676423425,85.38593297705484,82.88996173756327,85.7178325009318
366.211,87.43478221852119,85.18737464542652,87.05112511387554,85.57362981447639,82.68295523201654,85.88296630696458
379.395,87.59888770972675,85.69790318913013,87.30264596840699,86.27010353611574,83.009606086103,86.24824093422934
392.578,87.21199375011788,85.29280587960665,86.87363030778356,85.59328333248692,83.1398072124834,85.84314689876514
405.762,86.72806125930065,85.09081484353638,86.5350747275126,85.39485251227484,82.605027468287,85.49613747206438
420.41,87.47054615216398,85.1863662673153,87.09873990361679,85.73929868675019,81.71171164394035,85.85363475384071
435.059,86.7852865494036,85.2734752286925,86.60903797272819,85.63324568778575,82.4400673674268,85.59449728081965
451.172,86.92502474846616,84.89250372350077,86.71575971948548,85.322032099965,81.4126210698597,85.43956096462576
465.82,86.78782523441434,85.01882774400082,86.7166500468469,85.68503979389702,81.42247955832177,85.49845527280966
483.398,86.53689256563013,84.68089880741935,86.28081648042836,85.1403746903316,81.46042465885374,85.14709182439611
499.512,86.40496402700427,84.50590135748466,86.15242831706517,85.06054848551388,81.22344483525633,85.00996582177484
517.09,86.30734734002748,84.53907512740349,86.14510489452678,85.01708687739695,81.22838333391867,84.97892621566105
536.133,85.74288367989317,83.44413956867612,85.62334495088153,84.20487215242596,80.53804134509022,84.2741440483877
555.176,86.06594708447986,82.93637854676102,86.1337862967354,84.60839354101245,79.58150162831578,84.4440692969887
574.219,86.21835181391687,82.77057629813261,86.10103792017318,84.47400179276325,80.23595782988606,84.47502655893396
594.727,86.19029339269132,83.05127844040052,86.28159223366329,84.29685719061898,80.3666631294275,84.53433989990332
615.234,86.06967691166723,82.55210436971333,86.29437332180964,84.36332632766941,79.89303567899886,84.41293259341118
637.207,86.32204667441034,83.19572654659676,86.41431876418294,84.952418459069,80.6258980129914,84.78195876873949
659.18,86.16504137601184,83.67819133664801,86.59405041606385,84.82345009159829,80.80953987180314,84.84971235799556
682.617,85.83532348182273,83.41976001669182,86.48761557251198,84.90089151841987,80.48555105085974,84.68170599945475
707.52,85.16823620978629,83.05109275285223,86.17544285707737,84.4412840035457,80.10406319271708,84.2344346900663
732.422,83.90378680055419,83.69974461683904,85.26159802543353,83.71062376656387,80.0706657733175,83.62705888314117
757.324,83.51769321802598,84.68737909485895,84.56647439973025,83.73792964087806,80.64683144065678,83.64654275259156
785.156,83.64627551196817,83.88140398760115,84.22565715122163,85.30962321531348,83.50916038793336,84.16470349619478
811.523,87.38781105085526,84.52376297154494,86.43221788999743,84.73619014763985,84.98311390060836,85.76051540678174
840.82,87.50254101933557,83.90251983854739,87.71318528329336,84.051644057915,85.09638648554989,85.96912734085976
870.117,88.19241494073717,82.02005220588224,88.34061274122762,82.65252442435816,85.29933896893026,86.0727807618181
900.879,87.89719511383295,82.4521926066224,88.60360969660555,83.21842977669084,86.0795866081447,86.29899570773077
933.105,86.86956136901216,82.34531908036539,88.22959027615285,82.71701708793013,86.66850700100439,85.9648045632756
965.332,83.51087545740816,85.20194033142276,87.71015964057882,84.86310440781388,84.72861181841226,85.43924636281606
1000.49,83.60224131574124,84.56839584286563,86.41946399851237,84.1088133615932,81.10698069880466,84.28325176047592
1035.64,83.54603062843807,84.75765887113876,86.27695075035852,84.11494961578,79.7900912988542,84.15925014901211
1072.27,84.17901252684723,84.11078706003173,86.12208355687115,83.76775358324365,78.24150020345799,83.92242061760761
1108.89,84.53305640667948,84.486629595825,85.8295855033478,83.06836848298097,77.20854288788033,83.81305746552742
1148.44,84.4887976876607,83.5673460394914,86.51393911908585,82.87825360073735,75.99339078773882,83.76709527591332
1189.45,84.5023945776473,82.08501210309498,86.41690225105025,83.28831090064948,76.60126781254068,83.58231030428797
1230.47,84.9862482062162,82.21077770367236,86.5236928056684,83.01104742670071,76.12137307475857,83.69846289383715
1274.41,85.61516105045798,83.37586579065992,86.6609678474886,82.32060234900918,76.27162872396322,84.00874186549537
1319.82,86.64493763241502,83.2779826240757,87.07059597068617,83.0658397841926,74.8329504050057,84.52388151666928
1366.7,86.24024460853965,83.16757866843322,86.9739563971158,82.72066446009774,75.01646395590616,84.29802802441735
1413.57,86.15272027354445,83.90373694270869,86.1825869386555,81.92496720849442,73.82435581336277,83.9902857609164
1463.38,86.28027668202813,81.87868516284611,86.61321259931299,81.8904898287947,74.11626018362783,83.8653255018019
1516.11,85.80861357137933,81.8481501296694,86.82202913699228,81.87866914679758,72.69552802014047,83.75764656034751
1568.85,85.71497955502366,79.41336154759277,86.35563769391268,81.33035320805172,72.1243180569701,83.1990302566328
1624.51,85.72801168615139,79.23742843830034,85.42591020247364,80.45151110755579,71.60166472887646,82.7047543098822
1681.64,85.15536440638334,80.13322210010409,85.15602072477755,79.88201992542064,72.99308000329587,82.43482540679514
1741.7,83.74070394428925,77.24870391210881,85.5060178879583,80.1324779319849,73.75895286464888,81.885732577751
1803.22,83.815683740751,76.62654509015894,85.97602903212413,81.45692571181561,75.79671924801553,82.35783896649734
1866.21,84.68878975195437,73.87404462123651,86.26649816418795,80.91208001128963,75.54918780656598,82.5590779487127
1932.13,83.96840474281085,75.5699195264132,85.72804646362498,79.99568824447199,73.03377467688202,81.92777337639049
1999.51,81.52887000761183,74.17721775028427,85.66319217017153,79.78128858175963,71.88839760547144,81.12133004712994
2069.82,80.77977298691452,73.2626027495174,86.47987324483638,80.71628150785179,71.6618650251228,81.5719993454006
2143.07,81.38925228539118,72.4399911213746,86.61240412481713,80.84563854262322,71.57314471892703,81.7579780525933
2219.24,80.8449872552142,75.29032791906685,85.96200863957235,80.05297411380843,71.29684700755263,81.23612685616011
2296.88,79.23218644533553,76.63911301457168,86.26655561234942,80.41285863618693,71.32025945903426,81.314583883077
2378.91,79.2042968641916,76.77554501197245,87.14191158542059,81.08249695042385,71.77237573048595,81.99773889546564
2462.4,79.58084758210559,77.21524210802097,86.62835317254631,80.83353720429803,71.60363846827583,81.69775546719701
2548.83,79.14611464350557,78.28722322109955,86.39217619562264,80.92208065657981,71.53265490076261,81.60274324529126
2639.65,79.80916795956959,79.09241603958186,86.66705311726129,80.92401714386895,71.56320685262811,81.926143193713
2731.93,80.78793775338204,79.3166789227485,86.30984340186119,80.54285159446722,70.95130336581279,81.81068629853739
2828.61,80.55988575728038,79.05621955468953,86.08682990464749,80.85426163728769,70.82402185691016,81.66845316780757
2928.22,79.85221144948454,78.92307278472182,85.90938714513423,80.96821054960041,70.75905537706488,81.47035191224369
3030.76,79.72467410595405,79.23599985834409,85.20351039986728,80.21009176788534,70.25193260132771,80.96686533668377
3137.7,80.14256643002109,79.77245669860389,86.10965116827525,81.20630986984864,70.62214562914754,81.76135766916353
3249.02,80.7364485009112,80.82334398389555,86.64839139914298,81.81620054719616,71.17269362522435,82.38841605134098
3363.28,81.35070759477571,81.48568940021121,86.99541601851429,82.18156717655498,71.14865176449513,82.8158398229319
3481.93,82.15507318839995,82.15097243209983,87.71336671815406,83.36527050052771,72.02764905461545,83.6247834038845
3604.98,82.7548811167302,82.39180042377221,88.1979808681374,84.01176945338987,72.28476733427412,84.12026419920062
3732.42,82.85087835440592,82.5907528824953,88.09103751448838,83.93495022471606,71.90963011669477,84.08807757449516
3864.26,83.68632507643649,82.05812187448066,88.18920210073281,84.03989940808948,72.16484187799419,84.22698941118081
4000.49,84.32840789998188,81.70835848019034,88.33560321886601,83.52037603127349,71.2830519966225,84.27851399466131
4141.11,83.87564537917892,81.75948032424486,88.28704432721925,83.55889217786606,71.47818221476258,84.18003157435786
4287.6,84.00453472495109,81.43453966630888,88.13760002467318,83.52918717717282,71.21700974096395,84.08401479391652
4438.48,84.36198951372597,82.66180383726716,87.99190618497617,83.60299585999832,71.721759644253,84.25369138643082
4595.21,83.92182854846332,81.84468439152879,88.46545130017894,83.51275806347957,71.21068028335061,84.28041227791932
4756.35,83.18507810407293,81.8615134740269,86.6565648191355,82.90353449155225,70.88853735877684,83.14803161979539
4924.8,83.15526012196912,81.26882665853394,87.48200866941546,83.47834593566839,71.19170989266185,83.56657686303141
5097.66,83.57469766635896,82.29961403457928,87.18838279209517,83.5173214917264,71.38006114902554,83.65292562598124
5277.83,84.33105261195308,82.88834863125962,88.48296753149981,85.0950342773077,71.44858105006323,84.7940387719654
5463.87,84.6370049121099,83.05630342678953,88.45504837818571,84.66596955607457,71.28493351815156,84.7709727923537
5657.23,83.75372516556892,82.85241157138965,88.43156580589735,85.25475561864609,72.32564325307328,84.71143080375819
5856.45,84.408543650666,82.02730897617329,87.91792878410307,84.95277966325632,71.02670607923805,84.40932685541965
6062.99,86.09792878442093,82.2187768653067,87.94830907553664,84.64678552855824,71.51806818726992,84.78008321633433
6276.86,86.24069586069311,82.38286393935118,88.26377649802596,85.14273981912935,71.56312608143452,85.06635785057621
6498.05,85.04112234293126,81.93413880184379,87.99851079888647,85.02883713007891,71.16946975385821,84.58639652688163
6726.56,84.79216646218504,81.50082842127966,88.006026326326,84.96233813105997,71.23374546166863,84.47575939153452
6963.87,85.54327252744145,81.0769538552562,87.63841952744737,84.71772006859844,70.60282664146024,84.39294528731958
7209.96,85.54866326916714,80.87596346495089,87.16852281857682,84.09442076737628,70.25693314648477,84.04661276249078
7464.84,85.98960490150682,80.02812345230979,87.03323656317997,83.8942432348379,69.47908471802293,84.00316221307519
7727.05,85.76301295416015,78.77397479108936,86.78502341631862,83.55166630746096,68.29570243967241,83.66481843470416
7999.51,85.88437365865629,79.02511783898063,86.9246532683746,83.49117426778044,68.50675164688448,83.76801896600797
8282.23,87.1146965024029,78.8642113774524,87.5193858766123,83.58664862267536,68.42728742221401,84.4460373537397
8573.73,87.01729271608471,76.93274568479829,87.58290204018172,83.20167187959748,67.17195257095632,84.28114916072398
8876.95,86.29415880432508,76.62584231940983,88.09013029936962,83.59724769553172,67.76972292196335,84.31718046941336
9188.96,85.63843691952478,76.95758252363063,88.17606040668716,83.58096061647807,67.95405475601338,84.17414115547183
9514.16,85.18494542700394,77.42333519896198,87.77988387585974,82.86901407995644,66.65535479918479,83.74102182876196
9849.61,84.31609019050902,77.50986041316635,86.86283830210677,82.08178787503063,66.18230705354354,82.91268616296195
