Freq "Ceiling Bounce"
20.5078 44.09889541439209
21.9727 48.612207590784394
23.4375 50.609289604775554
24.9023 50.71407865972016
26.3672 53.28586450814943
27.832 55.929194365464625
29.2969 57.16873160594831
30.7617 58.89595531992559
32.2266 60.03460087677779
33.6914 61.620118088843256
35.1562 63.20612988987064
36.6211 64.65936418159795
38.0859 65.18549227213988
39.5508 67.02002068181585
41.0156 68.43944621834859
42.4805 69.6605446252291
43.9453 70.80896074808749
45.4102 71.79830090915436
46.875 72.70726254258832
48.3398 73.67131850969466
51.2695 75.45598832461893
52.7344 76.3971082059401
54.1992 77.10417221515564
55.6641 77.44939311147634
58.5938 78.73247153058232
60.0586 79.43320763187576
62.9883 80.67396107458923
64.4531 81.2220088557735
67.3828 82.14749472199951
68.8477 82.51690954989765
71.7773 83.28880108267727
74.707 84.10321800186644
77.6367 84.65689956015213
79.1016 84.86893391084159
82.0312 85.39345664081425
84.9609 85.83466870886825
87.8906 86.11450160568258
90.8203 86.40345444422542
95.2148 86.92425743887976
98.1445 87.11698445960465
101.074 87.13310164819924
105.469 87.35210831473239
108.398 87.51966831094764
112.793 87.6841120816834
117.188 87.6621847742622
120.117 87.70248806504053
124.512 87.83501588465226
128.906 87.82451249295455
133.301 87.86728483758576
139.16 87.43219652213162
143.555 87.36494795048993
147.949 87.43989767100122
153.809 87.28999654602246
159.668 87.2391059439608
165.527 87.41870460908068
171.387 87.12413764231925
177.246 86.85335407094446
183.105 86.74553441343186
188.965 86.51532288633022
196.289 86.71559354464831
203.613 86.60468883730805
210.938 86.31832889632197
218.262 86.35783403260159
225.586 86.07070274817677
232.91 85.96237714631727
241.699 85.72726763456363
250.488 85.43008212964061
259.277 85.84274851925373
268.066 85.40989083171475
276.855 85.22623121420742
287.109 85.20034894282225
297.363 84.28709671190016
307.617 84.95081727299343
319.336 85.26105016201933
329.59 85.27451845120099
341.309 85.18566054900896
353.027 84.96611605134974
366.211 85.18737464542652
379.395 85.69790318913013
392.578 85.29280587960665
405.762 85.09081484353638
420.41 85.1863662673153
435.059 85.2734752286925
451.172 84.89250372350077
465.82 85.01882774400082
483.398 84.68089880741935
499.512 84.50590135748466
517.09 84.53907512740349
536.133 83.44413956867612
555.176 82.93637854676102
574.219 82.77057629813261
594.727 83.05127844040052
615.234 82.55210436971333
637.207 83.19572654659676
659.18 83.67819133664801
682.617 83.41976001669182
707.52 83.05109275285223
732.422 83.69974461683904
757.324 84.68737909485895
785.156 83.88140398760115
811.523 84.52376297154494
840.82 83.90251983854739
870.117 82.02005220588224
900.879 82.4521926066224
933.105 82.34531908036539
965.332 85.20194033142276
1000.49 84.56839584286563
1035.64 84.75765887113876
1072.27 84.11078706003173
1108.89 84.486629595825
1148.44 83.5673460394914
1189.45 82.08501210309498
1230.47 82.21077770367236
1274.41 83.37586579065992
1319.82 83.2779826240757
1366.7 83.16757866843322
1413.57 83.90373694270869
1463.38 81.87868516284611
1516.11 81.8481501296694
1568.85 79.41336154759277
1624.51 79.23742843830034
1681.64 80.13322210010409
1741.7 77.24870391210881
1803.22 76.62654509015894
1866.21 73.87404462123651
1932.13 75.5699195264132
1999.51 74.17721775028427
2069.82 73.2626027495174
2143.07 72.4399911213746
2219.24 75.29032791906685
2296.88 76.63911301457168
2378.91 76.77554501197245
2462.4 77.21524210802097
2548.83 78.28722322109955
2639.65 79.09241603958186
2731.93 79.3166789227485
2828.61 79.05621955468953
2928.22 78.92307278472182
3030.76 79.23599985834409
3137.7 79.77245669860389
3249.02 80.82334398389555
3363.28 81.48568940021121
3481.93 82.15097243209983
3604.98 82.39180042377221
3732.42 82.5907528824953
3864.26 82.05812187448066
4000.49 81.70835848019034
4141.11 81.75948032424486
4287.6 81.43453966630888
4438.48 82.66180383726716
4595.21 81.84468439152879
4756.35 81.8615134740269
4924.8 81.26882665853394
5097.66 82.29961403457928
5277.83 82.88834863125962
5463.87 83.05630342678953
5657.23 82.85241157138965
5856.45 82.02730897617329
6062.99 82.2187768653067
6276.86 82.38286393935118
6498.05 81.93413880184379
6726.56 81.50082842127966
6963.87 81.0769538552562
7209.96 80.87596346495089
7464.84 80.02812345230979
7727.05 78.77397479108936
7999.51 79.02511783898063
8282.23 78.8642113774524
8573.73 76.93274568479829
8876.95 76.62584231940983
9188.96 76.95758252363063
9514.16 77.42333519896198
9849.61 77.50986041316635
10196.8 77.38697523624487
10555.7 75.96218827779153
10927.7 74.41267591003546
11313.0 74.47725986983336
11712.9 75.16458525270443
12126.0 74.86373736376109
12553.7 73.50988359670295
12996.1 72.50369066966208
13454.6 72.43854243101875
13929.2 72.49597319804784
14419.9 72.57882154276565
14928.2 72.5730284581437
15455.6 70.68122895819235
16000.5 67.71784469049952
16564.5 64.42332965187632
17148.9 62.72061291478154
17752.4 63.827319802854205
18379.4 65.66838615504098
19026.9 67.77567485864152
19697.8 67.9186687418084
19999.5 67.8107814097782
