Freq "Front Wall Bounce"
20.5078 45.17747761955117
21.9727 48.49031962007369
23.4375 52.0493893914837
24.9023 54.34496309939745
26.3672 55.94912747967702
27.832 58.099186098856094
29.2969 59.71893025048375
30.7617 61.65731742730186
32.2266 62.94824467688049
33.6914 64.48428172467652
35.1562 66.00467355817813
36.6211 67.39020032297263
38.0859 68.49496884755162
39.5508 69.49796943294083
41.0156 70.88379765281724
42.4805 71.78754058121764
43.9453 72.53955053588278
45.4102 73.19227138526135
46.875 73.85103054148263
48.3398 74.41684352973064
51.2695 75.37284907446492
52.7344 75.80875579740858
54.1992 76.20343594393513
55.6641 76.5861067177516
58.5938 77.20548996676885
60.0586 77.53020310879928
62.9883 78.24132981038117
64.4531 78.48583894223508
67.3828 78.91866409524779
68.8477 79.12693476779631
71.7773 79.67390981175906
74.707 80.17059415458215
77.6367 80.51970170144001
79.1016 80.68716852961553
82.0312 81.18212887179949
84.9609 81.33907143858202
87.8906 81.28809082071682
90.8203 81.80012756870988
95.2148 82.10589029210608
98.1445 82.10429486076167
101.074 82.40464554400661
105.469 82.35330591238525
108.398 82.59310200684236
112.793 82.72209490231718
117.188 82.72368567775261
120.117 82.60623190725613
124.512 82.61522079690663
128.906 82.8448824235538
133.301 82.84372856037042
139.16 82.51271817078172
143.555 82.51758625257109
147.949 82.53926242306221
153.809 82.4607242158795
159.668 82.34011554431945
165.527 82.33129084964602
171.387 82.08639155401266
177.246 81.98059688297245
183.105 81.94900623024485
188.965 81.9648196373374
196.289 81.94204989625909
203.613 81.83574323978344
210.938 81.71763970459712
218.262 81.58714339525774
225.586 81.66895558123493
232.91 81.54323998813952
241.699 81.32062269663855
250.488 81.35954039329762
259.277 81.32049262637359
268.066 81.29265606878513
276.855 81.22034251412332
287.109 81.18931597271231
297.363 81.22286617531664
307.617 81.23632204606872
319.336 81.09661499616483
329.59 80.87192050204979
341.309 80.90088173100172
353.027 81.14982548172198
366.211 81.06288805683414
379.395 81.23114374531276
392.578 80.79868099127262
405.762 81.03182527894079
420.41 81.31071639522101
435.059 80.3913228474343
451.172 81.0936063637207
465.82 80.79287442093018
483.398 80.81174464561109
499.512 81.54607065201502
517.09 81.31766632610451
536.133 81.95081991624751
555.176 82.39685120080168
574.219 82.19791186291944
594.727 82.05078315621772
615.234 82.56560316373859
637.207 82.651562053524
659.18 82.5301294265373
682.617 83.22030303176058
707.52 82.77565860916732
732.422 82.57487047361074
757.324 83.20618948760183
785.156 83.31229435347389
811.523 83.29436167731765
840.82 82.7343359921423
870.117 82.42089377443648
900.879 82.39905735896865
933.105 82.12708179962603
965.332 82.1000457738531
1000.49 81.57553530987126
1035.64 81.34892541226172
1072.27 81.51505370914369
1108.89 81.58481238018321
1148.44 82.0352961689026
1189.45 82.49018276094057
1230.47 82.32308942783256
1274.41 82.2135856519068
1319.82 81.5963455156083
1366.7 80.8667452956055
1413.57 80.91627691321789
1463.38 80.94680343562732
1516.11 81.36588752335882
1568.85 81.82783450306204
1624.51 81.4888258075237
1681.64 80.81760445170028
1741.7 79.82646339196107
1803.22 79.75240633912799
1866.21 79.82919421801499
1932.13 79.90161477520363
1999.51 79.4387880680707
2069.82 79.2317980867205
2143.07 80.62346056832936
2219.24 82.03722235561385
2296.88 81.85396944125044
2378.91 80.66465110853655
2462.4 80.51605734592914
2548.83 82.06356544603531
2639.65 82.25511966134401
2731.93 81.51203072517492
2828.61 81.21947857019325
2928.22 81.86720460645249
3030.76 82.2156185929902
3137.7 82.3911775246598
3249.02 82.438106076877
3363.28 82.14414785468234
3481.93 81.50594619479499
3604.98 81.9331277786593
3732.42 82.00645458933094
3864.26 80.5475461113573
4000.49 81.5091691946668
4141.11 81.28293812681046
4287.6 80.93937445230964
4438.48 81.26084193628766
4595.21 81.18265782139495
4756.35 81.45035097140666
4924.8 81.48943521033006
5097.66 81.60480687255655
5277.83 80.68985373162508
5463.87 80.86275975713467
5657.23 80.43610965360764
5856.45 80.52524973227196
6062.99 81.15512536056609
6276.86 81.27387174260599
6498.05 81.45543975922737
6726.56 82.04687892218553
6963.87 81.76056945368883
7209.96 82.37795953537461
7464.84 81.84433008102856
7727.05 82.53028178857501
7999.51 82.18806002145722
8282.23 82.46983585403446
8573.73 82.50517194938975
8876.95 82.40505681010835
9188.96 82.50330674772177
9514.16 82.17789080912108
9849.61 82.05174716027962
10196.8 81.68290264589153
10555.7 81.20193636473175
10927.7 80.86049638322491
11313.0 80.78961924509844
11712.9 80.83304054179332
12126.0 80.85089380138665
12553.7 81.02396665801855
12996.1 80.97589375561081
13454.6 80.72844021564053
13929.2 80.52658575627378
14419.9 80.28604858029016
14928.2 80.3038491159047
15455.6 80.83555354479353
16000.5 80.93642091117705
16564.5 80.41805803220615
17148.9 79.4799913720105
17752.4 78.32484220613252
18379.4 77.18351293316772
19026.9 76.44247247285755
19697.8 75.81451992960086
19999.5 75.4439426459168
