Freq "On Axis"
22.4 60.63164556962026
23.0 61.33164556962025
23.6 61.83164556962025
24.0 62.43164556962027
25.0 63.03164556962027
25.8 63.63164556962026
26.5 64.23164556962028
27.2 64.83164556962025
28.0 65.33164556962025
29.0 65.93164556962027
30.0 66.53164556962027
30.7 67.03164556962027
31.5 67.63164556962026
32.5 68.23164556962028
33.5 68.73164556962028
34.5 69.33164556962025
35.5 69.93164556962027
36.5 70.43164556962027
37.5 71.03164556962027
38.7 71.63164556962026
40.0 72.13164556962026
41.2 72.73164556962028
42.5 73.33164556962025
43.7 73.93164556962027
45.0 74.43164556962027
46.2 75.03164556962027
47.5 75.63164556962026
48.7 76.23164556962027
50.0 76.83164556962025
51.5 77.43164556962027
53.0 78.03164556962027
54.5 78.63164556962026
56.0 79.23164556962028
58.0 79.83164556962026
60.0 80.43164556962027
61.5 81.03164556962027
63.0 81.63164556962026
65.0 82.23164556962027
67.0 82.83164556962028
69.0 83.43164556962027
71.0 84.03164556962027
73.0 84.63164556962026
75.0 85.23164556962027
77.5 85.83164556962026
80.0 86.43164556962027
82.5 87.03164556962027
85.0 87.63164556962026
87.5 88.23164556962026
90.0 88.83164556962026
92.5 89.33164556962025
95.0 89.93164556962027
97.5 90.53164556962027
100.0 91.03164556962027
103.0 91.63164556962026
106.0 92.13164556962026
109.0 92.63164556962026
112.0 93.23164556962026
115.0 93.73164556962027
118.0 94.23164556962028
122.0 94.63164556962026
125.0 95.13164556962026
128.0 95.63164556962026
132.0 96.03164556962027
136.0 96.43164556962027
140.0 96.83164556962025
145.0 97.13164556962026
150.0 97.53164556962027
155.0 97.83164556962028
160.0 98.03164556962027
165.0 98.33164556962026
170.0 98.53164556962027
175.0 98.63164556962026
180.0 98.73164556962027
185.0 98.83164556962026
190.0 98.83164556962026
195.0 98.83164556962026
200.0 98.83164556962026
206.0 98.73164556962027
212.0 98.63164556962026
218.0 98.63164556962026
224.0 98.53164556962027
230.0 98.53164556962027
236.0 98.63164556962026
240.0 98.83164556962026
250.0 99.03164556962027
258.0 99.23164556962028
265.0 99.53164556962027
272.0 99.63164556962026
280.0 99.73164556962027
290.0 99.73164556962027
300.0 99.63164556962026
307.0 99.53164556962027
315.0 99.23164556962028
325.0 99.03164556962027
335.0 98.93164556962027
345.0 98.73164556962027
355.0 98.73164556962027
365.0 98.63164556962026
375.0 98.63164556962026
387.0 98.43164556962027
400.0 98.33164556962026
412.0 98.23164556962026
425.0 98.03164556962027
437.0 98.03164556962027
450.0 98.03164556962027
462.0 98.03164556962027
475.0 98.23164556962026
487.0 98.33164556962026
500.0 98.53164556962027
515.0 98.63164556962026
530.0 98.83164556962026
545.0 98.83164556962026
560.0 98.63164556962026
580.0 98.23164556962026
600.0 97.63164556962026
615.0 97.33164556962026
630.0 97.23164556962027
650.0 97.53164556962027
670.0 98.03164556962027
690.0 98.73164556962027
710.0 99.63164556962026
730.0 100.53164556962027
750.0 101.23164556962027
775.0 101.53164556962027
800.0 101.23164556962027
825.0 100.63164556962026
850.0 99.73164556962027
875.0 98.83164556962026
900.0 98.43164556962027
925.0 98.43164556962027
950.0 98.73164556962027
975.0 99.03164556962027
1000.0 98.73164556962027
1030.0 98.43164556962027
1060.0 98.93164556962027
1090.0 99.43164556962027
1120.0 99.63164556962026
1150.0 99.73164556962027
1180.0 99.93164556962027
1220.0 100.23164556962027
1250.0 100.13164556962026
1280.0 100.73164556962026
1320.0 101.03164556962027
1360.0 100.83164556962026
1400.0 100.23164556962027
1450.0 100.03164556962027
1500.0 100.43164556962027
1550.0 100.73164556962026
1600.0 100.23164556962027
1650.0 100.13164556962026
1700.0 99.63164556962026
1750.0 99.53164556962027
1800.0 99.63164556962026
1850.0 99.03164556962027
1900.0 99.23164556962028
1950.0 99.53164556962027
2000.0 99.03164556962027
2060.0 98.43164556962027
2120.0 98.43164556962027
2180.0 97.73164556962027
2240.0 96.43164556962027
2300.0 97.23164556962027
2360.0 98.03164556962027
2400.0 98.33164556962026
2500.0 98.73164556962027
2580.0 98.03164556962027
2650.0 98.93164556962027
2720.0 100.93164556962027
2800.0 99.73164556962027
2900.0 99.73164556962027
3000.0 99.73164556962027
3070.0 100.13164556962026
3150.0 98.53164556962027
3250.0 99.33164556962025
3350.0 99.53164556962027
3450.0 100.53164556962027
3550.0 99.93164556962027
3650.0 98.73164556962027
3750.0 97.73164556962027
3870.0 98.43164556962027
4000.0 99.23164556962028
4120.0 98.83164556962026
4250.0 99.33164556962025
4370.0 99.53164556962027
4500.0 100.13164556962026
4620.0 100.23164556962027
4750.0 100.23164556962027
4870.0 100.53164556962027
5000.0 100.63164556962026
5150.0 100.43164556962027
5300.0 98.83164556962026
5450.0 98.53164556962027
5600.0 99.63164556962026
5800.0 99.63164556962026
6000.0 100.93164556962027
6150.0 102.13164556962026
6300.0 101.93164556962027
6500.0 102.23164556962027
6700.0 101.73164556962028
6900.0 100.43164556962027
7100.0 100.23164556962027
7300.0 99.53164556962027
7500.0 98.93164556962027
7750.0 98.83164556962026
8000.0 98.23164556962026
8250.0 99.83164556962026
8500.0 101.13164556962026
8750.0 101.63164556962026
9000.0 100.33164556962028
9250.0 98.23164556962026
9500.0 95.93164556962027
9750.0 97.43164556962027
10000.0 97.53164556962027
10300.0 98.73164556962027
10600.0 98.63164556962026
10900.0 97.13164556962026
11200.0 96.03164556962027
11500.0 97.13164556962026
11800.0 99.03164556962027
12200.0 100.93164556962027
12500.0 100.63164556962026
12800.0 98.33164556962026
13200.0 98.63164556962026
13600.0 99.13164556962026
14000.0 99.43164556962027
14500.0 99.93164556962027
15000.0 99.43164556962027
15500.0 98.23164556962026
16000.0 105.63164556962026
16500.0 100.03164556962027
17000.0 99.63164556962026
17500.0 95.93164556962027
18000.0 96.73164556962028
18500.0 99.33164556962025
19000.0 96.53164556962027
19500.0 95.43164556962027
