Freq "Ceiling Bounce"
22.4 61.93316616893054
23.0 63.964483857937694
23.6 63.43316616893054
24.0 61.93316616893054
25.0 61.833166168930546
25.8 62.36749342102587
26.5 62.467493421025864
27.2 62.56749342102583
28.0 64.43691240142567
29.0 65.66749342102585
30.0 65.16749342102582
30.7 64.73691240142568
31.5 65.03691240142567
32.5 68.00234161157022
33.5 70.4023416115702
34.5 72.47200585061435
35.5 74.97200585061435
36.5 77.23771438798912
37.5 79.30762555917153
38.7 81.60762555917154
40.0 84.10762555917154
41.2 85.90762555917152
42.5 87.37801885339155
43.7 88.94377502353291
45.0 90.44377502353291
46.2 91.91441456437832
47.5 93.3144145643783
48.7 94.21441456437832
50.0 95.1144145643783
51.5 95.91441456437832
53.0 96.95134495192565
54.5 98.05134495192564
56.0 99.180457633288
58.0 100.15134495192562
60.0 101.15134495192564
61.5 102.05134495192564
63.0 102.92270516009755
65.0 103.58881324363767
67.0 104.22270516009753
69.0 104.88881324363766
71.0 105.68881324363765
73.0 106.48881324363765
75.0 107.48881324363768
77.5 108.12270516009754
80.0 108.86042028173142
82.5 109.56042028173142
85.0 110.18881324363765
87.5 110.66042028173142
90.0 110.92682255257508
92.5 110.86042028173142
95.0 110.56042028173142
97.5 110.12682255257509
100.0 109.62682255257509
103.0 109.2986778041088
106.0 109.19867780410881
109.0 109.2986778041088
112.0 109.59867780410882
115.0 109.79867780410882
118.0 109.89867780410881
122.0 109.83748066808204
125.0 109.69867780410883
128.0 109.53748066808203
132.0 109.33748066808204
136.0 109.13748066808203
140.0 108.93748066808205
145.0 108.79867780410882
150.0 108.63748066808205
155.0 108.43748066808203
160.0 108.33748066808204
165.0 108.41004622916637
170.0 108.71004622916641
175.0 108.93748066808205
180.0 108.87683169277426
185.0 108.67683169277426
190.0 108.37683169277426
195.0 108.07683169277425
200.0 107.67683169277426
206.0 106.97683169277425
212.0 106.0496454881548
218.0 105.44964548815479
224.0 106.14964548815479
230.0 107.14964548815479
236.0 107.7897967769035
240.0 107.8897967769035
250.0 107.7897967769035
258.0 107.68979677690348
265.0 107.62291268162413
272.0 107.68979677690348
280.0 107.86331073261266
290.0 108.03727058552603
300.0 108.13727058552604
307.0 108.10426439858736
315.0 107.93727058552604
325.0 107.77846938136949
335.0 107.67846938136948
345.0 107.62022708936384
355.0 107.59511368986195
365.0 107.69511368986194
375.0 107.97043083789598
387.0 108.27043083789599
400.0 108.24617354311556
412.0 107.88921647749348
425.0 107.5328247880339
437.0 107.20946018660005
450.0 107.05387262483276
462.0 107.08650534144454
475.0 106.90883300677264
487.0 106.40883300677264
500.0 106.05428107869092
515.0 106.21128271156137
530.0 106.65775767511727
545.0 106.93705950846987
560.0 106.53705950846988
580.0 105.61673673665234
600.0 104.81673673665236
615.0 104.23705950846987
630.0 103.93705950846987
650.0 103.79036132192104
670.0 103.95775767511728
690.0 104.31128271156135
710.0 104.73258759677131
730.0 104.87883633627803
750.0 104.73258759677131
775.0 104.8003005933423
800.0 104.93258759677131
825.0 104.8003005933423
850.0 104.13258759677132
875.0 103.27883633627803
900.0 103.33705950846988
925.0 103.71673673665235
950.0 103.54449400457047
975.0 102.90610555830685
1000.0 102.80610555830685
1030.0 102.58744195738518
1060.0 100.91040875626118
1090.0 98.3092843171805
1120.0 95.599677884366
1150.0 93.40567890721154
1180.0 92.63163130570047
1220.0 92.88388933491115
1250.0 93.64808909775505
1280.0 94.93966242322475
1320.0 96.6374326030175
1360.0 98.40420647207964
1400.0 100.04226860595398
1450.0 102.16053425664376
1500.0 104.23016804716359
1550.0 104.80502706116387
1600.0 104.5324972233818
1650.0 103.55558114158212
1700.0 101.52569246651628
1750.0 99.19488844164721
1800.0 96.90793348737229
1850.0 96.90642642341685
1900.0 98.49453362916606
1950.0 99.1607529911871
2000.0 99.09595495905702
2060.0 99.30836162195837
2120.0 99.39655340085719
2180.0 98.83394140974971
2240.0 97.825491495293
2300.0 96.62959411251356
2360.0 95.69922900203584
2400.0 96.20991629900193
2500.0 96.84486463362411
2580.0 96.93580377145342
2650.0 97.02520079389407
2720.0 97.8505387031446
2800.0 98.9830709102288
2900.0 99.16006844917814
3000.0 99.0791656970741
3070.0 99.37700359443954
3150.0 100.0003011660523
3250.0 99.63963094533867
3350.0 98.32112795577498
3450.0 97.19336718599278
3550.0 96.85667745458743
3650.0 97.68261978523391
3750.0 98.35049544524551
3870.0 98.73304004753928
4000.0 98.02284869367121
4120.0 97.44709719631228
4250.0 96.75291050895395
4370.0 96.72542843894871
4500.0 97.96825878858726
4620.0 98.43897304785867
4750.0 97.76033815462696
4870.0 96.93240901401947
5000.0 95.89388924702219
5150.0 94.42081816045723
5300.0 95.32459777742608
5450.0 97.33930708169132
5600.0 97.85115464431114
5800.0 97.23900891885842
6000.0 96.485051805887
6150.0 95.96430081908494
6300.0 95.01070633026345
6500.0 95.22652558673917
6700.0 96.25658600820607
6900.0 95.98897008912587
7100.0 94.06611741018747
7300.0 92.869251232945
7500.0 90.68848807870077
7750.0 90.1241007348841
8000.0 93.09917117186873
8250.0 93.93235481346855
8500.0 94.79468416224174
8750.0 94.59181446578867
9000.0 94.05214399898895
9250.0 97.11221035648192
9500.0 98.48908196356341
9750.0 96.84221364310791
10000.0 94.81858195913048
10300.0 95.99814148595993
10600.0 96.22691419107885
10900.0 97.49917117186874
11200.0 96.18082439291383
11500.0 96.9036195427975
11800.0 94.61455943344923
12200.0 87.35449353568241
12500.0 91.46693748829051
12800.0 94.61947043260754
13200.0 98.72364498905708
13600.0 96.17116400825495
14000.0 93.31792039112645
14500.0 98.33995454823884
15000.0 99.4045468900155
15500.0 92.2945802088773
16000.0 93.83201598063059
16500.0 96.3045468900155
17000.0 96.68857461655642
17500.0 88.69318998858105
18000.0 90.71843950914328
18500.0 84.91072069096185
19000.0 71.24372267182707
19500.0 61.17324282876987
