Freq "Floor Bounce"
22.4 60.771508007869386
23.0 62.87150800786938
23.6 62.37150800786938
24.0 60.87150800786938
25.0 60.8069050103546
25.8 61.40690501035459
26.5 61.540441679454915
27.2 61.7069050103546
28.0 63.5715080078694
29.0 64.87150800786938
30.0 64.40690501035459
30.7 64.00690501035459
31.5 64.37150800786935
32.5 67.34044167945493
33.5 69.8069050103546
34.5 71.90690501035459
35.5 74.50690501035459
36.5 76.7404416794549
37.5 78.90690501035459
38.7 81.17150800786939
40.0 83.70690501035457
41.2 85.57609175449221
42.5 87.0404416794549
43.7 88.64044167945491
45.0 90.20690501035459
46.2 91.6760917544922
47.5 93.10690501035458
48.7 94.0404416794549
50.0 94.94044167945492
51.5 95.74044167945492
53.0 96.84044167945491
54.5 97.97609175449222
56.0 99.10690501035458
58.0 100.14044167945491
60.0 101.10690501035458
61.5 102.07609175449221
63.0 102.9069050103546
65.0 103.57609175449221
67.0 104.27609175449223
69.0 104.90690501035459
71.0 105.6760917544922
73.0 106.57609175449221
75.0 107.57609175449223
77.5 108.1760917544922
80.0 108.87609175449221
82.5 109.61227178315617
85.0 110.27609175449221
87.5 110.77609175449223
90.0 110.9760917544922
92.5 110.87609175449221
95.0 110.57609175449221
97.5 110.1760917544922
100.0 109.6760917544922
103.0 109.31227178315618
106.0 109.1760917544922
109.0 109.31227178315618
112.0 109.5457671943847
115.0 109.74576719438468
118.0 109.84576719438469
122.0 109.78219967332305
125.0 109.61227178315617
128.0 109.4457671943847
132.0 109.28219967332303
136.0 109.08219967332305
140.0 108.88219967332304
145.0 108.58219967332303
150.0 108.38219967332304
155.0 108.21916705502753
160.0 108.11916705502753
165.0 108.11916705502753
170.0 108.41916705502754
175.0 108.61916705502753
180.0 108.51916705502754
185.0 108.28982856673471
190.0 107.92758719283592
195.0 107.58982856673472
200.0 107.12758719283592
206.0 106.39897445130926
212.0 105.39897445130926
218.0 104.77082970284299
224.0 105.43752777300028
230.0 106.37082970284297
236.0 106.9096325668162
240.0 106.9096325668162
250.0 106.70963256681621
258.0 106.54898359150842
265.0 106.42179738688895
272.0 106.36194867563766
280.0 106.39506458035831
290.0 106.53546263134683
300.0 106.47641629732153
307.0 106.30942248426018
315.0 106.05062128010364
325.0 105.792378988098
335.0 105.56726558859611
345.0 105.36726558859611
355.0 105.20982855556757
365.0 105.30982855556756
375.0 105.50982855556757
387.0 105.70982855556755
400.0 105.70982855556755
412.0 105.434697733609
425.0 105.13469773360899
437.0 104.9179278976485
450.0 104.87641629732153
462.0 105.1026545034034
475.0 105.12934077441656
487.0 104.84898359150841
500.0 104.74898359150842
515.0 105.1096325668162
530.0 105.84314826109434
545.0 106.38219812790055
560.0 106.18219812790053
580.0 105.4891563012964
600.0 104.82869245367795
615.0 104.4429397936019
630.0 104.1925701141361
650.0 104.28573781157955
670.0 104.54805664755615
690.0 105.04743899086733
710.0 105.59562483724392
730.0 105.90199903162157
750.0 105.95959385611934
775.0 106.04010271092207
800.0 106.1730120924441
825.0 105.82406634433558
850.0 104.74465953615896
875.0 103.26174268592247
900.0 102.619032343648
925.0 102.33702458145022
950.0 101.69764339402715
975.0 100.96948999020775
1000.0 101.28051060270074
1030.0 101.98692145185186
1060.0 101.61147494842764
1090.0 100.69317164073087
1120.0 99.57449351030438
1150.0 98.54898514879551
1180.0 98.16878033996791
1220.0 98.29448868932289
1250.0 98.99825001362086
1280.0 100.6491520399883
1320.0 102.71103101826638
1360.0 104.48123104290336
1400.0 105.62120731231064
1450.0 107.0555143206225
1500.0 108.57375009009282
1550.0 108.90494453490304
1600.0 108.48558719372434
1650.0 107.56298842361863
1700.0 105.88425751672264
1750.0 103.97796950088774
1800.0 101.86607278724873
1850.0 100.56937334571009
1900.0 100.0649717432842
1950.0 99.12585044351925
2000.0 98.19643568420723
2060.0 98.21338876788955
2120.0 98.71442050468814
2180.0 98.93115197647015
2240.0 98.94482181533937
2300.0 98.47232386390218
2360.0 98.04250935640104
2400.0 98.64282821923415
2500.0 98.96355877122028
2580.0 98.76727756537363
2650.0 98.81249723711505
2720.0 99.2561283432411
2800.0 99.88847114922399
2900.0 99.75612834324109
3000.0 99.49770208558459
3070.0 100.11112494659284
3150.0 100.98135366160675
3250.0 100.75242311342379
3350.0 99.98859177923461
3450.0 99.6497239234053
3550.0 99.152976291648
3650.0 98.90137892277062
3750.0 99.09466814462868
3870.0 99.26649538425085
4000.0 99.22515007718616
4120.0 99.45269579506135
4250.0 99.36691728331715
4370.0 99.78779399843015
4500.0 100.68362512126278
4620.0 100.68272777407493
4750.0 100.15592043373775
4870.0 99.81172975410158
5000.0 99.20489348120857
5150.0 98.46753494617818
5300.0 98.8921408605958
5450.0 100.09389642518191
5600.0 100.50935602590691
5800.0 100.06597401860918
6000.0 99.7488243380649
6150.0 99.33945596450599
6300.0 98.56567940610034
6500.0 98.93010557114832
6700.0 100.660673014251
6900.0 100.7847208304748
7100.0 99.74318501652951
7300.0 99.07572801847606
7500.0 98.26139707725524
7750.0 98.6661933542953
8000.0 100.0721853534241
8250.0 100.21299747465916
8500.0 99.99007228986062
8750.0 99.01456592084493
9000.0 99.42150075355423
9250.0 103.05673906955853
9500.0 104.5231458270068
9750.0 102.36578190025462
10000.0 99.5303096473035
10300.0 99.99711271825046
10600.0 100.21835077280488
10900.0 100.16781424026559
11200.0 100.55569811644715
11500.0 102.79904601920818
11800.0 102.52662087082847
12200.0 100.05175093908689
12500.0 99.56406466522844
12800.0 101.11082710882498
13200.0 103.3624342274813
13600.0 102.70500848467627
14000.0 100.30124762037465
14500.0 99.53094117138461
15000.0 100.8721853534241
15500.0 101.46199511925614
16000.0 98.6790089649203
16500.0 101.12516193829286
17000.0 101.60561737721414
17500.0 96.51425152419714
18000.0 93.31660197791344
18500.0 87.56698477766233
19000.0 73.6235437362302
19500.0 67.76760254908547
