Freq "Rear Wall Bounce"
22.4 60.872696144166156
23.0 62.88298309668619
23.6 62.30445366959478
24.0 60.762384767506205
25.0 60.605701020314825
25.8 61.136735098146346
26.5 61.17468896038474
27.2 61.22657482921301
28.0 63.04934777884969
29.0 64.23921700872316
30.0 63.682074533521785
30.7 63.21378620849799
31.5 63.45111720028865
32.5 66.36245143609571
33.5 68.71580230304173
34.5 70.73943956425057
35.5 73.22951702386877
36.5 75.38912607294691
37.5 77.45285252516891
38.7 79.6528525251689
40.0 82.07428893689854
41.2 83.86728536185859
42.5 85.2672853618586
43.7 86.75248837933631
45.0 88.21276551204562
46.2 89.62319523223688
47.5 90.97874597227036
48.7 91.83367476375697
50.0 92.63367476375697
51.5 93.38465468950463
53.0 94.38465468950461
54.5 95.47421851563335
56.0 96.51068761080501
58.0 97.46481871044678
60.0 98.35539851632416
61.5 99.24595784462267
63.0 100.05520149522106
65.0 100.68169904108598
67.0 101.26761601074054
69.0 101.88182615532773
71.0 102.61033218063658
73.0 103.40567374084975
75.0 104.34325325845869
77.5 104.9340018477511
80.0 105.62473068746169
82.5 106.30167821879024
85.0 106.88297212701912
87.5 107.35216478252994
90.0 107.53830877227753
92.5 107.43830877227754
95.0 107.11067043695624
97.5 106.63830877227753
100.0 106.11067043695624
103.0 105.71067043695624
106.0 105.57838908687641
109.0 105.6913186916447
112.0 105.89599254648867
115.0 106.09599254648867
118.0 106.18195586490103
122.0 106.09599254648867
125.0 105.92948779943228
128.0 105.72948779943229
132.0 105.52948779943229
136.0 105.28386240088771
140.0 105.07091054538273
145.0 104.83444434183991
150.0 104.61333715019767
155.0 104.43654609204171
160.0 104.29955599897156
165.0 104.29955599897156
170.0 104.5606017620448
175.0 104.7656452202907
180.0 104.66280457542632
185.0 104.38508059522036
190.0 104.03846441691981
195.0 103.67272404704957
200.0 103.19817617236357
206.0 102.48882813370456
212.0 101.4713259274444
218.0 100.79561413615292
224.0 101.47321173585458
230.0 102.35583661249356
236.0 102.90751351621587
240.0 102.9156580597079
250.0 102.67035502642042
258.0 102.44166802410632
265.0 102.28657714203584
272.0 102.21936855496995
280.0 102.193157050043
290.0 102.23263485190989
300.0 102.1564573242876
307.0 101.93397226571022
315.0 101.58617410513463
325.0 101.22061865156348
335.0 100.91389342740477
345.0 100.64880354782485
355.0 100.40568970288503
365.0 100.34826021495014
375.0 100.45819164421764
387.0 100.56817592420768
400.0 100.3670495754428
412.0 99.90130466187783
425.0 99.35956151349835
437.0 98.86197020030906
450.0 98.54069047309768
462.0 98.35675251841478
475.0 98.00506450637903
487.0 97.2983834240738
500.0 96.69355845578394
515.0 96.55300782924321
530.0 96.72499192973474
545.0 96.676764876557
560.0 95.94421919248518
580.0 94.67872008732002
600.0 93.5459428537009
615.0 92.68322710766631
630.0 92.08606913791644
650.0 91.86013548675658
670.0 91.97410538803486
690.0 92.31277033179714
710.0 92.9254328448331
730.0 93.27095152461482
750.0 93.4986413598566
775.0 93.86984015471957
800.0 94.42962723776904
825.0 94.6167846704108
850.0 94.01624955949083
875.0 93.06697402732127
900.0 92.78892174670887
925.0 92.5759092672157
950.0 91.43182037603376
975.0 89.478634821865
1000.0 87.62278140900926
1030.0 85.32507865159779
1060.0 82.01119663028592
1090.0 80.43050737973223
1120.0 80.82579822036215
1150.0 81.3339944907838
1180.0 81.875722002098
1220.0 82.36820019088606
1250.0 82.61113781022036
1280.0 82.67245778333788
1320.0 82.25419435815857
1360.0 81.73578295499121
1400.0 83.26595659322845
1450.0 86.424933750641
1500.0 89.38580290365138
1550.0 90.38141101783812
1600.0 90.42926364383783
1650.0 90.18347008960924
1700.0 89.45711087683965
1750.0 88.61910251044162
1800.0 87.22791590811845
1850.0 86.08151284791407
1900.0 85.0884009676569
1950.0 83.36321252729459
2000.0 81.82980470286935
2060.0 81.8358315512358
2120.0 82.78844428979068
2180.0 83.51352856130819
2240.0 83.64632500539798
2300.0 82.92680366385287
2360.0 81.91694940835495
2400.0 81.89729553666649
2500.0 81.83591438096187
2580.0 81.68759476812511
2650.0 82.0347025823653
2720.0 82.82718499174419
2800.0 83.42894058121496
2900.0 82.79678523637489
3000.0 82.06011819017527
3070.0 82.41798626253666
3150.0 83.73822227734146
3250.0 84.7391649647891
3350.0 85.14249591146086
3450.0 85.41091796315351
3550.0 84.60116533629696
3650.0 82.83638509085526
3750.0 80.54213934930291
3870.0 78.45407430666802
4000.0 77.18292182052039
4120.0 76.73484210399951
4250.0 76.38390375639318
4370.0 77.17059535391058
4500.0 79.46532559541492
4620.0 80.92833414583424
4750.0 80.98598534018595
4870.0 80.14338869568502
5000.0 78.53130721125652
5150.0 77.487960068484
5300.0 78.20162313971412
5450.0 78.4306482697504
5600.0 77.7734026108173
5800.0 77.7217708313238
6000.0 79.39025496890264
6150.0 79.10554155650965
6300.0 76.13964218559386
6500.0 74.95246956272948
6700.0 76.01833085713176
6900.0 74.9017732171163
7100.0 72.45726540380306
7300.0 73.70745068019485
7500.0 74.49973890809358
7750.0 75.49331628330623
8000.0 77.65444454399108
8250.0 78.53791386007526
8500.0 76.54293945566047
8750.0 75.42274222468606
9000.0 73.2974512248174
9250.0 73.84671596175798
9500.0 76.5712639805181
9750.0 73.61644132666083
10000.0 73.91594986908126
10300.0 76.00654279757617
10600.0 77.33005659868246
10900.0 75.81657959590672
11200.0 73.98726991648883
11500.0 74.27949084286755
11800.0 72.34661510883203
12200.0 71.1501202189383
12500.0 71.35242357094748
12800.0 73.4363036663193
13200.0 74.2776956929983
13600.0 74.21645693231372
14000.0 74.11759071165466
14500.0 69.0881151478805
15000.0 62.766173395686366
15500.0 66.76188696977715
16000.0 66.6719174489289
16500.0 60.96790516468633
17000.0 58.98872518416226
17500.0 56.57187784259273
18000.0 50.80097919667281
18500.0 54.61598235044846
19000.0 49.790916501727054
19500.0 42.784257892549164
