Freq "Side Wall Bounce"
22.4 60.41235201541551
23.0 62.47579929307972
23.6 61.95587166262217
24.0 60.45587166262217
25.0 60.31968492018777
25.8 60.91968492018776
26.5 61.019684920187785
27.2 61.11968492018778
28.0 62.98402817477677
29.0 64.22513717399445
30.0 63.725137173994455
30.7 63.32513717399445
31.5 63.6067529730592
32.5 66.58991825853369
33.5 68.98991825853369
34.5 71.07005545598147
35.5 73.61313953999232
36.5 75.83520038414505
37.5 77.93520038414505
38.7 80.21885720828848
40.0 82.70086629941471
41.2 84.54246053230244
42.5 86.04246053230241
43.7 87.56244965331123
45.0 89.10855764119327
46.2 90.56648157916895
47.5 91.94868728184522
48.7 92.89285514438188
50.0 93.73276641677856
51.5 94.55523826903813
53.0 95.61715136362974
54.5 96.73970394903378
56.0 97.8397039490338
58.0 98.83970394903379
60.0 99.78418758905332
61.5 100.73970394903378
63.0 101.58418758905331
65.0 102.26429849938319
67.0 102.8841875890533
69.0 103.53169198455029
71.0 104.3316919845503
73.0 105.1316919845503
75.0 106.1316919845503
77.5 106.75690409354567
80.0 107.51677723671054
82.5 108.21677723671053
85.0 108.81677723671054
87.5 109.31677723671052
90.0 109.54207582704606
92.5 109.44207582704607
95.0 109.14207582704609
97.5 108.72498802844181
100.0 108.24207582704608
103.0 107.84207582704609
106.0 107.72498802844181
109.0 107.86781203523978
112.0 108.11039079867913
115.0 108.31039079867912
118.0 108.41039079867912
122.0 108.35929007237314
125.0 108.21039079867913
128.0 108.03631489701507
132.0 107.83631489701509
136.0 107.63631489701508
140.0 107.43631489701508
145.0 107.2220877026214
150.0 107.02208770262138
155.0 106.84513806681016
160.0 106.74513806681017
165.0 106.77145342892548
170.0 107.04513806681015
175.0 107.27145342892548
180.0 107.17145342892549
185.0 106.94102466843934
190.0 106.64102466843933
195.0 106.30776207081247
200.0 105.84102466843933
206.0 105.12745355433876
212.0 104.1779004889834
218.0 103.55448951060214
224.0 104.26475106144105
230.0 105.20524571781294
236.0 105.79217894944387
240.0 105.83558189513117
250.0 105.6631940348164
258.0 105.56319403481638
265.0 105.45059463074871
272.0 105.50257237791914
280.0 105.60257237791913
290.0 105.72228735290045
300.0 105.79037146704556
307.0 105.67460295806009
315.0 105.51014178037858
325.0 105.29037146704557
335.0 105.15062691308233
345.0 105.01891937355252
355.0 104.93104045744886
365.0 105.00325436387838
375.0 105.21541918620564
387.0 105.3961234167148
400.0 105.30159847200412
412.0 104.87398241281596
425.0 104.4088654444774
437.0 103.98192521744247
450.0 103.69792789481032
462.0 103.64174476695632
475.0 103.34804442835758
487.0 102.76947511591175
500.0 102.27859861059243
515.0 102.30400491204796
530.0 102.6411911372858
545.0 102.79281461026113
560.0 102.22454670403741
580.0 101.13271914257797
600.0 100.18763573743772
615.0 99.51759942129308
630.0 99.12002575850676
650.0 99.1016075633492
670.0 99.37754302751759
690.0 99.88475285288898
710.0 100.5481352523488
730.0 100.99211824687202
750.0 101.17409457564736
775.0 101.52624436330773
800.0 101.9621372772134
825.0 101.98996422077569
850.0 101.35203812894821
875.0 100.4067987574819
900.0 100.20459830994801
925.0 100.28121959994411
950.0 99.72922144021203
975.0 98.62587679552908
1000.0 98.16027491853076
1030.0 97.68373450522111
1060.0 96.09060066836747
1090.0 94.18367720915253
1120.0 92.63419851928035
1150.0 91.65116490732643
1180.0 91.63816256287387
1220.0 92.26634492035438
1250.0 93.17444232727746
1280.0 94.22892548055819
1320.0 94.98256193982553
1360.0 94.77106841907627
1400.0 93.94405947205134
1450.0 94.79783673929678
1500.0 97.10929671575389
1550.0 97.99887092837346
1600.0 97.88474048692
1650.0 97.39886519872518
1700.0 96.4123064428286
1750.0 95.60360143675453
1800.0 94.87263675301627
1850.0 94.97484756182772
1900.0 95.51592777231937
1950.0 95.28704534488305
2000.0 94.91046602301566
2060.0 95.43000978018995
2120.0 96.49568177679402
2180.0 97.01991804387819
2240.0 97.10599485020443
2300.0 96.4908070988283
2360.0 95.82337225171702
2400.0 96.23900346061966
2500.0 96.38885355213532
2580.0 96.12628513469147
2650.0 96.1602197615895
2720.0 96.51372202794153
2800.0 96.68613648951165
2900.0 95.94654194513339
3000.0 95.46496096109098
3070.0 96.34424207370637
3150.0 97.356332474118
3250.0 97.12504561421339
3350.0 96.30041476248698
3450.0 95.8895250944887
3550.0 95.22992829813961
3650.0 94.2666169051848
3750.0 93.92157881239099
3870.0 94.435054627879
4000.0 94.85653666052772
4120.0 95.64612446477449
4250.0 96.15334102723209
4370.0 96.7279701984131
4500.0 97.556334058809
4620.0 97.26153828468671
4750.0 96.66706808281049
4870.0 96.01636413709977
5000.0 94.82764519972807
5150.0 93.65451405672098
5300.0 94.2342949353166
5450.0 95.77993151319716
5600.0 96.42838295538941
5800.0 95.56059080681852
6000.0 94.75785402682085
6150.0 94.12159463891705
6300.0 93.48632260636694
6500.0 94.21934892646826
6700.0 96.60762263335693
6900.0 96.80028085586171
7100.0 95.6309653854142
7300.0 94.87571101394799
7500.0 93.88980644175423
7750.0 94.17247253846881
8000.0 95.90230858010503
8250.0 96.78823053682507
8500.0 96.86034126273482
8750.0 94.02442457532374
9000.0 93.16668082098337
9250.0 96.68477151564136
9500.0 98.67669530628149
9750.0 97.33757159654854
10000.0 95.72716065950016
10300.0 97.24918674181242
10600.0 97.87314479116188
10900.0 96.9386738853068
11200.0 95.5358748115275
11500.0 96.14605297899571
11800.0 96.42636777384655
12200.0 95.72123562205971
12500.0 95.73349388363324
12800.0 96.27675400886154
13200.0 97.22669456993913
13600.0 97.78401100460873
14000.0 97.36377069384606
14500.0 94.30420301329681
15000.0 87.75876821046003
15500.0 92.77243397335124
16000.0 91.44063686948695
16500.0 86.21626785303818
17000.0 82.38739619215033
17500.0 81.5878036554183
18000.0 75.7931758189053
18500.0 79.00541364914207
19000.0 74.63264902715264
19500.0 67.76871771047442
