Freq "Front Wall Bounce"
22.4 26.348199265221496
23.0 27.562488438607346
23.6 28.25588310769271
24.0 31.076263369285044
25.0 33.582089793507606
25.8 35.65303989334819
26.5 37.60619353332393
27.2 39.56581532262791
28.0 41.3565284344503
29.0 43.01559918524231
30.0 44.93680929949181
30.7 46.80403310775367
31.5 48.256887414762474
32.5 49.36107019010487
33.5 52.322585016913166
34.5 54.83769562998501
35.5 56.96213622754833
36.5 59.18057550478116
37.5 61.160230428274815
38.7 62.91079384531156
40.0 64.42869851678185
41.2 65.84255092485907
42.5 67.54742006190888
43.7 69.31411482495534
45.0 70.57044413171846
46.2 70.89644329922452
47.5 71.36698442282889
48.7 71.99964331492801
50.0 73.00420713109189
51.5 73.87378119950162
53.0 75.17278141819128
54.5 76.26241165202617
56.0 77.14663081343136
58.0 78.001996020755
60.0 78.8175773154058
61.5 79.6597635614045
63.0 80.48651197148189
65.0 81.21434553530592
67.0 81.77207972694936
69.0 82.20199602075499
71.0 82.601996020755
73.0 82.85669309477392
75.0 82.98346036451304
77.5 83.0390036276964
80.0 83.09511470580009
82.5 83.1241981596799
85.0 83.15179200319832
87.5 83.1798482560973
90.0 83.22289336577899
92.5 83.25179200319832
95.0 83.33736672145375
97.5 83.40837161467839
100.0 83.49413335211763
103.0 83.39413335211762
106.0 83.2514641760516
109.0 83.02256334986185
112.0 82.80935729189108
115.0 82.55146417605158
118.0 82.29413335211763
122.0 82.06551601750476
125.0 81.86551601750477
128.0 81.60837161467839
132.0 81.43736672145374
136.0 81.19577889687889
140.0 81.0241981596799
145.0 80.86846399937855
150.0 80.7390036276964
155.0 80.61196008718404
160.0 80.51196008718405
165.0 80.38346036451303
170.0 80.2867152009302
175.0 80.15669309477391
180.0 79.95669309477393
185.0 79.73037476172729
190.0 79.37595161797941
195.0 79.00653511914989
200.0 78.77595161797939
206.0 78.86611562767575
212.0 79.2503482668283
218.0 79.60450049620428
224.0 79.80450049620428
230.0 79.85034826682828
236.0 79.79162646461236
240.0 79.6200728241599
250.0 79.30199602075498
258.0 79.1416038544957
265.0 78.99706197899143
272.0 78.8096807781365
280.0 78.58049961495678
290.0 78.4661695293154
300.0 78.29413335211763
307.0 78.19413335211763
315.0 78.08049961495678
325.0 78.09706197899145
335.0 78.31519364222964
345.0 78.54585475381775
355.0 78.76611562767576
365.0 78.84103987038615
375.0 78.84103987038615
387.0 78.58792368387297
400.0 78.11126672020515
412.0 77.58757099464134
425.0 77.28757099464134
437.0 77.58757099464134
450.0 78.26354341388908
462.0 78.8718693407177
475.0 79.12518104003465
487.0 78.97186934071769
500.0 78.57186934071768
515.0 78.0967682293386
530.0 77.9759516179794
545.0 78.2967682293386
560.0 78.66827620388815
580.0 79.3181816490668
600.0 79.5464551656429
615.0 79.26827620388815
630.0 78.70109652048626
650.0 78.29301216038418
670.0 78.12827880525495
690.0 78.18939344292487
710.0 78.31001179005212
730.0 78.04301169772317
750.0 78.22735322701169
775.0 78.82371429154833
800.0 79.25817194367512
825.0 79.0858790462184
850.0 78.43642849302888
875.0 77.94739852378578
900.0 78.05956474884309
925.0 77.93753157005341
950.0 78.14689211316939
975.0 78.42735322701171
1000.0 78.24497704501826
1030.0 78.38778065091219
1060.0 78.73003947148948
1090.0 78.96492629023831
1120.0 78.78680455876227
1150.0 78.27096178708011
1180.0 78.22463683643358
1220.0 77.91282911065473
1250.0 77.07096178708012
1280.0 77.25584681575964
1320.0 77.18802524645496
1360.0 77.43222020360493
1400.0 77.69272186361624
1450.0 75.73892501003137
1500.0 75.83474815409232
1550.0 76.36804417656727
1600.0 75.75063944960861
1650.0 76.00635696326034
1700.0 75.95635983033526
1750.0 75.84688059810757
1800.0 75.68955683976338
1850.0 76.82466437062493
1900.0 77.62066285699333
1950.0 77.30846688175453
2000.0 76.01797079125083
2060.0 75.00416320234419
2120.0 74.22987218066766
2180.0 73.51994287524461
2240.0 73.68142121107718
2300.0 75.9721243959902
2360.0 77.7688145006055
2400.0 78.84793807669398
2500.0 78.7109340921433
2580.0 78.90540941060794
2650.0 78.72991215169426
2720.0 78.65083541805929
2800.0 77.9041836427065
2900.0 77.78680455876227
3000.0 76.93374907164761
3070.0 75.86436615538064
3150.0 76.84578318352989
3250.0 77.86288979248778
3350.0 76.59563892333395
3450.0 76.6493006305781
3550.0 76.66915690950127
3650.0 76.70223805894322
3750.0 76.39074648800154
3870.0 76.18413304754624
4000.0 76.0925812099673
4120.0 76.76186643520326
4250.0 76.3437118224963
4370.0 75.73308923489408
4500.0 75.8623670560016
4620.0 75.76611210091299
4750.0 77.67658662444406
4870.0 78.50278801571682
5000.0 79.56205331063714
5150.0 79.42526623374167
5300.0 78.31597213578
5450.0 77.19877245069888
5600.0 77.44480236364507
5800.0 77.68850919100947
6000.0 77.79801369018773
6150.0 77.44900706314262
6300.0 77.11956790377295
6500.0 77.62885027176863
6700.0 77.99855527956582
6900.0 78.03755210456117
7100.0 77.97589144457481
7300.0 77.76971335945453
7500.0 77.2510213555695
7750.0 77.17177828323037
8000.0 77.45397087071895
8250.0 77.66998221276539
8500.0 78.29217387917961
8750.0 78.94367368119478
9000.0 78.8783086565465
9250.0 78.0653559312702
9500.0 78.86391401756546
9750.0 80.92165783194591
10000.0 80.10169346363263
10300.0 81.07255050705297
10600.0 81.27559130601873
10900.0 80.9392546776485
11200.0 82.50713122911692
11500.0 80.80126191702733
11800.0 80.14145607724797
12200.0 80.7951746282576
12500.0 79.8496660154112
12800.0 78.57472197382842
13200.0 79.54887900946305
13600.0 80.49876594415714
14000.0 81.73758474875213
14500.0 76.20748319701059
15000.0 72.7175212057412
15500.0 74.51643428826696
16000.0 76.36680943731287
16500.0 81.7316477794965
17000.0 80.12054214423378
17500.0 74.69057160326146
18000.0 75.7476821839662
18500.0 74.42632692308413
19000.0 71.1801819249722
19500.0 70.28250564279318
