Freq,Floor Bounce,Ceiling Bounce,Front Wall Bounce,Side Wall Bounce,Rear Wall Bounce,Total Early Reflection
20.507813,49.8137098506528,49.95653794517807,49.90580182629361,51.29659724785094,52.089862314336585,50.71332033128357
21.972656,50.54607679770231,50.41724122932894,50.459547580396645,52.096698696610815,53.31182003313404,51.52948963658861
23.4375,52.25920395481393,52.36264905030836,52.33427399785171,53.5967065159831,54.39711968864461,53.07860330275571
24.902344,53.16630277283329,53.06976749296504,53.35503378365905,54.32666676788281,53.67255227866778,53.542437385773184
26.367188,57.29804748795945,57.311210004663735,57.450691640966625,58.26421854060439,57.994667700322566,57.68182367343789
27.832031,59.11844643546584,58.935469294922626,59.19221882786661,59.89031313351455,59.54891372768856,59.35062015177806
29.296875,60.96915264297567,60.78803419110682,61.03668233545733,61.60307875102342,61.22083925584502,61.132504512275176
30.761719,62.33867172082415,62.16602251685819,62.42304891853897,62.88459043638838,62.37119751572243,62.44345776056463
32.226563,64.21759049870835,64.11107144704245,64.32968058260958,64.66971748657782,63.9990472976594,64.27159140170728
33.691406,66.02262782735407,65.91676460309318,66.1356679851244,66.40419626342349,65.69270532281737,66.04080394533838
35.15625,67.37938932743332,67.28411261244764,67.49424442414036,67.70920029584452,66.9721630156231,67.37460436344085
36.621094,68.57699920197149,68.48690486536765,68.68741723225487,68.86371004553342,68.1295901555217,68.55573110872712
38.085938,69.6730896121246,69.61796103996579,69.78699709262646,69.94624135238894,69.25905275879889,69.66260613109468
39.550781,70.75549936214517,70.62869392592495,70.83353001981777,70.97386104569662,70.32870747657006,70.7094999865929
41.015625,71.7237666305929,71.62050272320903,71.81260752657313,71.91384085240962,71.23570615788584,71.66747730887947
42.480469,72.55748709398786,72.44477030212101,72.6443322765138,72.71483638349564,72.01847551317645,72.48280515341582
43.945313,73.28356961902998,73.16872201726548,73.36559192083277,73.41473349822122,72.72698759446286,73.19879378538897
45.410156,73.850203751919,73.75412529292234,73.93812807849076,73.96471389052643,73.265646790012,73.76189320186035
46.875,74.39887164536718,74.30403438998951,74.48260841197073,74.49522828540853,73.81232177166103,74.30578272158222
48.339844,74.89668895520197,74.79959885747921,74.97656981702806,74.97403956552326,74.29666301526139,74.79597618556721
51.269531,75.87916700739768,75.78183268794253,75.95514343628835,75.92346814708065,75.25500511197492,75.76642364495976
52.734375,76.3369279106613,76.23492054504167,76.41100986149429,76.36501435837371,75.69401968401962,76.21616241682932
54.199219,76.76303869831291,76.65923489441045,76.83645686036004,76.7775648091638,76.1040118203594,76.63611373242412
55.664063,77.08541176976674,76.9735586846883,77.15712661235688,77.08127011217758,76.39157353116117,76.94651299006162
58.59375,77.77654067802013,77.64812464173978,77.84090176685494,77.74191086305316,77.04770224608542,77.62033461189024
60.058594,78.12419584484564,77.99842132931542,78.1901349343593,78.07715465189992,77.36794006909972,77.96150884987074
62.988281,78.80232629461841,78.69218217119678,78.87082510100576,78.73852532457565,78.03171560953436,78.63740106923315
64.453125,79.15512900326286,79.04016059255531,79.22072378111686,79.08047704386064,78.37688805685536,78.98506672402755
67.382813,79.80495638152121,79.69137451961817,79.8699903622363,79.71520021758221,79.02094078218403,79.63096889851252
68.847656,80.13045650297516,80.01349422575888,80.19217349212202,80.03220625772461,79.35273706598585,79.95444721445185
71.777344,80.81842360750926,80.70037145846712,80.87719318526631,80.70462309750329,80.04700333842982,80.63950703352401
74.707031,81.45058130479681,81.32587983038142,81.50628918879079,81.31678454231803,80.65897955578177,81.26209633440413
77.636719,81.96380625872827,81.83655408354873,82.01739666967497,81.81252152842194,81.163644703275,81.76932842766332
79.101563,82.26413888864882,82.13396593254292,82.3173332047727,82.10209106092361,81.44756085522074,82.06395843048188
82.03125,82.9402569731963,82.80863134280338,82.99370497994694,82.76047152049298,82.09920918948836,82.73202167024323
84.960938,83.48676557626266,83.35575241773249,83.54025192204784,83.29265547631955,82.63473546439393,83.27388536565294
87.890625,83.9325406275932,83.80278089188238,83.98660870166772,83.72263916706342,83.06517706474986,83.71422769493643
90.820313,84.50245043882559,84.36621208284586,84.55337499617755,84.2774023865648,83.62447526521481,84.27728614129114
95.214844,85.1507253970442,85.0116602641902,85.20121382155136,84.90432293105319,84.26109618763611,84.91862241181657
98.144531,85.5066575922516,85.3670738118735,85.55810420337878,85.24338591549427,84.60123518818497,85.26858291966477
101.07422,85.89830234982131,85.75825848740871,85.95093439788376,85.61841289813181,84.97360557344817,85.65378576489817
105.46875,86.35408481870981,86.21539845891638,86.40832399052057,86.05201997817844,85.40686860318733,86.10195508252552
108.39844,86.58997740199253,86.45006588328432,86.64677286589531,86.26914344588886,85.61012829296315,86.32889237883238
112.79297,86.9984597350068,86.82690170526199,87.04502543224385,86.64064582864535,85.96272092145972,86.7119406950281
117.1875,87.17182238939708,87.011639523894,87.22262859968016,86.79957891227407,86.14925882560468,86.88794449150612
120.11719,87.25222627332909,87.08824788377058,87.30584550006546,86.85640932709006,86.183007208231,86.95572049937154
124.51172,87.32384709974703,87.15311069682788,87.37767618081128,86.90136110869578,86.20780634788372,87.01297753654093
128.90625,87.33249083582506,87.14214384124696,87.38232476282388,86.87419952719836,86.16794809549074,87.00170074620297
133.30078,87.33340033643853,87.14227683881892,87.38744839582463,86.84155589823635,86.09431542122687,86.984642540527
139.16016,87.28758842959842,87.09134970242322,87.33813008723676,86.76759530993891,86.00536121420134,86.92455385429908
143.55469,87.12995942362168,86.92733775222615,87.17482867501866,86.59340527260026,85.89101387087034,86.76820362313288
147.94922,86.96025087469377,86.76082362973382,87.00994000321961,86.39680457798741,85.70500024897275,86.59240305083563
153.80859,86.77449744242939,86.57739908180756,86.83003844825018,86.1678862900961,85.45980704533451,86.39055666430143
159.66797,86.66770038808167,86.42774034497256,86.71193325030691,86.00327459472359,85.29576521693141,86.25214846381613
165.52734,86.48834818960664,86.27490388399472,86.55409301604371,85.78436729288929,85.00353449879637,86.05778728174943
171.38672,86.41626053647961,86.19275914764647,86.47506491691927,85.6704174166951,84.82479583281679,85.957588994531
177.24609,86.1798785174445,85.93707649165893,86.22300142053412,85.41652488705478,84.72781497074413,85.73215665443037
183.10547,85.88523665517693,85.64103251504126,85.93987383684365,85.07030473866861,84.39863427307543,85.42478844888205
188.96484,85.74676308584009,85.47681749354928,85.81387319001642,84.85360048389579,84.03678211305402,85.23475465061279
196.28906,85.807149779552,85.52761305015427,85.8698920166195,84.86254230384617,84.02400385238293,85.27167314069553
203.61328,85.59647776687079,85.34558426993519,85.67628971412802,84.60688463582471,83.79299444552366,85.05983261389864
210.9375,85.33338811911005,85.06621618345221,85.40513088521278,84.28274503857371,83.4409284024921,84.76723265506939
218.26172,85.12948403603238,84.78887141642875,85.18773969103984,83.97499613288863,83.15792066386231,84.51442427133604
225.58594,85.01758550652914,84.66655480693126,85.1022378517355,83.75144473078328,82.75625366367979,84.34562773961858
232.91016,85.2643787223877,84.87851336504258,85.33117359602767,83.90201704560079,82.50886778181547,84.49830676729869
241.69922,84.9936172244294,84.59505635867217,85.02706325186493,83.61125905501287,82.51467781773518,84.24932019553228
250.48828,84.92364373909484,84.50790926795386,84.96122559554055,83.427238921982,82.34997862243105,84.14447940515333
259.27734,84.90375594551128,84.43571214163649,84.92571550404159,83.28531651068977,82.17694283440395,84.06885181519323
268.06641,84.82642703878508,84.45171484611357,84.87803567782237,83.16578063127321,82.13725330061706,84.0171036080641
276.85547,84.41124508822125,84.03201518625445,84.47846304943684,82.67316623019326,81.82187944382503,83.60521667995056
287.10938,84.44067913207304,83.98110401103673,84.53275320437831,82.48487598779042,81.24238674479464,83.51182721058045
297.36328,84.83008668069415,84.28808033409163,84.88518201086535,82.73819956150695,80.98272996902423,83.77937555143984
307.61719,84.68430800454715,84.16296780502216,84.70153163166415,82.53853464807155,80.73514812907617,83.60946285680762
319.33594,84.67769792037149,84.172415966429,84.67213094620683,82.3360478148882,80.81089218906021,83.57924228790138
329.58984,84.59337742459935,83.9315529015278,84.5728788059966,82.0296505643264,80.52060987538125,83.40104033382649
341.30859,85.04606769945808,84.41735375957575,85.01635697224813,82.37515598802997,80.5052623176365,83.79730840728932
353.02734,84.76219090046659,84.1685912863567,84.72846036583246,82.03151631476888,80.47092199407558,83.53595784634462
366.21094,84.58533947712529,84.09158665457284,84.59137420455738,81.67073283997598,79.89525953563728,83.32978979562544
379.39453,84.75912538199276,84.20748811439545,84.70875595944347,81.59490654040901,79.57560670224098,83.39820287996808
392.57813,84.97931394995497,84.3390187906317,84.94292263741137,81.57911048158351,79.36380291314738,83.53581753608059
405.76172,85.2376289257924,84.46013105536244,85.06242927261269,81.74384282848742,78.91765212639527,83.6602461509225
420.41016,84.64722690337328,83.94483506810074,84.49419333966203,80.99812662071801,79.17756581360888,83.13707994289969
435.05859,85.02422552258265,84.41166279952918,84.91589339393896,81.06589143526381,78.39742978235566,83.42928541551501
451.17188,84.69009884367296,84.14010602766423,84.453107519273,80.56503751510215,78.07975913161351,83.05714411767487
465.82031,84.86065021764222,84.24886875988216,84.66848851490309,80.25938703538196,77.78312367134667,83.14461153196993
483.39844,84.97761325989686,84.32983255187315,84.70428986414409,80.19355790603578,77.55748672371631,83.19132832306511
499.51172,85.14544416088619,84.42179926732639,84.82739622966304,79.91097166250776,76.92346628414748,83.242522840927
517.08984,85.39748589568536,84.82508523103888,84.98644497535352,79.80305371691612,76.70360107483276,83.45531266746445
536.13281,85.40808593227015,84.91953936048628,84.9979900818203,79.40007856383842,77.13936427873675,83.47423129059676
555.17578,85.5660420808764,85.01991432304192,85.0286310588892,79.14876065282279,76.73044983281967,83.52396383510509
574.21875,85.39710564904401,84.88872174334507,84.88891347253654,78.72069437862683,75.55949682910182,83.31804309482715
594.72656,85.38158008277125,84.9296037620098,84.82193858101226,78.18140155619199,75.42605186720647,83.26584267976773
615.23438,85.38762805005665,85.07273274403764,84.77055723422971,78.10397773540633,75.19446976075186,83.28367010297588
637.20703,84.82908558180884,84.4724462424448,84.19955623066167,76.75990871268849,74.92808992545764,82.67456589991784
659.17969,84.95358581292456,84.5340576805273,84.2250737181975,76.58647849316617,74.16816462387939,82.70981640079117
682.61719,84.85311915876815,84.23435707384824,84.07234996102123,75.97320471169017,73.94939114778191,82.50727046681138
707.51953,84.8060936027007,84.26078702249937,83.92164323187714,75.41622348788654,73.53149579624703,82.42145846140018
732.42188,84.00556432357574,83.59469224388621,83.05487821696417,73.78524558375983,73.9495927652401,81.65016930195499
757.32422,84.18605312713466,83.83563634788169,83.26135769036571,73.93178557083586,72.19358683070433,81.80266052864116
785.15625,83.79551022769863,83.18836346311687,82.8748409408476,72.85547572414079,73.07416891352763,81.34470372406224
811.52344,83.26704223066427,82.72060689613146,82.31119430683084,72.00712676639054,71.49754637214868,80.78840389514572
840.82031,83.43925161528212,82.69184123688417,82.55818724880612,72.20340217301185,71.65277574802055,80.92080434304941
870.11719,82.7570132132561,81.23201359153938,82.21837609715,72.15525260686893,71.23826348152079,80.15240441695069
900.87891,83.78622499774508,81.09766878030261,83.53784630171788,74.35176519049679,69.7391585746829,81.00622890713237
933.10547,84.66855978601862,83.0271017066928,84.0587350601811,74.18856027997016,70.71035003663363,81.96666180997362
965.33203,84.82030720571586,83.51151648877025,84.22109023686929,73.53195592703499,72.39050328858892,82.21193488740802
1000.4883,85.26109040574968,83.98028097520749,84.42767528679195,72.48856514403417,71.38873099945157,82.52639634220077
1035.6445,84.62200388414968,83.32597830247066,83.98969661377663,72.61749652961946,71.77686039131072,81.98033265573503
1072.2656,84.41759838382303,82.86135922067677,83.50717873027448,71.91816612781244,71.6548037389048,81.60907715971295
1108.8867,83.78919005256348,81.81140537327057,82.75592765913876,70.57640291867564,71.17398013983042,80.82200946795827
1148.4375,83.93492500667547,82.05364556321597,82.70370998949615,70.09640574421536,70.60570977332408,80.90611417116178
1189.4531,84.70959070392144,83.11225560268511,83.04215780808727,72.24165413814048,70.73670049886732,81.64710342655161
1230.4688,85.43580725478105,83.75315392927668,83.55886041409381,74.56183217638136,71.79320008645357,82.3428638925
1274.4141,85.60934146186959,84.25605934017551,83.38532534469,76.37653099194105,73.13902032432173,82.611962346274
1319.8242,85.53366507813733,84.01309315005285,82.95474983596381,77.49781301086213,73.32987776525412,82.47832253228523
1366.6992,85.03965853624841,83.17721062689519,82.2720826446902,78.0632283685689,73.79574523123956,81.95172597562849
1413.5742,84.74817942690709,82.86755294319522,81.86796052382414,78.01897442979367,73.11802267772052,81.64093270051451
1463.3789,84.24642199932563,82.44279056275343,81.2458508931586,77.85651972198315,72.21620494433097,81.15465487759903
1516.1133,84.02762864270873,82.38633882314647,81.27696476810803,78.0051968509567,72.10119594093555,81.06940191411495
1568.8477,83.77305445461222,82.43720640865061,81.06419173090579,78.49264392848083,72.01403068202947,80.99001362367827
1624.5117,84.08273230986869,82.56428574947117,81.32556839801445,79.35215261006765,71.76474956025777,81.29269266838114
1681.6406,84.43436929430959,82.60217318596507,81.64563001904318,79.81064795332657,71.89621133167257,81.56519679065795
1741.6992,85.08161152769884,83.06373932549803,81.90912731585051,79.71649923392134,71.5413997846979,81.97474328599534
1803.2227,84.80290163405975,82.68036794597623,82.05799473435812,79.72882296778221,70.53382258987475,81.78079012235987
1866.2109,84.13666546293084,81.7368629275264,81.5020207577609,79.7149050582679,71.05525237757237,81.1800446253361
1932.1289,83.602256312788,81.3138164238361,81.14757929085744,79.76835048185384,69.95522343750261,80.78804156951696
1999.5117,84.06018159162741,81.60872539943885,81.4493260485348,79.3554367834553,68.8393909765216,81.0243757183489
2069.8242,83.76938569451585,81.51065409291779,81.42084473132766,78.44050620129563,66.74771289001573,80.7413003065162
2143.0664,82.71905713087259,80.63141082621152,80.50543089161236,77.03966125803933,65.06703085071462,79.72025584371322
2219.2383,81.87382969742735,79.25543400948479,79.57648141098251,75.20149587276354,63.20600629404247,78.6227603115182
2296.875,82.43558090314781,79.87752134425492,79.83574157133265,73.98791574542427,61.94146430797255,78.97989858611112
2378.9063,82.94846802719418,80.68911371827275,80.26935530462167,72.46501620126857,63.632834170599125,79.45188033765558
2462.4023,83.33893026711185,80.93277326299285,80.17128224564291,70.77935281168973,64.60758472101487,79.62423803958475
2548.8281,83.80193327465996,81.13937379019441,80.16816102953226,70.56802693587731,66.98608668817873,79.91517986999916
2639.6484,84.13959178151157,81.95924328297924,80.56780150550614,72.2124882172071,69.3047384321628,80.45740699563073
2731.9336,84.48390478598407,82.60126085034362,80.47764792596558,74.08789738707381,68.7162220138087,80.8458897779933
2828.6133,85.2012159739738,83.52982817270097,81.19369826022461,75.93146732809178,69.43504049621001,81.68049993274848
2928.2227,84.7762874341183,83.65475876789512,80.8435897684354,76.53967497041592,69.33829533745921,81.50724875202049
3030.7617,84.07017559317471,82.65935206724438,79.91923635941409,77.45565158377259,69.3935429346183,80.80822317315591
3137.6953,84.33428896015937,83.06974676155514,79.9807699400903,77.52555806586815,69.03911207420313,81.05975070743591
3249.0234,84.49601912497718,83.37499972340744,79.50583208530487,77.82481922112294,68.1849297704037,81.17623007265009
3363.2813,84.30272852040055,82.66530744877826,78.5689316673698,78.30311931021198,68.92075294591776,80.8021762441407
3481.9336,84.03528075359966,82.68375407191051,77.8817039448054,78.59627377931209,68.11609469787777,80.63718499856407
3604.9805,83.98388696883252,82.74642077250712,77.54790217955609,78.25806901974289,67.1561928881907,80.54980601484075
3732.4219,84.1365032709013,83.09961337396835,77.65812064619517,78.29154909617606,66.23551257776899,80.74351061082778
3864.2578,84.02099537986513,83.01576290524832,77.14228184189427,77.90662608176834,65.66482981071833,80.56816898405945
4000.4883,85.02987698872494,83.85804711683546,78.16215616450174,77.83777007167954,65.50923691386271,81.40731661622166
4141.1133,84.36147794660113,83.53160702509776,77.42996334407968,77.1974360424334,65.0682421402896,80.85999922191576
4287.5977,84.87283345613669,83.49804143784712,78.01092062368375,76.52629784957276,65.01897884794391,81.0873008602437
4438.4766,84.17736455782844,83.12314454151537,77.95522628172029,75.66149634640522,64.88743718562313,80.5635576774886
4595.2148,84.08086005458436,83.06503565020353,78.48894055731823,74.85264463084532,64.30682241166416,80.51016614579275
4756.3477,83.52343384869516,82.29674542549452,78.49680900343931,73.84083094190743,63.44390347788247,79.92949194465815
4924.8047,83.36368827014803,82.73833974420015,79.30365660330855,72.80741182301146,62.81541550503127,80.09450318528292
5097.6563,83.35058231187642,81.93856373320436,79.81486742881916,71.76210208602876,61.96602038241673,79.86742475842499
5277.832,83.1347185715132,82.08792398604903,80.19785870123431,70.69225179672962,61.394922417993115,79.87050371890427
5463.8672,82.78645994164526,82.05013218109454,80.58113063615411,70.46675794283615,60.751575758963526,79.79478720018889
5657.2266,83.0387533227712,81.78982276741925,81.12742272053573,70.03516186360848,60.367441048827374,79.9398880514322
5856.4453,82.23856382827151,81.82682400121516,81.33749299438304,69.47232930776997,59.95097155299544,79.69083399887688
6062.9883,82.3647271798841,82.71427525643848,81.98810721967706,69.5730041646726,60.381715095407,80.23176327889695
6276.8555,81.79200324828408,82.32543498236616,82.1658543238874,69.96001492038118,60.67897926895958,79.97941898829485
6498.0469,81.6093055764479,82.80859592509069,82.39990637832575,70.2456349532807,59.55172884617099,80.17899206257543
6726.5625,81.01538480213418,82.60021841281326,82.22774261675733,69.50127482544644,58.24861112032406,79.86703693879136
6963.8672,81.30778867679092,82.75141009786019,82.35123636909466,68.53901962355259,58.03290804432501,80.02756272478045
7209.9609,81.85860101915478,82.88340805229812,82.22111850950282,68.36490105874651,57.5053524191521,80.18572812859595
7464.8438,82.05914338205042,82.48370765659024,81.84238338099497,68.18557217352101,57.295256856618295,79.98073056482686
7727.0508,82.47304285371887,82.72382979269383,81.59972674602542,67.20655051550075,55.873095712622444,80.12109982174351
7999.5117,82.86070842020231,83.20710581135438,81.2575718394172,66.07576207842243,54.718600727830136,80.33771411587628
8282.2266,83.1058584744923,83.21277759063119,81.02620956455019,66.60854051278977,55.921868063614255,80.37920363589599
8573.7305,83.7503352229746,83.1275583140795,80.85763414725281,66.75177703943001,56.27868752600054,80.56614992047413
