Freq "Floor Bounce"
20.507813 50.1614819112589
21.972656 50.89384885830839
23.4375 52.60697601542
24.902344 53.514074833439366
26.367188 57.64581954856553
27.832031 59.46621849607192
29.296875 61.31692470358175
30.761719 62.686443781430256
32.226563 64.56536255931444
33.691406 66.37039988796013
35.15625 67.72716138803938
36.621094 68.92477126257756
38.085938 70.02086167273069
39.550781 71.10327142275125
41.015625 72.07153869119898
42.480469 72.90525915459392
43.945313 73.63134167963607
45.410156 74.19797581252507
46.875 74.74664370597324
48.339844 75.24446101580804
51.269531 76.22693906800376
52.734375 76.68469997126738
54.199219 77.11081075891897
55.664063 77.43318383037281
58.59375 78.1243127386262
60.058594 78.47196790545173
62.988281 79.15009835522449
64.453125 79.50290106386893
67.382813 80.1527284421273
68.847656 80.47822856358124
71.777344 81.16619566811534
74.707031 81.7983533654029
77.636719 82.31157831933436
79.101563 82.61191094925488
82.03125 83.28802903380236
84.960938 83.83453763686873
87.890625 84.28031268819929
90.820313 84.85022249943165
95.214844 85.49849745765027
98.144531 85.85442965285768
101.07422 86.2460744104274
105.46875 86.70185687931587
108.39844 86.93774946259859
112.79297 87.3462317956129
117.1875 87.51959445000317
120.11719 87.59999833393515
124.51172 87.67161916035312
128.90625 87.68026289643115
133.30078 87.68117239704459
139.16016 87.63536049020449
143.55469 87.47773148422777
147.94922 87.30802293529983
153.80859 87.12226950303548
159.66797 87.01547244868775
165.52734 86.8361202502127
171.38672 86.76403259708569
177.24609 86.52765057805055
183.10547 86.23300871578301
188.96484 86.09453514644616
196.28906 86.1549218401581
203.61328 85.94424982747687
210.9375 85.68116017971612
218.26172 85.47725609663846
225.58594 85.36535756713522
232.91016 85.61215078299377
241.69922 85.34138928503546
250.48828 85.2714157997009
259.27734 85.25152800611735
268.06641 85.17419909939116
276.85547 84.75901714882731
287.10938 84.7884511926791
297.36328 85.17785874130021
307.61719 85.03208006515322
319.33594 85.02546998097755
329.58984 84.94114948520544
341.30859 85.39383976006417
353.02734 85.10996296107265
366.21094 84.93311153773135
379.39453 85.10689744259884
392.57813 85.32708601056105
405.76172 85.58540098639845
420.41016 84.99499896397936
435.05859 85.37199758318874
451.17188 85.03787090427903
465.82031 85.20842227824829
483.39844 85.32538532050295
499.51172 85.49321622149226
517.08984 85.74525795629145
536.13281 85.75585799287622
555.17578 85.91381414148248
574.21875 85.74487770965007
594.72656 85.72935214337731
615.23438 85.73540011066274
637.20703 85.17685764241492
659.17969 85.30135787353065
682.61719 85.20089121937423
707.51953 85.15386566330676
732.42188 84.35333638418183
757.32422 84.53382518774072
785.15625 84.14328228830469
811.52344 83.61481429127036
840.82031 83.7870236758882
870.11719 83.10478527386215
900.87891 84.13399705835116
933.10547 85.0163318466247
965.33203 85.16807926632194
1000.4883 85.60886246635575
1035.6445 84.96977594475575
1072.2656 84.76537044442911
1108.8867 84.13696211316955
1148.4375 84.28269706728156
1189.4531 85.0573627645275
1230.4688 85.78357931538712
1274.4141 85.95711352247567
1319.8242 85.88143713874342
1366.6992 85.3874305968545
1413.5742 85.09595148751315
1463.3789 84.59419405993172
1516.1133 84.37540070331482
1568.8477 84.12082651521831
1624.5117 84.43050437047475
1681.6406 84.78214135491567
1741.6992 85.4293835883049
1803.2227 85.15067369466583
1866.2109 84.48443752353691
1932.1289 83.95002837339408
1999.5117 84.40795365223349
2069.8242 84.11715775512192
2143.0664 83.06682919147867
2219.2383 82.22160175803343
2296.875 82.78335296375388
2378.9063 83.29624008780027
2462.4023 83.68670232771794
2548.8281 84.14970533526603
2639.6484 84.48736384211765
2731.9336 84.83167684659016
2828.6133 85.54898803457988
2928.2227 85.12405949472438
3030.7617 84.41794765378077
3137.6953 84.68206102076543
3249.0234 84.84379118558326
3363.2813 84.65050058100664
3481.9336 84.38305281420574
3604.9805 84.33165902943861
3732.4219 84.48427533150738
3864.2578 84.3687674404712
4000.4883 85.37764904933103
4141.1133 84.70925000720719
4287.5977 85.22060551674276
4438.4766 84.52513661843452
4595.2148 84.42863211519045
4756.3477 83.87120590930124
4924.8047 83.71146033075412
5097.6563 83.69835437248248
5277.832 83.48249063211928
5463.8672 83.13423200225134
5657.2266 83.38652538337729
5856.4453 82.58633588887758
6062.9883 82.71249924049016
6276.8555 82.13977530889015
6498.0469 81.95707763705398
6726.5625 81.36315686274024
6963.8672 81.655560737397
7209.9609 82.20637307976084
7464.8438 82.4069154426565
7727.0508 82.82081491432493
7999.5117 83.20848048080839
8282.2266 83.45363053509836
8573.7305 84.09810728358066
8876.9531 84.77156591690976
9188.9648 85.24379913845522
9514.1602 85.43336720991428
9849.6094 85.32691926212969
10196.777 84.61765757178523
10555.664 83.88671053899215
10927.734 83.91093453756866
11312.988 83.99739505294028
11712.891 83.59821169839036
12125.977 83.34805327974058
12553.711 83.38485701986819
12996.094 83.24048939446067
13454.59 83.10702940658321
13929.199 83.0120034078765
14419.922 82.91820747007243
14928.223 82.97978611790033
15455.566 82.92123819417922
16000.488 82.89409612193934
16564.453 82.9373160357977
17148.926 83.16502221327936
17752.441 83.2134040721064
18379.395 83.24919319160607
19026.855 83.27941515462379
19697.754 83.33503276562624
19999.512 83.56196384801055
