Freq "Front Wall Bounce"
20.507813 50.25357388689969
21.972656 50.80731964100269
23.4375 52.682046058457786
24.902344 53.70280584426513
26.367188 57.79846370157267
27.832031 59.53999088847269
29.296875 61.384454396063404
30.761719 62.77082097914504
32.226563 64.67745264321564
33.691406 66.48344004573046
35.15625 67.84201648474644
36.621094 69.03518929286093
38.085938 70.13476915323253
39.550781 71.18130208042385
41.015625 72.1603795871792
42.480469 72.99210433711988
43.945313 73.71336398143886
45.410156 74.28590013909682
46.875 74.83038047257682
48.339844 75.32434187763414
51.269531 76.30291549689443
52.734375 76.75878192210038
54.199219 77.1842289209661
55.664063 77.50489867296295
58.59375 78.188673827461
60.058594 78.5379069949654
62.988281 79.21859716161184
64.453125 79.56849584172294
67.382813 80.21776242284237
68.847656 80.53994555272808
71.777344 81.22496524587238
74.707031 81.85406124939686
77.636719 82.36516873028103
79.101563 82.66510526537877
82.03125 83.34147704055303
84.960938 83.88802398265392
87.890625 84.3343807622738
90.820313 84.90114705678364
95.214844 85.54898588215744
98.144531 85.90587626398485
101.07422 86.29870645848982
105.46875 86.75609605112663
108.39844 86.99454492650139
112.79297 87.39279749284994
117.1875 87.57040066028623
120.11719 87.65361756067155
124.51172 87.72544824141735
128.90625 87.73009682342996
133.30078 87.73522045643071
139.16016 87.68590214784282
143.55469 87.52260073562475
147.94922 87.35771206382569
153.80859 87.17781050885625
159.66797 87.05970531091299
165.52734 86.9018650766498
171.38672 86.82283697752536
177.24609 86.57077348114021
183.10547 86.28764589744974
188.96484 86.1616452506225
196.28906 86.21766407722558
203.61328 86.0240617747341
210.9375 85.75290294581885
218.26172 85.53551175164593
225.58594 85.45000991234159
232.91016 85.67894565663374
241.69922 85.37483531247102
250.48828 85.30899765614663
259.27734 85.27348756464768
268.06641 85.22580773842844
276.85547 84.82623511004292
287.10938 84.8805252649844
297.36328 85.23295407147143
307.61719 85.04930369227024
319.33594 85.01990300681291
329.58984 84.92065086660267
341.30859 85.36412903285422
353.02734 85.07623242643854
366.21094 84.93914626516346
379.39453 85.05652802004954
392.57813 85.29069469801745
405.76172 85.41020133321877
420.41016 84.8419654002681
435.05859 85.26366545454505
451.17188 84.80087957987908
465.82031 85.01626057550915
483.39844 85.05206192475015
499.51172 85.1751682902691
517.08984 85.33421703595961
536.13281 85.3457621424264
555.17578 85.37640311949528
574.21875 85.2366855331426
594.72656 85.16971064161834
615.23438 85.11832929483579
637.20703 84.54732829126776
659.17969 84.57284577880357
682.61719 84.4201220216273
707.51953 84.26941529248323
732.42188 83.40265027757025
757.32422 83.60912975097179
785.15625 83.22261300145368
811.52344 82.6589663674369
840.82031 82.9059593094122
870.11719 82.56614815775609
900.87891 83.88561836232397
933.10547 84.40650712078718
965.33203 84.56886229747536
1000.4883 84.77544734739801
1035.6445 84.3374686743827
1072.2656 83.85495079088054
1108.8867 83.10369971974484
1148.4375 83.05148205010224
1189.4531 83.38992986869336
1230.4688 83.9066324746999
1274.4141 83.73309740529606
1319.8242 83.30252189656989
1366.6992 82.61985470529628
1413.5742 82.21573258443023
1463.3789 81.59362295376468
1516.1133 81.6247368287141
1568.8477 81.41196379151187
1624.5117 81.67334045862054
1681.6406 81.99340207964927
1741.6992 82.25689937645659
1803.2227 82.40576679496421
1866.2109 81.84979281836698
1932.1289 81.4953513514635
1999.5117 81.79709810914089
2069.8242 81.76861679193372
2143.0664 80.85320295221842
2219.2383 79.92425347158857
2296.875 80.18351363193871
2378.9063 80.61712736522773
2462.4023 80.51905430624899
2548.8281 80.51593309013833
2639.6484 80.91557356611222
2731.9336 80.82541998657166
2828.6133 81.54147032083068
2928.2227 81.19136182904147
3030.7617 80.26700842002018
3137.6953 80.32854200069636
3249.0234 79.85360414591096
3363.2813 78.91670372797586
3481.9336 78.22947600541148
3604.9805 77.89567424016217
3732.4219 78.00589270680125
3864.2578 77.49005390250034
4000.4883 78.50992822510783
4141.1133 77.77773540468577
4287.5977 78.35869268428982
4438.4766 78.30299834232636
4595.2148 78.83671261792429
4756.3477 78.8445810640454
4924.8047 79.65142866391464
5097.6563 80.16263948942522
5277.832 80.54563076184037
5463.8672 80.92890269676019
5657.2266 81.47519478114181
5856.4453 81.6852650549891
6062.9883 82.33587928028312
6276.8555 82.51362638449348
6498.0469 82.74767843893184
6726.5625 82.57551467736342
6963.8672 82.69900842970074
7209.9609 82.56889057010889
7464.8438 82.19015544160105
7727.0508 81.9474988066315
7999.5117 81.60534390002326
8282.2266 81.37398162515628
8573.7305 81.20540620785887
8876.9531 80.96802032987235
9188.9648 80.61834535157638
9514.1602 80.67531429729478
9849.6094 81.21240173880952
10196.777 82.02914390218986
10555.664 82.75358931819434
10927.734 83.00653637009421
11312.988 82.8570504313063
11712.891 82.3027592110843
12125.977 81.69482474729944
12553.711 80.81728615858123
12996.094 80.2048820388597
13454.59 79.84129616555356
13929.199 79.48469314857459
14419.922 79.58866156320907
14928.223 79.42345461808901
15455.566 79.55710058248661
16000.488 79.27344043348751
16564.453 79.38278048109187
17148.926 79.37815219757445
17752.441 79.34788288864871
18379.395 78.89127638459034
19026.855 78.64850457838014
19697.754 78.37735591884983
19999.512 78.39092163440998
