Freq "Ceiling Bounce"
22.4 -13.706531476392485
23.0 -13.574846117274376
23.6 -13.745797009646196
24.0 -14.132351637555416
25.0 -14.469118806601585
25.8 -14.617244495408755
26.5 -14.223881434682852
27.2 -13.169504123620271
28.0 -11.43033921542957
29.0 -9.44739046797784
30.0 -7.415065075391482
30.7 -5.539034857628167
31.5 -3.7878638802313844
32.5 -2.2681611865468483
33.5 -0.8419647784973563
34.5 0.49066301838192317
35.5 1.757412855905784
36.5 2.9271566802516418
37.5 4.13781340417853
38.7 5.480510602700747
40.0 7.180995545561672
41.2 9.50330865559988
42.5 12.43088119339842
43.7 15.616387703130073
45.0 18.813930963433933
46.2 21.894093472559064
47.5 24.788890490532822
48.7 27.52924838946487
50.0 30.029909573851427
51.5 32.372452492076434
53.0 34.56268190818898
54.5 36.58509485802375
56.0 38.485736038642074
58.0 40.24090753602633
60.0 41.88959528561199
61.5 43.40263350538771
63.0 44.6857391564897
65.0 45.970351937873545
67.0 47.12934077441656
69.0 48.18888547155004
71.0 49.216277831777475
73.0 50.176627982539046
75.0 51.137527773000286
77.5 52.12758719283592
80.0 53.12758719283593
82.5 54.18982856673472
85.0 55.18982856673472
87.5 56.28982856673471
90.0 57.31916705502752
92.5 58.35260953202217
95.0 59.319167055027535
97.5 60.182199673323055
100.0 60.91916705502754
103.0 61.58219967332303
106.0 62.045767194384695
109.0 62.51227178315618
112.0 62.87609175449221
115.0 63.276091754492214
118.0 63.60690501035458
122.0 63.97150800786939
125.0 64.33663575667188
128.0 64.66845083805433
132.0 64.93435140868502
136.0 65.16845083805433
140.0 65.36845083805433
145.0 65.53435140868503
150.0 65.63435140868502
155.0 65.7022846139602
160.0 65.73435140868503
165.0 65.7022846139602
170.0 65.73663575667186
175.0 65.73663575667186
180.0 65.83663575667185
185.0 65.83663575667185
190.0 65.87150800786938
195.0 65.87150800786938
200.0 65.80306957104251
206.0 65.67150800786939
212.0 65.60306957104252
218.0 65.50306957104252
224.0 65.50306957104252
230.0 65.50306957104252
236.0 65.50306957104252
240.0 65.40306957104252
250.0 65.40306957104252
258.0 65.37150800786938
265.0 65.37150800786938
272.0 65.40690501035459
280.0 65.40690501035459
290.0 65.40690501035459
300.0 65.41227178315619
307.0 65.41227178315619
315.0 65.31227178315618
325.0 65.2489851487955
335.0 65.1489851487955
345.0 65.04898514879551
355.0 64.91916705502754
365.0 64.81916705502752
375.0 64.68623512455238
387.0 64.5566725593005
400.0 64.4566725593005
412.0 64.3566725593005
425.0 64.26588846059687
437.0 64.16588846059688
450.0 64.07662798253905
462.0 64.00963256681621
475.0 63.94898359150841
487.0 63.982198127900546
500.0 64.02179738688895
515.0 64.04898359150842
530.0 64.08219812790057
545.0 64.1096325668162
560.0 64.1096325668162
580.0 64.06588846059687
600.0 63.99897445130925
615.0 63.99897445130925
630.0 63.96096514237182
650.0 64.02758719283592
670.0 64.02758719283592
690.0 64.12758719283593
710.0 64.12758719283593
730.0 64.12758719283593
750.0 64.06588846059687
775.0 63.937527773000284
800.0 63.837527773000275
825.0 63.776627982539054
850.0 63.78888547155002
875.0 63.68888547155002
900.0 63.502654503403406
925.0 63.17641629732152
950.0 62.89237898809799
975.0 62.642582736630146
1000.0 62.504976686768075
1030.0 62.42875610128314
1060.0 62.35295536787777
1090.0 62.25295536787779
1120.0 62.165039375907526
1150.0 61.940907536026316
1180.0 61.662267414033124
1220.0 61.28573603864206
1250.0 61.062267414033116
1280.0 60.907910755634504
1320.0 60.88509485802376
1360.0 60.78509485802377
1400.0 60.685094858023746
1450.0 60.48509485802377
1500.0 60.39389595883674
1550.0 60.528756101283136
1600.0 60.83469773360898
1650.0 61.309422484260196
1700.0 61.795064580358286
1750.0 62.315925388799826
1800.0 62.77717895989804
1850.0 63.401318279521135
1900.0 64.06336865784947
1950.0 64.19965439277179
2000.0 63.96419800295965
2060.0 64.09156164294319
2120.0 64.78493492460849
2180.0 65.41592692226708
2240.0 65.62761355743555
2300.0 65.48239860760773
2360.0 65.00722417372366
2400.0 64.37872996753788
2500.0 63.61655999317607
2580.0 62.725850443519235
2650.0 61.72180052683973
2720.0 60.545772234796516
2800.0 59.37655346032069
2900.0 58.38405461574942
3000.0 57.508149949381306
3070.0 56.74293492570155
3150.0 56.032220347912315
3250.0 55.670762757254366
3350.0 55.79674297331738
3450.0 56.30473530118576
3550.0 57.056672559300495
3650.0 57.760965142371816
3750.0 58.3236110299371
3870.0 58.82021956404323
4000.0 59.195624837243926
4120.0 59.440102710922076
4250.0 59.43288092656522
4370.0 59.052997998781535
4500.0 58.40993626900294
4620.0 57.722407260086754
4750.0 57.228549475751436
4870.0 57.203638215463926
5000.0 57.63392657477243
5150.0 58.36194867563765
5300.0 59.123611029937095
5450.0 59.66839968904114
5600.0 59.86996121118247
5800.0 59.60153110593811
6000.0 58.98528746757074
6150.0 58.47283899448726
6300.0 58.34528993868244
6500.0 58.423309178190124
6700.0 58.51248611872856
6900.0 58.63243475604747
7100.0 58.62081894554058
7300.0 58.39727311966743
7500.0 57.90785319525341
7750.0 57.24339850407557
8000.0 56.63470239424311
8250.0 56.199556985188224
8500.0 56.132490053361124
8750.0 56.3907315663584
9000.0 56.65427931284739
9250.0 56.74109432205927
9500.0 56.67245249207646
9750.0 56.70464912211595
10000.0 56.88655400819434
10300.0 57.22269060187877
10600.0 57.45655353025552
10900.0 57.29867460545361
11200.0 56.64231749939586
11500.0 55.4236262000267
11800.0 53.664654421492884
12200.0 51.64293178137855
12500.0 49.52784873933469
12800.0 47.47770956474038
13200.0 45.75981749450921
13600.0 44.687135939109254
14000.0 44.26353151935821
14500.0 44.58845180805068
15000.0 45.34978806046888
15500.0 46.34228926513177
16000.0 47.50500021603696
16500.0 48.605000216036956
17000.0 49.40450671220272
17500.0 49.51442345365729
18000.0 49.008149949381306
18500.0 48.15519220018268
19000.0 47.33674241995146
19500.0 46.50517745233019
