Freq "Floor Bounce"
22.4 -13.851310204533263
23.0 -13.994003909041538
23.6 -14.362704934013891
24.0 -14.739316278896979
25.0 -14.974117396893007
25.8 -14.766135413963497
26.5 -13.905297813789758
27.2 -12.31284780528759
28.0 -10.164893279991531
29.0 -7.6508431932896315
30.0 -5.244772206638686
30.7 -3.009044008335593
31.5 -1.0204635622043838
32.5 0.7688214351485385
33.5 2.2675349461781593
34.5 3.7112521699566514
35.5 5.019064167056996
36.5 6.251353776464242
37.5 7.45626505215148
38.7 8.809912815157162
40.0 10.471103517968004
41.2 12.626732771120459
42.5 15.35883834711106
43.7 18.36948857173695
45.0 21.50146485315463
46.2 24.460454152461665
47.5 27.36786008726844
48.7 30.064646798125352
50.0 32.44179998067983
51.5 34.62235512044191
53.0 36.71845254529691
54.5 38.600493458385756
56.0 40.31458026313015
58.0 41.98042420054253
60.0 43.493171640730864
61.5 44.869660784570414
63.0 46.12188682922212
65.0 47.31483523633479
67.0 48.373142111360835
69.0 49.37001488257475
71.0 50.268450838054335
73.0 51.20228461396019
75.0 52.168450838054326
77.5 53.07001488257477
80.0 54.03821129888743
82.5 55.00542400732661
85.0 56.07314211136085
87.5 57.141361504235874
90.0 58.17783080594569
92.5 59.24136150423587
95.0 60.1778308059457
97.5 61.077830805945695
100.0 61.81007799780292
103.0 62.410077997802915
106.0 62.9100779978029
109.0 63.273879612228185
112.0 63.67387961222818
115.0 63.97387961222819
118.0 64.23821129888744
122.0 64.53821129888743
125.0 64.87150800786937
128.0 65.13663575667186
132.0 65.36845083805433
136.0 65.6022846139602
140.0 65.8022846139602
145.0 65.93435140868502
150.0 66.0022846139602
155.0 66.10228461396021
160.0 66.13435140868503
165.0 66.16845083805433
170.0 66.20228461396019
175.0 66.30228461396018
180.0 66.33435140868502
185.0 66.4022846139602
190.0 66.46845083805432
195.0 66.36845083805433
200.0 66.33435140868502
206.0 66.20076749445562
212.0 66.10076749445561
218.0 66.0007674944556
224.0 66.0007674944556
230.0 66.0007674944556
236.0 65.93513059177982
240.0 65.93513059177982
250.0 65.93513059177982
258.0 65.93513059177982
265.0 65.96845083805431
272.0 65.96845083805431
280.0 66.0007674944556
290.0 66.06845083805433
300.0 66.06845083805433
307.0 66.06845083805433
315.0 66.06845083805433
325.0 66.03663575667186
335.0 66.00306957104252
345.0 65.90531806766471
355.0 65.8404416794549
365.0 65.7404416794549
375.0 65.7404416794549
387.0 65.6760917544922
400.0 65.6457671943847
412.0 65.58219967332303
425.0 65.55260953202217
437.0 65.48219967332307
450.0 65.48219967332307
462.0 65.45260953202218
475.0 65.41592692226708
487.0 65.44576719438469
500.0 65.48219967332307
515.0 65.48219967332307
530.0 65.48219967332307
545.0 65.48219967332307
560.0 65.41227178315619
580.0 65.38219967332304
600.0 65.28219967332305
615.0 65.2122717831562
630.0 65.18219967332305
650.0 65.2122717831562
670.0 65.2122717831562
690.0 65.31227178315618
710.0 65.34576719438469
730.0 65.34576719438469
750.0 65.27609175449221
775.0 65.24576719438468
800.0 65.14576719438469
825.0 65.14576719438469
850.0 65.24576719438468
875.0 65.21592692226706
900.0 65.15260953202217
925.0 64.95260953202217
950.0 64.76096514237182
975.0 64.73257218046557
1000.0 64.70464502318535
1030.0 64.67717895989803
1060.0 64.50464502318535
1090.0 64.47717895989803
1120.0 64.51592538879981
1150.0 64.49506458035829
1180.0 64.30942248426018
1220.0 64.05062128010364
1250.0 63.8672655885961
1280.0 63.80034112939828
1320.0 63.8672655885961
1360.0 63.84258273663015
1400.0 63.709828555567555
1450.0 63.509828555567566
1500.0 63.34258273663016
1550.0 63.24258273663014
1600.0 63.250621280103644
1650.0 63.36194867563765
1700.0 63.46588846059686
1750.0 63.57928732607431
1800.0 63.73821129888742
1850.0 64.0669218511605
1900.0 64.4053180676647
1950.0 64.47449351030437
2000.0 64.4053180676647
2060.0 64.5053180676647
2120.0 64.87896989520115
2180.0 65.32761355743554
2240.0 65.62761355743555
2300.0 65.67215664893682
2360.0 65.47215664893682
2400.0 65.19965439277179
2500.0 64.82104166298748
2580.0 64.41007799780292
2650.0 63.8797774579057
2720.0 63.301318279521126
2800.0 62.79257011413608
2900.0 62.39179815677409
3000.0 61.98343461029553
3070.0 61.564930353410944
3150.0 61.041230530368395
3250.0 60.68067853625088
3350.0 60.35840416724977
3450.0 60.30814994938132
3550.0 60.40780688674015
3650.0 60.63088003414319
3750.0 61.00091389014041
3870.0 61.421026149635054
4000.0 61.761948675637655
4120.0 62.26668552790022
4250.0 62.67383110211924
4370.0 62.72022160616295
4500.0 62.34659692804833
4620.0 61.94391589069238
4750.0 61.639211613144624
4870.0 61.347438990867346
5000.0 61.19220047151572
5150.0 61.10330383828929
5300.0 61.30982855556755
5450.0 61.6026545034034
5600.0 61.93546263134684
5800.0 62.05866027600834
6000.0 62.05177437534739
6150.0 62.0944886893229
6300.0 62.133928328145686
6500.0 62.242939793601906
6700.0 62.29749950966175
6900.0 62.19408963790565
7100.0 61.85603736524561
7300.0 61.4301206597481
7500.0 61.08219671845799
7750.0 60.74659692804832
8000.0 60.551769211042256
8250.0 60.492570114136086
8500.0 60.50962251076207
8750.0 60.67406327003758
9000.0 60.801531105938096
9250.0 60.75927347220545
9500.0 60.55927347220546
9750.0 60.32264734397967
10000.0 60.34376119654482
10300.0 60.39430925610405
10600.0 60.51832544184971
10900.0 60.45999961744991
11200.0 60.18042420054253
11500.0 59.63469773360899
11800.0 58.90324612052703
12200.0 57.98528746757074
12500.0 57.05655157316073
12800.0 56.15027609776959
13200.0 55.460497927479295
13600.0 54.95528988291042
14000.0 54.60299508895696
14500.0 54.22909320145777
15000.0 53.70018324904811
15500.0 52.86308234883941
16000.0 51.866209893892176
16500.0 51.10473949550547
17000.0 50.58796963813816
17500.0 50.0383851686794
18000.0 49.49080616590045
18500.0 49.14412885328626
19000.0 49.107992652155886
19500.0 48.781263571839446
