Freq "Rear Wall Bounce"
22.4 -13.948011045882197
23.0 -13.958334860050854
23.6 -14.011184527673322
24.0 -14.15612052373072
25.0 -14.178418609264895
25.8 -13.914973871189687
26.5 -13.083961294127363
27.2 -11.44776323913294
28.0 -9.16228067683582
29.0 -6.460881785593131
30.0 -3.689317244221968
30.7 -0.9363311840664608
31.5 1.7317605939284988
32.5 4.333895598993138
33.5 6.946857015255318
34.5 9.566037312105976
35.5 12.220061503188447
36.5 14.92901016317785
37.5 17.554915999845917
38.7 20.00752165298266
40.0 22.135735624104825
41.2 23.832207985654236
42.5 25.101439003529578
43.7 26.15130658181573
45.0 27.212425099693974
46.2 28.45015123787863
47.5 29.855003285467404
48.7 31.321784485111948
50.0 32.75019172559473
51.5 34.13980312594751
53.0 35.50299351883396
54.5 36.869766165065414
56.0 38.21028646639488
58.0 39.55285586694586
60.0 40.851637431602825
61.5 42.164802014068556
63.0 43.41915283313111
65.0 44.657777744602726
67.0 45.85676437440148
69.0 47.048572027595384
71.0 48.20063647875095
73.0 49.327690192540175
75.0 50.46819587972743
77.5 51.573343322392944
80.0 52.65096706976021
82.5 53.77638102696429
85.0 54.91514181611211
87.5 56.09471139042476
90.0 57.27955694615247
92.5 58.45973538354269
95.0 59.56508292392046
97.5 60.58910370985413
100.0 61.480847836359374
103.0 62.228771557505624
106.0 62.81694182651451
109.0 63.40943571698287
112.0 63.91504690639026
115.0 64.43929830115277
118.0 64.927766229871
122.0 65.37479406524594
125.0 65.84797378685828
128.0 66.25101388101046
132.0 66.58765246271152
136.0 66.86186889840539
140.0 67.04069963843817
145.0 67.15004773564475
150.0 67.14950817128485
155.0 67.06635484330991
160.0 66.9260436167707
165.0 66.69669001440995
170.0 66.48760407790188
175.0 66.27043001237897
180.0 66.09098950402202
185.0 65.97538998311272
190.0 65.84475519924382
195.0 65.73425227597377
200.0 65.57709975827945
206.0 65.43019794768577
212.0 65.31988882084232
218.0 65.2677466856563
224.0 65.26448487037793
230.0 65.2625668470619
236.0 65.21093764499356
240.0 65.15673805347757
250.0 65.10715954373657
258.0 65.02584890263685
265.0 64.94660256128948
272.0 64.86576728699833
280.0 64.82979833061165
290.0 64.73619078834926
300.0 64.62486425282026
307.0 64.47873169894638
315.0 64.31888604515595
325.0 64.11745198176061
335.0 63.86795124254881
345.0 63.61217416435832
355.0 63.36936590766173
365.0 63.11753593246475
375.0 62.87315534903799
387.0 62.62217672102284
400.0 62.393265385809514
412.0 62.17844745965745
425.0 61.97838789150936
437.0 61.75868850573477
450.0 61.56020062058124
462.0 61.31454799934505
475.0 61.066333469334865
487.0 60.8304138933284
500.0 60.575329522709055
515.0 60.30300183342271
530.0 60.04780472857823
545.0 59.769352519635135
560.0 59.50137255327297
580.0 59.240111839784646
600.0 59.015314293684895
615.0 58.812876272262386
630.0 58.67382498736103
650.0 58.59457181787998
670.0 58.53500681208311
690.0 58.50606083568552
710.0 58.404704426147546
730.0 58.19941945036746
750.0 57.96368899168108
775.0 57.65302662427186
800.0 57.34665150604883
825.0 57.106971673907054
850.0 56.916743174920015
875.0 56.84119339989458
900.0 56.74102485430632
925.0 56.6935272921998
950.0 56.69542028059158
975.0 56.829421200705895
1000.0 56.92446597565613
1030.0 56.74876973981223
1060.0 56.35407197267253
1090.0 56.04142499996955
1120.0 55.877125351925955
1150.0 55.71212625555182
1180.0 55.43913333717475
1220.0 55.08490179566189
1250.0 54.71042894092173
1280.0 54.43755909640802
1320.0 54.23715090694493
1360.0 53.98415554519916
1400.0 53.60425815197141
1450.0 53.19744797534349
1500.0 52.95761298557369
1550.0 53.06163737659695
1600.0 53.56978051851344
1650.0 54.18112503708663
1700.0 54.64087393587815
1750.0 54.72771871995994
1800.0 54.566557896698626
1850.0 54.601708196070774
1900.0 54.81787819532764
1950.0 54.50530115919028
2000.0 53.571881492092714
2060.0 52.64653054299771
2120.0 52.07585939417899
2180.0 51.60084049938169
2240.0 51.14784942007154
2300.0 50.87878083551524
2360.0 50.802272093661855
2400.0 50.72488991770254
2500.0 50.58107134841069
2580.0 50.33342659583944
2650.0 49.91837290867788
2720.0 49.33304686040586
2800.0 48.63956790191715
2900.0 48.110240077265374
3000.0 47.7941619499789
3070.0 47.635146207628
3150.0 47.46588584087506
3250.0 46.99951537626666
3350.0 46.26341007859986
3450.0 45.536031179774454
3550.0 45.14559436312538
3650.0 45.11586891123471
3750.0 45.39697829484743
3870.0 45.75283622961757
4000.0 46.06964742312326
4120.0 46.50880383351114
4250.0 46.85930309896224
4370.0 46.62955469636111
4500.0 45.738992100177526
4620.0 44.898167170400015
4750.0 44.611886728753106
4870.0 44.95805476537595
5000.0 45.83602729276774
5150.0 46.773207028423755
5300.0 47.46471557947949
5450.0 47.723420157314465
5600.0 47.513803916336315
5800.0 46.93061680279209
6000.0 46.297928316900254
6150.0 45.94171616172481
6300.0 45.93354755998621
6500.0 45.65762640663252
6700.0 44.91153227033092
6900.0 43.78855476337033
7100.0 42.39451570089312
7300.0 40.989295563100114
7500.0 39.94786248534203
7750.0 39.72690518938569
8000.0 40.42756846028928
8250.0 41.23071538642563
8500.0 41.65344466932004
8750.0 41.540790626927475
9000.0 40.859514312611935
9250.0 39.799898798064504
9500.0 38.57776152814546
9750.0 37.50352125962809
10000.0 36.72770644416309
10300.0 36.392398802898185
10600.0 36.18763636659142
10900.0 35.68923744147497
11200.0 34.52470792393112
11500.0 32.395496132679
11800.0 29.42261551181946
12200.0 26.31345575513504
12500.0 23.691795544003668
12800.0 22.503863908877804
13200.0 23.023180486673
13600.0 24.626729992480904
14000.0 26.347844388498515
14500.0 27.53253807990444
15000.0 27.966462452322645
15500.0 28.461664648143312
16000.0 29.062455834148608
16500.0 29.064736188624153
17000.0 28.27155382388355
17500.0 26.927895908878895
18000.0 25.197146319663403
18500.0 23.548955624247753
19000.0 22.188228483299213
19500.0 21.28687385855207
