Freq "Side Wall Bounce"
22.4 -12.488122620875615
23.0 -12.284046381220136
23.6 -12.168437914498597
24.0 -12.218352892037089
25.0 -12.156320962460612
25.8 -11.803152138266356
26.5 -10.924527347065904
27.2 -9.312139366953502
28.0 -7.08680416887897
29.0 -4.539820634588537
30.0 -1.9210367897775456
30.7 0.6481132100568487
31.5 3.0785938895710245
32.5 5.425278902969424
33.5 7.756585442737375
34.5 10.171772313245683
35.5 12.625751787520002
36.5 15.232404224211038
37.5 17.78244737176051
38.7 20.171445505236036
40.0 22.311737848159098
41.2 24.076552108760765
42.5 25.42281440301376
43.7 26.533826590637673
45.0 27.59863847453552
46.2 28.66163643475481
47.5 29.836499586455787
48.7 31.044599907684912
50.0 32.31789878840617
51.5 33.610507858725626
53.0 34.95611328101391
54.5 36.296831098907816
56.0 37.60850878751553
58.0 38.9380138137969
60.0 40.18975996636574
61.5 41.41605230115384
63.0 42.63980582501557
65.0 43.83810527416493
67.0 45.01219189276587
69.0 46.14100325732208
71.0 47.30060148757549
73.0 48.40247351133122
75.0 49.559398367548525
77.5 50.69880476635373
80.0 51.8960694463355
82.5 53.07481278542649
85.0 54.29376283995269
87.5 55.48665990791213
90.0 56.67820276554866
92.5 57.81723820958014
95.0 58.85324761459124
97.5 59.79750024828297
100.0 60.61355068287013
103.0 61.250426471623925
106.0 61.78783984104376
109.0 62.28395221023345
112.0 62.717960150133976
115.0 63.135473435175626
118.0 63.55042740568588
122.0 63.92620662747885
125.0 64.28526041028545
128.0 64.6243307826688
132.0 64.94350190783176
136.0 65.18294805437282
140.0 65.4023023206405
145.0 65.58156054014522
150.0 65.66119474234183
155.0 65.68203378418833
160.0 65.7023023206405
165.0 65.68249620606592
170.0 65.70371538515211
175.0 65.7243518745249
180.0 65.76676893811317
185.0 65.80788904404942
190.0 65.88943152887123
195.0 65.88943152887123
200.0 65.80920611180407
206.0 65.7092061118041
212.0 65.60920611180408
218.0 65.58751894170378
224.0 65.58751894170378
230.0 65.58751894170378
236.0 65.5284439705029
240.0 65.48751894170378
250.0 65.45034056676339
258.0 65.39117509502738
265.0 65.39117509502738
272.0 65.35444294255579
280.0 65.39805014496486
290.0 65.39805014496486
300.0 65.34222438693197
307.0 65.3067529730592
315.0 65.2298846540872
325.0 65.15186081633901
335.0 65.01727719026057
345.0 64.88105361978093
355.0 64.72456733754284
365.0 64.5909352577473
375.0 64.43115478131904
387.0 64.27516879937907
400.0 64.11715136362974
412.0 63.964298499383176
425.0 63.78932256876641
437.0 63.66311016037558
450.0 63.48931717578071
462.0 63.371798733806244
475.0 63.250050320931976
487.0 63.171699720067394
500.0 63.12429083529848
515.0 63.13859757224324
530.0 63.16892926244434
545.0 63.17785625483286
560.0 63.23696534995432
580.0 63.27537582590254
600.0 63.338464421008595
615.0 63.38636162629517
630.0 63.46755709940281
650.0 63.6120985869881
670.0 63.76182599154636
690.0 63.89482458951936
710.0 63.99482458951938
730.0 64.01503365753432
750.0 63.98163165386811
775.0 63.89849845836966
800.0 63.824493429951985
825.0 63.7810598676064
850.0 63.790934395698486
875.0 63.738218897605336
900.0 63.63259743585415
925.0 63.476049188411466
950.0 63.35657730766248
975.0 63.36570496170046
1000.0 63.41870402718148
1030.0 63.26419491288436
1060.0 62.9129538134591
1090.0 62.57076384484361
1120.0 62.38029353717221
1150.0 62.16854625481041
1180.0 61.7929541864668
1220.0 61.32872637520589
1250.0 60.85050055612943
1280.0 60.63989742630673
1320.0 60.75332992878775
1360.0 60.87454348702728
1400.0 60.94204184878532
1450.0 60.81276438980336
1500.0 60.63281452149343
1550.0 60.57182485978659
1600.0 60.61452821860375
1650.0 60.79759466763845
1700.0 61.09828595102893
1750.0 61.37917471642548
1800.0 61.616281914306384
1850.0 61.69445482450476
1900.0 61.644889075950616
1950.0 61.325276667310945
2000.0 60.76439920565274
2060.0 60.334353393656315
2120.0 59.94050842816149
2180.0 59.5760375632219
2240.0 59.23504974148085
2300.0 58.940707760517355
2360.0 58.794835166938626
2400.0 58.73766112533613
2500.0 58.732752253999834
2580.0 58.81276438980335
2650.0 58.88681033183869
2720.0 58.834939451842544
2800.0 58.70546865898558
2900.0 58.57043639651994
3000.0 58.478804451163626
3070.0 58.48694886242376
3150.0 58.44793863772952
3250.0 58.20650509302594
3350.0 57.728643996909355
3450.0 57.106941866330416
3550.0 56.415657870530524
3650.0 55.85964947383988
3750.0 55.54630554735303
3870.0 55.69874072295957
4000.0 56.26552709124273
4120.0 57.04138374233989
4250.0 57.6533948058091
4370.0 57.77145648308304
4500.0 57.434589505410585
4620.0 57.23361628683237
4750.0 57.32961879804043
4870.0 57.79868954288936
5000.0 58.38710527463125
5150.0 58.89030041150028
5300.0 59.274689281605035
5450.0 59.42247708702631
5600.0 59.26746711576355
5800.0 58.81370775183733
6000.0 58.171690535963336
6150.0 57.62703986451304
6300.0 57.21796531145547
6500.0 56.944304648714706
6700.0 56.73443323935798
6900.0 56.54268027351121
7100.0 56.238590971645024
7300.0 55.78686142376536
7500.0 55.255608221221436
7750.0 54.78812690582404
8000.0 54.50638440282552
8250.0 54.56970007182986
8500.0 54.836025437390305
8750.0 55.29469383908153
9000.0 55.560471074677494
9250.0 55.7189387680411
9500.0 55.640799606473834
9750.0 55.52399175491736
10000.0 55.37920611152782
10300.0 55.381207601935955
10600.0 55.51064834093093
10900.0 55.37495278876247
11200.0 54.77558430025256
11500.0 53.65981574993084
11800.0 51.99062640322889
12200.0 50.10933465754266
12500.0 48.186910966176754
12800.0 46.2358558762631
13200.0 44.503024134125695
13600.0 43.36864879756055
14000.0 42.968684691675676
14500.0 42.395940812105565
15000.0 41.67681697297492
15500.0 41.59167165883839
16000.0 42.15188054837462
16500.0 42.56435618889509
17000.0 42.35347620544387
17500.0 41.855111976191566
18000.0 41.159634824953926
18500.0 40.537479494932725
19000.0 40.10056854388269
19500.0 40.02808205087943
