Freq "Sound Power DI"
20.0 38.689698279578124
20.2909 38.70922395976348
20.586 38.72105668957272
20.8855 38.75342831273525
21.1893 38.74717219710669
21.4975 38.78036741835453
21.8102 38.80051151016946
22.1274 38.81630703532812
22.4492 38.82961418683797
22.7758 38.83260823677361
23.1071 38.87269200884154
23.4432 38.901307596022036
23.7841 38.917330099491664
24.1301 38.93616182131478
24.4811 38.95751933966477
24.8372 38.97364217529005
25.1984 39.00529582171367
25.5649 39.02236521418553
25.9368 39.05293025574545
26.3141 39.083334246372715
26.6968 39.10920443748785
27.0851 39.14968390377473
27.4791 39.18171426887454
27.8788 39.21007167322213
28.2843 39.24083325697839
28.6957 39.25145623920031
29.1131 39.273460726277676
29.5365 39.30349300849835
29.9661 39.33308309258979
30.402 39.36352917830203
30.8442 39.386050713605414
31.2929 39.420564281633915
31.748 39.453598078173314
32.2098 39.485012135764705
32.6783 39.5151455786057
33.1536 39.54147366690553
33.6359 39.566585691262006
34.1251 39.6005957420019
34.6215 39.63957212939496
35.125 39.676624598679766
35.6359 39.70446743667583
36.1543 39.74076863975213
36.6802 39.755133269989855
37.2137 39.78839545820604
37.755 39.82381492367237
38.3041 39.85293455379187
38.8613 39.88526999337746
39.4265 39.88509868593509
40.0 39.90659189577366
40.5818 39.94670926332924
41.1721 39.95628965451242
41.771 39.991760838104625
42.3785 40.00207144479825
42.9949 40.0533155998983
43.6203 40.07228391071638
44.2548 40.08152325800319
44.8985 40.10060002956814
45.5515 40.14526398771832
46.2141 40.16954651680014
46.8863 40.164123418968856
47.5683 40.19489546495757
48.2602 40.225304075457174
48.9621 40.21782262281265
49.6743 40.25791181809542
50.3968 40.285135681889045
51.1299 40.28661717321609
51.8736 40.31891376388113
52.6281 40.32066454358737
53.3936 40.3544875525662
54.1702 40.357202002529775
54.9581 40.34666276005676
55.7575 40.37728290866005
56.5685 40.38980250727896
57.3914 40.38725343543655
58.2261 40.40662277639562
59.073 40.4083589116872
59.9323 40.42850366674736
60.804 40.41957445439054
61.6884 40.43864313058941
62.5857 40.45725480645072
63.496 40.4561245205968
64.4196 40.45682977418784
65.3566 40.457403048927674
66.3073 40.46460503192348
67.2717 40.462259627722176
68.2502 40.46833802117105
69.2429 40.47455225933791
70.2501 40.45830660269516
71.2719 40.4794938085187
72.3086 40.46389695220411
73.3603 40.45137560302503
74.4274 40.44919120667683
75.5099 40.435043474382326
76.6083 40.4391640927097
77.7226 40.43894853966158
78.8531 40.42536609543578
80.0 40.426686203585376
81.1636 40.419802892347136
82.3442 40.401377890902324
83.5419 40.38722271669674
84.757 40.38376099271872
85.9899 40.36725239642148
87.2406 40.3675959516892
88.5096 40.337823351644516
89.797 40.32128958950068
91.1031 40.331953002014714
92.4282 40.300356852207344
93.7726 40.274883888184505
95.1366 40.255166654640234
96.5204 40.26448412777658
97.9243 40.24051474056235
99.3486 40.21873065186578
100.794 40.19418829629244
102.26 40.17375009307065
103.747 40.13914478673831
105.256 40.11070489651641
106.787 40.098214878882345
108.34 40.10926551993688
109.916 40.05266243089817
111.515 40.04363788967024
113.137 40.01577026546727
114.783 40.0011134476637
116.452 39.98784714803709
118.146 39.95662535953812
119.865 39.95067692260275
121.608 39.93593222426675
123.377 39.92568115383607
125.171 39.91440043096878
126.992 39.89661823399861
128.839 39.91411940738328
130.713 39.89741880653909
132.615 39.89469560441141
134.543 39.92955869563727
136.5 39.94631162605192
138.486 39.96444253243618
140.5 39.999554261589196
142.544 40.0273032678556
144.617 40.06461659046762
146.721 40.11253453142332
148.855 40.14564705728202
151.02 40.208847762386696
153.217 40.266787634067185
155.445 40.30900764593649
157.706 40.365863341795006
160.0 40.42028285529011
162.327 40.46538987684629
164.688 40.515766414354346
167.084 40.55748548720007
169.514 40.59785689174139
171.98 40.62827014434305
174.481 40.649684302789254
177.019 40.67311389386731
179.594 40.69006243958074
182.206 40.70684529471946
184.856 40.72021727779051
187.545 40.7058435633912
190.273 40.72029457340784
193.041 40.710387148515466
195.849 40.704293095893874
198.697 40.70371147686318
201.587 40.686808378471014
204.52 40.69473275945708
207.494 40.6957175565088
210.512 40.667891524650386
213.574 40.6906117283756
216.681 40.70241787926801
219.833 40.69511473117862
223.03 40.717353252858274
226.274 40.743346552330394
229.565 40.777110141972614
232.905 40.815883250127825
236.292 40.862553075582554
239.729 40.939857175487816
243.216 40.998024164692794
246.754 41.07270524486904
250.343 41.141331010903045
253.984 41.22469793770165
257.678 41.30709044913213
261.426 41.391003417845454
265.229 41.46498119359231
269.087 41.531016094978256
273.001 41.58259012018438
276.972 41.618655258232764
281.0 41.64851453158272
285.088 41.67265399895088
289.234 41.683031905531735
293.441 41.69151387340577
297.709 41.694295906863104
302.04 41.691760312252214
306.433 41.69906270466443
310.89 41.7097921318325
315.412 41.72864167074404
320.0 41.726327912649154
324.655 41.765169002612865
329.377 41.78657393953958
334.168 41.82307315788053
339.028 41.85582365421405
343.959 41.8975722896506
348.962 41.93665034424832
354.038 41.96030761759599
359.188 41.98474338169332
364.412 41.982296861658185
369.713 41.99565413231113
375.09 42.01897610482618
380.546 42.009312643049554
386.081 42.02939957550652
391.697 42.03892964091742
397.394 42.07388818796426
403.175 42.11096241360468
409.039 42.16099950889428
414.989 42.2313687038105
421.025 42.29814775086969
427.149 42.363752760504866
433.362 42.4296985144736
439.665 42.4975471145743
446.06 42.5447061176214
452.548 42.578558407995544
459.131 42.59136720716921
465.809 42.60699985151808
472.584 42.62652339865811
479.458 42.64916024228887
486.432 42.655933591171674
493.507 42.7077800910847
500.686 42.72746104156009
507.968 42.76835110014035
515.357 42.79133630776279
522.853 42.81645946365552
530.458 42.82664042705176
538.174 42.841983659933405
546.002 42.8495594815779
553.943 42.868154504133855
562.001 42.87322814487548
570.175 42.87362218559463
578.469 42.912598379155
586.883 42.965431283203344
595.419 42.99138921384332
604.08 43.03449652632743
612.866 43.0821362630402
621.78 43.121140399617786
630.824 43.163335540424725
640.0 43.20337059266143
649.309 43.24463574550275
658.753 43.284413073236664
668.335 43.333082512189804
678.056 43.40769326654217
687.919 43.47990899973411
697.925 43.56579679443419
708.077 43.65123031488076
718.376 43.71893327562738
728.825 43.7869458461266
739.426 43.84657266251939
750.181 43.90992481338195
761.093 44.00913715886102
772.163 44.15871516206933
783.394 44.35246078923302
794.789 44.57029547113301
806.349 44.77034727447736
818.078 44.92904516947583
829.977 45.05325671700922
842.05 45.1532295381476
854.298 45.23216935812155
866.724 45.326523384341556
879.33 45.40746377049922
892.12 45.4732862287147
905.097 45.51527305595377
918.262 45.51271020403448
931.618 45.50118200612549
945.169 45.48820139877387
958.917 45.48614003489256
972.864 45.49060124595522
987.015 45.47841143206992
1001.37 45.4170393576607
1015.94 45.30583180286911
1030.71 45.136774355980236
1045.71 44.948791651243226
1060.92 44.77304449321457
1076.35 44.628394648288335
1092.0 44.53913180504679
1107.89 44.49875624641477
1124.0 44.48547207291344
1140.35 44.496352987641615
1156.94 44.55881827163154
1173.77 44.71361871531397
1190.84 44.952016439136784
1208.16 45.20312172912264
1225.73 45.41252590739984
1243.56 45.51898647990747
1261.65 45.59721397358109
1280.0 45.73466365093846
1298.62 45.94712351763316
1317.51 46.2012309894763
1336.67 46.39643870045025
1356.11 46.50864415729221
1375.84 46.540478185141595
1395.85 46.548591334929526
1416.15 46.579073188466495
1436.75 46.65154030571141
1457.65 46.71704265641698
1478.85 46.695209581586695
1500.36 46.54923373851388
1522.19 46.38837926311494
1544.33 46.31252335666163
1566.79 46.382992692504544
1589.58 46.535622689461945
1612.7 46.71129746035017
1636.16 46.835521826173576
1659.95 46.92803390119819
1684.1 47.042247839733534
1708.6 47.143748636975346
1733.45 47.170381533268554
1758.66 47.191893009373416
1784.24 47.252040920957555
1810.19 47.30089033323094
1836.52 47.29226651408784
1863.24 47.2842098227523
1890.34 47.305739955748464
1917.83 47.320590196896916
1945.73 47.329982955438965
1974.03 47.35518025812263
2002.74 47.41612122426375
2031.87 47.448070712443425
2061.43 47.3510417989438
2091.41 47.22021351183389
2121.83 47.18855554663216
2152.69 47.20870621025303
2184.01 47.16131778065878
2215.77 47.025219563634494
2248.0 46.884675302296685
2280.7 46.655738419861336
2313.87 46.42694416044104
2347.53 46.42928709383931
2381.68 46.58662598065321
2416.32 46.65092144412033
2451.46 46.627702334449225
2487.12 46.620747423079465
2523.3 46.50828271995566
2560.0 46.33062564976524
2597.24 46.34118478645118
2635.01 46.33430497635517
2673.34 46.260960728074025
2712.23 46.21983679481458
2751.68 46.09155749898717
2791.7 45.8684242030906
2832.31 45.92708070935893
2873.5 46.05437585312026
2915.3 46.00146023229293
2957.7 45.855097578333115
3000.72 45.81412223633856
3044.37 45.79040462623324
3088.65 45.83595948629247
3133.58 45.83299923522014
3179.16 45.7876228059483
3225.4 45.69775488615585
3272.31 45.66590122692952
3319.91 45.69800368192256
3368.2 45.68607332489556
3417.19 45.716187481621205
3466.89 45.68759468873547
3517.32 45.63825953653132
3568.48 45.52142557767522
3620.39 45.46205327412217
3673.05 45.37018796265953
3726.47 45.290400400296505
3780.67 45.19001345104415
3835.67 45.067477483438864
3891.46 44.960375311134186
3948.06 44.8774044780634
4005.49 44.78482078328042
4063.75 44.709012298914985
4122.86 44.648747495729324
4182.82 44.60375256117554
4243.66 44.560287247441025
4305.39 44.5116805181341
4368.01 44.50502483141618
4431.55 44.54574786223655
4496.01 44.48751575376319
4561.4 44.56262571022957
4627.75 44.66524765856067
4695.06 44.67057077921274
4763.35 44.67570054067825
4832.64 44.67033746224628
4902.93 44.65130778469451
4974.24 44.71140098574486
5046.6 44.788578373244775
5120.0 44.884465755382976
5194.47 44.994251351576736
5270.03 45.09636435689967
5346.68 45.23409379398866
5424.45 45.32025864471602
5503.35 45.30519517425556
5583.4 45.26379587667613
5664.61 45.25838334732245
5747.01 45.292475205099265
5830.6 45.313185636998696
5915.41 45.36462372020233
6001.45 45.43055431388541
6088.74 45.46077815376661
6177.3 45.48306757459835
6267.15 45.53109087699568
6358.31 45.547231504936335
6450.8 45.64464457530201
6544.62 45.73878474378628
6639.82 45.84559674901011
6736.4 45.97160197816906
6834.38 46.06608683511267
6933.79 46.149930027952024
7034.64 46.220575359457314
7136.96 46.285414165776345
7240.77 46.33570472245131
7346.09 46.363748755810164
7452.94 46.3884951279784
7561.35 46.408806884360956
7671.33 46.457294966522056
7782.91 46.51508408085462
7896.12 46.50478183067959
8010.97 46.54108431689252
8127.49 46.59520231067765
8245.71 46.68401571341825
8365.65 46.824054095853626
8487.33 47.02588902858204
8610.78 47.213310897079
8736.03 47.36792617255753
8863.09 47.52061959698274
8992.01 47.666755755519574
9122.8 47.815646893023455
9255.5 47.968227378302515
9390.12 48.11253573915705
9526.7 48.22108365046158
9665.27 48.301887639631204
9805.86 48.366245976778146
9948.49 48.383570975531086
10093.2 48.383653258772895
10240.0 48.379372778106344
10388.9 48.38997493456057
10540.1 48.41525320143329
10693.4 48.444354476330304
10848.9 48.437465269548156
11006.7 48.43644412402858
11166.8 48.47859935239646
11329.2 48.481385221200654
11494.0 48.42532833413418
11661.2 48.37492114640638
11830.8 48.347176577630236
12002.9 48.30682483570055
12177.5 48.17407439063628
12354.6 48.0038569562052
12534.3 47.85433354109408
12716.6 47.748982377145566
12901.6 47.765132876187764
13089.2 47.85840461737463
13279.6 47.953677617912106
13472.8 48.06259535599743
13668.8 48.22952096378836
13867.6 48.47103453237541
14069.3 48.71927118345188
14273.9 48.944537454344214
14481.5 49.1633070562756
14692.2 49.3883791808511
14905.9 49.59434521739041
15122.7 49.7759072724904
15342.7 49.95868886258339
15565.8 50.13021864456503
15792.2 50.32162529134166
16021.9 50.53334761574371
16255.0 50.71976307743692
16491.4 50.890139197092
16731.3 51.065083619447265
16974.7 51.23066778272758
17221.6 51.37861440011568
17472.1 51.519250624679714
17726.2 51.656452844831534
17984.0 51.77567941139657
18245.6 51.8857516837371
18511.0 51.98687637322726
18780.2 52.040754739771174
19053.4 52.05848281430376
19330.5 52.07017231605934
19611.7 52.08834181044723
19897.0 52.111481157338346
