Freq "Ceiling Bounce"
20.0 66.98894808906991
20.2909 67.07094808906992
20.586 67.15224836693942
20.8855 67.21224836693942
21.1893 67.27259469764319
21.4975 67.3329480890699
21.8102 67.3929480890699
22.1274 67.45294808906989
22.4492 67.5129480890699
22.7758 67.5729480890699
23.1071 67.6329480890699
23.4432 67.69424836693942
23.7841 67.81394808906991
24.1301 67.93294808906991
24.4811 68.0525946976432
24.8372 68.1719480890699
25.1984 68.29124836693943
25.5649 68.41094808906992
25.9368 68.53024836693943
26.3141 68.64994808906991
26.6968 68.8059480890699
27.0851 68.96824836693942
27.4791 69.1309480890699
27.8788 69.2929480890699
28.2843 69.45494808906992
28.6957 69.61724836693942
29.1131 69.7799480890699
29.5365 69.95924836693942
29.9661 70.15224836693942
30.402 70.34594808906989
30.8442 70.5389480890699
31.2929 70.7319480890699
31.748 70.9249480890699
32.2098 71.11794808906991
32.6783 71.3289480890699
33.1536 71.5409480890699
33.6359 71.75224836693943
34.1251 71.96394808906992
34.6215 72.1759480890699
35.125 72.3872483669394
35.6359 72.60594808906991
36.1543 72.82524836693942
36.6802 73.04424836693941
37.2137 73.26359469764319
37.755 73.48294808906991
38.3041 73.73512324411534
38.8613 74.03929334352237
39.4265 74.34313659352246
40.0 74.64699919613683
40.5818 74.95153653473123
41.1721 75.24462663092724
41.771 75.50735868521485
42.3785 75.77005883252906
42.9949 76.03281824415625
43.6203 76.29588851476824
44.2548 76.53716371363952
44.8985 76.75558384355645
45.5515 76.97368472666146
46.2141 77.19178040376575
46.8863 77.40992147659256
47.5683 77.58313430833606
48.2602 77.75643524116575
48.9621 77.93006438626583
49.6743 78.10302453318694
50.3968 78.24228561082695
51.1299 78.37354151991987
51.8736 78.50480255287889
52.6281 78.63614976347152
53.3936 78.73645276372932
54.1702 78.83212873981567
54.9581 78.9271590705744
55.7575 79.01890403580218
56.5685 79.086733523351
57.3914 79.15494537332042
58.2261 79.22249183685572
59.073 79.28047418771811
59.9323 79.33056215652712
60.804 79.38062336289303
61.6884 79.42879048044331
62.5857 79.46911227140895
63.496 79.50945314052737
64.4196 79.55013216332907
65.3566 79.58634658343149
66.3073 79.62190965119325
67.2717 79.65818194617626
68.2502 79.69151280033218
69.2429 79.72388266042095
70.2501 79.75698359606508
71.2719 79.78675600975109
72.3086 79.81590566943323
73.3603 79.84473824282685
74.4274 79.87063008138219
75.5099 79.89620030546587
76.6083 79.92060863089937
77.7226 79.94305580590002
78.8531 79.96560479202806
80.0 79.98667675920527
81.1636 80.0075807938198
82.3442 80.02823570179999
83.5419 80.04692567548459
84.757 80.06639292923545
85.9899 80.08175564483236
87.2406 80.09634795664705
88.5096 80.10588409983774
89.797 80.11036241321212
91.1031 80.11159078979004
92.4282 80.10039021969459
93.7726 80.08885560919424
95.1366 80.05895178481778
96.5204 80.0297652899975
97.9243 79.98557556283691
99.3486 79.94032021144686
100.794 79.89609819734474
102.26 79.85288227322577
103.747 79.81422469453858
105.256 79.7766272651467
106.787 79.74869400308448
108.34 79.7218673694341
109.916 79.70550201543877
111.515 79.69061450148914
113.137 79.6800328035722
114.783 79.6691914839631
116.452 79.65567349404908
118.146 79.63584058173673
119.865 79.61144703104908
121.608 79.57481667681508
123.377 79.53581414019807
125.171 79.4913432147186
126.992 79.45004622429485
128.839 79.41237880703822
130.713 79.39014287320131
132.615 79.37779087582938
134.543 79.3769901836997
136.5 79.38692459993884
138.486 79.39857718704077
140.5 79.41124275863635
142.544 79.41535909335555
144.617 79.41599555595455
146.721 79.41261089078054
148.855 79.41215029574938
151.02 79.42517034245124
153.217 79.45412786495156
155.445 79.50139711919975
157.706 79.57255872365835
160.0 79.65168134922577
162.327 79.73057833274709
164.688 79.8028463790748
167.084 79.86130479814433
169.514 79.90264006378467
171.98 79.93438554115549
174.481 79.96031861028936
177.019 79.98376621623385
179.594 80.00457214419238
182.206 80.02313426090767
184.856 80.04239122794897
187.545 80.07226010814476
190.273 80.13129748629827
193.041 80.23421485677086
195.849 80.37876284560568
198.697 80.54558202737535
201.587 80.69790499161198
204.52 80.79716862732674
207.494 80.82031027123328
210.512 80.7697050035459
213.574 80.67517635621782
216.681 80.58608635315154
219.833 80.54965020121124
223.03 80.58849298444876
226.274 80.68382856829619
229.565 80.80036113715629
232.905 80.90533956282276
236.292 80.98055547030394
239.729 81.02392798080763
243.216 81.04187028563715
246.754 81.03952723362436
250.343 81.02719311949683
253.984 81.01766995101079
257.678 81.02857552234506
261.426 81.08435492764785
265.229 81.18457889602965
269.087 81.31399738696514
273.001 81.45005406832932
276.972 81.57461037619218
281.0 81.68577382674988
285.088 81.79032970399886
289.234 81.88705310994015
293.441 81.96000226281906
297.709 81.98805109223386
302.04 81.96681926391493
306.433 81.92728465979695
310.89 81.90883143854559
315.412 81.90001722510978
320.0 81.89239534706925
324.655 81.87462774908953
329.377 81.84531773304059
334.168 81.81272467239044
339.028 81.78524152491921
343.959 81.7650066822375
348.962 81.75097246673361
354.038 81.73939210878653
359.188 81.71603188287781
364.412 81.66161040994136
369.713 81.56421462015096
375.09 81.43731750609875
380.546 81.31550329002921
386.081 81.2268121923634
391.697 81.17539825477796
397.394 81.15371622264546
403.175 81.1549584043597
409.039 81.17214101342152
414.989 81.19593227480762
421.025 81.22117744354476
427.149 81.26311288880214
433.362 81.34873058962494
439.665 81.48959231150286
446.06 81.65515402032797
452.548 81.80828776919991
459.131 81.93087033317693
465.809 82.0217895683504
472.584 82.07730632032273
479.458 82.09941093633545
486.432 82.08777157167837
493.507 82.04858069699942
500.686 81.99915005634571
507.968 81.95785648852079
515.357 81.94756211277505
522.853 81.94411276660331
530.458 81.93510413616292
538.174 81.90109551036382
546.002 81.8347331629896
553.943 81.75396307409258
562.001 81.70040925359534
570.175 81.7169268041941
578.469 81.81174233159523
586.883 81.95508125555511
595.419 82.10309812651629
604.08 82.21949503811955
612.866 82.29593726748512
621.78 82.35942642309583
630.824 82.44706522911598
640.0 82.56389634931652
649.309 82.66895201440454
658.753 82.70495057151462
668.335 82.62923027146915
678.056 82.44081743675416
687.919 82.18464168406982
697.925 81.93520939721323
708.077 81.77347246583086
718.376 81.7782645506368
728.825 81.89812819984245
739.426 82.09434555948566
750.181 82.28446173555048
761.093 82.40645354559416
772.163 82.4376504135444
783.394 82.38337730694134
794.789 82.26643876788536
806.349 82.1371173974689
818.078 82.06849388709999
829.977 82.09783803803982
842.05 82.1556956010211
854.298 82.11017318022732
866.724 81.91391042526881
879.33 81.68878387281487
892.12 81.60097527332445
905.097 81.63636055643121
918.262 81.59049359900133
931.618 81.39240941894356
945.169 81.0857119873227
958.917 80.80824393593109
972.864 80.6031310427574
987.015 80.39258444594678
1001.37 80.14307760263772
1015.94 79.98111063281083
1030.71 80.02783870787145
1045.71 80.15189506505946
1060.92 80.09552381339923
1076.35 79.87235622836292
1092.0 79.76077256206445
1107.89 79.79826815948995
1124.0 79.70800379644383
1140.35 79.48528888666307
1156.94 79.49822285227086
1173.77 79.849217798867
1190.84 80.24485588539476
1208.16 80.50137456764269
1225.73 80.84744362887376
1243.56 81.14405194395741
1261.65 81.04107480062343
1280.0 80.83440384592363
1298.62 81.05560782167926
1317.51 81.4428660543997
1336.67 81.66833086251913
1356.11 81.68226352207138
1375.84 81.46506602458088
1395.85 81.46277019051907
1416.15 81.80373073305681
1436.75 82.12194545230936
1457.65 82.2444881178305
1478.85 82.27004537356413
1500.36 82.30919754672368
1522.19 82.4142441273073
1544.33 82.45503864440239
1566.79 82.50578151257699
1589.58 82.63678511635987
1612.7 82.70303940510877
1636.16 82.44912376767344
1659.95 82.06964077687569
1684.1 82.04797440355341
1708.6 82.3033144573677
1733.45 82.55904258589227
1758.66 82.70971623124119
1784.24 82.82276432656919
1810.19 82.93748425236521
1836.52 82.70425325425681
1863.24 82.39268568365752
1890.34 82.24712906954153
1917.83 81.83577884718427
1945.73 81.19486245748472
1974.03 80.50012240398755
2002.74 79.7249528215195
2031.87 78.88113945402847
2061.43 78.12530444503504
2091.41 77.67669325513741
2121.83 77.11527963336435
2152.69 76.39354447953234
2184.01 76.02013099024845
2215.77 75.74092933024545
2248.0 75.13110501656418
2280.7 74.55098689325466
2313.87 74.20293466442797
2347.53 73.72573952579238
2381.68 73.49351529409974
2416.32 73.70530148665661
2451.46 74.11139954051451
2487.12 74.19378079413141
2523.3 74.36964217696925
2560.0 74.9245088682766
2597.24 75.26231347748148
2635.01 75.4698951435531
2673.34 75.90227587664937
2712.23 76.37943719455868
2751.68 76.63871083697329
2791.7 76.75403144117467
2832.31 77.16362265906021
2873.5 77.69362628349747
2915.3 78.01413698346731
2957.7 78.20538155417528
3000.72 78.19305672535405
3044.37 78.15258031198579
3088.65 78.39336688092216
3133.58 78.79590021502811
3179.16 79.04629803154319
3225.4 79.15623327615384
3272.31 79.16163180301767
3319.91 79.12941834403375
3368.2 78.96799117395416
3417.19 78.60227279298667
3466.89 78.23640929175242
3517.32 78.01869373028497
3568.48 77.89275834358672
3620.39 77.60655359478653
3673.05 76.92584824869036
3726.47 76.20777942069525
3780.67 75.67029701407778
3835.67 75.23206707189026
3891.46 75.37423109646893
3948.06 75.92506893969468
4005.49 75.94344159379736
4063.75 75.37238833685532
4122.86 75.5069262671025
4182.82 75.94469286740306
4243.66 75.51359071146219
4305.39 75.11488893803748
4368.01 75.11381778633647
4431.55 74.8111083172678
4496.01 74.20248312401195
4561.4 73.91022992747828
4627.75 73.3271520712709
4695.06 72.76630672607183
4763.35 73.18023543245751
4832.64 73.04699620691572
4902.93 72.81426374995397
4974.24 72.94610780177207
5046.6 72.61266654121609
5120.0 72.85127651544192
5194.47 73.20966569291355
5270.03 72.89173111961823
5346.68 73.08118850219391
5424.45 72.95417552194819
5503.35 72.38059481181286
5583.4 72.43431097805815
5664.61 72.39659507698586
5747.01 72.07608437924759
5830.6 71.55142874107939
5915.41 71.17859485675926
6001.45 71.0329713934657
6088.74 70.49788042279759
6177.3 70.43126848058874
6267.15 70.14608567509846
6358.31 69.57562540267267
6450.8 69.69638649633012
6544.62 70.03578686006306
6639.82 70.25840838928254
6736.4 70.10079473278823
6834.38 70.01500820019544
6933.79 70.04696074097917
7034.64 69.885669175691
7136.96 69.42381194974955
7240.77 68.94676646231873
7346.09 68.6297616298957
7452.94 68.36388585794164
7561.35 68.45304469885917
7671.33 68.69750977682016
7782.91 69.59689616476065
7896.12 70.637655295722
8010.97 71.72719364949643
8127.49 72.55840023794939
8245.71 72.78485972274244
8365.65 72.98430970508142
8487.33 73.09470946381964
8610.78 73.31305739862107
8736.03 73.64551755049636
8863.09 73.6467125152422
8992.01 73.35309571744722
9122.8 72.86249227803661
9255.5 72.12349632828354
9390.12 71.77292695257897
9526.7 71.98604540145693
9665.27 72.23274682101729
9805.86 72.3659378972337
9948.49 72.40473087040709
10093.2 72.33459100746299
10240.0 72.19689920249144
10388.9 71.8566314650387
10540.1 71.1986375077734
10693.4 70.62197937408335
10848.9 70.1754125755947
11006.7 69.71114343653831
11166.8 69.43324210244452
11329.2 69.331886344314
11494.0 69.06533821431499
11661.2 68.55004698437395
11830.8 68.21053000145072
12002.9 68.39790588797571
12177.5 68.87666283176667
12354.6 69.21588458740491
12534.3 69.27482078637242
12716.6 69.16243788048803
12901.6 68.97392822797498
13089.2 68.7963780496954
13279.6 68.80296256535068
13472.8 69.12861746537179
13668.8 69.78687035600089
13867.6 70.19815906609351
14069.3 69.82072513671282
14273.9 68.78423401624356
14481.5 68.05736099963646
14692.2 68.07870509659861
14905.9 67.86613592537374
15122.7 67.17174436616821
15342.7 66.97754873707126
15565.8 67.26332184649756
15792.2 67.31660603178959
16021.9 67.0629952792756
16255.0 66.78946041082507
16491.4 67.02275313850289
16731.3 67.68946043714915
16974.7 68.19863514860508
17221.6 68.36820320426821
17472.1 68.25786563922838
17726.2 67.64186256431502
17984.0 66.58767460163192
18245.6 65.55486179791913
18511.0 65.04370607157081
18780.2 65.15177290581336
19053.4 65.44464842597876
19330.5 65.56144283858488
19611.7 65.47473880375854
19897.0 64.86660377709795
