Freq "Floor Bounce"
20.0 68.95268762720848
20.2909 69.03468762720847
20.586 69.11568762720849
20.8855 69.17602697686851
21.1893 69.2360269768685
21.4975 69.29646319994843
21.8102 69.35668762720849
22.1274 69.41668762720849
22.4492 69.47668762720849
22.7758 69.5366876272085
23.1071 69.5966876272085
23.4432 69.65768762720847
23.7841 69.77746319994843
24.1301 69.8966876272085
24.4811 70.0160269768685
24.8372 70.13568762720848
25.1984 70.2550269768685
25.5649 70.37468762720847
25.9368 70.49402697686851
26.3141 70.61368762720848
26.6968 70.76968762720848
27.0851 70.9320269768685
27.4791 71.09446319994844
27.8788 71.25668762720848
28.2843 71.41868762720847
28.6957 71.58102697686853
29.1131 71.74346319994844
29.5365 71.92302697686851
29.9661 72.11602697686853
30.402 72.30946319994842
30.8442 72.50268762720849
31.2929 72.69568762720849
31.748 72.88868762720848
32.2098 73.0816876272085
32.6783 73.29268762720848
33.1536 73.50468762720848
33.6359 73.7160269768685
34.1251 73.92768762720847
34.6215 74.13968762720847
35.125 74.35102697686851
35.6359 74.56968762720848
36.1543 74.78868762720847
36.6802 75.00802697686852
37.2137 75.2270269768685
37.755 75.44668762720848
38.3041 75.71264886853434
38.8613 76.05277674455932
39.4265 76.3960883468396
40.0 76.74200451577981
40.5818 77.09067112744093
41.1721 77.425508434825
41.771 77.7127155319967
42.3785 78.0018513350665
42.9949 78.29195141623114
43.6203 78.58317450381084
44.2548 78.84629285124731
44.8985 79.07845895613431
45.5515 79.31195790649663
46.2141 79.54511685962771
46.8863 79.7786376648598
47.5683 79.95687031334008
48.2602 80.13579576148096
48.9621 80.31472039257692
49.6743 80.49433268226163
50.3968 80.63341852205018
51.1299 80.76431876709691
51.8736 80.89504735434657
52.6281 81.0259688965338
53.3936 81.12192522566407
54.1702 81.21227285511996
54.9581 81.30302765413713
55.7575 81.38982877212922
56.5685 81.45178502728244
57.3914 81.51351044479227
58.2261 81.57489970685923
59.073 81.62722133150261
59.9323 81.67205003841623
60.804 81.71652628032601
61.6884 81.75982272365457
62.5857 81.79760844109508
63.496 81.8361135075458
64.4196 81.87395469264473
65.3566 81.90963342827698
66.3073 81.94533324697478
67.2717 81.98065580429756
68.2502 82.01389590996617
69.2429 82.04755351576912
70.2501 82.08053197157787
71.2719 82.1048149482044
72.3086 82.12881063241267
73.3603 82.15141924605786
74.4274 82.16323358119809
75.5099 82.17435948958017
76.6083 82.17988413533236
77.7226 82.17570687626947
78.8531 82.17153865729462
80.0 82.15997300954788
81.1636 82.14602382142289
82.3442 82.13148931128462
83.5419 82.1139794386249
84.757 82.09722097104077
85.9899 82.08602505648912
87.2406 82.07689675864533
88.5096 82.07249399544246
89.797 82.07399394308402
91.1031 82.0779124613
92.4282 82.09011801721272
93.7726 82.10271698406281
95.1366 82.11717681557452
96.5204 82.1320853427145
97.9243 82.14430880201346
99.3486 82.15569125429009
100.794 82.1545837931009
102.26 82.1499812190187
103.747 82.14484941168764
105.256 82.13996689328177
106.787 82.13577609894756
108.34 82.13152977057116
109.916 82.13010628422698
111.515 82.12991865980483
113.137 82.13543622127504
114.783 82.14327461149007
116.452 82.15582490141654
118.146 82.17006321332943
119.865 82.18607161013287
121.608 82.2015620806405
123.377 82.21616695313215
125.171 82.22925973087258
126.992 82.24280657223211
128.839 82.25744855339448
130.713 82.27982165866051
132.615 82.30915605337906
134.543 82.34792549701267
136.5 82.40149757364492
138.486 82.46039882058604
140.5 82.5247978841353
142.544 82.58430248011095
144.617 82.63120415941269
146.721 82.66348913487539
148.855 82.66882020647037
151.02 82.65547821162966
153.217 82.63580901017808
155.445 82.61621263366058
157.706 82.62035535573743
160.0 82.65888622294655
162.327 82.72638371688679
164.688 82.81776461037424
167.084 82.91796817034243
169.514 82.99704101797118
171.98 83.03748589249534
174.481 83.03839602026245
177.019 83.0094083715911
179.594 82.97182098518823
182.206 82.95210079683606
184.856 82.97297426210575
187.545 83.04054310689544
190.273 83.13695730359512
193.041 83.22725522307313
195.849 83.28692769131389
198.697 83.31445001389999
201.587 83.32912464435088
204.52 83.36323715811177
207.494 83.4436606251057
210.512 83.56888594870851
213.574 83.71216867085202
216.681 83.83096634936952
219.833 83.89545925531057
223.03 83.90722580188854
226.274 83.90114081202178
229.565 83.91312233347956
232.905 83.95789325954725
236.292 84.0166074214633
239.729 84.05568012224605
243.216 84.05318405280943
246.754 84.02724161011078
250.343 84.03359705204768
253.984 84.10613153276867
257.678 84.23844336382122
261.426 84.37376579125214
265.229 84.45278552343335
269.087 84.47100726332
273.001 84.47289992839613
276.972 84.5251263047175
281.0 84.64228154735606
285.088 84.78119126766876
289.234 84.87038155715366
293.441 84.88252234047718
297.709 84.85218338672682
302.04 84.84808034169022
306.433 84.87997752254007
310.89 84.89898713074389
315.412 84.89687426038556
320.0 84.88189450053055
324.655 84.87429560754987
329.377 84.89320615637563
334.168 84.93024767929896
339.028 84.97227915985376
343.959 85.01625189370058
348.962 85.07036179468066
354.038 85.1229442946079
359.188 85.14890520705896
364.412 85.15053363530454
369.713 85.15954220035835
375.09 85.20404165356287
380.546 85.2714238522956
386.081 85.33016757862295
391.697 85.37435082967318
397.394 85.40895540285301
403.175 85.42259234191668
409.039 85.39842192318083
414.989 85.34040866397103
421.025 85.26886776328207
427.149 85.19626809264643
433.362 85.12846901903823
439.665 85.0772300542225
446.06 85.04332410973532
452.548 85.01018101341622
459.131 84.97609845868013
465.809 84.95775837728245
472.584 84.95609174136366
479.458 84.95498395843747
486.432 84.95761392062498
493.507 84.96989562552649
500.686 84.98051307296471
507.968 84.99584217158215
515.357 85.00828541748227
522.853 85.02114457619878
530.458 85.02536366009295
538.174 85.02481029814808
546.002 85.02331703138206
553.943 85.02380419167632
562.001 85.02482895306348
570.175 85.02014902626519
578.469 85.00814365395642
586.883 84.986696957296
595.419 84.95211330579421
604.08 84.89516061890683
612.866 84.81172654916858
621.78 84.71604144686039
630.824 84.6424331194319
640.0 84.61302532448988
649.309 84.61869102925017
658.753 84.62763372433461
668.335 84.61122888622465
678.056 84.57404737028246
687.919 84.55151238668995
697.925 84.57402063978056
708.077 84.62518140868612
718.376 84.62395625705706
728.825 84.55295298286768
739.426 84.43160405464852
750.181 84.34549458603989
761.093 84.3619514702735
772.163 84.44932751373443
783.394 84.51446613470324
794.789 84.50709856089212
806.349 84.46834537178609
818.078 84.46896983531836
829.977 84.51057471136382
842.05 84.52575864293748
854.298 84.46940110233533
866.724 84.36251901393864
879.33 84.25344095125847
892.12 84.16849542804839
905.097 84.13131228838013
918.262 84.20259036698512
931.618 84.35133184808457
945.169 84.52026153605992
958.917 84.61254085401205
972.864 84.62906495485912
987.015 84.64659009927114
1001.37 84.68160296020369
1015.94 84.6511660951442
1030.71 84.50784390079217
1045.71 84.35780127088704
1060.92 84.36243665890724
1076.35 84.56441718436349
1092.0 84.8400177778854
1107.89 85.0229629854786
1124.0 85.06255990490385
1140.35 85.08759573396777
1156.94 85.28678977775611
1173.77 85.59742227779495
1190.84 85.7604491419289
1208.16 85.70015024552235
1225.73 85.64828796486084
1243.56 85.61260797442752
1261.65 85.49046554038615
1280.0 85.47554447925437
1298.62 85.74782595504507
1317.51 86.08676051851305
1336.67 86.27485458546346
1356.11 86.3810374619159
1375.84 86.4781977139828
1395.85 86.60224789633504
1416.15 86.68839359849747
1436.75 86.66788982699607
1457.65 86.55790849827238
1478.85 86.44198013379707
1500.36 86.42947775122524
1522.19 86.48274332568532
1544.33 86.37139064085652
1566.79 86.26271441898254
1589.58 86.36564716785662
1612.7 86.39318470256732
1636.16 86.28283645666569
1659.95 86.22002946119916
1684.1 86.05963687288668
1708.6 85.90948923253644
1733.45 85.87720476020836
1758.66 85.8186941971283
1784.24 85.70305153552216
1810.19 85.426825696346
1836.52 85.04239742637164
1863.24 84.68405428846792
1890.34 84.2537460203548
1917.83 83.8287504659287
1945.73 83.64814706411528
1974.03 83.59674850985506
2002.74 83.44598251391805
2031.87 83.07686948486163
2061.43 82.75389020393199
2091.41 82.754523938582
2121.83 82.86764355887064
2152.69 82.93217520215848
2184.01 83.01056105307026
2215.77 83.04830605009377
2248.0 82.95861120020173
2280.7 82.8508383980516
2313.87 82.75861896627978
2347.53 82.69357955371575
2381.68 82.64797842993092
2416.32 82.60796714398154
2451.46 82.58132113298336
2487.12 82.63996410442387
2523.3 82.92184658212824
2560.0 83.19051426095949
2597.24 83.22012518037813
2635.01 83.19155142731468
2673.34 83.20347619086573
2712.23 83.36600757458092
2751.68 83.6363472804077
2791.7 83.8505146349219
2832.31 83.86251311486636
2873.5 83.78885268211899
2915.3 83.89768358314923
2957.7 83.94744601707588
3000.72 83.74382267824375
3044.37 83.51532645262607
3088.65 83.36224140725888
3133.58 83.26084934601617
3179.16 83.1936217210873
3225.4 83.13809549397457
3272.31 83.0715287069818
3319.91 83.05589694893865
3368.2 82.96430266434945
3417.19 82.675671431502
3466.89 82.29121686271219
3517.32 82.0439337424735
3568.48 81.97455071874933
3620.39 81.78701496665401
3673.05 81.525492214627
3726.47 81.30437835596872
3780.67 80.80467457550061
3835.67 80.14382931401568
3891.46 80.00115169767228
3948.06 80.53038025335255
4005.49 80.88681588024492
4063.75 80.97080361217475
4122.86 81.39062536138833
4182.82 81.47465744539551
4243.66 81.11810059569873
4305.39 81.12369730816694
4368.01 81.2550517027414
4431.55 81.20809248374215
4496.01 81.21790844710377
4561.4 81.23852963943993
4627.75 80.93905331183917
4695.06 80.62903960430972
4763.35 80.60290598732489
4832.64 80.44363826715806
4902.93 80.18020522391379
4974.24 80.12350581725376
5046.6 79.97423009063185
5120.0 80.03104413173544
5194.47 80.10910375550039
5270.03 79.81733225793037
5346.68 79.8408499311832
5424.45 79.75810057710135
5503.35 79.4158828447402
5583.4 79.14809820400627
5664.61 78.50584621325156
5747.01 78.34135575064009
5830.6 78.510930979767
5915.41 78.51812921623738
6001.45 78.50308598816835
6088.74 78.46190206606924
6177.3 78.43684448878048
6267.15 78.1926602779484
6358.31 78.20739060030505
6450.8 78.24803388516605
6544.62 78.22502607023002
6639.82 78.01450871534566
6736.4 77.60710208638484
6834.38 77.10005281257395
6933.79 76.54865284649505
7034.64 75.8545550801667
7136.96 75.32151983609391
7240.77 74.99645746107203
7346.09 74.80154635148557
7452.94 74.63769961756083
7561.35 74.41124122212298
7671.33 74.69303394978796
7782.91 75.03770954530474
7896.12 74.86623030338711
8010.97 74.36852561290931
8127.49 74.37728168702407
8245.71 74.33692978835921
8365.65 74.09947985945719
8487.33 74.25859990850418
8610.78 74.43580553504235
8736.03 74.38022995715441
8863.09 74.25353513667125
8992.01 73.92751347250578
9122.8 73.4792641376799
9255.5 73.3395787632262
9390.12 73.41176533300724
9526.7 73.29084808729591
9665.27 73.19663430483706
9805.86 73.13519103223739
9948.49 72.91615226637383
10093.2 72.90457299577712
10240.0 72.95684981245881
10388.9 72.94767404157442
10540.1 72.93237856111172
10693.4 72.9288896597276
10848.9 73.07310377103987
11006.7 73.20204127386829
11166.8 73.26628296586553
11329.2 73.34782884939271
11494.0 73.35477214998845
11661.2 73.06771948598102
11830.8 72.37782669929005
12002.9 71.3944240055808
12177.5 70.46376282957114
12354.6 69.74969245001783
12534.3 69.26118904552548
12716.6 68.9004131035435
12901.6 68.5629676510902
13089.2 68.46523698583273
13279.6 69.00445652867002
13472.8 70.00015687121922
13668.8 70.97703876122293
13867.6 71.62263741857679
14069.3 71.59844082393901
14273.9 71.01565233607232
14481.5 70.59220189438282
14692.2 70.58105883517963
14905.9 70.5799212270516
15122.7 70.3563450078245
15342.7 70.0763831998055
15565.8 69.93573994995349
15792.2 69.7288248145528
16021.9 69.59256391124339
16255.0 69.76381519842998
16491.4 70.07362783975032
16731.3 70.18482512831012
16974.7 70.23249690278524
17221.6 70.71828559264651
17472.1 71.37929463522413
17726.2 71.59969378505069
17984.0 71.51104650480467
18245.6 71.58120174602308
18511.0 71.75349060803467
18780.2 71.76778338767123
19053.4 71.78487781870342
19330.5 71.96000874524938
19611.7 72.05040669207678
19897.0 71.93012189145057
