Freq "Front Wall Bounce"
20.0 68.2488735981379
20.2909 68.37008518271978
20.586 68.49187359813793
20.8855 68.58839411123124
21.1893 68.68508518271977
21.4975 68.78208518271975
21.8102 68.8788735981379
22.1274 68.97539411123124
22.4492 69.07208518271977
22.7758 69.16908518271977
23.1071 69.26608518271976
23.4432 69.36387359813791
23.7841 69.52908518271975
24.1301 69.69408518271976
24.4811 69.85908518271977
24.8372 70.02408518271976
25.1984 70.18908518271977
25.5649 70.35408518271977
25.9368 70.51939411123122
26.3141 70.68439411123123
26.6968 70.88087359813791
27.0851 71.08208518271978
27.4791 71.28308518271977
27.8788 71.48408518271977
28.2843 71.68508518271976
28.6957 71.88639411123121
29.1131 72.08771402029878
29.5365 72.29908518271976
29.9661 72.51839411123125
30.402 72.73808518271976
30.8442 72.95708518271978
31.2929 73.17708518271976
31.748 73.39608518271977
32.2098 73.61571402029877
32.6783 73.84087359813792
33.1536 74.06608518271977
33.6359 74.29139411123123
34.1251 74.51708518271977
34.6215 74.74208518271978
35.125 74.96739411123123
35.6359 75.19008518271976
36.1543 75.41308518271975
36.6802 75.63539411123122
37.2137 75.85808518271976
37.755 76.08108518271976
38.3041 76.32407982875388
38.8613 76.59975555311799
39.4265 76.8760250051118
40.0 77.15261420414139
40.5818 77.42959506136974
41.1721 77.6984611473572
41.771 77.94358206842388
42.3785 78.18892912482829
42.9949 78.43464139910117
43.6203 78.68064978438957
44.2548 78.9084614590981
44.8985 79.11721729172812
45.5515 79.32552078959887
46.2141 79.53472392305126
46.8863 79.74320400394451
47.5683 79.91240954358764
48.2602 80.08200139981544
48.9621 80.25183518551641
49.6743 80.42159228977297
50.3968 80.55960526188306
51.1299 80.69081310383801
51.8736 80.82236773034317
52.6281 80.95368499515466
53.3936 81.05564230029547
54.1702 81.15308200995754
54.9581 81.25056891939164
55.7575 81.34524227268146
56.5685 81.41685648845666
57.3914 81.48821771148921
58.2261 81.55991571509216
59.073 81.6225239573441
59.9323 81.67845860370389
60.804 81.73428345120517
61.6884 81.78871145857109
62.5857 81.83800025699783
63.496 81.88688870621928
64.4196 81.93594287108318
65.3566 81.98354821883709
66.3073 82.03103954959741
67.2717 82.07842336591312
68.2502 82.12392361374587
69.2429 82.16873321558579
70.2501 82.21389049874138
71.2719 82.25183019285764
72.3086 82.28939626074403
73.3603 82.3254222200127
74.4274 82.34975910610578
75.5099 82.37430681187321
76.6083 82.39195419087078
77.7226 82.40040166647977
78.8531 82.40908989022996
80.0 82.40740089526459
81.1636 82.40323563256847
82.3442 82.39743022327585
83.5419 82.38816335250299
84.757 82.37873924222454
85.9899 82.37302512745619
87.2406 82.36804869039268
88.5096 82.36849672049446
89.797 82.37333486141563
91.1031 82.38068596726484
92.4282 82.39455423717172
93.7726 82.40888786289686
95.1366 82.42383591977229
96.5204 82.43838027987827
97.9243 82.44434128432891
99.3486 82.4488126134369
100.794 82.43903936474885
102.26 82.42567786115448
103.747 82.40951599685303
105.256 82.3929872921273
106.787 82.37648188735051
108.34 82.36038311533564
109.916 82.35312615907385
111.515 82.34866136977186
113.137 82.35994436978544
114.783 82.37735511558773
116.452 82.4080686908955
118.146 82.4452375364581
119.865 82.48749995005551
121.608 82.52781316594867
123.377 82.56554032102808
125.171 82.59157546356909
126.992 82.60703541487736
128.839 82.61360728990246
130.713 82.60586814711054
132.615 82.5971262852124
134.543 82.58705377174103
136.5 82.58792112973316
138.486 82.5975582797065
140.5 82.61883406268426
142.544 82.65407594048766
144.617 82.6918745223873
146.721 82.73008062372209
148.855 82.75968644940308
151.02 82.77945418330007
153.217 82.79448539595705
155.445 82.80900610780613
157.706 82.83698069798412
160.0 82.88722981534083
162.327 82.95916280099775
164.688 83.04802636195262
167.084 83.1451552476808
169.514 83.22629514789128
171.98 83.27525899705768
174.481 83.28924749219412
177.019 83.27529269119435
179.594 83.24958234586524
182.206 83.23494231442898
184.856 83.2507595231258
187.545 83.30288307629239
190.273 83.37733030178907
193.041 83.44184038806215
195.849 83.47025700581027
198.697 83.45707687586655
201.587 83.41879047575651
204.52 83.3920341923096
207.494 83.413300210504
210.512 83.49834965566917
213.574 83.62926694707886
216.681 83.76377908683916
219.833 83.85322960657673
223.03 83.87821436817707
226.274 83.86140858807879
229.565 83.84786471123353
232.905 83.87577047011051
236.292 83.9512222083744
239.729 84.04569254139498
243.216 84.11590416282742
246.754 84.13399243956074
250.343 84.12789383652135
253.984 84.1431302996412
257.678 84.21068316091342
261.426 84.32630855417895
265.229 84.43629154935834
269.087 84.504544287051
273.001 84.53302621147529
276.972 84.57353646135861
281.0 84.66889987777749
285.088 84.8185165830361
289.234 84.96075831667056
293.441 85.03800611770457
297.709 85.04324417743362
302.04 85.03331527404929
306.433 85.04976878766784
310.89 85.06457706658807
315.412 85.06413736355111
320.0 85.0393459825851
324.655 85.00008482892062
329.377 84.96179867486273
334.168 84.92061203403829
339.028 84.85233476353194
343.959 84.75843823464287
348.962 84.6782559180826
354.038 84.67618001580534
359.188 84.78447416520636
364.412 84.98156358353481
369.713 85.21757611439723
375.09 85.43090143231917
380.546 85.55955719255917
386.081 85.57888085790479
391.697 85.50989528420025
397.394 85.39947989386289
403.175 85.2803468631554
409.039 85.1608097975447
414.989 85.04577417450623
421.025 84.95243077173625
427.149 84.88759805190922
433.362 84.84206128400457
439.665 84.8205351810007
446.06 84.84447991991016
452.548 84.91248081462315
459.131 85.0021869347765
465.809 85.09695616734349
472.584 85.18503007609483
479.458 85.25858115461803
486.432 85.32375260267462
493.507 85.38254923459321
500.686 85.42147145944786
507.968 85.42996972658308
515.357 85.41451011246859
522.853 85.37328587045549
530.458 85.31534896447029
538.174 85.26141503049999
546.002 85.23383367155539
553.943 85.23731461151907
562.001 85.26206995775148
570.175 85.28001736587831
578.469 85.26285504695335
586.883 85.19634984816962
595.419 85.0912773012857
604.08 84.97543222798002
612.866 84.8797884128531
621.78 84.8344698985206
630.824 84.86444080915075
640.0 84.9670615384822
649.309 85.10930061878669
658.753 85.24081245174908
668.335 85.31280520014074
678.056 85.30710970289405
687.919 85.25480494487108
697.925 85.22114490194024
708.077 85.27198644558138
718.376 85.35025349074186
728.825 85.42021949987482
739.426 85.40706997409917
750.181 85.30442988773598
761.093 85.16996009107557
772.163 85.07503055259107
783.394 85.03694937000617
794.789 85.01305167453695
806.349 84.9629585206343
818.078 84.89780395892706
829.977 84.85402198653706
842.05 84.82796673488613
854.298 84.7675778553062
866.724 84.64434600656479
879.33 84.51098803001156
892.12 84.45076155019365
905.097 84.46594017395579
918.262 84.47717483983912
931.618 84.45492432114915
945.169 84.41842226793837
958.917 84.36347580521512
972.864 84.25913796939683
987.015 84.16340430252698
1001.37 84.21307109773805
1015.94 84.40092794433198
1030.71 84.55366127989996
1045.71 84.61478702642533
1060.92 84.69193121486198
1076.35 84.76389724909781
1092.0 84.76843938120713
1107.89 84.90092779771592
1124.0 85.28955892170812
1140.35 85.60243035094562
1156.94 85.57014663338065
1173.77 85.3766817336636
1190.84 85.3040470901578
1208.16 85.37238815636384
1225.73 85.434559566876
1243.56 85.46041048509794
1261.65 85.51391976433327
1280.0 85.61681278188999
1298.62 85.58706321121615
1317.51 85.35855118969025
1336.67 85.22183334819671
1356.11 85.25928870218067
1375.84 85.42511243602362
1395.85 85.62254965641819
1416.15 85.7159932386738
1436.75 85.56034527916279
1457.65 85.25925582903247
1478.85 85.15155460850345
1500.36 85.19803509578065
1522.19 85.02102489378903
1544.33 84.74342052898244
1566.79 84.59613248277928
1589.58 84.59452556241474
1612.7 84.55560659774241
1636.16 84.54172810216993
1659.95 84.54203586421646
1684.1 84.46521425446545
1708.6 84.58468505924326
1733.45 84.83295068716437
1758.66 84.9654879300446
1784.24 85.00552874511554
1810.19 84.98778230518467
1836.52 84.92234649800632
1863.24 84.77910731450704
1890.34 84.70407026928818
1917.83 84.75247830825941
1945.73 84.72541846467222
1974.03 84.707022139389
2002.74 84.6933608442807
2031.87 84.75320567513133
2061.43 84.96282408221039
2091.41 84.98310030297475
2121.83 84.9369869842758
2152.69 84.93144836073519
2184.01 84.73660989004794
2215.77 84.5874396050199
2248.0 84.60067198750924
2280.7 84.57867484567257
2313.87 84.53809400183998
2347.53 84.56334872371285
2381.68 84.6581864594179
2416.32 84.6555818533793
2451.46 84.58332790070567
2487.12 84.43206061833017
2523.3 84.2126270273522
2560.0 84.14055766459526
2597.24 84.19969889708413
2635.01 84.23535099281719
2673.34 84.21894389836076
2712.23 84.29105042558253
2751.68 84.39823043391529
2791.7 84.36694306603776
2832.31 84.35025716125436
2873.5 84.38477285286247
2915.3 84.48424107111933
2957.7 84.68504337189482
3000.72 84.72451950573743
3044.37 84.65517265555273
3088.65 84.70118634272784
3133.58 84.91824113433893
3179.16 85.09239115130042
3225.4 85.17875056589425
3272.31 85.26346489113659
3319.91 85.4037349451146
3368.2 85.57154238018839
3417.19 85.67757257087145
3466.89 85.80760208647644
3517.32 85.99289466727447
3568.48 86.13032179587603
3620.39 86.16174882198817
3673.05 85.94950619946049
3726.47 85.51377666347028
3780.67 85.06131234705875
3835.67 84.51234476320329
3891.46 83.95909264508497
3948.06 83.88556141963234
4005.49 84.13771202740695
4063.75 84.23752265133906
4122.86 84.36348149128561
4182.82 84.65008517012446
4243.66 84.835995891634
4305.39 84.82970999535492
4368.01 84.79038513728379
4431.55 84.82188332613715
4496.01 84.88091795827107
4561.4 84.78609850511195
4627.75 84.67956485616942
4695.06 84.6107074424542
4763.35 84.57546519736309
4832.64 84.58320079125548
4902.93 84.60702184356526
4974.24 84.67504225317154
5046.6 84.82302254058862
5120.0 85.04861406412753
5194.47 85.24565475036825
5270.03 85.42767701561485
5346.68 85.43582463421778
5424.45 85.21915727193777
5503.35 84.88275807714679
5583.4 84.4902476938589
5664.61 84.14324624398402
5747.01 83.84201628806242
5830.6 83.70072640654591
5915.41 83.78532968539297
6001.45 83.98187786385084
6088.74 84.11719699177875
6177.3 84.20987213899492
6267.15 84.313932546331
6358.31 84.40686227779277
6450.8 84.45017808426864
6544.62 84.43059342029278
6639.82 84.38621996638123
6736.4 84.38214689064685
6834.38 84.43452838547789
6933.79 84.41888624942304
7034.64 84.33661209436124
7136.96 84.26876008528627
7240.77 84.16100764054161
7346.09 84.01585234131794
7452.94 83.90697608547389
7561.35 83.84510549416227
7671.33 83.77746018494868
7782.91 83.720747910531
7896.12 83.6544082703932
8010.97 83.49983709933129
8127.49 83.27503014683059
8245.71 82.96142177840846
8365.65 82.60289800396951
8487.33 82.51748731615115
8610.78 82.79075538304262
8736.03 83.17805275492698
8863.09 83.49625508947831
8992.01 83.58911956048402
9122.8 83.52289208493701
9255.5 83.36671084159397
9390.12 83.189944744421
9526.7 83.09821574323115
9665.27 83.15040222433272
9805.86 83.43926350795441
9948.49 83.85516574959847
10093.2 84.2044264634464
10240.0 84.38149092125605
10388.9 84.33722370372891
10540.1 84.13775714925474
10693.4 83.9537678273092
10848.9 83.98525783768198
11006.7 84.30511485577892
11166.8 84.77606138685489
11329.2 85.13499486586494
11494.0 85.22617038909137
11661.2 85.09794455684818
11830.8 84.92379638286708
12002.9 84.85954890096635
12177.5 84.93603912592165
12354.6 85.10949122632643
12534.3 85.31398130223916
12716.6 85.44774745478534
12901.6 85.37689630208784
13089.2 85.03589347131117
13279.6 84.59658063108601
13472.8 84.4596334721177
13668.8 84.81552762500503
13867.6 85.307464256771
14069.3 85.45070725618756
14273.9 85.19815946100064
14481.5 84.9203313247866
14692.2 84.92890514183192
14905.9 85.11103490475092
15122.7 85.14892055702954
15342.7 84.98707563228186
15565.8 84.78593170604617
15792.2 84.64852767654929
16021.9 84.61467179414883
16255.0 84.71579725060954
16491.4 84.7978077546733
16731.3 84.59025875482563
16974.7 84.19879383262925
17221.6 84.01838640247226
17472.1 83.95523811662709
17726.2 83.57101548304793
17984.0 83.02711521614462
18245.6 82.86161607498623
18511.0 83.01748424092038
18780.2 83.04960652683367
19053.4 82.94328244752901
19330.5 82.82409795247237
19611.7 82.52215035864067
19897.0 82.13067027284922
