Freq,Floor Bounce,Ceiling Bounce,Front Wall Bounce,Side Wall Bounce,Rear Wall Bounce,Total Early Reflection
22.4,42.83358982687997,41.56845083805433,42.51508314243884,41.90920611180408,41.05716129340823,42.023469977033926
23.0,43.69999999999999,42.46845083805434,43.386184505019514,42.80920611180409,42.03064583154986,42.92081900331871
23.6,44.53358982687996,43.402284613960205,44.27166275391892,43.70920611180409,42.945885853118085,43.810416525768744
24.0,45.400000000000006,44.23435140868503,45.14313939533781,44.6092061118041,43.82476151121253,44.68035950366888
25.0,46.19999999999999,45.134351408685006,45.971662753918906,45.427579953173876,44.677430883715346,45.517153227830164
25.8,47.03358982687996,45.96845083805434,46.77166275391892,46.28751894170378,45.55570799501211,46.35598499374288
26.5,47.80000000000001,46.80076749445561,47.599999999999994,47.1092061118041,46.39783263872209,47.171646869308915
27.2,48.599999999999994,47.600767494455596,48.400000000000006,47.90920611180408,47.21295187965208,47.974180877620825
28.0,49.400000000000006,48.400767494455636,49.171662753918895,48.687518941703786,48.01295187965209,48.76367486848443
29.0,50.19999999999999,49.168450838054326,49.971662753918906,49.427579953173876,48.812951879652076,49.5460173934961
30.0,50.900000000000006,49.96845083805434,50.671662753918895,50.22757995317386,49.57000903251452,50.2936925198274
30.7,51.69999999999999,50.70076749445562,51.471662753918906,50.985260410285434,50.333417546162224,51.06668158362865
31.5,52.400000000000006,51.46845083805434,52.171662753918895,51.70598456990743,51.10183747845849,51.794857505179294
32.5,53.19999999999999,52.235130591779836,52.971662753918906,52.485260410285434,51.833417546162224,52.57301930660243
33.5,53.93358982687997,53.003069571042516,53.700657860694264,53.224799389228494,52.612226692090275,53.320794376119494
34.5,54.7,53.73513059177982,54.471662753918906,53.985260410285434,53.3384602339449,54.07387033001126
35.5,55.46692185116049,54.503069571042516,55.200657860694264,54.74396845048443,54.112226692090275,54.83224373512368
36.5,56.2,55.30306957104253,55.971662753918906,55.52479938922848,54.86551430291402,55.59883121241168
37.5,57.0,56.06845083805433,56.74379075419728,56.24396845048443,55.633417546162235,56.36505538239601
38.7,57.80000000000001,56.86845083805433,57.54379075419729,57.04396845048444,56.401837478458475,57.1597347013051
40.0,58.599999999999994,57.60306957104251,58.329460668555924,57.84396845048444,57.16551430291403,57.93834397641265
41.2,59.400000000000006,58.46845083805434,59.12946066855592,58.64396845048444,57.93465416187583,58.74538701231502
42.5,60.16692185116051,59.268450838054335,59.90065786069425,59.44396845048445,58.71937460616424,59.528889602263774
43.7,60.96692185116051,60.036635756671856,60.70065786069425,60.22479938922848,59.49760116383278,60.31554196483563
45.0,61.70000000000002,60.80306957104251,61.443790754197295,60.964890115370736,60.25106742933413,61.061840400468995
46.2,62.5,61.56845083805433,62.24379075419729,61.76489011537075,60.99907942709295,61.84674137155022
47.5,63.233589826879964,62.36845083805434,62.971662753918906,62.50598456990744,61.73068496232976,62.5927623017015
48.7,63.93358982687997,63.06845083805432,63.74379075419729,63.20598456990743,62.430684962329764,63.308605502371805
50.0,64.6669218511605,63.76845083805432,64.4437907541973,63.946248552370136,63.141742654371996,64.0260088054097
51.5,65.33358982687997,64.46845083805432,65.11508314243885,64.60598456990742,63.795659640482555,64.69656315083678
53.0,66.0,65.10076749445562,65.7716627539189,65.2875189417038,64.45252151034862,65.35577770256623
54.5,66.6,65.76845083805433,66.38618450501949,65.88751894170377,65.06302922682569,65.97351667641117
56.0,67.2,66.36845083805431,66.9861845050195,66.50685289384958,65.6630292268257,66.57731444078114
58.0,67.80000000000001,66.93513059177982,67.5861845050195,67.08751894170379,66.24246293045805,67.16384610805568
60.0,68.3,67.46769521305296,68.11508314243883,67.6284439705029,66.7630292268257,67.68778855950036
61.5,68.8669218511605,68.03513059177983,68.65775667464533,68.18751894170379,67.28326081012972,68.2403949529928
63.0,69.29999999999998,68.50231994589777,69.15775667464531,68.64849756031407,67.7618288911562,68.70758739055093
65.0,69.8,68.93513059177982,69.61508314243883,69.10685289384959,68.21069588709673,69.16892217093083
67.0,70.2,69.37001488257476,70.0577566746453,69.54849756031409,68.63117216246489,69.59651927727494
69.0,70.63358982687997,69.80231994589775,70.45775667464531,69.94849756031408,69.03117216246488,70.01040197853871
71.0,70.9669218511605,70.17001488257478,70.82979499755905,70.26670626616767,69.3667247432423,70.35629029965156
73.0,71.33435140868502,70.47001488257476,71.1577566746453,70.60685289384959,69.70404649015184,70.69191430585394
75.0,71.66692185116051,70.80306957104251,71.45775667464531,70.92523667270711,70.00404649015184,71.0093788421472
77.5,71.90076749445562,71.03513059177985,71.72979499755905,71.16670626616768,70.25622597504291,71.25578470555784
80.0,72.1669218511605,71.30306957104253,71.95775667464532,71.38751894170379,70.51295738064508,71.50342334443864
82.5,72.36692185116051,71.43821129888744,72.15775667464531,71.58751894170379,70.71295738064508,71.69111111836827
85.0,72.56692185116049,71.63821129888743,72.3861845050195,71.78751894170378,70.92837447789738,71.8999194208074
87.5,72.7669218511605,71.80306957104251,72.5577566746453,71.9467367724147,71.08608809553732,72.07226248031841
90.0,72.96692185116049,71.97150800786939,72.72979499755905,72.10920611180408,71.29651500804259,72.25448391499262
92.5,73.1669218511605,72.10306957104252,72.91508314243885,72.28751894170378,71.47488760396926,72.43077350913477
95.0,73.26692185116049,72.23821129888744,73.11508314243883,72.40920611180408,71.63231521701204,72.57321310141899
97.5,73.4669218511605,72.40306957104252,73.25840584504061,72.6092061118041,71.79055889180552,72.74720435937421
100.0,73.63358982687998,72.50306957104252,73.41508314243885,72.70920611180406,71.92726812636056,72.88167581318528
103.0,73.73358982687998,72.63821129888743,73.51508314243884,72.80920611180409,72.0169148755312,72.98648071330643
106.0,73.7669218511605,72.63821129888743,73.58748929892042,72.87221372104861,72.07499827131063,73.03222034524542
109.0,73.83358982687997,72.63821129888743,73.61508314243883,72.87221372104861,72.03291945503653,73.04767889349509
112.0,73.7669218511605,72.60690501035458,73.58748929892042,72.8133475094747,71.97572970149143,72.99938220299462
115.0,73.73358982687998,72.5069050103546,73.51508314243884,72.7544429425558,71.8861814830575,72.93120363155452
118.0,73.66692185116051,72.4069050103546,73.42979499755904,72.6768032001762,71.76549147272144,72.84366672111925
122.0,73.63358982687998,72.3404416794549,73.41508314243885,72.61564374029257,71.68120501798886,72.79536810332638
125.0,73.66692185116051,72.3404416794549,73.41508314243885,72.61564374029257,71.66549147272144,72.80105393519416
128.0,73.73358982687998,72.4069050103546,73.51508314243884,72.69805014496487,71.71811657065788,72.8762478188639
132.0,73.8669218511605,72.57609175449221,73.61508314243883,72.79805014496486,71.82895415124818,72.99852474055808
136.0,74.06692185116049,72.77609175449223,73.85840584504062,72.99805014496486,72.02895415124819,73.20854936209604
140.0,74.2669218511605,73.00690501035459,74.11508314243885,73.22070188121242,72.24911052306095,73.43472695450677
145.0,74.50076749445562,73.30690501035458,74.35840584504064,73.42070188121242,72.50774145410418,73.68022266027754
150.0,74.70076749445562,73.5069050103546,74.60229476693692,73.62070188121241,72.78240567986984,73.90197969817497
155.0,74.86845083805434,73.70690501035459,74.80229476693694,73.72070188121242,72.99092252216707,74.07695412815943
160.0,74.93663575667186,73.70690501035459,74.94675150375355,73.70830075647112,73.06888521107031,74.13770738834505
165.0,74.90306957104252,73.61227178315617,74.91998423401444,73.55342828338573,72.9672427654416,74.06236269050933
170.0,74.77150800786939,73.31227178315618,74.83537086618986,73.28264684748963,72.69234204614796,73.86574116628029
175.0,74.6069050103546,72.98219967332304,74.69366590096783,72.92034060402875,72.23455117962975,73.60005026396885
180.0,74.37609175449221,72.55667255930051,74.43924275721992,72.49758538133054,71.65377225470294,73.24723209407898
185.0,74.07609175449221,72.09897445130925,74.13924275721992,72.0508253968645,70.93867136685977,72.84036251823375
190.0,73.7098662867233,71.69897445130925,73.83924275721992,71.63530083796758,70.15509150645325,72.42666613527093
195.0,73.37609175449221,71.33752777300028,73.51363940606879,71.24102466843932,69.44931886225059,72.03786695238753
200.0,73.17609175449222,71.17082970284298,73.23924275721993,70.99131511707566,68.84896889203229,71.77196333869647
206.0,73.0457671943847,71.20963256681621,73.13924275721992,70.89772752574555,68.51155356221363,71.66566951631071
212.0,73.07609175449221,71.4096325668162,73.19366590096782,70.98161839729093,68.36377342513268,71.72598361167789
218.0,73.17609175449222,71.87082970284297,73.39366590096782,71.24851891926838,68.42626566803884,71.94788550221351
224.0,73.40690501035459,72.46096514237182,73.70489499373622,71.69772752574556,68.5962392087794,72.30583098214166
230.0,73.57609175449221,73.05260953202217,74.01704993328867,72.18748430179782,68.76327217061029,72.66073483971809
236.0,73.58219967332305,73.38219967332304,74.17297191737703,72.45130410818514,68.67101444584202,72.81900659133281
240.0,73.25260953202218,73.38219967332304,74.08748929892042,72.48204584418485,68.41453516539052,72.70523608642588
250.0,72.97082970284298,73.11227178315619,73.97525122642458,72.26214692118172,68.1720439597886,72.48806416825323
258.0,72.90963256681621,72.91916705502754,74.04675150375354,72.14513806681016,68.14924988796629,72.42714705562926
265.0,73.08219812790057,72.72758719283591,74.21998423401445,72.14102466843934,68.23280299537562,72.48102977013328
272.0,73.4096325668162,72.67662798253905,74.51998423401444,72.31108114487323,68.40773591802441,72.68191281185096
280.0,73.77082970284297,72.72179738688895,74.84865957364794,72.60894029988447,68.53781987374978,72.94280916551075
290.0,73.77082970284297,72.63546263134683,74.84865957364794,72.63259743585414,68.27011882107192,72.91201470772701
300.0,73.50963256681621,72.40942248426019,74.57848478147017,72.36171751117968,67.74623830220202,72.6352920274418
307.0,73.38219812790055,72.5094224842602,74.55000634017073,72.29131511707565,67.49072745489607,72.58540040691744
315.0,73.39506458035831,72.7687803399679,74.63924275721993,72.40499945157855,67.4473453209464,72.68702708282997
325.0,73.19506458035829,72.89506458035831,74.62386986096215,72.40499945157855,67.22652340092186,72.64926595803138
335.0,72.9950645803583,72.96194867563766,74.57848478147017,72.39131511707565,67.01126524949211,72.58993874170471
345.0,72.96194867563766,73.12179738688894,74.57848478147017,72.44102466843933,66.96127977748236,72.62483381131142
355.0,72.86194867563766,73.27082970284297,74.50489499373622,72.49772752574555,66.97771339278435,72.62641754364239
365.0,72.70942248426019,73.19897445130924,74.40489499373622,72.37096022893884,66.95984173117839,72.52127608167031
375.0,72.45062128010365,72.89897445130924,74.21998423401445,72.12857362226879,66.79425124956933,72.28424543238619
387.0,72.26726558859612,72.53752777300026,74.19817545090704,71.80245698801424,66.59189327172659,72.08388704459888
400.0,72.285387104659,72.04898359150842,74.21941403242198,71.37266050293687,66.22496717765097,71.89122747442444
412.0,72.36136837622763,71.54391724861637,74.28242230727827,71.16390874147041,65.7862410875939,71.77034223845463
425.0,72.50497668676809,71.10982855556756,74.47455785944567,71.18038253747295,65.56825386928116,71.78755785638356
437.0,72.69389595883672,71.00497668676809,74.61637105372864,71.09612341671482,65.6068538516912,71.85571385292239
450.0,72.9491520399883,70.87100612011483,74.73842054300758,70.76384155788278,65.60292532721127,71.89050613289838
462.0,73.27757950460712,70.76620989389217,74.89888657798578,70.50008209831223,65.3721061009243,71.97333482496906
475.0,73.67641629732152,70.83308937677077,75.03156734312867,70.58723984616441,65.12037920255565,72.14750658442912
487.0,73.98219812790056,70.9137899675559,75.02758020744902,70.78111101662248,65.03654598884968,72.27071997628676
500.0,73.93752777300027,70.95131759580826,74.9866419148176,70.85536527008078,65.29108716292905,72.26821987091688
515.0,73.52758719283591,71.43209919948373,75.0106896630263,70.90660065468484,65.6554119747746,72.26009943930923
530.0,73.28623512455238,72.43308937677077,75.13942623521459,71.05408513869259,65.8323345781839,72.45782414303862
545.0,73.67387961222818,73.32990957385144,75.38664191481759,71.10712093364054,65.21452922895102,72.81589320456862
560.0,74.47001488257476,73.88343461029552,75.76301220938268,71.21602786322701,64.05050160061835,73.25977777548297
580.0,75.23513059177982,74.0509882350122,75.90287628300402,71.2618796027625,63.60192568193402,73.5561041111553
600.0,76.23358982687998,73.62990957385142,75.91942621320376,71.0121342864132,63.481937537759194,73.76615037524579
615.0,76.93435140868503,72.54934890169721,75.69597469427742,70.51039868600317,62.5436737389218,73.7112429276603
630.0,77.03435140868503,71.83012177221653,75.36761108534184,70.27213854323395,60.97916905901472,73.50532171432147
650.0,76.90076749445562,71.68256065499534,75.06761108534182,70.26443737756556,60.78403958349065,73.33096241888627
670.0,76.76845083805433,71.16348032238099,74.97293399764477,70.24751320393467,60.90591540361946,73.17367407010573
690.0,76.57977745790569,70.29040221489248,75.00470702014273,70.36784344035058,60.34325017258149,73.00209364386335
710.0,76.55768127821953,69.30529495129531,75.03156734312867,70.40597750213495,60.077947675837294,72.90652477035601
730.0,76.70131827952115,67.71145938100321,74.9563032996247,69.794788863385,60.093547147639015,72.7672898136674
750.0,76.58493341531499,65.84885135917307,74.81913795500014,68.67291876750487,59.25457907051201,72.45204676467269
775.0,76.49749950966176,66.63049587637973,74.6991604559891,68.0129978718619,57.70402395054266,72.33858774863376
800.0,76.54659692804832,68.7404416794549,74.47185692605989,67.334234972214,57.515023516778754,72.38605805341125
825.0,76.50722417372366,69.63663575667186,74.37146493467719,67.3448101037118,58.12830038584599,72.42431587099762
850.0,75.97182978310016,70.14066256291329,74.41663399781777,69.02120406623916,60.226447109248255,72.38378233069768
875.0,74.66803106656234,70.81192126753355,74.46455667065767,70.75352480637102,62.72444359434314,72.20491784089181
900.0,73.36941986366729,71.95177437534741,74.42940676691629,71.03814531207496,62.793176583674054,72.02652965355507
925.0,72.09533257014982,72.56001642302817,74.24338881317789,70.05779038025395,60.62514107332508,71.58883813828012
950.0,71.88881761960128,71.00427244119464,74.0471681095725,68.41968844040187,58.77188324566089,70.87402121473251
975.0,72.78155097500957,69.91628511153326,74.23871757721682,68.53552962703577,58.36824156053174,71.01372677927007
1000.0,72.5400040429633,69.84743899086733,74.37933498230338,69.68855041345644,58.916153766126286,71.14616467112947
1030.0,71.52150075355425,69.20488091921366,74.23698126844558,69.28894475455184,58.75251734313227,70.66625180160189
1060.0,70.11000662305383,68.27182978310016,73.8256042228314,68.27154271811216,57.63601929842406,69.85881921416838
1090.0,69.25538857760918,67.80934661896387,73.66819805321438,67.13365085988656,57.01934060402154,69.38581375516402
1120.0,68.41543999496503,66.69965439277179,74.05265356895386,67.41686684969261,55.69485921348692,69.33821986385738
1150.0,66.7514902906944,66.3898285667347,73.92532936705038,66.84391368712357,55.85953422578558,68.92084992015997
1180.0,66.04912790184531,66.03752777300028,73.67053926402237,66.09827196602382,55.53268133213962,68.54372395584377
1220.0,65.30956131030868,64.55016923070221,73.57914028375428,66.21535865934712,55.11702791443214,68.26777834210486
1250.0,63.894072207091185,63.43897757455801,73.61472365877759,66.121081163371,54.55147494722982,68.06507530277057
1280.0,63.24765672599422,61.35380974359447,73.83425292632064,66.64954560412784,54.620314081765486,68.13840891714436
1320.0,64.34800220469228,60.8796012143346,74.07194694757592,65.95351272537707,53.45197543682315,68.27944172789418
1360.0,66.02057588519571,60.91659062692784,74.35311111393847,66.31713672304878,53.2135645868301,68.68923188071759
1400.0,66.73517618282703,62.95759882127541,74.57823054791393,65.92425338807874,54.34855752958157,68.98415768116212
1450.0,67.0172157563322,65.05270592623131,74.66413532059089,66.35281363420285,54.53422199654422,69.2535442440503
1500.0,66.79566590809979,66.10488091921368,74.48843090839229,67.49940728493117,55.05260573697535,69.33603577345161
1550.0,65.77724012790914,66.31483523633479,74.47195384606201,67.29721477751669,54.71689043346957,69.21457229518634
1600.0,65.32332853367797,66.40986628672329,74.27755820836575,67.58617913794106,55.30283739529864,69.09915122535827
1650.0,67.40937829065057,66.9053180676647,74.75512285460243,68.00672393738627,55.14991242788827,69.72636210094949
1700.0,68.43469773360899,67.50123572626639,74.55923203800299,67.66136052583798,53.48221718847955,69.75237893858767
1750.0,70.67150800786938,68.68626273845484,74.55990168395996,67.62362691975356,54.067119769634516,70.30826233390974
1800.0,72.184933415315,68.35198202953549,75.04018861070368,67.5672443801125,51.98831475442978,70.87544494195924
1850.0,72.85927347220546,67.49290042729638,75.23452722041526,67.49911913652757,52.26131702097396,71.07879132295753
1900.0,72.79553639353301,65.28243958337423,75.53498707718451,66.17335094654645,50.96910338741466,70.96536898508992
1950.0,73.1202409964892,64.63315940024853,75.56152663469861,65.11446996688585,48.82417756753284,70.98501787930732
2000.0,72.92466146707238,65.134650765162,75.4177177257417,65.35868836930392,50.994263706108654,70.8811510357727
2060.0,73.53784635424452,65.50780688674014,75.5471260719862,65.29203230989864,52.024173049197685,71.1758764030166
2120.0,73.8221945101983,67.4457671943847,75.55960280493161,64.7232860009733,53.204189900722696,71.38698670976939
2180.0,72.49138016458194,70.29693704381889,75.04878380018526,64.27678711604041,53.65794683090529,71.02739029153813
2240.0,71.9187509116431,70.47076275725436,74.2832694486329,65.21825037867237,54.09587053341588,70.57620431307359
2300.0,72.17697211958267,70.62129830443604,74.60981689079793,65.84916250123837,54.232392258363205,70.86799869366212
2360.0,72.84464246181274,69.608078510557,74.44513366874756,65.59381663642229,53.34907477477846,70.796183987846
2400.0,73.13805552087094,68.65131759580825,74.20611315898776,65.43013911368152,52.056420275569764,70.63853679429516
2500.0,73.33174271310295,68.14053501177824,74.08227946159998,63.96492979740104,50.63036162402108,70.51230810806024
2580.0,73.56348032238098,66.46597401860917,74.31089003179652,64.41911419201062,50.599996503320455,70.5700341824669
2650.0,73.59484664455461,65.7743745782644,74.43201744724708,63.2372464595925,50.56228176106703,70.54063039736634
2720.0,72.91411392837598,65.01145898042549,74.43462083201264,63.138396029779884,51.274842703414606,70.22752088215138
2800.0,72.45905592381314,65.00922325566852,74.45293138724823,63.38656119980874,52.83314622828888,70.08923330184071
2900.0,72.10265761634967,64.08401750419979,74.90569549307537,64.38792866606885,52.868134691037355,70.22615027443332
3000.0,71.08448166518501,62.688441025209414,74.78839668984236,64.3485094941197,52.85767518128617,69.79798524739404
3070.0,72.9085396844211,61.12068825021471,74.54589181356457,65.34778068230082,53.16810849510962,70.24877745022546
3150.0,74.37404084094027,63.81595200332333,74.36085619207763,65.67941140356776,52.77839285428635,70.86134428610407
3250.0,74.18918406427574,67.63940447640164,73.93172987990692,65.44248475266376,52.28116055173146,70.82366924720073
3350.0,73.96691728331717,68.78407681298944,73.70868612803429,64.83130140999708,50.868039825264304,70.72906927014007
3450.0,71.63316872174293,66.91978472666256,72.57866022163664,62.56295225954469,49.226442347121946,68.97419323451842
