Freq "Floor Bounce"
22.4 42.143716409158486
23.0 43.0101265822785
23.6 43.843716409158475
24.0 44.71012658227852
25.0 45.5101265822785
25.8 46.343716409158475
26.5 47.110126582278525
27.2 47.91012658227851
28.0 48.71012658227852
29.0 49.5101265822785
30.0 50.21012658227852
30.7 51.0101265822785
31.5 51.71012658227852
32.5 52.5101265822785
33.5 53.24371640915848
34.5 54.01012658227852
35.5 54.777048433439006
36.5 55.51012658227852
37.5 56.310126582278514
38.7 57.110126582278525
40.0 57.91012658227851
41.2 58.71012658227852
42.5 59.47704843343902
43.7 60.27704843343902
45.0 61.01012658227853
46.2 61.810126582278514
47.5 62.54371640915848
48.7 63.24371640915848
50.0 63.97704843343901
51.5 64.64371640915849
53.0 65.31012658227851
54.5 65.91012658227851
56.0 66.51012658227852
58.0 67.11012658227853
60.0 67.61012658227851
61.5 68.17704843343901
63.0 68.6101265822785
65.0 69.11012658227851
67.0 69.51012658227852
69.0 69.94371640915848
71.0 70.27704843343902
73.0 70.64447799096354
75.0 70.97704843343902
77.5 71.21089407673414
80.0 71.47704843343901
82.5 71.67704843343903
85.0 71.877048433439
87.5 72.07704843343902
90.0 72.277048433439
92.5 72.47704843343901
95.0 72.577048433439
97.5 72.77704843343902
100.0 72.9437164091585
103.0 73.04371640915849
106.0 73.07704843343902
109.0 73.14371640915849
112.0 73.07704843343902
115.0 73.04371640915849
118.0 72.97704843343902
122.0 72.9437164091585
125.0 72.97704843343902
128.0 73.04371640915849
132.0 73.17704843343901
136.0 73.377048433439
140.0 73.57704843343902
145.0 73.81089407673413
150.0 74.01089407673413
155.0 74.17857742033286
160.0 74.24676233895038
165.0 74.21319615332104
170.0 74.0816345901479
175.0 73.91703159263311
180.0 73.68621833677072
185.0 73.38621833677072
190.0 73.01999286900181
195.0 72.68621833677072
200.0 72.48621833677073
206.0 72.35589377666321
212.0 72.38621833677072
218.0 72.48621833677073
224.0 72.7170315926331
230.0 72.88621833677072
236.0 72.89232625560156
240.0 72.56273611430069
250.0 72.28095628512149
258.0 72.21975914909473
265.0 72.39232471017908
272.0 72.71975914909471
280.0 73.08095628512149
290.0 73.08095628512149
300.0 72.81975914909472
307.0 72.69232471017907
315.0 72.70519116263682
325.0 72.5051911626368
335.0 72.30519116263682
345.0 72.27207525791617
355.0 72.17207525791618
365.0 72.0195490665387
375.0 71.76074786238216
387.0 71.57739217087463
400.0 71.59551368693751
412.0 71.67149495850614
425.0 71.8151032690466
437.0 72.00402254111523
450.0 72.25927862226682
462.0 72.58770608688563
475.0 72.98654287960004
487.0 73.29232471017907
500.0 73.24765435527878
515.0 72.83771377511442
530.0 72.59636170683089
545.0 72.98400619450669
560.0 73.78014146485327
580.0 74.54525717405834
600.0 75.54371640915849
615.0 76.24447799096355
630.0 76.34447799096354
650.0 76.21089407673414
670.0 76.07857742033285
690.0 75.8899040401842
710.0 75.86780786049805
730.0 76.01144486179966
750.0 75.8950599975935
775.0 75.80762609194028
800.0 75.85672351032683
825.0 75.81735075600217
850.0 75.28195636537868
875.0 73.97815764884085
900.0 72.6795464459458
925.0 71.40545915242834
950.0 71.1989442018798
975.0 72.09167755728808
1000.0 71.85013062524182
1030.0 70.83162733583276
1060.0 69.42013320533235
1090.0 68.5655151598877
1120.0 67.72556657724354
1150.0 66.06161687297292
1180.0 65.35925448412382
1220.0 64.6196878925872
1250.0 63.2041987893697
1280.0 62.55778330827273
1320.0 63.65812878697079
1360.0 65.33070246747423
1400.0 66.04530276510555
1450.0 66.32734233861072
1500.0 66.1057924903783
1550.0 65.08736671018765
1600.0 64.63345511595648
1650.0 66.71950487292908
1700.0 67.7448243158875
1750.0 69.98163459014789
1800.0 71.49505999759351
1850.0 72.16940005448397
1900.0 72.10566297581153
1950.0 72.43036757876772
2000.0 72.2347880493509
2060.0 72.84797293652304
2120.0 73.13232109247681
2180.0 71.80150674686045
2240.0 71.22887749392162
2300.0 71.48709870186119
2360.0 72.15476904409125
2400.0 72.44818210314945
2500.0 72.64186929538147
2580.0 72.8736069046595
2650.0 72.90497322683312
2720.0 72.2242405106545
2800.0 71.76918250609165
2900.0 71.41278419862819
3000.0 70.39460824746352
3070.0 72.21866626669961
3150.0 73.68416742321878
3250.0 73.49931064655425
3350.0 73.27704386559569
3450.0 70.94329530402145
3550.0 68.97794842955604
3650.0 68.10354996308772
3750.0 68.57878685247915
3870.0 68.28913554719884
4000.0 67.62111054938302
4120.0 67.92217317344529
4250.0 67.15280966418898
4370.0 67.20740349837455
4500.0 66.97228869980184
4620.0 66.57653638353916
4750.0 66.27447929129947
4870.0 65.40824403981473
5000.0 65.42708053837109
5150.0 66.20739970194596
5300.0 65.88103312039966
5450.0 65.08466220698202
5600.0 64.72436053192011
5800.0 64.05177946392347
6000.0 66.54190607438493
6150.0 67.31559219099846
6300.0 66.55164247290273
6500.0 64.82001650586824
6700.0 65.68729322505627
6900.0 67.1784531474178
7100.0 66.02079073221688
7300.0 66.91740003550888
7500.0 68.84264790136972
7750.0 67.52484101375795
8000.0 65.64233927844396
8250.0 66.77096222087579
8500.0 65.33713770317743
8750.0 65.62125152887134
9000.0 63.735902530099224
9250.0 60.75622992544727
9500.0 64.0305186467636
9750.0 60.97524916123403
10000.0 60.587168786375216
10300.0 60.29331407193054
10600.0 61.06040268004813
10900.0 63.98367450508884
11200.0 61.75144944200038
11500.0 60.300845786657604
11800.0 62.534400946349166
12200.0 74.4184099242513
12500.0 69.95671452583996
12800.0 62.157994874521506
13200.0 68.55047826324696
13600.0 62.182822776460085
14000.0 64.49627851621935
14500.0 61.592141102854086
15000.0 63.22470244845127
15500.0 58.706960401511694
16000.0 59.31809735885727
16500.0 61.89604072090765
17000.0 59.27854537147891
17500.0 60.88567937017923
18000.0 59.58605041645852
18500.0 58.59464354855271
19000.0 58.89476444206919
19500.0 55.30176809586099
