Freq,On Axis,Listening Window,Sound Power,Early Reflections,Early Reflections DI,Sound Power DI,DI offset
20.0,57.41049056603775,57.41215882816378,57.488844719330714,57.39796261775071,50.014196210413076,49.92331410883307,50
20.2909,57.52949056603775,57.5309363271471,57.60754827644432,57.51681535966135,50.01412096748575,49.92338805070278,50
20.586,57.72349056603777,57.7251588281638,57.801784356229504,57.710962617750724,50.014196210413076,49.923374471934295,50
20.8855,58.212490566037744,58.213936327147096,58.29034864046157,58.199642226641416,50.01429410050568,49.92358768668552,50
21.1893,58.84649056603776,58.84805171421725,58.92450376565917,58.83390600498562,50.01414570923163,49.92354794855808,50
21.4975,59.23149056603775,59.23315882816378,59.309747394543436,59.21900484930548,50.0141539788583,49.923411433620345,50
21.8102,59.724490566037744,59.725936327147096,59.80223184505077,59.71171727476245,50.01421905238465,49.923704482096326,50
22.1274,60.36449056603776,60.36615882816379,60.44246809103235,60.351848392040225,50.014310436123566,49.92369073713144,50
22.4492,60.780490566037756,60.78193632714708,60.858060971746326,60.76750777371855,50.01442855342853,49.92387535540075,50
22.7758,61.21949056603775,61.22105171421724,61.297151555542726,61.206732888613985,50.014318825603254,49.92390015867451,50
23.1071,61.937490566037766,61.9391588281638,62.01521296474637,61.92478949060133,50.01436933756247,49.92394586341743,50
23.4432,62.633490566037764,62.634936327147116,62.71074721666723,62.62045016875565,50.01448615839146,49.92418911047989,50
23.7841,63.20849056603775,63.21015882816381,63.28596554612527,63.195675286636956,50.01448354152686,49.924193282038544,50
24.1301,64.14749056603775,64.1491588281638,64.22493422626634,64.13467528663695,50.01448354152686,49.924224601897464,50
24.4811,65.19549056603775,65.19693632714707,65.27237862532543,65.1822770873374,50.014659239809674,49.92455770182164,50
24.8372,66.19849056603773,66.19993632714709,66.27537908472347,66.18527708733741,50.014659239809674,49.92455724242362,50
25.1984,67.25949056603777,67.26105171421723,67.33656631500948,67.24640690353412,50.01464481068311,49.924485399207754,50
25.5649,68.27649056603777,68.27793632714709,68.35303116969634,68.26308378321076,50.01485254393633,49.92490515745075,50
25.9368,69.26449056603775,69.26593632714709,69.34085223601623,69.25102619914843,50.01491012799866,49.925084091130856,50
26.3141,70.34149056603773,70.34293632714709,70.41782192630741,70.32796962630503,50.01496670084205,49.925114400839675,50
26.6968,71.45749056603775,71.45893632714709,71.53382192630741,71.44396962630505,50.01496670084204,49.925114400839675,50
27.0851,72.49449056603775,72.49605171421723,72.57078431224598,72.48096962630504,50.01508208791219,49.925267401971254,50
27.4791,73.42249056603775,73.42405171421723,73.49859097385009,73.40896962630505,50.01508208791218,49.92546074036714,50
27.8788,74.44449056603776,74.44605171421723,74.52048602957767,74.43085549268217,50.015196221535064,49.925565684639565,50
28.2843,75.55049056603775,75.55205171421723,75.62631421560202,75.53685549268216,50.015196221535064,49.925737498615206,50
28.6957,76.58649056603775,76.58805171421723,76.6622389910848,76.57279661845858,50.01525509575865,49.925812723132424,50
29.1131,77.53849056603775,77.53993632714709,77.6139488183815,77.52458719127584,50.01534913587125,49.92598750876559,50
29.5365,78.47549056603775,78.47705171421724,78.55083332206496,78.4615296271442,50.01552208707304,49.92621839215228,50
29.9661,79.43549056603776,79.4369363271471,79.51066330718903,79.42141422105037,50.015522106096725,49.92627301995806,50
30.402,80.36349056603775,80.3648292323752,80.43839026307029,80.34935666787976,50.01547256449544,49.92643896930491,50
30.8442,81.20749056603775,81.20905171421722,81.28255958167037,81.19348927311154,50.015562441105686,49.926492132546855,50
31.2929,82.00549056603775,82.00705171421723,82.08024149856737,81.99130013840396,50.01575157581327,49.92681021564985,50
31.748,82.80449056603776,82.8058292323752,82.87891353468045,82.7901059211757,50.01572331119951,49.92691569769475,50
32.2098,83.57449056603775,83.57605171421723,83.64909363380356,83.56030013840397,50.015751575813255,49.92695808041367,50
32.6783,84.28749056603776,84.28905171421724,84.36171733504186,84.2730494014517,50.016002312765536,49.92733437917538,50
33.1536,84.95249056603775,84.9538292323752,85.02631945549321,84.93780147034734,50.01602776202786,49.92750977688199,50
33.6359,85.57149056603775,85.57305171421723,85.64541369393906,85.55693536175148,50.016116352465744,49.92763802027817,50
34.1251,86.13249056603776,86.1338292323752,86.20594143455064,86.11760963904509,50.01621959333012,49.92788779782457,50
34.6215,86.63449056603774,86.63605171421723,86.70790715001745,86.61968468772925,50.016367026487984,49.92814456419978,50
35.125,87.07049056603775,87.07182923237521,87.143465537326,87.0554943142312,50.01633491814401,49.928363695049214,50
35.6359,87.44649056603775,87.44794462229072,87.51948893224116,87.43149431423122,50.016450308059504,49.92845569004956,50
36.1543,87.76049056603775,87.76205171421724,87.83346495790501,87.74551185353505,50.01653986068219,49.92858675631223,50
36.6802,88.02549056603776,88.02694462229073,88.09787364550186,88.0101861965798,50.01675842571093,49.929070976788864,50
37.2137,88.24949056603775,88.25094462229072,88.3216447516796,88.23403466732078,50.01690995496993,49.92929987061112,50
37.755,88.44049056603775,88.44138495332987,88.51074992519999,88.4237328340479,50.017652119281976,49.930635028129885,50
38.3041,88.60149056603775,88.60272249435128,88.67069066162024,88.58444979366145,50.018272700689835,49.93203183273104,50
38.8613,88.74549056603776,88.74639327418613,88.81282563113545,88.72740758741479,50.018985686771344,49.93356764305068,50
39.4265,88.86849056603775,88.86905575872534,88.93356781265565,88.84908496639518,50.019970792330156,49.935487946069685,50
40.0,88.97249056603775,88.97316284791142,89.03511055216039,88.9519331592205,50.02122968869092,49.938052295751035,50
40.5818,89.07049056603775,89.07127825553357,89.13089113013744,89.04887747442463,50.02240078110894,49.94038712539613,50
41.1721,89.14949056603776,89.15005575872533,89.20598887926944,89.1257871362714,50.02426862245393,49.94406687945589,50
41.771,89.20949056603776,89.20961155399759,89.26239876256041,89.18395012655476,50.02566142744283,49.94721279143718,50
42.3785,89.26649056603776,89.26628242770524,89.31531087731376,89.23864446489198,50.02763796281326,49.95097155039147,50
42.9949,89.32249056603776,89.32239785872535,89.36697265029997,89.29249705123152,50.02990080749383,49.95542520842538,50
43.6203,89.36849056603775,89.36839785872537,89.40834775276478,89.33614048812603,50.03225737059934,49.96005010596059,50
44.2548,89.41249056603776,89.41195363780201,89.44747163392556,89.37750866481471,50.0344449729873,49.964482003876455,50
44.8985,89.47249056603773,89.47139437709036,89.50146782178894,89.43430209461742,50.03709228247294,49.96992655530143,50
45.5515,89.53749056603776,89.53640275108575,89.56120832766521,89.49664752855472,50.03975522253103,49.97519442342053,50
46.2141,89.60449056603775,89.60262097929511,89.62137004283854,89.55977192395106,50.04284905534405,49.981250936456576,50
46.8863,89.66849056603775,89.66673665912178,89.67931292950811,89.6209014743066,50.045835184815175,49.98742372961367,50
47.5683,89.70549056603775,89.7027409586435,89.7089228840523,89.6537365673474,50.04900439129611,49.9938180745912,50
48.2602,89.73249056603775,89.72962620473923,89.7289497283926,89.67710384666864,50.05252235807059,50.00067647634663,50
48.9621,89.75649056603775,89.75307522515858,89.74624236917559,89.69780369824447,50.05527152691411,50.00683285598299,50
49.6743,89.77649056603774,89.77285346163708,89.75818908869378,89.71344104163106,50.059412420006026,50.0146643729433,50
50.3968,89.80949056603775,89.80485848424537,89.78269613839701,89.74171263009094,50.06314585415443,50.02216234584836,50
51.1299,89.85449056603775,89.84941471922788,89.81961419898252,89.78263385014796,50.06678086907992,50.02980052024536,50
51.8736,89.89649056603774,89.89130840310678,89.85317210301851,89.82025294854616,50.07105545456062,50.03813630008827,50
52.6281,89.91349056603774,89.90786391712955,89.86120938938211,89.83275604949675,50.075107867632795,50.046654527747435,50
53.3936,89.92549056603775,89.91964229596475,89.86403834728388,89.83982711546699,50.07981518049776,50.05560394868087,50
54.1702,89.95249056603775,89.94609208449448,89.88204431701891,89.86229421558575,50.08379786890873,50.06404776747557,50
54.9581,89.98949056603776,89.98231937293092,89.90838712171629,89.89357323478883,50.088746138142085,50.07393225121463,50
55.7575,90.01249056603776,90.00542747794424,89.92179026158497,89.91170782497076,50.093719652973476,50.083637216359264,50
56.5685,90.02549056603776,90.01743296387451,89.92448509534191,89.91935544094906,50.09807752292545,50.092947868532605,50
57.3914,90.04249056603776,90.03343855303491,89.93029095814863,89.93024629532174,50.103192257713175,50.10314759488628,50
58.2261,90.06749056603773,90.05766679716409,89.94454316218116,89.94965746108706,50.10800933607703,50.11312363498293,50
59.073,90.10149056603775,90.09144552288846,89.96759440689776,89.97811693918112,50.11332858370734,50.1238511159907,50
59.9323,90.13549056603776,90.12489518377163,89.98985220560313,90.00587626613954,50.11901891763209,50.1350429781685,50
60.804,90.16549056603776,90.15467397207537,90.00859781610369,90.03029419679602,50.12437977527935,50.146076155971684,50
61.6884,90.19849056603776,90.18623680136619,90.02886555235062,90.05638065634678,50.12985614501942,50.15737124901557,50
62.5857,90.22749056603776,90.21490861609878,90.0455653429277,90.07907990919801,50.13582870690077,50.16934327317108,50
63.496,90.24949056603775,90.23612878575217,90.05508075593939,90.09453250618883,50.141596279563345,50.181048029812786,50
64.4196,90.26749056603775,90.25402354998852,90.06115054309183,90.10669179100687,50.14733175898165,50.19287300689669,50
65.3566,90.28349056603776,90.2687026301808,90.06325862192104,90.11518875092243,50.15351387925837,50.20544400825976,50
66.3073,90.31049056603776,90.29548176496498,90.07755073590404,90.13593426425705,50.15954750070793,50.217931029060935,50
67.2717,90.36349056603775,90.34770909423425,90.11717187888392,90.18198122095772,50.16572787327652,50.230537215350324,50
68.2502,90.43149056603774,90.41471653189785,90.17112716739786,90.2425307339267,50.17218579797115,50.2435893645,50
69.2429,90.50249056603776,90.48505436226354,90.22803458273997,90.30627570528377,50.17877865697977,50.257019779523574,50
70.2501,90.58049056603775,90.56206118617317,90.29197913965365,90.37708062553587,50.1849805606373,50.27008204651952,50
71.2719,90.64849056603775,90.62951156194873,90.34537301819672,90.43753946989358,50.19197209205515,50.28413854375201,50
72.3086,90.69849056603775,90.67906908622065,90.3813222229349,90.48051191733171,50.19855716888894,50.29774686328575,50
73.3603,90.71549056603776,90.6950785668703,90.38312955504738,90.48967878050983,50.20539978636046,50.31194901182292,50
74.4274,90.68449056603775,90.66330765593128,90.33698149989495,90.45089119492775,50.21241646100353,50.32632615603633,50
75.5099,90.60649056603775,90.58453903844908,90.243787924656,90.3651664121213,50.21937262632778,50.340751113793075,50
76.6083,90.51249056603776,90.4896535299181,90.13422243225146,90.26329423645562,50.22635929346248,50.35543109766664,50
77.7226,90.44149056603776,90.41822198899821,90.04774215082455,90.1845128855374,50.23370910346081,50.370479838173665,50
78.8531,90.39249056603775,90.3684526863511,89.98257497614667,90.12727166882145,50.241181017529655,50.38587771020444,50
80.0,90.35849056603776,90.33368352595464,89.93272151314015,90.08529075039226,50.24839277556238,50.40096201281449,50
81.1636,90.34049056603776,90.31435339655,89.89793064313027,90.0585524227704,50.2558009737796,50.41642275341974,50
82.3442,90.33649056603775,90.30914133161811,89.87697784637741,90.04580332807541,50.2633380035427,50.43216348524069,50
83.5419,90.35549056603776,90.3273725724861,89.87909384554528,90.05619480345031,50.27117776903579,50.44827872694081,50
84.757,90.38249056603776,90.35426888646593,89.89006554339886,90.07548742349576,50.27878146297017,50.46420334306707,50
85.9899,90.41349056603775,90.38405878891122,89.90304297812688,90.09714846479766,50.28691032411356,50.48101581078434,50
87.2406,90.45549056603777,90.42529047120438,89.9278600037919,90.13058398232694,50.29470648887744,50.49743046741247,50
88.5096,90.50349056603775,90.47196308217919,89.95731714920797,90.16884850858192,50.30311457359727,50.51464593297122,50
89.797,90.53349056603776,90.5010879980049,89.9696054611957,90.19001557167333,50.31107242633158,50.53148253680921,50
91.1031,90.54949056603776,90.51709182193461,89.96840595171649,90.19794087676522,50.3191509451694,50.54868587021812,50
92.4282,90.55549056603773,90.52155232422102,89.9555483813811,90.19401556443164,50.32753675978938,50.56600394283991,50
93.7726,90.51949056603776,90.48533461271393,89.90196470799977,90.14972069796902,50.33561391474491,50.58336990471416,50
95.1366,90.41849056603773,90.38334605871367,89.78213294547817,90.03909147180013,50.344254586913536,50.6012131132355,50
96.5204,90.29949056603775,90.26292358577993,89.64416986234296,89.91040375155227,50.352519834227664,50.61875372343697,50
97.9243,90.22749056603776,90.19026351833857,89.55283619065301,89.82885747975813,50.36140603858044,50.63742732768556,50
99.3486,90.21849056603776,90.17960859939087,89.52406006255667,89.80962318041584,50.369985418975034,50.6555485368342,50
100.794,90.25149056603776,90.21217996141046,89.538225730829,89.83364928110302,50.378530680307435,50.67395423058146,50
102.26,90.29049056603775,90.25052033647985,89.5579453190752,89.86319882068574,50.38732151579411,50.69257501740465,50
103.747,90.32849056603776,90.28720615527932,89.57562305567849,89.89083372600567,50.396372429273654,50.71158309960083,50
105.256,90.37549056603775,90.33343980807284,89.60298033982046,89.92825974829564,50.405180059777194,50.73045946825238,50
106.787,90.42649056603776,90.38323116781878,89.6330111470531,89.96848562816017,50.41474553965861,50.75022002076568,50
108.34,90.47349056603775,90.42891266233305,89.6594270056927,90.0053064423967,50.423606219936346,50.76948565664034,50
109.916,90.51849056603776,90.47325904958986,89.68421435194286,90.04043606609945,50.43282298349041,50.789044697647,50
111.515,90.54949056603776,90.5034911616335,89.69464462607264,90.06150923525684,50.44198192637667,50.80884653556086,50
113.137,90.57649056603775,90.52895687746336,89.70015944421199,90.07757170938125,50.45138516808211,50.82879743325137,50
114.783,90.62349056603776,90.57441834334958,89.72538009701918,90.1135846105209,50.460833732828675,50.849038246330394,50
116.452,90.70849056603775,90.65954073375927,89.7896573076236,90.18892537569799,50.47061535806128,50.86988342613567,50
118.146,90.81049056603776,90.75989373767403,89.86939801314314,90.27962279993882,50.48027093773521,50.89049572453089,50
119.865,90.82549056603774,90.7741288706947,89.86300684690092,90.28436806979589,50.48976080089881,50.91112202379378,50
121.608,90.70649056603776,90.65414614328957,89.72184110766669,90.15455957141343,50.49958657187614,50.932305035622875,50
123.377,90.57949056603776,90.5262745875193,89.57244337638424,90.01654953338668,50.509725054132616,50.95383121113505,50
125.171,90.59749056603775,90.54306825569991,89.56794587864192,90.02351985298765,50.51954840271226,50.975122377057986,50
126.992,90.72449056603776,90.6694210287307,89.67265224750223,90.13986472868767,50.529556300043026,50.99676878122847,50
128.839,90.85349056603776,90.79688656576768,89.77822561856092,90.25720137234968,50.539685193417995,51.018660947206754,50
130.713,90.92349056603776,90.86645392323175,89.82551813002765,90.31641452816129,50.550039395070456,51.0409357932041,50
132.615,90.90449056603775,90.84613748411127,89.7831703893491,90.28608912302504,50.56004836108623,51.06296709476217,50
134.543,90.78549056603775,90.72582918571439,89.64051125563988,90.15554311562431,50.57028607009008,51.08531793007451,50
136.5,90.57949056603776,90.51896148407623,89.41062752247818,89.9379820567854,50.58097942729083,51.10833396159805,50
138.486,90.32649056603775,90.26409370774697,89.13238033190322,89.67217831803671,50.59191538971025,51.131713375843745,50
140.5,90.13649056603775,90.07323078414767,88.91852898935936,89.4709798830941,50.602250901053566,51.15470179478831,50
142.544,90.13149056603775,90.06768519131911,88.88940134546812,89.45462727632015,50.61305791499896,51.178283845851,50
144.617,90.28449056603777,90.21959851850627,89.01752226584524,89.59566736592255,50.62393115258372,51.20207625266103,50
146.721,90.45649056603776,90.38962474731123,89.16372925121553,89.75484476563862,50.63477998167261,51.2258954960957,50
148.855,90.53149056603776,90.46386251359155,89.21354518638346,89.81803581191065,50.6458267016809,51.250317327208094,50
151.02,90.46949056603775,90.40033847101013,89.12527950367999,89.74300634064113,50.657332130369,51.27505896733014,50
153.217,90.35849056603776,90.28891081954332,88.98907143288294,89.6203793290785,50.668531490464815,51.29983938666038,50
155.445,90.31549056603775,90.24438425755612,88.9200907899326,89.56484365730309,50.679540600253034,51.32429346762352,50
157.706,90.33749056603774,90.26574029435179,88.91594650482101,89.57461002405044,50.69113027030134,51.34979378953078,50
160.0,90.37249056603775,90.2996556314228,88.92367400424054,89.59652356856652,50.70313206285627,51.375981627182256,50
162.327,90.43949056603775,90.36490876800612,88.96324674247114,89.65034149628953,50.71456727171659,51.401662025534975,50
164.688,90.53949056603776,90.4634772697502,89.03545097459816,89.73697701445748,50.72650025529272,51.42802629515204,50
167.084,90.63549056603777,90.55918180576211,89.10471689648585,89.82089507066132,50.738286735100786,51.454464909276254,50
169.514,90.70649056603776,90.62908961511039,89.14780144104387,89.87863293483166,50.75045668027873,51.48128817406652,50
171.98,90.73249056603775,90.6527889543366,89.14411471463707,89.89015265541492,50.76263629892168,51.50867423969953,50
174.481,90.78349056603776,90.70281489388192,89.16655957490106,89.9278861701141,50.774928723767815,51.536255318980864,50
177.019,90.88349056603776,90.8022762817359,89.23857221865481,90.01521880211604,50.78705747961986,51.56370406308109,50
179.594,90.91549056603775,90.83331174124365,89.24093492443568,90.03332079798273,50.79999094326092,51.59237681680797,50
182.206,90.86149056603776,90.77778329964066,89.15747224477616,89.96553883374672,50.81224446589394,51.6203110548645,50
184.856,90.82849056603776,90.74402388293491,89.0947597541695,89.91903393664123,50.824989946293684,51.64926412876541,50
187.545,90.86349056603775,90.77761050266166,89.09860036391841,89.93928334911006,50.8383271535516,51.67901013874325,50
190.273,90.89749056603776,90.80986728565641,89.10172032274434,89.95901497522512,50.85085231043129,51.70814696291207,50
193.041,90.81649056603776,90.72768311958735,88.98948155559096,89.86348002688607,50.86420309270129,51.7382015639964,50
195.849,90.68949056603775,90.59926470881248,88.8307002779367,89.7218287224254,50.877435986387084,51.768564430875784,50
198.697,90.72849056603775,90.63807088961715,88.83841233608705,89.74687706907987,50.89119382053728,51.79965855353011,50
201.587,90.90349056603776,90.81165892714316,88.9808381382012,89.90698950891732,50.904669418225836,51.83082078894196,50
204.52,91.00049056603775,90.90701431982002,89.04492596856781,89.98889329261154,50.918121027208485,51.86208835125221,50
207.494,90.97949056603774,90.88483177256721,88.99041233740621,89.95262797284683,50.932203799720384,51.894419435161,50
210.512,90.96549056603776,90.86952715798584,88.94262439199092,89.92324523877184,50.946281919214,51.926902765994924,50
213.574,90.98049056603776,90.8831163003862,88.92341643529447,89.92298833081891,50.960127969567296,51.959699865091736,50
216.681,90.92549056603775,90.82703768463406,88.83433565957587,89.85277749801148,50.97426018662259,51.99270202505819,50
219.833,90.73849056603775,90.63906695284967,88.6126254679088,89.65045453422616,50.98861241862352,52.026441484940875,50
