Freq "Listening Window"
20.0 57.41215882816378
20.2909 57.5309363271471
20.586 57.7251588281638
20.8855 58.213936327147096
21.1893 58.84805171421725
21.4975 59.23315882816378
21.8102 59.725936327147096
22.1274 60.36615882816379
22.4492 60.78193632714708
22.7758 61.22105171421724
23.1071 61.9391588281638
23.4432 62.634936327147116
23.7841 63.21015882816381
24.1301 64.1491588281638
24.4811 65.19693632714707
24.8372 66.19993632714709
25.1984 67.26105171421723
25.5649 68.27793632714709
25.9368 69.26593632714709
26.3141 70.34293632714709
26.6968 71.45893632714709
27.0851 72.49605171421723
27.4791 73.42405171421723
27.8788 74.44605171421723
28.2843 75.55205171421723
28.6957 76.58805171421723
29.1131 77.53993632714709
29.5365 78.47705171421724
29.9661 79.4369363271471
30.402 80.3648292323752
30.8442 81.20905171421722
31.2929 82.00705171421723
31.748 82.8058292323752
32.2098 83.57605171421723
32.6783 84.28905171421724
33.1536 84.9538292323752
33.6359 85.57305171421723
34.1251 86.1338292323752
34.6215 86.63605171421723
35.125 87.07182923237521
35.6359 87.44794462229072
36.1543 87.76205171421724
36.6802 88.02694462229073
37.2137 88.25094462229072
37.755 88.44138495332987
38.3041 88.60272249435128
38.8613 88.74639327418613
39.4265 88.86905575872534
40.0 88.97316284791142
40.5818 89.07127825553357
41.1721 89.15005575872533
41.771 89.20961155399759
42.3785 89.26628242770524
42.9949 89.32239785872535
43.6203 89.36839785872537
44.2548 89.41195363780201
44.8985 89.47139437709036
45.5515 89.53640275108575
46.2141 89.60262097929511
46.8863 89.66673665912178
47.5683 89.7027409586435
48.2602 89.72962620473923
48.9621 89.75307522515858
49.6743 89.77285346163708
50.3968 89.80485848424537
51.1299 89.84941471922788
51.8736 89.89130840310678
52.6281 89.90786391712955
53.3936 89.91964229596475
54.1702 89.94609208449448
54.9581 89.98231937293092
55.7575 90.00542747794424
56.5685 90.01743296387451
57.3914 90.03343855303491
58.2261 90.05766679716409
59.073 90.09144552288846
59.9323 90.12489518377163
60.804 90.15467397207537
61.6884 90.18623680136619
62.5857 90.21490861609878
63.496 90.23612878575217
64.4196 90.25402354998852
65.3566 90.2687026301808
66.3073 90.29548176496498
67.2717 90.34770909423425
68.2502 90.41471653189785
69.2429 90.48505436226354
70.2501 90.56206118617317
71.2719 90.62951156194873
72.3086 90.67906908622065
73.3603 90.6950785668703
74.4274 90.66330765593128
75.5099 90.58453903844908
76.6083 90.4896535299181
77.7226 90.41822198899821
78.8531 90.3684526863511
80.0 90.33368352595464
81.1636 90.31435339655
82.3442 90.30914133161811
83.5419 90.3273725724861
84.757 90.35426888646593
85.9899 90.38405878891122
87.2406 90.42529047120438
88.5096 90.47196308217919
89.797 90.5010879980049
91.1031 90.51709182193461
92.4282 90.52155232422102
93.7726 90.48533461271393
95.1366 90.38334605871367
96.5204 90.26292358577993
97.9243 90.19026351833857
99.3486 90.17960859939087
100.794 90.21217996141046
102.26 90.25052033647985
103.747 90.28720615527932
105.256 90.33343980807284
106.787 90.38323116781878
108.34 90.42891266233305
109.916 90.47325904958986
111.515 90.5034911616335
113.137 90.52895687746336
114.783 90.57441834334958
116.452 90.65954073375927
118.146 90.75989373767403
119.865 90.7741288706947
121.608 90.65414614328957
123.377 90.5262745875193
125.171 90.54306825569991
126.992 90.6694210287307
128.839 90.79688656576768
130.713 90.86645392323175
132.615 90.84613748411127
134.543 90.72582918571439
136.5 90.51896148407623
138.486 90.26409370774697
140.5 90.07323078414767
142.544 90.06768519131911
144.617 90.21959851850627
146.721 90.38962474731123
148.855 90.46386251359155
151.02 90.40033847101013
153.217 90.28891081954332
155.445 90.24438425755612
157.706 90.26574029435179
160.0 90.2996556314228
162.327 90.36490876800612
164.688 90.4634772697502
167.084 90.55918180576211
169.514 90.62908961511039
171.98 90.6527889543366
174.481 90.70281489388192
177.019 90.8022762817359
179.594 90.83331174124365
182.206 90.77778329964066
184.856 90.74402388293491
187.545 90.77761050266166
190.273 90.80986728565641
193.041 90.72768311958735
195.849 90.59926470881248
198.697 90.63807088961715
201.587 90.81165892714316
204.52 90.90701431982002
207.494 90.88483177256721
210.512 90.86952715798584
213.574 90.8831163003862
216.681 90.82703768463406
219.833 90.63906695284967
223.03 90.38085954440332
226.274 90.2425724147743
229.565 90.23337676210322
232.905 90.20652491822992
236.292 90.15365786433254
239.729 90.1682534567337
243.216 90.22983796730263
246.754 90.27030328976217
250.343 90.30556001856921
253.984 90.29602628724777
257.678 90.22839284235968
261.426 90.2345313650528
265.229 90.36678890837048
269.087 90.52047701088368
273.001 90.60607032100006
276.972 90.66119741888107
281.0 90.65877060809206
285.088 90.47646398338134
289.234 90.14149294590682
293.441 89.90797182640974
297.709 89.9283253704387
302.04 89.98945295257946
306.433 89.96814222372261
310.89 89.9423882243683
315.412 89.96685653687604
320.0 90.00799246268141
324.655 89.98769366128226
329.377 89.97837515495934
334.168 90.063736410396
339.028 90.16431900912215
343.959 90.20368590901373
348.962 90.09450265691255
354.038 89.88109890800591
359.188 89.80224872688775
364.412 89.905527872488
369.713 89.99969250941692
375.09 90.0177388750136
380.546 90.08270224413718
386.081 90.14124089144731
391.697 90.19299679383103
397.394 90.2087714965791
403.175 90.12813170054683
409.039 90.04273521583988
414.989 90.02354700943478
421.025 90.02752183686918
427.149 90.0071675819848
433.362 89.9649772462134
439.665 89.95524667112531
446.06 89.96975621455539
452.548 89.98453135767252
459.131 90.00111440311213
465.809 90.0154079451979
472.584 90.0196132453204
479.458 90.0237261631244
486.432 90.03231951017486
493.507 90.03474962374793
500.686 90.03118223944487
507.968 90.02549413765503
515.357 90.01949738486586
522.853 90.01283353279437
530.458 90.00782910745
538.174 90.00353228513339
546.002 90.00070767141663
553.943 90.0007180239432
562.001 90.00219052165887
570.175 90.00630257828537
578.469 90.01262368614964
586.883 90.02087590235682
595.419 90.03173910826685
604.08 90.04473571033755
612.866 90.05973569632472
621.78 90.07611476234653
630.824 90.09354078275696
640.0 90.11201954533787
649.309 90.1303462371705
658.753 90.14797214833841
668.335 90.16446910473711
678.056 90.17907672918508
687.919 90.1912824866021
697.925 90.20047739905718
708.077 90.20625038913256
718.376 90.20767813676568
728.825 90.20490261396428
739.426 90.19755722483202
750.181 90.18601540065741
761.093 90.16948421101823
772.163 90.1491259950831
783.394 90.12532125151017
794.789 90.09938569294555
806.349 90.0713647314576
818.078 90.04300012138059
829.977 90.01640450937585
842.05 89.99219191932195
854.298 89.97207115870783
866.724 89.95817713341164
879.33 89.95083640748992
892.12 89.95223064367967
905.097 89.96149694937135
918.262 89.9787080026034
931.618 90.00370883557514
945.169 90.03435232558309
958.917 90.06753988925685
972.864 90.09827431355474
987.015 90.10689249971414
1001.37 90.1073065680343
1015.94 90.0971540931281
1030.71 90.07702559129667
1045.71 90.08037603159984
1060.92 90.0696199064093
1076.35 90.04570024999167
1092.0 90.01556103465451
1107.89 90.00142924542627
1124.0 89.98689942168133
1140.35 89.97468624586715
1156.94 89.96400541881904
1173.77 89.94021936891359
1190.84 89.92682793891332
1208.16 89.92598073298042
1225.73 89.93689817635818
1243.56 89.96748035517986
1261.65 90.00671789805926
1280.0 90.05523239754791
1298.62 90.10518880594479
1317.51 90.12770165385881
1336.67 90.15553595078556
1356.11 90.18753698189074
1375.84 90.2188585405659
1395.85 90.24200243000872
1416.15 90.26099338308869
1436.75 90.27555822119692
1457.65 90.28460315133981
1478.85 90.29113759483411
1500.36 90.28814779427512
1522.19 90.27722497152031
1544.33 90.25899519367759
1566.79 90.2376175160882
1589.58 90.20900562296431
1612.7 90.17404181361017
1636.16 90.13394778060561
1659.95 90.09113195192405
1684.1 90.04236129403236
1708.6 89.98994831376726
1733.45 89.9411067649455
1758.66 89.90040147566012
1784.24 89.86180696639912
1810.19 89.82855918735935
1836.52 89.79858188329422
1863.24 89.76227859206406
1890.34 89.73687487784768
1917.83 89.7196406660142
1945.73 89.70718136323616
1974.03 89.68945621286521
2002.74 89.67433163058321
2031.87 89.6595829801038
2061.43 89.64690480922033
2091.41 89.63871682996079
2121.83 89.62428897573501
2152.69 89.60444378044903
2184.01 89.57563089994882
2215.77 89.5330318299605
2248.0 89.47532364344356
2280.7 89.39648390717672
2313.87 89.2986355334752
2347.53 89.18742236696225
2381.68 89.06761877555104
2416.32 88.95052610632011
2451.46 88.85363249815005
2487.12 88.80331070075857
2523.3 88.80238042654437
2560.0 88.85158583637242
2597.24 88.92181424324646
2635.01 88.97947584687874
2673.34 89.01537676529917
2712.23 89.010089466093
2751.68 88.96072472253188
2791.7 88.88243719796333
2832.31 88.7994171518602
2873.5 88.72703786711543
2915.3 88.66011771130538
2957.7 88.57814262665771
3000.72 88.46510756262009
3044.37 88.32380356243195
3088.65 88.19342619288834
3133.58 88.13395485506722
3179.16 88.19173231670082
3225.4 88.33102305885602
3272.31 88.47440477432174
3319.91 88.55026009360516
3368.2 88.55261839924198
3417.19 88.49926384871763
3466.89 88.39800301720528
3517.32 88.26682016594935
3568.48 88.14559784953647
3620.39 88.0251785316016
3673.05 87.87304478440443
3726.47 87.71116716829461
3780.67 87.64184863218713
3835.67 87.74872147078257
3891.46 87.98555724611715
3948.06 88.21206032098223
4005.49 88.30951479959025
4063.75 88.27625151285748
4122.86 88.20572661355718
4182.82 88.16083132548265
4243.66 88.11166500591942
4305.39 87.98401674220005
4368.01 87.78693602357909
4431.55 87.6307210406754
4496.01 87.62218588067003
4561.4 87.77385105137613
4627.75 87.99125747685154
4695.06 88.17467576030874
4763.35 88.2911463568128
4832.64 88.34330576910848
4902.93 88.34832854581474
4974.24 88.32572213866062
5046.6 88.29574110393236
5120.0 88.26926500864461
5194.47 88.22894744967046
5270.03 88.14555435466733
5346.68 88.00105257226474
5424.45 87.83778088735798
5503.35 87.74685170857846
5583.4 87.83102042560398
5664.61 88.10397442262816
5747.01 88.39910112928827
5830.6 88.52243661844204
5915.41 88.47818023445481
6001.45 88.42204678322484
6088.74 88.39134762435343
6177.3 88.30158355077464
6267.15 88.21428081505074
6358.31 88.23956908683975
6450.8 88.25465707187814
6544.62 88.11652425458175
6639.82 87.92920844778057
6736.4 87.84701810279279
6834.38 87.83975314028477
6933.79 87.8498352590727
7034.64 87.88816254273713
7136.96 87.90770984663702
7240.77 87.90678971157222
7346.09 88.04336781464811
7452.94 88.32286174641541
7561.35 88.60146281207945
7671.33 88.76240521071445
7782.91 88.70855553176087
7896.12 88.56345720285947
8010.97 88.38151848786691
8127.49 88.23809093313157
8245.71 88.45282433879903
8365.65 88.63998022050497
8487.33 88.65874346985534
8610.78 88.7820170102578
8736.03 88.68885025912876
8863.09 88.75175772191623
8992.01 89.01864414809027
9122.8 89.03322267887286
9255.5 89.00871054220327
9390.12 88.86773118690603
9526.7 88.78161847249255
9665.27 88.9751445147179
9805.86 88.89787300131714
9948.49 88.64176627200327
10093.2 88.79457673995648
10240.0 88.97968875730203
10388.9 89.38176355511413
10540.1 89.28577128071846
10693.4 89.21138759215201
10848.9 89.20517208176972
11006.7 89.23627355506211
11166.8 89.22702792371449
11329.2 89.0161805426335
11494.0 89.10780362738602
11661.2 89.09768396446373
11830.8 89.12613790869956
12002.9 88.9607384820994
12177.5 89.04270149187954
12354.6 89.04044278841806
12534.3 88.9936667822195
12716.6 88.71989513405862
12901.6 88.61057643045048
13089.2 88.5629096641098
13279.6 88.63971149306686
13472.8 88.49990513487566
13668.8 88.56907612601672
13867.6 88.56595905261364
14069.3 88.48735457621001
14273.9 88.40311876417718
14481.5 88.44426775241604
14692.2 88.52161173193402
14905.9 88.35645434627358
15122.7 88.65529768641953
15342.7 88.66130257525462
15565.8 88.41197151423351
15792.2 88.70419495892878
16021.9 88.69507939095332
16255.0 88.40704398845477
16491.4 88.5713503174407
16731.3 88.56149465830559
16974.7 88.25423961627722
17221.6 88.31030659983291
17472.1 88.2537660442907
17726.2 87.88775797830004
17984.0 87.81118479500792
18245.6 87.71446164396342
18511.0 87.4115372860167
18780.2 87.29050536354517
19053.4 87.14335048298781
19330.5 86.85673520883437
19611.7 86.719928516291
19897.0 86.48026326720044
