Freq,Floor Bounce,Ceiling Bounce,Front Wall Bounce,Side Wall Bounce,Rear Wall Bounce,Total Early Reflection
20.5078,66.07955201385217,61.815170430833305,63.846313220932174,64.0432452268415,64.37412072358693,64.23997931024628
21.9727,69.8182841700348,66.13658945741336,67.94580049969643,67.96694164256827,67.87141448229784,68.10461469352394
23.4375,71.69001017434277,67.78450821478367,69.74931043238448,69.72787908369462,69.44188533381265,69.8575902378979
24.9023,73.73068793591416,70.30461546264702,72.0641171654179,72.00731347077989,71.59064238930952,72.08004115478933
26.3672,76.10127665792766,72.92323494852353,74.56523588850055,74.45292090458075,74.01864927953771,74.53533423278131
27.832,77.01622819603074,73.53086703240412,75.3737047196229,75.21566910572433,74.48630349979231,75.28004772667488
29.2969,79.18628249442762,76.2454837415281,77.79235373775342,77.64671385705971,77.24815022458705,77.72940411592974
30.7617,80.78313182290826,77.64892064525121,79.36008340262485,79.14042620972295,78.42756433752696,79.20042465049492
32.2266,81.78349846276562,78.83949642413475,80.43121458387779,80.25160610592145,79.73289310190255,80.31627498533808
33.6914,82.93018283622752,80.07804422208177,81.64367847230557,81.41472644216326,80.75424748650475,81.47142121617044
35.1562,83.69658720158499,80.87834408147336,82.43508876455077,82.20706849942034,81.57090253800602,82.26162193366066
36.6211,84.32082247504133,81.60242320915934,83.10407909055066,82.87298706390696,82.28205015174662,82.93290362402281
38.0859,84.72274649121901,81.94736264261657,83.50955059884137,83.23628199430752,82.50737774884301,83.28961666350622
39.5508,85.18101444508845,82.54883449523633,84.0254876994464,83.75782525288678,83.10296516903236,83.81682077181557
41.0156,85.37713124293266,82.70455675082839,84.22089284114753,83.92610825282127,83.20390515342191,83.98524631098459
42.4805,85.73707794495483,83.08075461796402,84.59750956597807,84.29250622510757,83.5619507972966,84.35209510677105
43.9453,85.91170307764168,83.2672999155863,84.78818472606774,84.47799228740685,83.76465434645301,84.53872994470005
45.4102,86.14491594383196,83.48023716893677,85.03349449462283,84.70131123606029,83.93147172012725,84.75849332343121
46.875,86.3506925323766,83.75858363210658,85.2742084182362,84.95300835350956,84.22584934611648,85.00635392215035
48.3398,86.5791030053934,84.0004569570113,85.51599949019875,85.17045375000279,84.43404593688616,85.23410499095873
51.2695,86.965405180023,84.48148489957988,85.9604744879988,85.5877938866747,84.7786010687998,85.64647203598189
52.7344,86.98666981454768,84.50581962859273,85.98718306420436,85.59628378088624,84.75795339047701,85.66002264453715
54.1992,87.21222279379768,84.71515616787862,86.21312460897167,85.81770626534212,84.97016004640535,85.88019538533372
55.6641,87.4256668408872,84.90588236587476,86.42128878102348,86.01886924689728,85.18675409198805,86.0871230752347
58.5938,87.87351781554884,85.39700761138441,86.89283055192979,86.49356346163529,85.72527891248454,86.56681042762054
60.0586,88.03989820570852,85.58162254927554,87.06843280303754,86.65385991838254,85.89720837303604,86.7376896814291
62.9883,88.44649797870123,85.93465240053106,87.46963019840244,87.0171834636372,86.20393709919108,87.11011098076126
64.4531,88.60432715104517,86.07592299276972,87.62520749677725,87.16157131427656,86.35270081314353,87.26082619883577
67.3828,88.96671417527658,86.32857403924744,87.96823586171054,87.45781026557604,86.58614369442624,87.56872637762415
68.8477,89.18370617453205,86.53795514066375,88.19596465760505,87.67259631559492,86.8010776808667,87.78617433004868
71.7773,89.63062233080127,87.02857614030809,88.68805818996752,88.13148603647868,87.21226489897892,88.24630620886508
74.707,90.00055639560357,87.51161719589378,89.10268307541833,88.5320176664358,87.61236746219554,88.65408855949546
77.6367,90.30125927493229,87.83369971290337,89.39950353750267,88.82385861854347,87.9861865922122,88.96708889064726
79.1016,90.452950547226,87.94185010525466,89.54393259960185,88.93803717993627,88.0732474072741,89.09296166036081
82.0312,90.74828522715444,88.18446055503601,89.83416118559099,89.17787471930453,88.23287620361712,89.34715723949357
84.9609,90.95536104035148,88.36252967135401,90.04928201539899,89.35129602577683,88.28984492978604,89.52221369875525
87.8906,90.98052051120742,88.42154305159458,90.08996812587328,89.40359762095378,88.42853828658262,89.5785353826707
90.8203,91.11452614713059,88.35043733640092,90.14839109546055,89.40293069771825,88.5224764190976,89.63265949283634
95.2148,91.2537614959526,88.56765423667814,90.36974366378566,89.5781236242444,88.52986122950354,89.78897981984325
98.1445,91.18179448959536,88.37365194938626,90.26112473613105,89.41175421138614,88.33449905368256,89.65404751664163
101.074,91.2242699365315,88.28554423848695,90.27344033421718,89.35795117758279,88.30131455431436,89.64101736227171
105.469,91.37061234638665,88.20904140442883,90.4308502806054,89.3503040888111,87.87003376311696,89.64810934889526
108.398,91.65949482863283,88.40337134753646,90.74223411983259,89.5853339402882,87.84560843702272,89.8784330148512
112.793,91.82438402904852,88.74789369503436,90.98175951102186,89.85064096500277,88.14401096997467,90.12304509964528
117.188,91.63839450592236,88.63683545376507,90.8331009878125,89.68112977680416,87.7921275431502,89.93966832817291
120.117,91.56585695841856,88.56661527147968,90.76522594441572,89.5823913704182,87.61771736936113,89.85138792104236
124.512,91.43037621935595,88.49917843166048,90.63772728626391,89.50971241977007,87.74016840086489,89.77139664359687
128.906,91.06781175679042,88.04655106616617,90.24039680141561,89.06561803536722,87.50235265505036,89.38767293698272
133.301,90.89796849417395,87.75117498746108,90.05742174516158,88.7831844610157,87.17699554016369,89.1555889654321
139.16,90.57326034117912,87.40899868402542,89.7903255042356,88.42018375830646,86.4141762593148,88.78251848940273
143.555,90.12539703038065,86.96710543959468,89.3304649096619,87.9901024699674,85.94074403649613,88.33282661634281
147.949,89.74541620822194,86.5071408286756,88.95074133485524,87.58687146074257,85.70607391441564,87.95408856673701
153.809,89.59442083698973,86.11858805415572,88.88533239948747,87.2251011464413,84.71987313119976,87.6610359511136
159.668,89.61182128143834,86.43169829755574,89.02631704726052,87.42608371664012,84.62507407428517,87.77613966917505
165.527,89.40050351626014,86.43728730183207,88.90320132747208,87.36015876459375,84.73422091659265,87.67918661356579
171.387,89.10199438883785,86.20928680699198,88.55463474758066,86.94197649919978,84.31797523598809,87.34428435249673
177.246,88.27759715789641,85.88623325699832,87.84357412994719,86.33934764135668,83.62931523768937,86.6841466872266
183.105,87.37248679846796,84.60371906303722,86.74152253034185,85.24910543443617,83.17356970514491,85.68086131917995
188.965,87.66213831302275,84.13017532869752,86.9601072174667,84.98878195465387,83.16854844656866,85.71010317342831
196.289,88.88556781018825,85.28088928320336,88.60409215462512,86.0601374442361,83.5860537719457,86.93402874176785
203.613,88.82678308217417,85.6723622388031,88.70060248563186,86.32418284307504,82.37377244437839,86.94702904561447
210.938,89.14817253063083,85.9995593261864,89.084447068471,86.8863920367452,82.57287124676205,87.32228347130508
218.262,88.92985725819932,86.33872487756776,88.88732210920831,86.94054222539738,82.5086653036819,87.25673563711469
225.586,90.39356618896156,86.57102512617129,90.20786656453375,87.8918458391817,84.18580906940359,88.4205202681198
232.91,90.55263035931198,87.56482106903115,90.68345058748717,88.61344702822373,83.39931974819582,88.83360376075615
241.699,89.80932958496466,87.03148917150907,89.93715685694063,88.18139762097,82.57204323628106,88.17722227444015
250.488,89.84296522199841,87.01970665616601,89.89950471435044,88.02669092520777,83.07735163331596,88.17305975938767
259.277,90.31178183099986,87.81477331514255,90.60889902469644,88.48748148748469,83.0334114276595,88.73498103438317
268.066,88.681858635215,87.3351792478349,89.12405864358689,87.37698677378619,82.381759590094,87.50763472544186
276.855,88.12572094526794,86.7190101840582,88.3701251091265,86.58200156314278,81.76317161535486,86.83342572390147
287.109,87.93972911942083,85.7476572001929,88.1824050196674,86.10492370293096,81.59606450957519,86.45063242289723
297.363,88.51973887273316,85.77269794403786,88.63761974703998,86.60886939569777,81.64893574692186,86.85548380342453
307.617,88.38716908726965,85.24579950417201,88.32515135408349,86.44600258126218,79.38621407827266,86.49807048959212
319.336,88.79180513551668,85.01427522110623,88.81888095447707,86.64346494972847,80.55442185469512,86.83335559199286
329.59,87.85201597751708,85.21629057319763,88.48836946173714,86.89145968372672,80.34231119691634,86.5229769027342
341.309,87.40833218249008,85.37137401970769,88.19614442707207,86.56561449211064,81.17116042166889,86.31362361296362
353.027,87.58649519885479,85.92053036952352,88.4442725882655,86.4774965677547,80.36115045047238,86.46699300462161
366.211,87.68944086700365,86.07210538667019,87.79364988337542,85.94679748608357,80.9432418189364,86.25596996314432
379.395,89.26017087821712,85.53536837687217,89.17434168080986,86.63065253280044,80.13221535625775,87.14558376664577
392.578,87.78480488895958,84.83560942997977,88.16714517286304,86.3908989016006,79.83762852939024,86.21712679985306
405.762,88.11386355805845,84.7987478107089,88.36086077108014,85.81159606084294,81.0577347609688,86.32261665693882
420.41,87.87997679613107,84.27736934649111,88.62765807056503,85.31012418477799,79.13417972809144,86.08983160740867
435.059,86.39753904273482,83.58697535913053,87.43544258274022,84.10140127940595,78.0126357144475,84.88301182350496
451.172,88.0136703920987,83.81077996220546,87.94592640947702,85.26468848470822,78.93312938872377,85.82266924240022
465.82,88.22976695077493,83.71642322496973,87.84224577168729,84.18038071680911,79.68082513136075,85.7141849236897
483.398,85.80397446150569,84.58749394410803,87.9521120968708,84.21207199809595,77.11348065849457,85.07141561967117
499.512,88.76001235485278,85.49967035815122,87.27919343771161,83.09855542456764,77.76305007439754,85.80862949762954
517.09,89.54418071892523,85.79871871559381,88.58242354229215,84.35233933169162,78.37062110176524,86.70817973071685
536.133,89.29198639108593,85.04328461854229,87.6767115401582,83.20448855115664,77.20400032793145,86.05592361450215
555.176,88.76081252761003,85.74938310752172,87.00715892197742,82.76483772395419,76.3700031533015,85.7099155025737
574.219,90.1341256683486,85.06845187124712,87.13337531191387,83.11612385883122,75.43836660831327,86.25178521023386
594.727,91.17468910737564,84.75625587094369,86.73416446474268,82.22854720354225,76.81774258436889,86.62021949498852
615.234,89.87965498602718,85.38092015434549,87.87995198314226,83.23686033501757,75.4309037826755,86.38943036384569
637.207,91.61281789651903,85.56564666420722,88.72413924478754,84.18437411135768,75.246845999531,87.56015946459068
659.18,91.60783249238555,86.1115040458182,87.50606106663241,83.2117578152716,75.50611762060109,87.26672425893923
682.617,90.92490474897612,84.48579623863098,87.34396139390654,83.39834520453303,74.80068506075801,86.64577049564832
707.52,90.4476794579431,85.04052628169528,88.02766755093614,83.37739386263615,74.22755906519895,86.6405406594626
732.422,90.93992378100911,84.76158555080247,87.17571203958813,83.05570952814081,74.59511351993547,86.61577392684399
757.324,89.61699087150386,84.25935021498923,88.04236573087059,83.11615971313408,74.2794898915103,86.13016365605911
785.156,90.61232908732764,83.27872161425944,88.12974185459178,82.975123404919,73.81648751569809,86.5064282281922
811.523,90.75188235962116,84.31636364864657,88.31085631090615,83.40274187180954,73.34511899479494,86.77146749674394
840.82,90.24345598920993,84.24925036307671,87.76778668469134,82.55363147973416,72.36656077500507,86.27176201108979
870.117,91.57969652016858,83.8946552372248,87.76331024563959,82.95867710264928,72.15110357183984,86.98170926958511
900.879,91.47046159051385,84.11407822198157,87.476437833863,82.59723328985368,72.98240647677218,86.8517935078431
933.105,92.34993589970644,85.99600877839025,88.03003770029379,83.0330425106117,74.92545305073307,87.75697172098228
965.332,91.46794943018817,87.4517127646617,88.64527527538736,83.71943071551043,74.47534178641025,87.71411241555866
1000.49,90.94397283994127,88.33495549264869,88.60199181103131,84.81601926621245,75.81908328634141,87.76759434732008
1035.64,89.68378126539355,88.13940789338608,88.16253003706528,84.75678739690315,74.53271787875154,87.09903115538968
1072.27,88.40775221267236,88.58222577641294,87.5616555075905,83.78571316981541,74.68776081327995,86.53877978758713
1108.89,88.4504822566041,87.78456002367192,86.62737911773057,81.18451374754419,68.9791692325249,85.79687928950192
1148.44,87.51563233381357,85.81018741070939,86.74244920635019,80.02396630800256,66.98436055356004,84.83823403011282
1189.45,87.58835850966496,84.73636709044924,85.91857152334059,79.53594511775013,66.93526971505263,84.33615603835575
1230.47,86.9294598686731,83.35585014220646,85.99195636511695,78.46999474153553,65.95584344774572,83.7338810677825
1274.41,87.09911190088457,81.4463485538363,85.14406455204859,77.12372528437628,64.16868556979263,83.1527663173252
1319.82,86.33184301757517,78.59110152262852,84.88399701760163,74.2171575227095,64.78183529690226,82.24958151125193
1366.7,86.38673333181917,76.64004169700883,85.03434562179882,74.10519827943338,66.17371291995909,82.20073250259041
1413.57,85.54723700209136,76.61776012222076,85.24804612397098,76.84042553116701,68.36169145448612,82.01163647874162
1463.38,84.48344957854623,77.33447802711888,84.01434250067973,77.02424702997193,68.95080244367612,81.10704292299538
1516.11,83.08455118921921,78.83777084354706,84.48678616372547,76.94250668812764,67.02398729434985,80.90223111858549
1568.85,82.06596690820375,79.54610741466713,84.88983040278761,77.40104264461371,68.54987381301618,80.9441988033462
1624.51,81.62833705862624,80.76525632025778,86.35952000585645,78.7614439642178,67.66288284901113,81.92149289114957
1681.64,83.49244643275208,81.95216219973909,88.16761948688095,80.51991838422666,69.59728822997941,83.64683780816453
1741.7,84.39429088122608,83.08338622490125,89.39839851841859,81.79423418304259,71.7666547986431,84.81520854254391
1803.22,85.25191851500621,83.66167849706387,90.09968618393928,83.2165543179032,71.96928069564198,85.60184272324274
1866.21,86.44397598997075,83.89661788654725,89.29078122560527,83.65092283289266,72.8393588829413,85.53054460644397
1932.13,86.77516000714107,84.56631592549566,88.95474984308827,83.29247666787965,72.52773501320003,85.51326294169858
1999.51,87.44174960105354,85.26980338848229,89.65697743444244,84.05410313276586,72.10950708772019,86.20342521242226
2069.82,87.66614352950866,85.25781860766425,90.41365156565647,85.0354896108477,72.72720449240758,86.73450508857199
2143.07,87.90971517573028,84.64111850174997,90.63384387978796,85.28349369278148,72.3041493337626,86.84991763905296
2219.24,88.63924269883427,84.20720654859899,89.86329581576759,84.32944795838873,71.42612602995307,86.5289585022091
2296.88,88.80104694104678,84.06617146169572,88.97054801861513,83.32062496014771,70.66492019482335,86.08362070591716
2378.91,88.19483537397723,83.82180476395206,88.80381218714042,83.28835580838042,70.79519213358923,85.76450949334365
2462.4,87.47889966206209,84.38031972571143,89.92125047315075,84.59695945062832,71.35477144926706,86.26891601775402
2548.83,88.24915292029287,84.11199779077805,89.5968973950287,84.7614802602225,71.48960055625531,86.33618679298927
2639.65,89.23821835583546,84.23562236227336,88.57807309480704,83.68717732867783,70.59216914500722,86.17060971704637
2731.93,88.98113673530771,84.16728068834963,88.01607717494662,83.24459112906483,70.36484681965239,85.81425752995017
2828.61,88.64562421546049,84.17245254492703,88.3927278228277,83.59742391283645,70.2389050120008,85.8515382705118
2928.22,88.75965364339767,84.9115766507982,88.89709475878313,84.09673354370558,70.32866985641276,86.24236261080044
3030.76,88.71370139119527,84.73348928936228,89.13517509180123,84.06295667581021,70.19448315958756,86.28555104106916
3137.7,88.62490881011861,84.50581611281363,89.02531626126887,83.49688385811451,69.97016843043302,86.11390625546429
3249.02,88.60492344533854,84.65985748552464,88.54304777956615,82.85399179979756,69.30917312693467,85.87513495161588
3363.28,88.06762255971014,84.17249136177949,88.50607636229283,82.79501814131477,68.70172440459365,85.58445836220523
3481.93,87.77384445536835,84.33481408660745,88.8637086816191,83.04853491179765,68.82243423786134,85.68070817404147
3604.98,87.9535035186063,84.40421969547712,89.34211784545109,83.5828193030563,69.57375944821194,86.01322977170376
3732.42,87.46020830070044,84.36713836472309,90.24222936306221,84.32854531152255,69.68877489086042,86.37120556623452
3864.26,88.27097873502872,84.94274928496098,89.4823673202704,83.51027003816445,69.02457012241081,86.24013156027739
4000.49,88.34157837999832,84.64695085544459,89.07681474586879,82.85621820917405,68.95479550813634,85.984659383075
4141.11,87.66488555626172,84.45885025696427,89.63596997688421,83.40551802989461,68.19157511261427,86.03907574542016
4287.6,87.28975177464056,84.10848522018023,89.42425063756352,83.24045756968763,68.16050146667683,85.7670546048782
4438.48,86.96668330333178,83.86685916338072,89.63721747095326,83.42063303976771,68.09371044177279,85.76821965418561
4595.21,86.9424069523123,82.44809198309639,88.94992326225668,82.96234135159999,67.11424234534951,85.20737788838763
4756.35,86.99509112176692,82.50896663642153,89.56737534099098,83.50109321815513,67.51852503737017,85.59566196376981
4924.8,86.67451445242556,82.41235637530514,89.53810239968135,83.62214125637372,67.37582205395601,85.50008294117724
5097.66,86.9205773155773,82.88819595146312,88.85174817629128,83.00165383279376,67.39470935612148,85.20960548637136
5277.83,86.72024704696419,83.4122332571359,88.99263471653911,83.06906534426169,66.66792465149199,85.28830334749742
5463.87,86.69229849109577,82.83471282005038,89.00343726920495,83.06868825483284,66.6644543758493,85.21474150800708
5657.23,86.52713551372749,82.9010602497532,89.27412577922122,83.1233167574686,66.39808924116439,85.31538631393012
5856.45,86.84083296433177,82.32824776785137,88.69299000933778,82.62761485600484,66.59578173371405,85.00207908749404
6062.99,86.89461600633003,82.56306884955228,89.65414498943032,83.54595643954403,66.50791412643963,85.62002983535736
6276.86,86.70669001062629,83.17625544193633,88.97163606517789,83.02060597663248,65.91450807672824,85.23689936230086
6498.05,86.83829367906705,83.19950624111807,89.28607307460548,83.09578648458603,65.66616738141714,85.43534208656658
6726.56,86.96392280291846,82.76783159827802,89.88254321121583,83.55121321423078,65.93148747395489,85.77479039398506
6963.87,87.120119371999,82.0493176962476,89.53349281421227,83.0375558849633,65.60822322697898,85.51105791166482
7209.96,87.25329035197596,82.40455999859488,90.13805885016302,83.60021312392799,65.88240119248623,85.95611301385829
7464.84,87.54664531177188,82.55219225153398,90.14005289554396,83.62588363000512,65.4921799134407,86.05340290182723
7727.05,87.75929888362084,83.33250991308257,90.52885795507522,83.7344275168121,65.74325084588955,86.39861159557354
7999.51,87.81246903021433,83.42242423185218,90.85146858306581,84.00026042112866,65.72976269299177,86.61953211939044
8282.23,87.87887300774088,83.04784997346876,90.88926970470027,84.00132736616176,65.27063898989066,86.62229442098024
8573.73,87.42335766588596,81.83933384083736,90.79675330462602,83.79355413743518,65.0169914677329,86.33328202958651
8876.95,86.83941630978275,80.5031750490337,90.06331386064151,82.90914791573302,63.72276894886686,85.58160025797962
9188.96,86.66854067061759,80.21039341047437,90.22976205001449,82.8849609416474,63.52573770537062,85.61152575357032
9514.16,86.44790383752881,79.50829673172298,90.13325451349776,82.62770985021719,63.12304766068935,85.43322626752973
