Freq "Floor Bounce"
20.5078 66.58367928657941
21.9727 70.32241144276205
23.4375 72.19413744707002
24.9023 74.23481520864141
26.3672 76.6054039306549
27.832 77.52035546875798
29.2969 79.69040976715486
30.7617 81.2872590956355
32.2266 82.28762573549287
33.6914 83.43431010895476
35.1562 84.20071447431224
36.6211 84.82494974776857
38.0859 85.22687376394626
39.5508 85.6851417178157
41.0156 85.88125851565991
42.4805 86.24120521768208
43.9453 86.41583035036892
45.4102 86.6490432165592
46.875 86.85481980510384
48.3398 87.08323027812065
51.2695 87.46953245275024
52.7344 87.49079708727493
54.1992 87.71635006652492
55.6641 87.92979411361445
58.5938 88.37764508827608
60.0586 88.54402547843577
62.9883 88.95062525142848
64.4531 89.10845442377241
67.3828 89.47084144800382
68.8477 89.6878334472593
71.7773 90.13474960352852
74.707 90.50468366833081
77.6367 90.80538654765954
79.1016 90.95707781995324
82.0312 91.25241249988169
84.9609 91.45948831307872
87.8906 91.48464778393466
90.8203 91.61865341985784
95.2148 91.75788876867985
98.1445 91.68592176232261
101.074 91.72839720925874
105.469 91.8747396191139
108.398 92.16362210136008
112.793 92.32851130177576
117.188 92.14252177864961
120.117 92.06998423114581
124.512 91.9345034920832
128.906 91.57193902951767
133.301 91.4020957669012
139.16 91.07738761390637
143.555 90.6295243031079
147.949 90.24954348094919
153.809 90.09854810971697
159.668 90.11594855416558
165.527 89.90463078898739
171.387 89.6061216615651
177.246 88.78172443062365
183.105 87.8766140711952
188.965 88.16626558575
196.289 89.3896950829155
203.613 89.33091035490142
210.938 89.65229980335808
218.262 89.43398453092657
225.586 90.8976934616888
232.91 91.05675763203922
241.699 90.3134568576919
250.488 90.34709249472566
259.277 90.81590910372711
268.066 89.18598590794224
276.855 88.62984821799519
287.109 88.44385639214808
297.363 89.0238661454604
307.617 88.8912963599969
319.336 89.29593240824393
329.59 88.35614325024433
341.309 87.91245945521733
353.027 88.09062247158204
366.211 88.1935681397309
379.395 89.76429815094437
392.578 88.28893216168683
405.762 88.6179908307857
420.41 88.38410406885832
435.059 86.90166631546207
451.172 88.51779766482595
465.82 88.73389422350218
483.398 86.30810173423293
499.512 89.26413962758002
517.09 90.04830799165248
536.133 89.79611366381317
555.176 89.26493980033727
574.219 90.63825294107585
594.727 91.67881638010289
615.234 90.38378225875442
637.207 92.11694516924628
659.18 92.1119597651128
682.617 91.42903202170336
707.52 90.95180673067034
732.422 91.44405105373636
757.324 90.1211181442311
785.156 91.11645636005488
811.523 91.25600963234841
840.82 90.74758326193718
870.117 92.08382379289583
900.879 91.9745888632411
933.105 92.85406317243368
965.332 91.97207670291542
1000.49 91.44810011266851
1035.64 90.1879085381208
1072.27 88.91187948539961
1108.89 88.95460952933135
1148.44 88.01975960654082
1189.45 88.0924857823922
1230.47 87.43358714140035
1274.41 87.60323917361181
1319.82 86.83597029030241
1366.7 86.89086060454642
1413.57 86.05136427481861
1463.38 84.98757685127347
1516.11 83.58867846194646
1568.85 82.570094180931
1624.51 82.13246433135349
1681.64 83.99657370547932
1741.7 84.89841815395333
1803.22 85.75604578773346
1866.21 86.948103262698
1932.13 87.27928727986831
1999.51 87.94587687378079
2069.82 88.1702708022359
2143.07 88.41384244845753
2219.24 89.14336997156151
2296.88 89.30517421377402
2378.91 88.69896264670447
2462.4 87.98302693478934
2548.83 88.75328019302012
2639.65 89.7423456285627
2731.93 89.48526400803496
2828.61 89.14975148818773
2928.22 89.26378091612492
3030.76 89.21782866392252
3137.7 89.12903608284586
3249.02 89.10905071806579
3363.28 88.57174983243739
3481.93 88.2779717280956
3604.98 88.45763079133354
3732.42 87.96433557342769
3864.26 88.77510600775597
4000.49 88.84570565272557
4141.11 88.16901282898897
4287.6 87.79387904736781
4438.48 87.47081057605902
4595.21 87.44653422503954
4756.35 87.49921839449416
4924.8 87.1786417251528
5097.66 87.42470458830455
5277.83 87.22437431969144
5463.87 87.19642576382302
5657.23 87.03126278645473
5856.45 87.34496023705901
6062.99 87.39874327905727
6276.86 87.21081728335353
6498.05 87.3424209517943
6726.56 87.4680500756457
6963.87 87.62424664472624
7209.96 87.75741762470321
7464.84 88.05077258449913
7727.05 88.26342615634809
7999.51 88.31659630294158
8282.23 88.38300028046812
8573.73 87.9274849386132
8876.95 87.34354358251
9188.96 87.17266794334483
9514.16 86.95203111025606
9849.61 86.29004020908346
10196.8 85.54459087534238
10555.7 84.98701514367833
10927.7 84.79583747140155
11313.0 84.71605895772689
11712.9 84.66572833073712
12126.0 84.72427855714615
12553.7 84.04714043551306
12996.1 82.48846531159889
13454.6 82.50340814773016
13929.2 83.66805192860406
14419.9 82.58168571250118
14928.2 79.15850438548533
15455.6 78.64876071681354
16000.5 79.54179692768024
16564.5 81.10332455708392
17148.9 80.9258130332168
17752.4 79.46358832776019
18379.4 78.39133189341487
19026.9 77.35246265495984
19697.8 77.0137060435409
19999.5 77.13816480155027
