Freq "Front Wall Bounce"
20.5078 63.84631322093216
21.9727 67.94580049969642
23.4375 69.74931043238446
24.9023 72.06411716541791
26.3672 74.56523588850055
27.832 75.3737047196229
29.2969 77.7923537377534
30.7617 79.36008340262485
32.2266 80.43121458387778
33.6914 81.64367847230557
35.1562 82.43508876455078
36.6211 83.10407909055064
38.0859 83.50955059884137
39.5508 84.02548769944642
41.0156 84.22089284114752
42.4805 84.59750956597806
43.9453 84.78818472606775
45.4102 85.03349449462283
46.875 85.27420841823619
48.3398 85.51599949019875
51.2695 85.96047448799881
52.7344 85.98718306420434
54.1992 86.21312460897167
55.6641 86.42128878102349
58.5938 86.89283055192978
60.0586 87.06843280303754
62.9883 87.46963019840243
64.4531 87.62520749677725
67.3828 87.96823586171054
68.8477 88.19596465760503
71.7773 88.68805818996752
74.707 89.10268307541831
77.6367 89.39950353750265
79.1016 89.54393259960185
82.0312 89.83416118559097
84.9609 90.049282015399
87.8906 90.08996812587328
90.8203 90.14839109546057
95.2148 90.36974366378567
98.1445 90.26112473613107
101.074 90.27344033421718
105.469 90.4308502806054
108.398 90.74223411983259
112.793 90.98175951102186
117.188 90.8331009878125
120.117 90.76522594441572
124.512 90.63772728626392
128.906 90.24039680141561
133.301 90.05742174516158
139.16 89.7903255042356
143.555 89.33046490966188
147.949 88.95074133485524
153.809 88.88533239948745
159.668 89.0263170472605
165.527 88.90320132747209
171.387 88.55463474758068
177.246 87.84357412994719
183.105 86.74152253034185
188.965 86.9601072174667
196.289 88.60409215462514
203.613 88.70060248563186
210.938 89.08444706847101
218.262 88.88732210920831
225.586 90.20786656453373
232.91 90.68345058748719
241.699 89.93715685694062
250.488 89.89950471435043
259.277 90.60889902469643
268.066 89.12405864358689
276.855 88.37012510912652
287.109 88.18240501966739
297.363 88.63761974703999
307.617 88.32515135408347
319.336 88.81888095447707
329.59 88.48836946173715
341.309 88.19614442707208
353.027 88.4442725882655
366.211 87.79364988337544
379.395 89.17434168080987
392.578 88.16714517286303
405.762 88.36086077108013
420.41 88.62765807056502
435.059 87.43544258274022
451.172 87.94592640947701
465.82 87.84224577168729
483.398 87.95211209687079
499.512 87.2791934377116
517.09 88.58242354229216
536.133 87.67671154015818
555.176 87.0071589219774
574.219 87.13337531191387
594.727 86.73416446474268
615.234 87.87995198314225
637.207 88.72413924478752
659.18 87.50606106663241
682.617 87.34396139390655
707.52 88.02766755093614
732.422 87.17571203958813
757.324 88.04236573087059
785.156 88.12974185459178
811.523 88.31085631090613
840.82 87.76778668469136
870.117 87.7633102456396
900.879 87.47643783386299
933.105 88.03003770029379
965.332 88.64527527538738
1000.49 88.60199181103131
1035.64 88.16253003706527
1072.27 87.5616555075905
1108.89 86.62737911773058
1148.44 86.7424492063502
1189.45 85.91857152334059
1230.47 85.99195636511695
1274.41 85.14406455204859
1319.82 84.88399701760163
1366.7 85.03434562179882
1413.57 85.248046123971
1463.38 84.01434250067975
1516.11 84.48678616372547
1568.85 84.8898304027876
1624.51 86.35952000585647
1681.64 88.16761948688097
1741.7 89.39839851841857
1803.22 90.09968618393928
1866.21 89.29078122560527
1932.13 88.95474984308828
1999.51 89.65697743444244
2069.82 90.41365156565648
2143.07 90.63384387978796
2219.24 89.86329581576759
2296.88 88.97054801861512
2378.91 88.80381218714044
2462.4 89.92125047315075
2548.83 89.59689739502869
2639.65 88.57807309480702
2731.93 88.01607717494663
2828.61 88.39272782282768
2928.22 88.89709475878311
3030.76 89.13517509180122
3137.7 89.02531626126888
3249.02 88.54304777956615
3363.28 88.50607636229282
3481.93 88.86370868161909
3604.98 89.3421178454511
3732.42 90.2422293630622
3864.26 89.48236732027041
4000.49 89.0768147458688
4141.11 89.63596997688421
4287.6 89.42425063756352
4438.48 89.63721747095326
4595.21 88.94992326225668
4756.35 89.56737534099096
4924.8 89.53810239968135
5097.66 88.85174817629127
5277.83 88.99263471653913
5463.87 89.00343726920494
5657.23 89.27412577922122
5856.45 88.69299000933776
6062.99 89.6541449894303
6276.86 88.97163606517789
6498.05 89.28607307460548
6726.56 89.88254321121583
6963.87 89.53349281421227
7209.96 90.138058850163
7464.84 90.14005289554396
7727.05 90.52885795507524
7999.51 90.85146858306581
8282.23 90.88926970470028
8573.73 90.79675330462602
8876.95 90.0633138606415
9188.96 90.2297620500145
9514.16 90.13325451349775
9849.61 89.71939957382014
10196.8 89.64740876250397
10555.7 89.4338205982883
10927.7 89.6216423237556
11313.0 89.58471727190101
11712.9 89.27304387043142
12126.0 88.97093968608176
12553.7 88.29522815500559
12996.1 87.26917566417637
13454.6 87.25868127129212
13929.2 88.68462043922905
14419.9 88.06931224448367
14928.2 85.3280540257329
15455.6 84.77154972065976
16000.5 85.60563048753755
16564.5 86.57677030074075
17148.9 86.51140043327683
17752.4 85.20970495831702
18379.4 84.68450089520252
19026.9 84.09981989684186
19697.8 82.96972664568221
19999.5 82.73257369792844
