Freq,Floor Bounce,Ceiling Bounce,Front Wall Bounce,Side Wall Bounce,Rear Wall Bounce,Total Early Reflection
20.5078,61.28488685279834,59.39593829532052,60.856438284573926,59.88727960231134,63.1710093676205,61.12751843671299
21.9727,61.75655818383913,59.568613455376294,61.292995999293,60.08058479578028,63.43821431996682,61.44671018647847
23.4375,62.02810162719591,59.89975770137727,61.595714898724566,60.40158283689203,64.24402089266775,61.91468958659128
24.9023,62.87610489362582,61.170048069237,62.47712233556081,61.65136827118519,65.75758490773367,63.115360423687264
26.3672,64.39215014564628,63.09860922777793,64.0452051028806,63.53337067877169,67.23964831238759,64.73653444833334
27.832,65.5315180963113,64.36432918839334,65.2072723947914,64.78225179587004,68.14413025049947,65.8325902833899
29.2969,66.6468852884314,65.60045076793348,66.3418574890566,65.99278375033832,69.01120815817202,66.90143454942776
30.7617,67.5051702719534,66.67225723974276,67.2422240095348,67.02780124672904,69.87466765092113,67.82997212040179
32.2266,68.61831820256353,67.80230853830645,68.35135600016866,68.17289919611106,70.68573155731555,68.85602106504766
33.6914,69.45474667241015,68.72078748216119,69.19814410211139,69.08142065391047,71.40233744976314,69.6836859772074
35.1563,70.34122336283039,69.6720288902001,70.09331213646219,70.03320809632635,72.17271756178835,70.5595825665873
36.6211,71.23023678439125,70.65551103997211,70.99836969025449,70.99720880016163,72.94403689719312,71.44678552705628
38.0859,72.08872390092613,71.53787320227592,71.85823169088071,71.88070936446285,73.6257486906914,72.26494169851533
39.5508,72.86052712719287,72.40501001703424,72.65672602288,72.7228426276896,74.34843100610117,73.0574933678619
41.0156,73.72015754577772,73.27743435033587,73.51921105887051,73.58382761874915,74.9839177494033,73.86092299517256
42.4805,74.47254971761325,74.05829808333255,74.28806954130876,74.35008720601392,75.65095574139893,74.60205903090474
43.9453,75.12667552389757,74.65726487540572,74.91225559393588,74.98624565473222,76.14491675919709,75.19713736605102
45.4102,75.76244535357648,75.29589764667979,75.54528727852227,75.62489848550725,76.677830029402,75.80809142967672
46.875,76.33190300798461,75.91809692106926,76.12554242795241,76.23621664039413,77.24687029137374,76.39693609247385
48.3398,76.93538769776958,76.52710072786374,76.71913212025416,76.86591508746196,77.81481627081736,76.99600938459591
51.2695,78.10912358180147,77.71485992578144,77.90191720562296,78.04307353842567,78.75202549834896,78.11874027262381
52.7344,78.68792858417996,78.30245923506916,78.48403670315889,78.6253087482369,79.24154724644484,78.679970372091
54.1992,79.17298087842175,78.80489240792477,78.97255650812343,79.12274422756252,79.68555853522118,79.16202984945846
55.6641,79.71725702559849,79.34042745953697,79.51951294325559,79.65217904179329,80.09862909720204,79.67298647114177
58.5938,80.60167519441211,80.22619320377842,80.39983487530071,80.54533146743849,80.91762867655517,80.54426145825585
60.0586,80.96805708606287,80.59059272697789,80.76181028037134,80.91742424994969,81.25699817762025,80.90469284448801
62.9883,81.75105339729612,81.37409380720587,81.54396401672868,81.70298257801107,81.95233055022186,81.66927135699382
64.4531,82.15854393252147,81.77832762518054,81.94902839119723,82.1109129385536,82.32429270764615,82.06820922613828
67.3828,82.85353369508923,82.45716358699254,82.63577685922952,82.8000755224844,82.94300763466265,82.74130882756614
68.8477,83.15052486952314,82.76073018820279,82.93498933981047,83.09700289320487,83.20401075738066,83.03244093593193
71.7773,83.69965253136483,83.31763454412027,83.49103921159116,83.64457702814683,83.67718607430724,83.56838522415993
74.707,84.26100352451806,83.88624017522862,84.05993313308106,84.20299386451688,84.16414871418466,84.11684882214765
77.6367,84.7843812342537,84.41170596253676,84.58279899883976,84.72935441006013,84.65788553655248,84.63515469292676
79.1016,84.9713812342537,84.595108644759,84.76902079663564,84.91234893162698,84.81332793965818,84.81417056832686
82.0313,85.28704785145413,84.89821717770943,85.08182167530259,85.21634719258205,85.06128872716022,85.11102747903342
84.9609,85.58959588331115,85.2037489734693,85.38454779134324,85.5256529520891,85.36748842290302,85.41628657443339
87.8906,85.89514262407675,85.50367242023027,85.69936687377847,85.81964477439163,85.58763624893713,85.70347650752706
90.8203,86.09053933091737,85.6769043527706,85.89392938208555,85.9930962154585,85.67999572304154,85.87006279062862
95.2148,86.32442118833717,85.89975110107795,86.12625451218078,86.21361411347227,85.8589272692685,86.08829659649237
98.1445,86.43546888829539,86.0207432386759,86.24079244740594,86.32636932441052,85.98147195056757,86.20448784344867
101.074,86.51413603783371,86.06196554611415,86.31561701790022,86.37995390614182,85.96764300143707,86.25259337276678
105.469,86.47655384162175,86.03340997190352,86.28520084929505,86.33367277883166,85.88960344812958,86.20885957323512
108.398,86.5565843850063,86.111625040284,86.36842481223472,86.40315580047212,85.91840570096448,86.27754496110533
112.793,86.66849650319013,86.19778940807156,86.48106617092017,86.48314406667504,85.94198103665101,86.36192822911879
117.188,86.63065438212345,86.14738982573526,86.45234580417181,86.42896508866309,85.85025702103057,86.31045069669929
120.117,86.65819028214375,86.16146808704606,86.47430707219276,86.44043334867771,85.85462361552496,86.3267794091519
124.512,86.6303874758533,86.10051197122552,86.43692179903879,86.38675732717127,85.79045396283519,86.27879764511879
128.906,86.5528617026371,85.96513092659258,86.34916606829627,86.25246725844983,85.5646556108086,86.1502051822055
133.301,86.50812665000939,85.88415920248755,86.29609576340889,86.18888993105284,85.47434688595843,86.0849890025043
139.16,86.37618313936399,85.70594657466626,86.15542748563888,86.02792924270472,85.30288877749682,85.9296042628027
143.555,86.20627785586055,85.50072738854706,85.98360689307759,85.81866593054868,85.04817787298613,85.72995791111191
147.949,86.0846150550683,85.31300282989184,85.85247805109057,85.64537418206946,84.81303889593642,85.56400368549868
153.809,85.95704642241493,85.08820059743887,85.70435636282916,85.44661422204538,84.50263787329632,85.36886808247728
159.668,85.85947540934227,84.98123137384376,85.62240975621853,85.35257297191325,84.36654604888619,85.26735293877508
165.527,85.81093117885584,84.98846583128116,85.60292273043068,85.32518145200359,84.397787640031,85.25292664038722
171.387,85.66203139727492,84.84749138887904,85.46961708600263,85.13653102906851,84.20844704382766,85.0942369169145
177.246,85.5019982708975,84.64497402324106,85.31012767211075,84.93797291324984,83.97968602113961,84.90738409025107
183.105,85.31517502091829,84.28472639783449,85.10241137734788,84.62786754561377,83.52223857108316,84.61586540508657
188.965,85.13276833275157,84.06289502540046,84.90560985864667,84.42126277464713,82.95986103941097,84.36096326416084
196.289,84.87174787516528,84.00504126522554,84.69858493135361,84.26316358382265,82.95125160361388,84.20849915835252
203.613,84.59162887600824,83.74960948482155,84.46596392983777,83.94284796082472,82.71353027366311,83.94205193355076
210.938,84.50692384621897,83.52766437686225,84.36297574271356,83.77849330958071,82.46216209824273,83.78637397360455
218.262,84.28666474354797,83.35973277417574,84.1556440879572,83.55147930194332,82.19880427418781,83.57131821904161
225.586,84.27153330804325,83.20860720266981,84.14368842177244,83.43019058284064,82.2398935667564,83.51861977348142
232.91,84.49162106782059,83.36943140678554,84.37194398972665,83.49303716291448,81.7535639398541,83.60004596774336
241.699,84.1174120633493,83.06109846020544,83.95744201760989,83.23873579139307,81.29441806903883,83.24154381702888
250.488,84.00961200259545,82.49276646554468,83.74130833812731,82.8425783696461,81.10794828810957,82.95534016280133
259.277,84.46673061187943,82.68839002291314,84.1791855987488,83.13775515001817,81.40464136193378,83.30945492225092
268.066,84.46410190946787,82.52306837713424,84.12672010010945,83.00740934443044,81.68175897646896,83.28003052871607
276.855,84.61021627678532,82.52485219662583,84.35904119673452,83.07095040506744,80.90318295103562,83.29071522808822
287.109,84.6177972759552,83.02996516764054,84.5317660637628,83.43649783167643,81.03183484131122,83.50962345101549
297.363,84.53523018812831,83.0237062326739,84.44425882261099,83.20664196630345,80.87559954776395,83.40278793226246
307.617,84.51871300676443,83.17281435574236,84.50672521478003,83.44193132010672,80.72021331830881,83.47092904876986
319.336,84.30332368051083,82.709499616628,84.14521285605767,83.02226449099211,80.649316049693,83.1487119038129
329.59,84.2643198087664,82.53235939833945,84.06451600486774,82.99119308894527,80.26722810653098,83.03854813128345
341.309,83.94981154586591,82.32674262408952,83.81033070283559,82.80141413060656,80.18822137071402,82.808822784171
353.027,83.91898231841319,81.789485323057,83.68498350823698,82.29583196145255,79.515005401325,82.50539548870356
366.211,83.77523418422086,81.68706649549839,83.60459552590132,82.44805281547224,78.90724186426289,82.39943496074599
379.395,84.01819343602563,82.30207965412156,84.02934979420242,82.9361544895873,78.9627505293471,82.78940841124664
392.578,83.41690604192596,81.74359208267592,83.28015699558183,82.51396575674111,79.38937872441315,82.28984336939317
405.762,82.72332763356921,81.00916948016611,82.70974468410415,81.52335763716246,79.03460161263978,81.59615882747381
420.41,83.35059530122254,81.22311217646758,83.3766404094306,81.73698120469645,78.00078790153344,81.9240913005185
435.059,82.73117126100693,80.95718372104831,82.70845048934302,81.60368361852532,78.05346014989814,81.50647624979007
451.172,83.07177288777656,80.36467222656051,83.16511306203941,81.41703007297448,77.70598736263791,81.56194638039386
465.82,83.0477488015982,80.55366538215246,83.11784685636034,81.70947711480775,77.19952211154447,81.58996845007331
483.398,82.53271585032144,80.25438206223616,82.67192083925073,81.15488194503735,77.50456076833443,81.18575561214263
499.512,82.65030315333266,79.77273526701076,82.77472764407833,80.79993241348603,77.4077193398853,81.09719268908094
517.09,83.20700351577877,80.40389219040242,83.41860565362911,81.29365273791852,77.1033660972119,81.6122035183183
536.133,83.06898105691428,79.46764881452593,83.49455310275545,80.64902950154371,77.58133094629991,81.38739577525497
555.176,84.07546932858543,79.67522423530943,84.5277395231746,82.22878462421997,76.80043153197879,82.28893227346933
574.219,84.50464758459057,80.66826935282225,84.86229863272705,82.89771462801727,77.93560355213572,82.8428719270662
594.727,84.76425899180472,81.48287149729695,85.15135134135495,83.15887663269207,78.54110823494833,83.20598558885004
615.234,85.03915562449755,81.858246012209,85.46378091021599,82.87427901425771,78.33903745700827,83.37023726239555
637.207,84.85452508241285,81.20287338075963,85.1034164014589,82.73905205723435,78.2140687366017,83.07815202886775
659.18,84.93683093085664,81.7494390058045,85.24517433408494,82.1289321435909,77.74730906845033,83.09056480114535
682.617,83.97246250208913,81.57055063655149,84.59403074709753,81.96127346752633,76.75381644702648,82.48274558591817
707.52,84.01658744103376,81.49139784928343,84.40648200454923,81.90153308562343,76.7117272422648,82.40945774629331
732.422,83.64928788336621,81.7813234896443,84.48674528007685,81.91546856214418,76.02863577525673,82.34970528508687
757.324,83.43918121093688,81.73892503363501,84.49160471206021,82.09567267967911,76.58719116877243,82.34967059460278
785.156,84.44302989061353,82.96237511780694,85.19323882274853,82.33737073821786,77.24874584357133,83.14268255943763
811.523,83.57032176006504,82.27921869361705,84.72272425034551,81.81559277335865,76.8628949255072,82.52207755433463
840.82,83.53866869661346,82.36205369716723,84.80425354597287,81.8657016517634,76.3925846818137,82.54148709965997
870.117,83.02335929033886,81.75009890116996,84.35557595657455,81.52680743843887,76.00303321404672,82.06726651287548
900.879,82.68435999808153,81.86463211983336,84.2523650900365,81.2492925909224,75.22614697625897,81.88661777578018
933.105,82.30721374209128,81.57110565503656,84.24302068767796,81.11429937178475,74.58949355209086,81.68708321760553
965.332,81.84729417510633,81.11319459142271,84.05009009980557,80.41055871666705,74.31559138716884,81.29212640675902
1000.49,81.82192819366861,80.51911172673749,84.31370103561747,80.49282661447113,73.85044912772156,81.27822536782836
1035.64,81.30665965614575,80.11760745052517,84.2739738779915,80.24386771622213,73.6759717577292,81.03449650220716
1072.27,81.43327463528064,80.03782347328765,84.48147871496279,80.66201940824126,73.56615998027618,81.20449772324758
1108.89,82.3753655762741,81.4935273879117,84.89152407368918,81.28999068825996,74.5871606278796,81.96236153317292
1148.44,83.6610455950351,82.52328202867763,85.47549900669593,81.44589608732556,74.8613994573762,82.71407186343033
1189.45,83.27002294918974,82.09122640865641,85.18040808521047,80.75616984891954,74.80689174215463,82.32023128041622
1230.47,82.45277268943033,81.28635568326557,85.16803101675274,80.86039034576987,74.7657499032511,81.9918042815621
1274.41,82.34025192783938,80.6060380265456,85.03089064338127,81.00609610877393,74.38702447585193,81.80925648209558
1319.82,82.07869611753459,79.50651120884305,84.65872414142912,81.01332777516285,73.84829108451932,81.42083718150124
1366.7,81.95927769646215,79.12233469504318,84.02469859900711,80.32349170001825,73.3890101601998,80.94043946340838
1413.57,81.10254710050427,78.5931472539097,83.71678493993151,79.58744124785703,72.48694316047897,80.37607910407975
1463.38,80.41487089533939,78.06397348255214,84.29152824621686,79.4897692069583,71.70704552459914,80.38552923975132
1516.11,80.05302364592973,77.48358278414135,84.77890068286712,80.18647177360592,71.45814709102999,80.61572338005114
1568.85,79.89749305029443,75.91782306690934,84.7085549729283,80.48682830452627,71.49280557527473,80.47974418874168
1624.51,78.95915852191922,75.05184841659073,84.0915320273115,79.6513925900487,71.27274542184858,79.75820205055777
1681.64,77.21965336689681,73.53159726210694,83.94567728140036,79.40838056102334,70.5607166772862,79.26320299371437
1741.7,75.92565024106452,71.4908753726138,84.83897699885416,80.23287425548673,70.7765492761676,79.78102700486359
1803.22,75.33512176839352,69.98169353852364,84.92013297033358,80.10961260017665,70.96268940497708,79.72777097540883
1866.21,75.2557714195193,68.32535723411567,84.752223828389,79.76129754510954,72.19500816158381,79.54494782808547
1932.13,76.60441924850463,72.49421681679355,85.01114007641067,81.1230679861171,73.97779069566174,80.2942941780469
1999.51,76.95925930394465,66.72393735048054,84.9266573071739,82.27871116231765,74.69640795854009,80.52130275023197
2069.82,77.32288672142457,70.79928905587066,84.44157782418444,82.44869436543235,74.35590751666983,80.3908364397918
2143.07,77.3457546758221,71.59473227813007,83.87592643633968,81.81450592644642,73.96969477988847,79.908975872996
2219.24,75.90854810609322,74.62042543995457,85.04234699248242,82.70981012646868,73.61740838569212,80.7694193858638
2296.88,77.77842585620687,77.03665930780076,84.45682108030277,82.39088280465211,73.61663820396763,80.68900376747348
2378.91,77.21055681341373,79.62325116431714,84.7871735867221,82.73024596132433,73.89789131105145,81.18892036008194
2462.4,77.3278891425066,79.49507264442019,84.78442937719859,83.08206210706527,73.22471702083793,81.26022250148826
2548.83,78.20728581460719,79.7916494823136,83.76366646204416,82.08372374749078,72.54536685584604,80.63652093998806
2639.65,77.89622532318113,79.96827542600015,84.65267481844862,82.36794195689046,72.39265839811812,81.09005338530022
2731.93,78.0740737860688,80.10251593383903,85.05903074728663,82.73778447438828,72.38559800168481,81.41312673116416
2828.61,78.29178237242023,80.9784830259822,84.33570075730637,82.12680199122158,71.91177676417448,81.09133700870932
2928.22,79.25481961983506,80.78696986118585,84.68855551561127,82.29410385797861,71.84616065219045,81.3566351057867
3030.76,80.01813011248798,81.70691677135142,84.3462964835195,82.14102794790784,71.91261580822331,81.46039057731157
3137.7,80.6986326361397,81.52897725823354,83.97370841717378,81.88665496073673,71.84759985889144,81.32921272588715
3249.02,81.34055600660474,81.94293459278342,83.88220861687466,81.8971453698226,71.93858938496248,81.50729407136006
3363.28,81.89570926577736,82.40573191488934,83.66579974299063,81.89141634087557,71.82122877176374,81.65011537777292
3481.93,82.13037691656072,82.32455007065732,83.5187955202617,81.8998360032451,71.73767695636104,81.63605770922865
3604.98,82.61225879141199,82.57000735671792,83.69517134823901,82.42981436075836,71.98283412940482,81.97626842084948
3732.42,83.29615314207793,82.56828516432364,83.39583841201687,82.22222647115197,72.18788844108336,82.02040974946547
3864.26,83.75274327090786,82.23641071133555,83.80612752812986,82.63039391500953,72.23122153087571,82.27798696097445
4000.49,83.97747402184733,82.35929074853273,83.45013615870721,82.44444246323191,71.43337801729861,82.21592713918756
4141.11,83.95062592915885,82.02703786730702,83.4672512614009,82.15905919725874,70.82560465014993,82.07641804467485
4287.6,83.92208767269477,81.70448758526162,83.31925959085102,81.60276183654567,70.26600970479069,81.84578032874035
4438.48,84.19114413433002,81.66842360240534,83.52321952267364,81.21097943056063,68.76582466247903,81.8982046939422
4595.21,84.27187832503732,81.20273837898316,83.15793805272646,80.23612258540811,68.41115198534388,81.57616616688043
4756.35,83.35813616793557,81.31753908071076,83.21137647002479,80.254800425918,68.9146305325778,81.30609304288491
4924.8,83.46892818660874,81.42968147123469,82.46300319004014,79.6396321813752,68.01810809888357,81.04455550335892
5097.66,83.52781409981606,81.37096139233022,83.13255454276992,79.64335407160402,68.02301064409684,81.24894134703068
5277.83,82.93674879643413,81.12061758471502,83.07452019160527,79.20845208209683,68.04352167405034,80.92559463044279
5463.87,82.68161411497762,80.92905946039699,82.90747984565084,79.01034638279937,67.26666465900985,80.71548435296243
5657.23,82.57747855668254,80.9100153532519,83.26685181669714,78.82775170246975,66.59328116791222,80.77308478032771
5856.45,82.21747615067011,80.81411488408888,83.45734534362978,78.5169051765093,65.70745654235577,80.67236207858491
6062.99,82.18048380091727,80.63159840965244,83.57638527362656,78.16956191604945,65.27072712340689,80.62722170543479
6276.86,82.02723063907705,80.6551115720622,83.86501193349089,77.82797248248882,65.04125642135043,80.66778138639769
6498.05,82.00997654420732,80.18246181255155,84.13885126739177,77.77912953052727,64.92173516655697,80.68606497336606
6726.56,81.92853208074499,79.70395232056293,84.4027813130626,77.70010676271102,64.53500251601832,80.69401121736729
6963.87,81.93851408378993,79.51674601551554,84.58398115719527,77.8772589431274,64.30235717796826,80.77078899732359
7209.96,82.1663070604147,79.4793953217571,84.69604981273022,78.25079038225714,64.4881092596644,80.91940632848733
7464.84,82.11487728277119,79.21776066694476,84.61061972022519,78.62269258627856,64.34938961877243,80.87006828150899
7727.05,81.53561523561999,79.3402950712007,84.11894948782894,78.47676951109823,63.7335282178346,80.48649155928317
7999.51,81.50307955949039,79.51319482722832,83.85070928877452,78.29006375701125,63.25104220060078,80.35844759776325
8282.23,81.41176451664202,79.54337630166326,83.44297011186703,78.14089538823636,62.89691740961905,80.1410775679413
8573.73,81.48098991592437,79.51636083847275,83.21162627359729,77.77586409650523,61.774283079548766,80.00880380399923
8876.95,81.35284908762627,79.45663485330853,83.00679609242033,77.49747406829846,61.18626997186783,79.84204682633245
9188.96,81.1881713536232,79.27013498722161,82.91988521414217,77.40062897422578,61.283419277219934,79.71445438366285
9514.16,80.39616423154688,79.01692218323181,82.71739907551283,77.0438038330547,60.97809699704311,79.32605201300139
