Freq "Rear Wall Bounce"
20.5078 63.1710093676205
21.9727 63.43821431996682
23.4375 64.24402089266775
24.9023 65.75758490773367
26.3672 67.23964831238759
27.832 68.14413025049947
29.2969 69.01120815817202
30.7617 69.87466765092113
32.2266 70.68573155731555
33.6914 71.40233744976314
35.1563 72.17271756178835
36.6211 72.94403689719312
38.0859 73.6257486906914
39.5508 74.34843100610117
41.0156 74.9839177494033
42.4805 75.65095574139893
43.9453 76.14491675919709
45.4102 76.677830029402
46.875 77.24687029137374
48.3398 77.81481627081736
51.2695 78.75202549834896
52.7344 79.24154724644484
54.1992 79.68555853522118
55.6641 80.09862909720204
58.5938 80.91762867655517
60.0586 81.25699817762025
62.9883 81.95233055022186
64.4531 82.32429270764615
67.3828 82.94300763466265
68.8477 83.20401075738066
71.7773 83.67718607430724
74.707 84.16414871418466
77.6367 84.65788553655248
79.1016 84.81332793965818
82.0313 85.06128872716022
84.9609 85.36748842290302
87.8906 85.58763624893713
90.8203 85.67999572304154
95.2148 85.8589272692685
98.1445 85.98147195056757
101.074 85.96764300143707
105.469 85.88960344812958
108.398 85.91840570096448
112.793 85.94198103665101
117.188 85.85025702103057
120.117 85.85462361552496
124.512 85.79045396283519
128.906 85.5646556108086
133.301 85.47434688595843
139.16 85.30288877749682
143.555 85.04817787298613
147.949 84.81303889593642
153.809 84.50263787329632
159.668 84.36654604888619
165.527 84.397787640031
171.387 84.20844704382766
177.246 83.97968602113961
183.105 83.52223857108316
188.965 82.95986103941097
196.289 82.95125160361388
203.613 82.71353027366311
210.938 82.46216209824273
218.262 82.19880427418781
225.586 82.2398935667564
232.91 81.7535639398541
241.699 81.29441806903883
250.488 81.10794828810957
259.277 81.40464136193378
268.066 81.68175897646896
276.855 80.90318295103562
287.109 81.03183484131122
297.363 80.87559954776395
307.617 80.72021331830881
319.336 80.649316049693
329.59 80.26722810653098
341.309 80.18822137071402
353.027 79.515005401325
366.211 78.90724186426289
379.395 78.9627505293471
392.578 79.38937872441315
405.762 79.03460161263978
420.41 78.00078790153344
435.059 78.05346014989814
451.172 77.70598736263791
465.82 77.19952211154447
483.398 77.50456076833443
499.512 77.4077193398853
517.09 77.1033660972119
536.133 77.58133094629991
555.176 76.80043153197879
574.219 77.93560355213572
594.727 78.54110823494833
615.234 78.33903745700827
637.207 78.2140687366017
659.18 77.74730906845033
682.617 76.75381644702648
707.52 76.7117272422648
732.422 76.02863577525673
757.324 76.58719116877243
785.156 77.24874584357133
811.523 76.8628949255072
840.82 76.3925846818137
870.117 76.00303321404672
900.879 75.22614697625897
933.105 74.58949355209086
965.332 74.31559138716884
1000.49 73.85044912772156
1035.64 73.6759717577292
1072.27 73.56615998027618
1108.89 74.5871606278796
1148.44 74.8613994573762
1189.45 74.80689174215463
1230.47 74.7657499032511
1274.41 74.38702447585193
1319.82 73.84829108451932
1366.7 73.3890101601998
1413.57 72.48694316047897
1463.38 71.70704552459914
1516.11 71.45814709102999
1568.85 71.49280557527473
1624.51 71.27274542184858
1681.64 70.5607166772862
1741.7 70.7765492761676
1803.22 70.96268940497708
1866.21 72.19500816158381
1932.13 73.97779069566174
1999.51 74.69640795854009
2069.82 74.35590751666983
2143.07 73.96969477988847
2219.24 73.61740838569212
2296.88 73.61663820396763
2378.91 73.89789131105145
2462.4 73.22471702083793
2548.83 72.54536685584604
2639.65 72.39265839811812
2731.93 72.38559800168481
2828.61 71.91177676417448
2928.22 71.84616065219045
3030.76 71.91261580822331
3137.7 71.84759985889144
3249.02 71.93858938496248
3363.28 71.82122877176374
3481.93 71.73767695636104
3604.98 71.98283412940482
3732.42 72.18788844108336
3864.26 72.23122153087571
4000.49 71.43337801729861
4141.11 70.82560465014993
4287.6 70.26600970479069
4438.48 68.76582466247903
4595.21 68.41115198534388
4756.35 68.9146305325778
4924.8 68.01810809888357
5097.66 68.02301064409684
5277.83 68.04352167405034
5463.87 67.26666465900985
5657.23 66.59328116791222
5856.45 65.70745654235577
6062.99 65.27072712340689
6276.86 65.04125642135043
6498.05 64.92173516655697
6726.56 64.53500251601832
6963.87 64.30235717796826
7209.96 64.4881092596644
7464.84 64.34938961877243
7727.05 63.7335282178346
7999.51 63.25104220060078
8282.23 62.89691740961905
8573.73 61.774283079548766
8876.95 61.18626997186783
9188.96 61.283419277219934
9514.16 60.97809699704311
9849.61 60.53228699652581
10196.8 59.9987012556619
10555.7 58.773568534937226
10927.7 57.542060541651324
11313.0 57.79194998853015
11712.9 58.67676179489021
12126.0 58.16000241380411
12553.7 55.8411477789553
12996.1 54.06503216395302
13454.6 53.55737359439928
13929.2 51.67422388988621
14419.9 48.674370456666026
14928.2 49.69634935354577
15455.6 52.53008219572331
16000.5 53.50345115922846
16564.5 53.84787266308766
17148.9 52.365827294648426
17752.4 50.67890089971513
18379.4 49.75384773954141
19026.9 49.12596800174842
19697.8 48.33453914758263
19999.5 48.40837747689133
