Freq "Estimated In-Room Response"
20.5078 40.704031204169624
21.2402 45.20902575687687
21.9727 50.24522050567923
22.7051 51.38545444873829
23.4375 53.49150727422669
24.1699 54.45152784347859
25.6348 56.24104151311097
26.3672 57.55516745280853
27.0996 59.36982684146314
27.832 60.55337560398321
29.2969 62.235894330194995
30.0293 63.72314909269602
31.4941 65.60795585545439
32.2266 66.51468805313293
33.6914 68.22623390218708
34.4238 69.06443424259668
35.8887 70.67762506858125
37.3535 72.19238616466667
38.8184 73.65395328402862
39.5508 74.34329078838823
41.0156 75.64867084648002
42.4805 76.88005101318025
43.9453 77.9394536246328
45.4102 78.88058363716412
47.6074 79.97809068562607
49.0723 80.65838890060421
50.5371 81.1316375721827
52.7344 81.6060570000032
54.1992 81.87641472740285
56.3965 82.19589704255154
58.5938 82.44062028546418
60.0586 82.6302410707007
62.2559 82.85753295856533
64.4531 82.86446971355828
66.6504 83.06523874621975
69.5801 83.22595510842415
71.7773 83.3623856754048
73.9746 83.45812175955575
76.9043 83.63451472682708
79.834 83.81934299165889
82.7637 83.87869302165545
85.6934 84.15004859730946
88.623 84.39025119704621
91.5527 84.55033459240187
94.4824 84.7181501718239
98.1445 84.83011700590404
101.807 84.97918364270512
105.469 85.08561857636985
109.131 85.20351611220694
112.793 85.4084901792662
116.455 85.49928856637622
120.85 85.60530368463084
125.244 85.76090103285513
129.639 85.97063250785699
134.033 85.97980161153289
138.428 85.96008704239924
143.555 86.08331604218124
148.682 86.20961583288621
153.809 86.23430381540399
159.668 86.13643664487805
164.795 86.08778116532476
170.654 86.15426713442605
176.514 86.18808408724549
183.105 86.03194947555427
189.697 85.79788946806023
196.289 85.6879241829502
202.881 85.486764641011
210.205 85.37655598916972
217.529 85.2412368841773
225.586 84.9381746269987
232.91 84.72762795572831
241.699 84.63419343759634
249.756 84.84963943332178
258.545 84.85215244048194
268.066 84.60804510426019
277.588 84.36357200243735
287.109 84.18765441440961
297.363 84.11325984205352
307.617 83.90099804286852
318.604 83.56406276452456
329.59 83.62011962763246
341.309 83.1376720491806
353.76 82.82497742113274
366.211 82.80491056924443
378.662 82.79363061621679
392.578 82.99303951611166
405.762 82.61567295727811
420.41 82.36686701663545
435.059 81.76437619232371
450.439 81.28789581117091
466.553 82.2132080069026
482.666 82.48087932036672
500.244 81.82802210697655
517.822 81.14727154443868
536.133 81.6142883076827
554.443 81.73917686659216
574.219 82.06640618691743
594.727 83.16667968763959
615.234 83.70266088018138
637.207 83.71337466393905
659.912 83.80236735895768
683.35 83.11784253697513
706.787 82.83490298221226
731.689 83.85817704422094
758.057 84.0993978878973
784.424 84.00848170881397
812.256 82.69890656198594
840.82 82.82409256277701
870.85 82.91607465470595
901.611 83.08320035511012
933.105 84.44154742797566
966.064 85.6099693835027
999.756 84.87382196551133
1034.91 84.11784109433277
1071.53 83.83671586783885
1109.62 82.92476831089212
1148.44 83.25177784090813
1189.45 82.7484046753281
1231.2 83.04153242505843
1274.41 81.92243986119097
1319.82 82.14004660848421
1365.97 81.51498535527661
1414.31 81.42810928751415
1464.11 81.37620375324154
1515.38 81.31775654396418
1568.85 80.65436499963174
1624.51 80.12865286564318
1681.64 80.15489434901939
1740.97 80.55711799737558
1802.49 80.7216458895208
1866.21 80.84912737152987
1932.13 80.9804327801519
2000.24 81.76799340588134
2070.56 81.86338321294552
2143.8 81.78238668461611
2219.24 81.62535149327995
2297.61 82.27415403491105
2378.17 82.50307727545349
2462.4 82.01335630536546
2548.83 82.84055232731379
2638.92 83.1151882286912
2731.93 83.22704810421412
2828.61 83.52747489250555
2928.22 83.6819237290869
3031.49 83.90210838213595
3138.43 83.88292256370758
3249.02 84.40886257465492
3363.28 84.27453100668504
3481.93 84.05542605426574
3604.98 84.03591484303783
3732.42 84.39141330060595
3863.53 84.1001749417926
3999.76 84.32726512931762
4141.11 84.40693253960185
4286.87 84.41408393403495
4438.48 84.70151089563096
4594.48 84.26820118150032
4757.08 84.33344379860576
4924.8 84.29718188827836
5098.39 84.49305628542812
5277.83 84.6456627035683
5463.87 84.97037537928468
5656.49 85.03774367397523
5856.45 85.32332604276502
6062.99 85.32987577487903
6276.86 85.43613447842806
6498.05 85.28239791201433
6727.29 85.10335125619112
6964.6 85.15099566290543
7209.96 85.09354860659808
7464.11 85.20745659442714
7727.78 85.59956562771265
8000.24 85.71223402739791
8282.23 85.7267241218698
8574.46 85.64709862174657
8876.22 85.58656760025013
9189.7 85.66601881028954
9513.43 85.6802736181318
9848.88 85.53882732663449
10196.8 85.34502969903085
10556.4 85.12187390169863
10928.5 84.74916834564642
11313.7 84.28275235234051
11712.9 83.8714069324346
12126.0 83.61471056273584
12553.7 83.62952006187193
12996.1 83.76798579166123
13454.6 83.70422181826352
13928.5 83.45291372973195
14419.9 83.55894283450661
14928.2 83.53434041399599
15454.8 83.25160561813745
15999.8 82.78631963536921
16564.5 82.10529643797446
17148.2 81.2920313258194
17753.2 80.53362009422518
18379.4 79.67003508278546
19027.6 78.83914323657473
19698.5 78.10302142274602
19999.5 77.73315729549313
