Freq "Front Wall Bounce"
20.5078 75.46651550233466
21.9727 77.45319716139292
23.4375 81.63650748212439
24.9023 86.15811872252928
26.3672 90.30103192983655
27.832 94.19315402367033
29.2969 97.81740751594985
30.7617 100.95607323796102
32.2266 103.1917789694223
33.6914 104.620513802078
35.1562 105.25833919591227
36.6211 105.73114750774525
38.0859 106.014960055085
39.5508 106.20007092698249
41.0156 106.29036166021746
42.4805 106.41861305958173
43.9453 106.44403776392438
45.4102 106.51959429886811
46.875 106.58254382318972
48.3398 106.63652536869652
51.2695 106.68290235945047
52.7344 106.72802837301974
54.1992 106.61306261515024
55.6641 106.59264797526998
58.5938 106.58685998146164
60.0586 106.54014222638622
62.9883 106.49725343668743
64.4531 106.46297095709022
67.3828 106.32728049561645
68.8477 106.26040502616847
71.7773 106.28726823533272
74.707 106.37136548865551
77.6367 106.3650614955574
79.1016 106.31091471809347
82.0312 106.22690711484552
84.9609 106.25204671610916
87.8906 106.10933880414251
90.8203 106.1175404945494
95.2148 106.19504572384957
98.1445 106.11633582767996
101.074 105.90776204350963
105.469 106.13666028141415
108.398 106.4257942174053
112.793 106.36456866322477
117.188 106.53902554230565
120.117 106.728628715059
124.512 106.77794174947523
128.906 106.70943120724468
133.301 106.73243913794627
139.16 106.8035120204235
143.555 106.64029788077345
147.949 106.54349405963876
153.809 106.68682606264662
159.668 106.77557608410525
165.527 106.68376712053056
171.387 106.6219078432775
177.246 106.43898327548389
183.105 106.03237035832902
188.965 105.99161925487306
196.289 105.93907641923121
203.613 105.7715599265939
210.938 105.65802435882229
218.262 105.1778085431155
225.586 105.64741103169447
232.91 105.64505070303704
241.699 105.55300226030442
250.488 105.6055994389563
259.277 106.19717780055876
268.066 105.96583972182844
276.855 106.10883265093665
287.109 106.2441635380656
297.363 107.11444100915055
307.617 107.34664881807078
319.336 107.6981210871671
329.59 107.53260997392033
341.309 107.03524861025163
353.027 106.67641034101395
366.211 106.5255923339801
379.395 107.17993925312287
392.578 106.68662310966558
405.762 107.2009811262092
420.41 106.78506458274857
435.059 106.24697935903535
451.172 106.1711952107696
465.82 106.47335087436618
483.398 106.41704049914433
499.512 106.73057672411504
517.09 106.7275339731434
536.133 106.55208034124817
555.176 106.40840616570675
574.219 107.1567120561659
594.727 107.1065852175004
615.234 106.41947997939945
637.207 107.19040530841283
659.18 106.42037960637315
682.617 106.38946653788666
707.52 106.4741751531007
732.422 106.03213824801027
757.324 105.51388010769419
785.156 106.23318654226671
811.523 106.29467650926355
840.82 106.1148694040607
870.117 106.63874235567236
900.879 106.2547433222625
933.105 106.90567454785896
965.332 106.44418461715479
1000.49 106.17312988943237
1035.64 106.0135718857116
1072.27 105.56644346311417
1108.89 105.9770930511421
1148.44 105.78171446595306
1189.45 106.04055057329711
1230.47 106.33157396253236
1274.41 106.5680780683066
1319.82 107.29249968557747
1366.7 106.98412806002511
1413.57 106.40397641190538
1463.38 105.83481729003978
1516.11 105.30491969437347
1568.85 105.03903552106459
1624.51 104.95984301837292
1681.64 105.70164593922439
1741.7 106.57067996537398
1803.22 106.91275747797195
1866.21 106.66532151771887
1932.13 106.03743180806264
1999.51 106.0794654382771
2069.82 106.27491996849382
2143.07 106.26500864920263
2219.24 105.67141349831613
2296.88 105.16715492124078
2378.91 105.44709154956114
2462.4 107.27511148710428
2548.83 107.56677235516152
2639.65 106.16776222764524
2731.93 105.47436055013117
2828.61 106.08087939107418
2928.22 106.63202674368695
3030.76 106.79810528257501
3137.7 106.11464161703084
3249.02 105.6132475584758
3363.28 105.64212035728073
3481.93 105.90686902564016
3604.98 106.01465936694979
3732.42 106.43694237737151
3864.26 105.6180870055724
4000.49 105.2497001296488
4141.11 105.80272809504848
4287.6 105.71263802339561
4438.48 105.63718792386155
4595.21 105.19079836287945
4756.35 106.04239182194026
4924.8 105.70926767233655
5097.66 105.37972432028576
5277.83 105.86761109452169
5463.87 105.52533803622117
5657.23 106.23039036446599
5856.45 105.54760580308321
6062.99 106.03539330328198
6276.86 105.54858457182902
6498.05 105.82509048771901
6726.56 106.00134271450929
6963.87 105.69206512432903
7209.96 105.78979898204484
7464.84 105.70155579379663
7727.05 105.77513323502117
7999.51 105.70271499676824
8282.23 105.7516452585827
8573.73 105.98167108739065
8876.95 105.87025287771449
9188.96 105.86743559927417
9514.16 105.92957615222237
9849.61 106.08724572089099
10196.8 106.19282969286778
10555.7 106.3226401217753
10927.7 106.67565152448931
11313.0 106.6606896136726
11712.9 106.59417884370083
12126.0 106.48322166818583
12553.7 106.31378486665568
12996.1 106.37201036978578
13454.6 106.27927962963716
13929.2 106.13789168669543
14419.9 106.19034111820557
14928.2 106.2569273628202
15455.6 106.03320738507986
16000.5 105.8154442374761
16564.5 105.39524116281551
17148.9 104.84466358092153
17752.4 104.57260536571772
18379.4 104.41728052541987
19026.9 104.04898435603488
19697.8 103.61927528600116
19999.5 103.57243438611036
