Freq "Rear Wall Bounce"
20.5078 82.29727048840003
21.9727 84.81497398896673
23.4375 88.35696646473448
24.9023 92.05686741237793
26.3672 95.17759402061675
27.832 98.7381984595112
29.2969 101.91011076356737
30.7617 104.7052371243733
32.2266 106.68836054427659
33.6914 107.71637782340387
35.1562 108.17264209854181
36.6211 108.3988264410152
38.0859 108.47507319390722
39.5508 108.48389055513779
41.0156 108.52569447949884
42.4805 108.43287636025683
43.9453 108.3326859634714
45.4102 108.28758846019939
46.875 108.22522210382084
48.3398 108.15767468561482
51.2695 107.93667878174534
52.7344 107.8541293002493
54.1992 107.77032362792816
55.6641 107.59764063546702
58.5938 107.58817305638968
60.0586 107.48214464211735
62.9883 107.31086434974517
64.4531 107.23407775278788
67.3828 107.06088387095083
68.8477 106.94848695724184
71.7773 106.80564797612122
74.707 106.89131383046342
77.6367 106.77542859194749
79.1016 106.70457278007386
82.0312 106.55888601288895
84.9609 106.424077707476
87.8906 106.4457374611665
90.8203 106.2663820886065
95.2148 106.29376293421005
98.1445 106.1680359494914
101.074 106.10737788329897
105.469 106.00239133814206
108.398 106.17994261318313
112.793 106.09191227917175
117.188 105.9498180382339
120.117 106.01905371720574
124.512 106.08437550134778
128.906 106.16851867380515
133.301 106.16130096115351
139.16 106.03275253790801
143.555 106.01305946397223
147.949 105.91373439481808
153.809 105.62957094078479
159.668 105.59986900300372
165.527 105.59626994165913
171.387 105.35855329118822
177.246 105.03329900848463
183.105 104.62558648241439
188.965 104.23975607470096
196.289 104.00490529953441
203.613 103.4094165469089
210.938 103.18574403439871
218.262 103.44192156519604
225.586 103.46713195040368
232.91 102.65086624696734
241.699 102.50417111621864
250.488 102.59146672261042
259.277 102.45714792563957
268.066 102.50521523855325
276.855 102.5176040046313
287.109 102.55474134625494
297.363 102.07793199627243
307.617 101.33011983154671
319.336 101.02900511221665
329.59 100.51541478063957
341.309 100.8674719508982
353.027 99.59069666456212
366.211 99.21091797869205
379.395 97.89271518903713
392.578 99.38855551950964
405.762 100.0896090067347
420.41 98.64807253348762
435.059 98.25365274968416
451.172 99.29928002912473
465.82 97.80328596239369
483.398 97.33335465170785
499.512 97.45771863331704
517.09 98.61592880614063
536.133 97.78294738593206
555.176 96.88396359530446
574.219 98.17990447927382
594.727 97.4350880676172
615.234 96.46302778629925
637.207 97.51402485161204
659.18 95.61924799488696
682.617 96.84452535871966
707.52 95.16770893427922
732.422 94.9237993734791
757.324 95.44301236616381
785.156 93.87285266916689
811.523 94.74654244061699
840.82 94.12806925129276
870.117 94.7010643888573
900.879 93.48047699299778
933.105 93.73670873211667
965.332 92.86196562481958
1000.49 93.81022837002175
1035.64 92.37957517967561
1072.27 92.2595362004519
1108.89 91.4071859338492
1148.44 92.29170550389492
1189.45 91.46612494875602
1230.47 92.581539117226
1274.41 92.8036724909835
1319.82 93.02532725895828
1366.7 92.37541554973357
1413.57 92.94270365779745
1463.38 92.49557834206017
1516.11 90.48776091646215
1568.85 90.7716913078864
1624.51 90.72800715196631
1681.64 91.37355054771045
1741.7 91.35151525722046
1803.22 91.16970687573699
1866.21 90.9097777286813
1932.13 90.34956678475187
1999.51 90.10044919164184
2069.82 88.62836972830571
2143.07 88.1483368196289
2219.24 87.88229076803805
2296.88 87.66414468134667
2378.91 88.38555211766146
2462.4 88.73014563031434
2548.83 88.67567432008393
2639.65 88.31590724932421
2731.93 87.34011761050135
2828.61 87.25478775970831
2928.22 87.43436115094464
3030.76 86.74997693179866
3137.7 86.4731248587326
3249.02 86.29674349754569
3363.28 85.91493724049003
3481.93 85.3330423462158
3604.98 85.70348631526373
3732.42 85.78423319684592
3864.26 84.63648336402709
4000.49 84.19133141173882
4141.11 83.62607339077415
4287.6 84.06027508964378
4438.48 84.04022372956622
4595.21 84.65292585084906
4756.35 83.7726114642128
4924.8 84.10011332325286
5097.66 84.4231889914481
5277.83 82.11372612111502
5463.87 83.32863872962541
5657.23 83.73336137468756
5856.45 84.13151107856784
6062.99 83.44398945936034
6276.86 82.91582343034979
6498.05 81.79161255727841
6726.56 81.61308456787758
6963.87 81.25893053450515
7209.96 81.60449517294005
7464.84 81.42818016844474
7727.05 81.76127051403112
7999.51 81.35722553236174
8282.23 80.92802428199253
8573.73 81.64964929436361
8876.95 81.62668517889928
9188.96 80.50637362070653
9514.16 80.45013180237645
9849.61 80.2200958539713
10196.8 80.0890111025344
10555.7 79.94562122680857
10927.7 80.35934702914973
11313.0 79.9322998273508
11712.9 80.01150623512267
12126.0 79.88200723992303
12553.7 79.24721452147004
12996.1 78.15053347070263
13454.6 77.81625633581218
13929.2 77.40711812783873
14419.9 77.93851777602659
14928.2 77.98021481788739
15455.6 77.59433237611405
16000.5 77.36290190173149
16564.5 76.93368791813508
17148.9 76.61517147665974
17752.4 76.14006843450936
18379.4 75.88551326008262
19026.9 75.46708380291064
19697.8 75.14196329908744
19999.5 76.67789723983775
