Freq "Side Wall Bounce"
20.5078 77.23959401242567
21.9727 79.22144334441663
23.4375 83.15296617025152
24.9023 87.47403659665461
26.3672 91.3010410245017
27.832 95.11016913841351
29.2969 98.64362148068034
30.7617 101.72542606186977
32.2266 103.93342290637199
33.6914 105.27379599120349
35.1562 105.88041159208844
36.6211 106.30658526503315
38.0859 106.5499487840027
39.5508 106.70078880537574
41.0156 106.78502996440092
42.4805 106.88095131604885
43.9453 106.88365798970344
45.4102 106.93442287732827
46.875 106.97101525829463
48.3398 107.00183927418168
51.2695 106.98776521032885
52.7344 107.001552622258
54.1992 106.90008051466651
55.6641 106.84586354321179
58.5938 106.84961243630568
60.0586 106.79066757039305
62.9883 106.71155427182788
64.4531 106.66641040963123
67.3828 106.5246671101226
68.8477 106.44627100157626
71.7773 106.42117101991482
74.707 106.50712196448576
77.6367 106.47558015356093
79.1016 106.4155233751143
82.0312 106.30612262778614
84.9609 106.28913046733749
87.8906 106.18717822873336
90.8203 106.13358965106403
95.2148 106.18550492517912
98.1445 106.08650027876647
101.074 105.91002805932547
105.469 106.0420615933984
108.398 106.29037873936079
112.793 106.1922354940674
117.188 106.27335458001383
120.117 106.44576062402584
124.512 106.51935069938858
128.906 106.48500894081198
133.301 106.45678177159746
139.16 106.47605668420431
143.555 106.33843784553102
147.949 106.19685415093343
153.809 106.19514306450252
159.668 106.24385230187653
165.527 106.1925822053943
171.387 106.03494016529912
177.246 105.82491688584189
183.105 105.38357216209609
188.965 105.27449915957223
196.289 105.14802840457692
203.613 104.81048883001148
210.938 104.68695021714566
218.262 104.29202895663951
225.586 104.53996934523731
232.91 104.47336864941394
241.699 104.49254732255146
250.488 104.51120723631904
259.277 104.9482998383805
268.066 104.76011565781523
276.855 104.9247309299726
287.109 105.02432803049561
297.363 105.50889326379405
307.617 105.85262942952403
319.336 105.93328442777747
329.59 106.26408298179005
341.309 105.52354473861901
353.027 105.4083645702429
366.211 104.71988795593674
379.395 105.20248525105274
392.578 105.36376207356201
405.762 105.26204055754472
420.41 104.96863859051001
435.059 104.39361508527779
451.172 104.12620685783988
465.82 103.36201872507061
483.398 103.6515758491343
499.512 103.60961394418646
517.09 104.19599535877448
536.133 103.53444713301269
555.176 103.22385177031622
574.219 103.66836916833608
594.727 103.40976240926827
615.234 103.18616891918248
637.207 103.35787507067332
659.18 102.94521391913634
682.617 102.85131827266089
707.52 102.41817986544851
732.422 102.65384639417752
757.324 101.89265256748004
785.156 102.30564379524391
811.523 101.64748173667775
840.82 102.31476433690462
870.117 102.6122275049625
900.879 101.80255664760475
933.105 102.56805712330967
965.332 101.25957340357603
1000.49 101.50502577858745
1035.64 100.82084246964038
1072.27 100.4150708495749
1108.89 100.3995836669401
1148.44 100.73990128143497
1189.45 100.2736647575342
1230.47 101.31727402651842
1274.41 101.35616723917055
1319.82 101.51971240744007
1366.7 101.46625987063625
1413.57 101.48522512902706
1463.38 99.96769299817397
1516.11 99.61122011818192
1568.85 100.41845378943796
1624.51 101.1953245427023
1681.64 102.01183924158617
1741.7 102.56485025993679
1803.22 102.69148789857805
1866.21 102.11884561637828
1932.13 101.58752815706163
1999.51 101.59443180079816
2069.82 101.54711179449399
2143.07 101.30915230029484
2219.24 100.64919591545782
2296.88 99.98878752227967
2378.91 100.27400064897444
2462.4 102.21520277920067
2548.83 102.92961759083448
2639.65 102.19786118663549
2731.93 101.56239456626344
2828.61 101.31772572967644
2928.22 101.28047235400578
3030.76 101.14818533981152
3137.7 100.81954258076568
3249.02 100.17098666343838
3363.28 100.2798889726634
3481.93 100.44536550600577
3604.98 100.72011500833318
3732.42 100.7551457187454
3864.26 100.11473340363155
4000.49 99.91422193284177
4141.11 99.91945371452356
4287.6 99.59605998274864
4438.48 99.80104156706633
4595.21 99.72279533301192
4756.35 99.54216262697089
4924.8 99.8214703919877
5097.66 99.11548731801606
5277.83 99.81054138094748
5463.87 99.66177251898779
5657.23 99.76606342362521
5856.45 99.74410142159854
6062.99 99.73744603289958
6276.86 99.36706964251309
6498.05 99.43846363275873
6726.56 99.41078022784895
6963.87 98.8327817622235
7209.96 99.23484519343381
7464.84 99.10388737674265
7727.05 99.2497774625462
7999.51 99.46658215129433
8282.23 99.49777951827704
8573.73 99.79749245096039
8876.95 99.65559944816762
9188.96 99.7430265140584
9514.16 99.71088546035475
9849.61 99.90428237382366
10196.8 100.33158599315543
10555.7 100.59924699980566
10927.7 100.7902190842832
11313.0 100.72260623461304
11712.9 100.7872718409399
12126.0 100.68398973120324
12553.7 100.28958819231822
12996.1 99.66547312110154
13454.6 99.21243877605552
13929.2 99.21165158258663
14419.9 99.43952062517913
14928.2 99.69809551535562
15455.6 99.49515238352112
16000.5 99.03166331714897
16564.5 98.2716328564521
17148.9 97.56065492838738
17752.4 96.94693443134963
18379.4 96.37261256220887
19026.9 95.61204862554334
19697.8 94.7246969159941
19999.5 94.3264919255789
