Freq "Rear Wall Bounce"
22.4 21.42897391299769
23.0 23.25584495621672
23.6 25.074941262187878
24.0 26.891738609787524
25.0 28.691738609787507
25.8 30.46817840897296
26.5 32.25584495621672
27.2 34.01330019431214
28.0 35.77134844623555
29.0 37.523903119941394
30.0 39.24129571345398
30.7 40.97134844623557
31.5 42.69173860978751
32.5 44.40520798238177
33.5 46.10239296106482
34.5 47.798212855272254
35.5 49.495191466422085
36.5 51.18697286765337
37.5 52.861803252764304
38.7 54.56054970670468
40.0 56.23953868798321
41.2 57.91484843132258
42.5 59.59247911272706
43.7 61.228514082211746
45.0 62.85858096402097
46.2 64.4499451892176
47.5 65.95874350498617
48.7 67.40355649712532
50.0 68.75645979252698
51.5 70.00422145347034
53.0 71.14705746780933
54.5 72.19426018775434
56.0 73.17237759616324
58.0 74.0609471932909
60.0 74.86439175609658
61.5 75.62172721616878
63.0 76.30072710339185
65.0 76.9686691017184
67.0 77.54789529281067
69.0 78.12726251575134
71.0 78.65328043504951
73.0 79.12209177746814
75.0 79.63291945503653
77.5 80.08545181117634
80.0 80.5119735226979
82.5 80.94347464798818
85.0 81.37073568396514
87.5 81.73894637012538
90.0 82.05511502634833
92.5 82.33966711008514
95.0 82.52934341044758
97.5 82.65131502623491
100.0 82.69869815492396
103.0 82.63080478197446
106.0 82.4884916014673
109.0 82.29453064321521
112.0 82.08586112960285
115.0 81.88680103047972
118.0 81.67355099885184
122.0 81.53186018828707
125.0 81.46445150791556
128.0 81.47580950090386
132.0 81.55530935626112
136.0 81.66625343072846
140.0 81.8016596547672
145.0 81.921854592971
150.0 81.9908588971043
155.0 81.95288215150421
160.0 81.82405732598451
165.0 81.55626291170309
170.0 81.16271014616754
175.0 80.70401869806942
180.0 80.19127666181276
185.0 79.66549779109955
190.0 79.13637996725826
195.0 78.66381022077393
200.0 78.25340264010991
206.0 77.9376854495963
212.0 77.7053420881445
218.0 77.52373251501497
224.0 77.37371586318179
230.0 77.2398452993335
236.0 77.0760601089374
240.0 76.88826916463245
250.0 76.63603102437403
258.0 76.30598986553282
265.0 75.88435696137957
272.0 75.42199683452026
280.0 74.90977548714173
290.0 74.37689919616503
300.0 73.83270993232028
307.0 73.28297649114614
315.0 72.74123197137696
325.0 72.22987186440015
335.0 71.76841757902083
345.0 71.41036712467505
355.0 71.10547716197205
365.0 70.86890684031282
375.0 70.65782023547212
387.0 70.48218770399168
400.0 70.24107639933939
412.0 69.97078287621892
425.0 69.63703592395558
437.0 69.26076338176725
450.0 68.86599801997959
462.0 68.47699432172328
475.0 68.11503766978156
487.0 67.81020021925485
500.0 67.52690409007332
515.0 67.35526131321063
530.0 67.23046544124321
545.0 67.1289907131934
560.0 67.04644207032922
580.0 66.8966950827598
600.0 66.69995172098822
615.0 66.34073515517927
630.0 65.86031537442975
650.0 65.17087295141522
670.0 64.35540173773761
690.0 63.45385375967156
710.0 62.57500879634662
730.0 61.65553426674684
750.0 60.749008386567226
775.0 59.81696578004832
800.0 58.930676487807034
825.0 58.03944133413785
850.0 57.2283707839583
875.0 56.57142785890565
900.0 56.06405403478206
925.0 55.82358066487228
950.0 55.79526471107448
975.0 55.931310279155696
1000.0 56.16735345784858
1030.0 56.40305866967793
1060.0 56.62446836742228
1090.0 56.87470698189853
1120.0 57.104233305952306
1150.0 57.406110147113594
1180.0 57.73186723914523
1220.0 58.13083385071681
1250.0 58.58222728365277
1280.0 59.061933579929814
1320.0 59.5200614306884
1360.0 59.96509918192751
1400.0 60.352238084736626
1450.0 60.67830102841694
1500.0 60.86794159163766
1550.0 60.98798708721242
1600.0 60.93859895413456
1650.0 60.73454509568725
1700.0 60.41068361824648
1750.0 60.026082765248475
1800.0 59.61792674258024
1850.0 59.22220221841786
1900.0 58.92195353456276
1950.0 58.74974159291767
2000.0 58.76527494349264
2060.0 59.00808839170392
2120.0 59.378079022854905
2180.0 59.872289974304294
2240.0 60.39982253833267
2300.0 60.91366207846177
2360.0 61.330935995311336
2400.0 61.58376502146909
2500.0 61.599107011914285
2580.0 61.36011643449406
2650.0 60.89669999628313
2720.0 60.28238879689883
2800.0 59.539338165747296
2900.0 58.77312423511495
3000.0 58.03302700172293
3070.0 57.35827169261222
3150.0 56.80881913066759
3250.0 56.44303309017846
3350.0 56.27293006176444
3450.0 56.24945711575265
3550.0 56.382101737743056
3650.0 56.59268998087518
3750.0 56.86966098600905
3870.0 57.17476149256726
4000.0 57.39043364933917
4120.0 57.51256798009646
4250.0 57.536642566026075
4370.0 57.48104090208497
4500.0 57.31782311356861
4620.0 57.070574086428934
4750.0 56.71030269629108
4870.0 56.24172066606201
5000.0 55.69220919951351
5150.0 54.9819162576232
5300.0 54.194563914750006
5450.0 53.34079253767783
5600.0 52.46178233459628
5800.0 51.574788316839005
6000.0 50.739687612379896
6150.0 49.961315201503055
6300.0 49.27902703771048
6500.0 48.71127032122121
6700.0 48.25309757773712
6900.0 47.94736136639739
7100.0 47.79054990821257
7300.0 47.74224368056656
7500.0 47.806084531235086
7750.0 47.9388380903811
8000.0 48.175261388365584
8250.0 48.434549956247
8500.0 48.72844025562165
8750.0 49.02886928439477
9000.0 49.27747016363588
9250.0 49.52661621809236
9500.0 49.626084001999715
9750.0 49.69082290906488
10000.0 49.579592531098
10300.0 49.29228857636505
10600.0 48.85501763141511
10900.0 48.37368774756729
11200.0 47.776549661207014
11500.0 47.18677757627154
11800.0 46.60831102493796
12200.0 46.1000794337196
12500.0 45.73637588555013
12800.0 45.47959003492815
13200.0 45.34354607176678
13600.0 45.15772754960341
14000.0 44.858344300549675
14500.0 44.506190345222535
15000.0 43.88247260706922
15500.0 42.98008338032298
16000.0 41.67950012750896
16500.0 40.03070955632711
17000.0 38.01310478449153
17500.0 35.75150564212774
18000.0 33.29784809154722
18500.0 30.812834796383044
19000.0 28.370710692064307
19500.0 26.042821810974942
