Freq "Ceiling Bounce"
23.6 57.942508124275776
24.3 58.02465551878866
25.0 58.10454481590118
25.8 58.19311974957763
26.5 58.26841693815585
27.2 58.34177407204213
28.0 58.42332601710767
29.0 58.52203557769015
30.0 58.636228473918365
30.7 58.719450693824726
31.5 58.8122294567377
32.5 58.924942986326144
33.5 59.03426839675262
34.5 59.140442953770304
35.5 59.25029456944581
36.5 59.369714230236795
37.5 59.48594240324651
38.7 59.62140336425625
40.0 59.76351211094672
41.2 59.89330623176329
42.5 60.04500790831658
43.7 60.18092777149165
45.0 60.32409544554001
46.2 60.45266138892741
47.5 60.59449670532048
48.7 60.72822057173475
50.0 60.86945205891077
51.5 61.027883165001796
53.0 61.1837837503971
54.5 61.34408250967134
56.0 61.50009241516699
58.0 61.70172346475161
60.0 61.903771806703745
61.5 62.053188323838114
63.0 62.19903611843465
65.0 62.390206559880184
67.0 62.58084968238272
69.0 62.76586659664953
71.0 62.947452549075166
73.0 63.12727268434047
75.0 63.30225614467068
77.5 63.51692097494653
80.0 63.72686117459081
82.5 63.93087671882371
85.0 64.13112789559497
87.5 64.32561479788583
90.0 64.51613398781875
92.5 64.7016840159831
95.0 64.8827646355229
97.5 65.05960698315748
100.0 65.23197585115268
103.0 65.43348316634899
106.0 65.62912551201143
109.0 65.81903425160114
112.0 66.00363623401003
115.0 66.1826383472009
118.0 66.35672988233664
122.0 66.58083540008434
125.0 66.74315131762091
128.0 66.90108595445965
132.0 67.10408995997459
136.0 67.29968839127183
140.0 67.48775044660982
145.0 67.71230720201422
150.0 67.92609907987323
155.0 68.12968620976966
160.0 68.32349730950077
165.0 68.5079952476007
170.0 68.68361151582702
175.0 68.85007640482598
180.0 69.0082861033254
185.0 69.15876918690181
190.0 69.30183141423161
195.0 69.43782833107717
200.0 69.56703121641353
206.0 69.71324463012392
212.0 69.85049631725894
218.0 69.97938535208978
224.0 70.10031749485701
230.0 70.21378571325495
236.0 70.3202297486505
243.0 70.43605145024883
250.0 70.54357847735838
258.0 70.65728898316014
265.0 70.74855626863999
272.0 70.83345583909434
280.0 70.92315886765543
290.0 71.02482385319497
300.0 71.1164630935615
307.0 71.17489900016072
315.0 71.2366455916579
325.0 71.30664303524456
335.0 71.36959221221133
345.0 71.42582798699371
355.0 71.47575281061422
365.0 71.52010915647224
375.0 71.55913413529093
387.0 71.59893640627321
400.0 71.63408448216609
412.0 71.65958292171165
425.0 71.67997481689889
437.0 71.69236824908546
450.0 71.69925953572137
462.0 71.69980042018395
475.0 71.69454978807214
487.0 71.68457846347432
500.0 71.66879590585656
515.0 71.64494515205054
530.0 71.6155528356203
545.0 71.58162419287159
560.0 71.54353066614726
580.0 71.48803332091414
600.0 71.42795676917856
615.0 71.38082086627271
630.0 71.33228536249037
650.0 71.26668790448188
670.0 71.20091670392084
690.0 71.13652490325356
710.0 71.07478736591527
730.0 71.01706034804232
750.0 70.96428825100469
775.0 70.90633901313296
800.0 70.85706195366824
825.0 70.81512873346587
850.0 70.77803340291887
875.0 70.74283135445435
900.0 70.70714923257597
925.0 70.66999075789018
950.0 70.63232088853918
975.0 70.59685842672833
1000.0 70.56765823798797
1030.0 70.54655150086688
1060.0 70.54501555203444
1090.0 70.5627012755679
1120.0 70.59341125654655
1150.0 70.62627383095999
1180.0 70.64898486332645
1220.0 70.64597947805302
1250.0 70.61145156512298
1280.0 70.54913686759099
1320.0 70.42981498797927
1360.0 70.28163196386616
1400.0 70.11695806556872
1450.0 69.89988492231527
1500.0 69.67956541375311
1550.0 69.46823341082849
1600.0 69.28428321217088
1650.0 69.14629447910956
1700.0 69.06351380504532
1750.0 69.03468741245435
1800.0 69.05240524793675
1850.0 69.10919328629969
1900.0 69.19764222454523
1950.0 69.30901085752146
2000.0 69.43553810855187
2060.0 69.60160674011779
2120.0 69.77602120783222
2180.0 69.94000694816287
2240.0 70.06769536876993
2300.0 70.14658494295509
2360.0 70.1854256862437
2430.0 70.20002195083431
2500.0 70.18799771642561
2580.0 70.15445165099366
2650.0 70.15387596427298
2720.0 70.21195173826403
2800.0 70.30924615179472
2900.0 70.41135346070868
3000.0 70.53983128886144
3070.0 70.63173288657008
3150.0 70.71743810725071
3250.0 70.88279221931182
3350.0 71.12652948999981
3450.0 71.40497804049208
3550.0 71.73668286598875
3650.0 71.98199473623471
3750.0 72.112969049473
3870.0 72.2514526141444
4000.0 72.31138721785142
4120.0 72.28597448810712
4250.0 72.05002397694898
4370.0 71.6155131941366
4500.0 71.10827260403917
4620.0 70.7834607464028
4750.0 70.67634138501576
4870.0 70.73474196904442
5000.0 70.83855165756097
5150.0 70.96836923418432
5300.0 71.19289357710367
5450.0 71.56133191049932
5600.0 72.05092295614459
5800.0 72.31624035823565
6000.0 71.83872818028674
6150.0 71.23769668106759
6300.0 70.7898084337546
6500.0 70.38366564681606
6700.0 70.33768041366315
6900.0 70.62155219546925
7100.0 70.88080315680223
7300.0 70.89493532249206
7500.0 70.7156815713965
7750.0 70.26052327778486
8000.0 69.40656003038895
8250.0 68.37283976477774
8500.0 68.10830461986455
8750.0 67.88580336121848
9000.0 67.64532663900583
9250.0 67.85000364455692
9500.0 67.82982909648135
9750.0 66.98114390370709
10000.0 66.320576210942
10300.0 66.1519916494389
10600.0 65.76008335996718
10900.0 65.29586879824797
11200.0 64.82822045024179
11500.0 64.20729505675139
11800.0 63.825313968748915
12200.0 64.15401282543874
12500.0 63.79418704987165
12800.0 63.15672035796898
13200.0 63.0133215732682
13600.0 62.2776783772742
14000.0 62.21260057885573
14500.0 61.56073999550192
15000.0 61.458470972697214
15500.0 60.85887415606199
16000.0 60.699741218892186
16500.0 59.65190840019794
17000.0 58.79583884520865
17500.0 57.120295238061956
18000.0 55.24436754422514
18500.0 53.224025503754774
19000.0 51.24540954901761
19500.0 49.669328361922155
