Freq "Listening Window"
20.5078 62.10354012105904
21.9727 60.94064450217138
23.4375 59.680468748549686
24.9023 60.8121262203542
26.3672 63.05180751453048
27.832 64.23893283955653
29.2969 66.04766069463022
30.7617 68.27829087119225
32.2266 70.9511043490417
33.6914 71.78131000409064
35.1562 72.65344857729433
36.6211 73.95620920759688
38.0859 75.9226791069494
39.5508 76.88375252168392
41.0156 77.72499762578128
42.4805 78.59554008692595
43.9453 79.32715119069962
45.4102 79.9879028846745
46.875 80.55063762368611
48.3398 81.14257174739136
51.2695 82.02252410638505
52.7344 82.43811507339993
54.1992 82.81222989807335
55.6641 83.18738402524326
58.5938 83.81075554385026
60.0586 84.0969621471347
62.9883 84.53655497439142
64.4531 84.84329107208782
67.3828 85.51144135456863
68.8477 85.71775402278105
71.7773 86.27728455311183
74.707 86.75337975932527
77.6367 87.10451225572899
79.1016 87.27166410944967
82.0312 87.57889364730198
84.9609 87.80538046135469
87.8906 88.15957689734742
90.8203 88.56712267387292
95.2148 88.81170600835833
98.1445 88.8636378833832
101.074 88.87318139111616
105.469 88.95490910078055
108.398 88.97051885710161
112.793 88.71566466718645
117.188 88.40210343747987
120.117 88.49021111505026
124.512 89.19929214299258
128.906 89.02377530784774
133.301 88.83074932161801
139.16 88.52163367063181
143.555 88.28739474646397
147.949 88.21280578716949
153.809 88.4906078017972
159.668 87.77490907869877
165.527 87.70347662793924
171.387 87.80651966927513
177.246 88.14302524590934
183.105 87.90648164634558
188.965 87.72052658271124
196.289 87.52257044108734
203.613 87.2049735879598
210.938 87.23262417176963
218.262 87.34074602221006
225.586 86.83063696977439
232.91 86.66589258506409
241.699 87.0181783735024
250.488 86.92528217867603
259.277 87.78115860734259
268.066 87.675618373388
276.855 86.98364330191721
287.109 86.43621205579495
297.363 86.32703296566577
307.617 86.50807753361477
319.336 86.28367268034552
329.59 86.89468358902292
341.309 86.63210439738491
353.027 85.92110965482205
366.211 85.95347048387484
379.395 85.74378213665807
392.578 85.90143563364816
405.762 85.84655241705059
420.41 84.52048813433035
435.059 86.02754035130268
451.172 87.1755808779293
465.82 88.87559008177004
483.398 88.02186310755972
499.512 87.549867521422
517.09 86.86114546224732
536.133 86.6424668270377
555.176 87.03549380291182
574.219 87.70136750839775
594.727 87.57102696074645
615.234 87.79716246620792
637.207 87.66684095567143
659.18 86.2342021443319
682.617 85.95778640140065
707.52 86.08673735796091
732.422 85.9047184642528
757.324 85.89575419172455
785.156 85.81448053689705
811.523 85.91005238289732
840.82 86.83392243279322
870.117 87.28768845597926
900.879 87.26705487786515
933.105 85.83330650062086
965.332 85.44612714364146
1000.49 85.4143329561485
1035.64 87.59999787891883
1072.27 86.63016286388338
1108.89 86.53637834319031
1148.44 84.59851328012947
1189.45 84.48823785268488
1230.47 84.70030259900604
1274.41 84.93929268835555
1319.82 85.44029217704971
1366.7 85.81123123738797
1413.57 86.36314485981671
1463.38 85.78301161446228
1516.11 85.15284605445892
1568.85 85.45406930628926
1624.51 85.52239993150064
1681.64 85.0747093283577
1741.7 85.26714217679057
1803.22 86.37535772138335
1866.21 86.7734983140391
1932.13 86.59364649056414
1999.51 86.68974200691252
2069.82 87.41528441554657
2143.07 87.04503640927321
2219.24 86.68090015748504
2296.88 87.75501231158674
2378.91 87.87335274574401
2462.4 87.66401160777171
2548.83 88.78552407516067
2639.65 88.98312532095936
2731.93 88.68644634391234
2828.61 89.29868155852589
2928.22 89.21625264421614
3030.76 89.02123999335481
3137.7 89.1902578897953
3249.02 89.21373721775156
3363.28 89.17328132584323
3481.93 89.23587855592741
3604.98 89.26989384592785
3732.42 88.78877449961934
3864.26 89.07256752752666
4000.49 88.74077263377616
4141.11 89.1414449932863
4287.6 89.01455065075119
4438.48 88.99558019554178
4595.21 89.05318708927277
4756.35 88.95034976824914
4924.8 88.65384096295058
5097.66 89.03490802810792
5277.83 89.2049367234779
5463.87 89.38592610386033
5657.23 89.24809544005073
5856.45 89.501528260692
6062.99 89.54459412211892
6276.86 89.32833998344437
6498.05 89.42666317462422
6726.56 89.45011907868226
6963.87 89.19831738849595
7209.96 89.19742212898845
7464.84 89.28682396725966
7727.05 89.44014053408804
7999.51 89.50645065472551
8282.23 89.51501072623913
8573.73 89.46718736287247
8876.95 89.32178310916362
9188.96 89.25169331641472
9514.16 89.51007616855645
9849.61 89.78795004808163
10196.8 89.94992216810488
10555.7 90.12963734146452
10927.7 90.38369730928493
11313.0 90.38856944640045
11712.9 90.40848239618282
12126.0 90.57600421969882
12553.7 90.79926498887562
12996.1 91.26040054220184
13454.6 91.30574339342054
13929.2 91.14234289553195
14419.9 90.6771208177405
14928.2 90.09203688812163
15455.6 89.32635414889275
16000.5 88.59346606866033
16564.5 88.21740912539191
17148.9 88.15294374192091
17752.4 88.07315158140528
18379.4 87.55715273055631
19026.9 86.13460179406479
19697.8 83.98826988003142
19999.5 83.24375205458409
