Freq,Floor Bounce,Ceiling Bounce,Front Wall Bounce,Side Wall Bounce,Rear Wall Bounce,Total Early Reflection
22.4,27.068450838054318,27.799999999999997,27.529133924942883,27.2023023206405,26.789824424712307,27.292346124320503
23.0,27.86845083805433,28.60000000000001,28.343139395337815,28.00230232064048,27.60036356691255,28.097186051362385
23.6,28.70306957104252,29.39999999999999,29.17166275391891,28.802302320640493,28.416064107657903,28.912616056128783
24.0,29.468450838054324,30.200000000000003,29.94313939533781,29.602302320640504,29.200363566912543,29.69718605136238
25.0,30.268450838054335,30.96692185116048,30.72913392494287,30.402302320640487,29.984606059831478,30.48400133032682
25.8,31.00306957104253,31.700000000000003,31.44313939533781,31.102302320640504,30.70568408083001,31.20472393545778
26.5,31.603069571042525,32.36692185116051,32.08618450501949,31.802302320640493,31.358419765300923,31.857874807238872
27.2,32.268450838054335,32.96692185116048,32.7291339249429,32.40230232064049,31.984606059831478,32.48400133032679
28.0,32.90306957104251,33.60000000000001,33.343139395337815,33.00230232064048,32.61075630282495,33.1056286939335
29.0,33.568450838054346,34.26692185116049,34.000328942803534,33.7023023206405,33.274150481577394,33.77605699074694
30.0,34.30306957104251,34.999999999999986,34.74313939533782,34.40230232064049,34.0107563028249,34.5056286939335
30.7,35.13513059177983,35.866921851160484,35.571662753918915,35.30230232064049,34.85316350574068,35.35995101750204
31.5,36.13513059177983,36.866921851160484,36.571662753918915,36.30230232064049,35.85316350574068,36.35995101750204
32.5,37.30306957104251,38.03358982687995,37.7716627539189,37.40230232064049,37.0160641076579,37.520154466131416
33.5,38.603069571042525,39.33358982687996,39.071662753918915,38.7023023206405,38.31606410765791,38.82015446613143
34.5,40.00306957104253,40.7,40.44313939533781,40.102302320640504,39.695157857809974,40.20284908725155
35.5,41.403069571042536,42.13358982687997,41.843139395337815,41.50230232064048,41.11606410765792,41.61412529623048
36.5,42.80306957104251,43.533589826879975,43.2716627539189,42.90230232064049,42.5266602958002,43.02204335362025
37.5,44.16845083805431,44.86692185116051,44.643139395337826,44.30230232064049,43.889945901349094,44.38792063689992
38.7,45.40306957104251,46.13358982687997,45.8716627539189,45.51240122638542,45.137233492486686,45.62589776006068
40.0,46.5030695710425,47.23358982687999,46.97166275391889,46.602302320640504,46.226663101494765,46.72204385426791
41.2,47.40306957104251,48.166921851160495,47.8716627539189,47.58316881876867,47.147778218420555,47.64914552617729
42.5,48.20306957104252,48.89999999999999,48.643139395337826,48.30230232064049,47.90568408083,48.404723935457795
43.7,48.80306957104251,49.5669218511605,49.2716627539189,48.98316881876865,48.54777821842053,49.04914552617727
45.0,49.40306957104251,50.10000000000001,49.843139395337815,49.50230232064048,49.11606410765789,49.606576404522215
46.2,49.90306957104251,50.63358982687997,50.3716627539189,50.042796441398465,49.637233492486686,50.13183670403416
47.5,50.435130591779824,51.16692185116051,50.886184505019486,50.602302320640504,50.174150481577385,50.6667443756337
48.7,51.003069571042516,51.733589826879964,51.471662753918906,51.12224761696085,50.73723349248668,51.22781799248416
50.0,51.70306957104252,52.39999999999999,52.143139395337826,51.80230232064049,51.41075630282492,51.90562869393351
51.5,52.46845083805434,53.2,52.92913392494289,52.602302320640504,52.18982442471231,52.69234612432051
53.0,53.36845083805433,54.0669218511605,53.843139395337815,53.502302320640496,53.08994590134911,53.58792063689994
54.5,54.40306957104251,55.10000000000001,54.843139395337815,54.502302320640496,54.09515785780998,54.60284908725153
56.0,55.50306957104253,56.2,55.94313939533782,55.602302320640504,55.21075630282492,55.705628693933505
58.0,56.70306957104252,57.39999999999999,57.143139395337826,56.80230232064049,56.41075630282492,56.90562869393351
60.0,57.96845083805432,58.66692185116051,58.44313939533782,58.102302320640504,57.689945901349105,58.18792063689993
61.5,59.33513059177983,60.066921851160515,59.7716627539189,59.49285624148877,59.053163505740685,59.55808834021683
63.0,60.76845083805432,61.46692185116051,61.24313939533782,60.9023023206405,60.4899459013491,60.98792063689993
65.0,62.268450838054335,62.96692185116051,62.729133924942886,62.4023023206405,61.98460605983149,62.48400133032682
67.0,63.768450838054335,64.46692185116049,64.20032894280355,63.9023023206405,63.47415048157738,63.976056990746926
69.0,65.26845083805433,65.96692185116049,65.72913392494287,65.40230232064049,64.98460605983149,65.4840013303268
71.0,66.70306957104252,67.4,67.17166275391891,66.80230232064049,66.4160641076579,66.9126160561288
73.0,68.06845083805433,68.7669218511605,68.52913392494287,68.2023023206405,67.77938141716078,68.28307036736489
75.0,69.30306957104251,70.0,69.7716627539189,69.40230232064049,69.0160641076579,69.51261605612879
77.5,70.40306957104251,71.0669218511605,70.84313939533781,70.50230232064051,70.09515785780998,70.59545298035981
80.0,71.26845083805433,71.99999999999999,71.72913392494287,71.4023023206405,70.98982442471231,71.49234612432049
82.5,71.93513059177982,72.6669218511605,72.37166275391891,72.1023023206405,71.65316350574068,72.15995101750205
85.0,72.40306957104252,73.1669218511605,72.87166275391891,72.59263596899619,72.14777821842054,72.65101204213802
87.5,72.70306957104252,73.46692185116049,73.17166275391891,72.8729858024466,72.44790087682783,72.9471633834017
90.0,72.90306957104251,73.63358982687998,73.3716627539189,73.01217160822405,72.62148884003324,73.12304335658943
92.5,72.93513059177982,73.7,73.40032894280355,73.1023023206405,72.67950318624663,73.1781176609878
95.0,72.90306957104251,73.66692185116051,73.3716627539189,73.09194381315004,72.64790087682783,73.15089731654027
97.5,72.80306957104251,73.6,73.28618450501949,73.00230232064051,72.5846060598315,73.07000698262031
100.0,72.76845083805433,73.46692185116049,73.20032894280355,72.90230232064049,72.45841976530093,72.97325838664007
103.0,72.66845083805431,73.33358982687997,73.08618450501949,72.79285624148876,72.36366967090756,72.8619039278495
106.0,72.60306957104252,73.23358982687998,73.00032894280356,72.6829429119757,72.26366967090756,72.76958021005719
109.0,72.50306957104252,73.0669218511605,72.94313939533784,72.57323332644617,72.16879117152659,72.66293608959903
112.0,72.46845083805432,72.9669218511605,72.87166275391891,72.48294291197571,72.09515785780998,72.58829070325145
115.0,72.40306957104252,72.90076749445562,72.80065786069424,72.40345351146745,72.02160662525564,72.51733061580138
118.0,72.36845083805433,72.76845083805433,72.72913392494289,72.32385690711074,71.93747100601584,72.43600906672634
122.0,72.36845083805433,72.7007674944556,72.70065786069425,72.28387852809631,71.90108509339842,72.40107878894132
125.0,72.33513059177984,72.60076749445561,72.65742449135814,72.21423846497343,71.84323466757006,72.3399671825561
128.0,72.33513059177984,72.56845083805435,72.65742449135814,72.18500830000139,71.78593548356858,72.3172557267062
132.0,72.33513059177984,72.53513059177983,72.64346508697898,72.15535223900304,71.75400982570957,72.29579155362974
136.0,72.33513059177984,72.53513059177983,72.67199384997417,72.14580337460792,71.72282087219413,72.29465960333734
140.0,72.36845083805433,72.53513059177983,72.71508314243883,72.15627238668593,71.7072630225393,72.31013408415876
145.0,72.40306957104252,72.56845083805435,72.74346508697897,72.15627238668593,71.70280093298516,72.32965610555078
150.0,72.40306957104252,72.60306957104252,72.81508314243885,72.18734647033963,71.70799749417911,72.35967578987034
155.0,72.50306957104252,72.66845083805431,72.88683695097149,72.24853904339454,71.71911302850353,72.42340689165196
160.0,72.57150800786938,72.76845083805433,72.95808127197247,72.26969275405874,71.72441063606088,72.4794608344719
165.0,72.60306957104252,72.83663575667187,73.0726484311316,72.34125004927144,71.7671991899327,72.54699499692327
170.0,72.70306957104252,72.93663575667186,73.17264843113159,72.4222776678182,71.80475066942203,72.6329992105174
175.0,72.77150800786937,73.00306957104253,73.28716689224359,72.50429617655318,71.84689285552999,72.70974921805912
180.0,72.87150800786938,73.13663575667186,73.40130813607779,72.56588141054972,71.86387704901027,72.79940488238984
185.0,72.97150800786937,73.20306957104252,73.50130813607778,72.63914474048649,71.86985634113718,72.87204257528579
190.0,73.0069050103546,73.27150800786939,73.57264843113158,72.6720207045217,71.8607843084076,72.91543230212527
195.0,73.10690501035458,73.33821129888742,73.65905509047515,72.69285748440964,71.84090620339809,72.9714686695382
200.0,73.10690501035458,73.37150800786937,73.7157312616482,72.68657403551101,71.77490483313699,72.98082366901936
206.0,73.1760917544922,73.30690501035458,73.74510093472827,72.66076123181445,71.6822186575457,72.96941203556172
212.0,73.1760917544922,73.30690501035458,73.74510093472827,72.60585442190182,71.55270671088752,72.94017613335902
218.0,73.1760917544922,73.20690501035459,73.70293748475284,72.50607402499574,71.38790655729524,72.8661702460124
224.0,73.07609175449221,73.1069050103546,73.65971162455999,72.39156144454476,71.20098594582623,72.76511515618424
230.0,73.07609175449221,72.94283030471973,73.57461192973442,72.25743778817778,70.9616523308712,72.65136469707481
236.0,72.9760917544922,72.77609175449221,73.47461192973442,72.09396651705097,70.68264714676327,72.50163810358647
240.0,72.87609175449221,72.57609175449223,73.37461192973441,71.92982596230812,70.39515315366491,72.34446702165751
250.0,72.77609175449221,72.31227178315619,73.24607766783812,71.70537483042325,70.05443688588825,72.1501242640871
258.0,72.57609175449223,72.08219967332305,73.08946128786867,71.50128902257337,69.69077161008211,71.93453357688081
265.0,72.4760917544922,71.78219967332303,72.93271257836935,71.28911228466649,69.3031115318624,71.724749235758
272.0,72.27609175449223,71.51916705502752,72.80359507493894,71.08689087697759,68.93628555815148,71.5117801893794
280.0,72.1760917544922,71.28982856673473,72.6477056434894,70.8911880436319,68.57972814382924,71.32574743922349
290.0,72.07609175449221,71.08982856673472,72.5477056434894,70.781418946125,68.26727121911433,71.18211926464714
300.0,72.0457671943847,70.88982856673472,72.53271257836936,70.70554077356282,68.0111667664398,71.09225986579807
307.0,72.0457671943847,70.82758719283594,72.53271257836936,70.70554077356282,67.82341427379403,71.06228192487158
315.0,72.14576719438469,70.79897445130925,72.61834583164506,70.7987048488954,67.7187788038561,71.11375270902221
325.0,72.31227178315619,70.82758719283594,72.77525122642457,71.0055407735628,67.73660659610391,71.24632574819799
335.0,72.5457671943847,70.96588846059687,73.00359507493896,71.24968230267973,67.83213243546427,71.45107320918598
345.0,72.84576719438469,71.16588846059689,73.2610247430264,71.57523735522162,67.9901505712043,71.71387127674771
355.0,73.14576719438469,71.33752777300026,73.58879404668059,71.93682970670592,68.16761172464821,72.0012755545089
365.0,73.4457671943847,71.53752777300028,73.84607766783812,72.2799837395449,68.36278348051886,72.27193175976964
375.0,73.7457671943847,71.66588846059688,74.13142096048345,72.60460975143748,68.51712822718936,72.53242824222724
387.0,74.04576719438471,71.8096325668162,74.37461192973443,72.91209445027404,68.63085096835937,72.77768556313342
400.0,74.24576719438468,71.84898359150841,74.55971162456001,73.10867312987378,68.63981197915685,72.93282538941928
412.0,74.44576719438469,71.7489835915084,74.63175513861907,73.21899185972123,68.55731762123897,73.01042714132265
425.0,74.5457671943847,71.66194867563766,74.65971162456,73.25810416156797,68.38982584909132,73.030254793471
437.0,74.5457671943847,71.46194867563766,74.60359507493897,73.19970971568657,68.10548598644877,72.95369283320464
450.0,74.51592692226706,71.27641629732153,74.47461192973442,73.03897722031444,67.79206440420857,72.8271544386329
462.0,74.38219967332306,70.97641629732153,74.30359507493895,72.82424944881465,67.4245431915357,72.62812594100113
475.0,74.15260953202217,70.69237898809799,74.06264712636356,72.50535219769326,66.99625312602194,72.35738999611219
487.0,73.86096514237182,70.45062128010365,73.7927218064957,72.12834972767003,66.55245686457113,72.05282194657995
500.0,73.43257218046558,70.192378988098,73.49272180649571,71.68808081501437,66.11983449291218,71.68426548144303
515.0,72.94314826109435,70.05062128010364,73.13628240487206,71.20769734414519,65.68152895089341,71.29074610700158
530.0,72.42179738688895,69.87641629732153,72.75383697975168,70.66026844496093,65.25725327781126,70.86610869591325
545.0,71.86878033996791,69.76194867563767,72.38467198105685,70.104396254555,64.85974708768343,70.45054547186466
560.0,71.28382334167596,69.68888547155002,72.02966643952459,69.56548549216986,64.44622818735127,70.04642457337638
580.0,70.80034112939828,69.64898359150843,71.67457720919762,69.06382923535229,64.07369668208915,69.69114414913841
600.0,70.37584607527147,69.56588846059687,71.36416784504539,68.60181452168297,63.70428554151857,69.36886301007608
615.0,70.01832544184971,69.52758719283592,71.10840531031671,68.23342633307357,63.35182931909566,69.11057979634766
630.0,69.8517743753474,69.51916705502754,70.9203857253813,67.96291799771542,63.05470873006671,68.94907762089844
650.0,69.87584607527145,69.51916705502754,70.8203857253813,67.8091674262446,62.75956656877469,68.88465324347749
670.0,70.05866027600835,69.48219967332305,70.80458551926982,67.76593817010395,62.55783680254821,68.90175331463817
690.0,70.34293979360191,69.48219967332305,70.8436701954954,67.80071688644621,62.33118954704133,68.984941374646
710.0,70.68915630129642,69.48219967332305,70.9139316586015,67.91912293019907,62.17329114396486,69.11482752089105
730.0,71.10464502318536,69.48219967332305,71.01139323072617,68.05421471416466,62.056477935311705,69.28284505862379
750.0,71.5948570588317,69.45260953202217,71.15126317223464,68.2180470726117,61.95364031682183,69.4930260554443
775.0,72.05017075212572,69.45260953202217,71.26653957825425,68.35638540563882,61.87929753782281,69.69654389202974
800.0,72.47977745790568,69.55260953202217,71.39366590096783,68.50605362296747,61.811903804761315,69.92218374814195
825.0,72.83964531976002,69.6234968506598,71.46653957825426,68.5537156674268,61.75456239406857,70.09291664971816
850.0,73.13964531976002,69.69485705883172,71.55161150401771,68.59931987316392,61.68013831558501,70.24780637017065
875.0,73.37071732495409,69.79485705883171,71.58176243746941,68.58609652031855,61.632685985730475,70.36154538583298
900.0,73.53663575667186,69.89897445130926,71.6142595479255,68.54531558682723,61.580574765951766,70.44865472478499
925.0,73.63663575667185,69.97082970284298,71.61743277830693,68.46913156470204,61.546373188455604,70.49259558241293
950.0,73.67150800786938,70.08219812790055,71.62124129132606,68.37399581335727,61.511254056699386,70.515271832073
975.0,73.63821129888743,70.1552196930838,71.58283194581125,68.28953343455927,61.48878440532907,70.49418206606234
1000.0,73.57001488257475,70.20942248426019,71.57129196116675,68.18825524751355,61.48950084016812,70.46124036756753
1030.0,73.40231994589776,70.22526453928849,71.4872135364963,68.05027177388553,61.47040650554368,70.3576193727652
1060.0,73.20306957104252,70.2183254418497,71.47366577906334,67.97284011197377,61.4273098846416,70.26309396126943
1090.0,72.97150800786937,70.18161208533421,71.40474573551182,67.86764321765865,61.35050215776006,70.13284391025671
1120.0,72.70906430015984,70.04852015458805,71.34707383741774,67.77468841179505,61.25381174290524,69.97683704989059
1150.0,72.37896989520115,69.89780984381858,71.30973431064967,67.66562906613733,61.06806064944446,69.79568706639986
1180.0,72.05017075212572,69.60432912249857,71.29352560609668,67.53395247565051,60.828569352008444,69.59132726720274
1220.0,71.72104166298747,69.28230649956843,71.29878250828317,67.40003017173501,60.517392804844064,69.38994901199804
1250.0,71.3210416629875,68.79472217650472,71.29878250828317,67.22450958043618,60.108892714789874,69.12973281294474
1280.0,70.98656646311248,68.27915446671192,71.35156485342442,67.05899478907065,59.65136049798005,68.91346279583615
1320.0,70.58656646311248,67.63131741555753,71.4005039034121,66.86617008274104,59.12568720662976,68.65991832122576
1360.0,70.1501707521257,66.8840546157494,71.46232494770146,66.6476393068345,58.578765360082045,68.39820258650873
1400.0,69.71592692226707,66.1670591773177,71.53918625244553,66.46290955608784,58.02162883827586,68.17173703788706
1450.0,69.28219967332303,65.3840546157494,71.56213911110939,66.27664815429556,57.5090479716571,67.93323670529612
1500.0,68.78219967332305,64.60137735040873,71.55750726044465,66.06772753715327,57.01607169941643,67.67898251944465
1550.0,68.2566725593005,63.866720736860614,71.54807463968972,65.89673385606538,56.57971471857449,67.44367746006428
1600.0,67.70473530118575,63.12081894554056,71.44807463968972,65.70419362882242,56.203769825636286,67.16672259154706
1650.0,67.13855083142046,62.53510550729975,71.2909251647737,65.5188036605026,55.89997103946304,66.88083229959507
1700.0,66.50942076110276,61.98573603864206,71.07501721569159,65.34293296008491,55.61901516838935,66.56129070216436
1750.0,65.91147494842764,61.58573915648971,70.8133419777795,65.19946142970618,55.3941001018804,66.24452237540784
1800.0,65.30870389637977,61.33331023801675,70.53501156455374,65.04150571675729,55.193756748363185,65.93039878275654
1850.0,64.800892817766,61.27387961222817,70.23519856555377,64.92012003857188,55.03138432031059,65.6445563344686
1900.0,64.30274274418537,61.367695213052926,69.95660712721724,64.81013810573096,54.85235086596124,65.3899170477175
1950.0,63.875278878865245,61.61227178315619,69.73472676911969,64.77061755039504,54.64896688848829,65.2085110462302
2000.0,63.5181436471121,62.07082970284297,69.5106323937104,64.72771074513564,54.4362606689365,65.06267787818332
2060.0,63.28519555329946,62.68915630129641,69.35932322048113,64.71265983628182,54.16512457306693,65.00711648125493
2120.0,63.07877178285868,63.44659692804832,69.25161911335726,64.70366606176002,53.88206130934445,65.01289171495273
2180.0,62.92509593872357,64.21832613468221,69.21708968621063,64.72888116144905,53.560381010273275,65.09226036806855
2240.0,62.825095938723564,64.94142122357896,69.18613120935623,64.73931264748023,53.2242316926402,65.18926348581658
2300.0,62.72509593872357,65.6301206597481,69.1974427285419,64.71717188659387,52.847725756825255,65.31407950171617
2360.0,62.744345282238584,66.14314826109435,69.22314825398898,64.66475399656167,52.47558935774801,65.43122807925609
2400.0,62.783930389832236,66.39843514857178,69.25247572705108,64.57676543654996,52.102186195148036,65.49289363608382
2500.0,62.94610042237147,66.44314826109435,69.2816424075462,64.40814196519612,51.7015758878707,65.50527638094954
2580.0,63.03442035091189,66.16820626411149,69.31446792646454,64.1554673156247,51.31324434004796,65.42276334844807
2650.0,63.24041068732143,65.7134796001795,69.33522007633302,63.87332565893054,50.949171191619826,65.30981017994046
2720.0,63.458251492120425,65.17179133196204,69.34354879022196,63.56264990343557,50.59359412964507,65.18256717952401
2800.0,63.67355758553458,64.55242311342381,69.36120971445526,63.22358365299452,50.309021023207166,65.05769639760136
2900.0,63.978068074381056,63.89313203554735,69.34858634871948,62.875589400742896,50.023241158169995,64.9406135479002
3000.0,64.21028772419102,63.29758033768286,69.36000416990804,62.528723930010074,49.811523803548525,64.85406345896364
3070.0,64.43316276393928,62.81499088640798,69.29949418965003,62.20245097246554,49.671000655408406,64.75700443018148
3150.0,64.67660008738412,62.35237067879929,69.31824715388012,61.953704616508446,49.54670617982593,64.73036844702881
3250.0,64.77233236865052,61.92230786812672,69.2814560855051,61.77216057650425,49.465233213346565,64.66125452641093
3350.0,64.94836735062422,61.701306250838186,69.28258779611234,61.64365124932311,49.41560431323545,64.66251546458521
