Freq,Floor Bounce,Ceiling Bounce,Front Wall Bounce,Side Wall Bounce,Rear Wall Bounce,Total Early Reflection
22.4,27.068450838054332,27.799999999999983,27.52913392494287,27.202302320640513,26.789824424712293,27.29234612432049
23.0,27.868450838054315,28.599999999999994,28.34313939533783,28.002302320640496,27.600363566912534,28.09718605136237
23.6,28.703069571042533,29.400000000000006,29.171662753918923,28.802302320640507,28.416064107657917,28.912616056128797
24.0,29.46845083805431,30.200000000000017,29.943139395337823,29.60230232064052,29.20036356691253,29.697186051362365
25.0,30.26845083805432,30.966921851160492,30.729133924942886,30.4023023206405,29.984606059831492,30.484001330326805
25.8,31.003069571042516,31.700000000000017,31.443139395337823,31.10230232064052,30.705684080830025,31.204723935457793
26.5,31.60306957104251,32.3669218511605,32.0861845050195,31.802302320640507,31.35841976530091,31.857874807238886
27.2,32.26845083805432,32.96692185116049,32.729133924942886,32.4023023206405,31.984606059831492,32.484001330326805
28.0,32.90306957104252,33.599999999999994,33.3431393953378,33.002302320640496,32.61075630282491,33.10562869393351
29.0,33.56845083805433,34.266921851160504,34.00032894280355,33.70230232064051,33.27415048157738,33.77605699074692
30.0,34.30306957104253,35.0,34.743139395337835,34.4023023206405,34.010756302824944,34.50562869393352
30.7,35.13513059177981,35.86692185116053,35.5716627539189,35.30230232064051,34.85316350574067,35.359951017502055
31.5,36.13513059177981,36.8669218511605,36.5716627539189,36.30230232064051,35.85316350574067,36.359951017502055
32.5,37.3030695710425,38.03358982687999,37.77166275391889,37.4023023206405,37.01606410765791,37.52015446613146
33.5,38.60306957104251,39.33358982687997,39.0716627539189,38.70230232064051,38.316064107657866,38.82015446613144
34.5,40.003069571042516,40.70000000000002,40.44313939533782,40.10230232064049,39.69515785780999,40.202849087251536
35.5,41.40306957104252,42.133589826879984,41.84313939533783,41.502302320640496,41.11606410765788,41.61412529623047
36.5,42.8030695710425,43.53358982687996,43.27166275391889,42.9023023206405,42.52666029580021,43.022043353620234
37.5,44.168450838054326,44.8669218511605,44.64313939533784,44.30230232064051,43.88994590134911,44.387920636899935
38.7,45.40306957104252,46.133589826879984,45.87166275391891,45.51240122638541,45.13723349248667,45.625897760060695
40.0,46.503069571042516,47.23358982687998,46.971662753918906,46.60230232064049,46.22666310149478,46.72204385426792
41.2,47.40306957104252,48.16692185116051,47.87166275391891,47.583168818768655,47.14777821842054,47.64914552617728
42.5,48.20306957104253,48.900000000000006,48.64313939533781,48.30230232064051,47.905684080830014,48.40472393545778
43.7,48.8030695710425,49.5669218511605,49.2716627539189,48.98316881876866,48.54777821842055,49.049145526177284
45.0,49.40306957104251,50.099999999999994,49.84313939533783,49.50230232064051,49.116064107657905,49.6065764045222
46.2,49.90306957104252,50.63358982687997,50.37166275391891,50.04279644139845,49.63723349248667,50.13183670403416
47.5,50.435130591779824,51.16692185116051,50.8861845050195,50.602302320640504,50.174150481577385,50.6667443756337
48.7,51.003069571042516,51.733589826879964,51.471662753918906,51.12224761696085,50.73723349248668,51.22781799248416
50.0,51.70306957104252,52.400000000000006,52.14313939533781,51.80230232064049,51.410756302824936,51.905628693933494
51.5,52.46845083805432,53.2,52.929133924942875,52.60230232064049,52.1898244247123,52.69234612432051
53.0,53.36845083805434,54.0669218511605,53.84313939533783,53.502302320640496,53.08994590134911,53.58792063689995
54.5,54.40306957104251,55.099999999999994,54.84313939533783,54.50230232064051,54.09515785780998,54.60284908725153
56.0,55.503069571042516,56.2,55.94313939533782,55.602302320640504,55.21075630282493,55.70562869393352
58.0,56.70306957104252,57.400000000000006,57.14313939533781,56.80230232064049,56.410756302824936,56.90562869393352
60.0,57.96845083805432,58.66692185116051,58.44313939533782,58.102302320640504,57.689945901349105,58.18792063689993
61.5,59.33513059177983,60.06692185116049,59.7716627539189,59.49285624148877,59.053163505740685,59.55808834021683
63.0,60.768450838054335,61.46692185116049,61.243139395337835,60.9023023206405,60.48994590134912,60.98792063689994
65.0,62.26845083805432,62.96692185116051,62.729133924942886,62.4023023206405,61.984606059831506,62.48400133032682
67.0,63.76845083805432,64.4669218511605,64.20032894280355,63.9023023206405,63.47415048157738,63.97605699074691
69.0,65.26845083805433,65.9669218511605,65.72913392494287,65.4023023206405,64.98460605983149,65.48400133032682
71.0,66.70306957104252,67.4,67.17166275391891,66.80230232064049,66.4160641076579,66.9126160561288
73.0,68.06845083805433,68.7669218511605,68.52913392494288,68.2023023206405,67.77938141716079,68.28307036736487
75.0,69.30306957104251,70.0,69.7716627539189,69.40230232064049,69.0160641076579,69.51261605612879
77.5,70.40306957104252,71.06692185116049,70.84313939533781,70.5023023206405,70.09515785780998,70.59545298035981
80.0,71.26845083805432,72.0,71.72913392494289,71.4023023206405,70.98982442471231,71.4923461243205
82.5,71.93513059177982,72.66692185116051,72.37166275391891,72.1023023206405,71.65316350574068,72.15995101750205
85.0,72.40306957104252,73.1669218511605,72.87166275391891,72.59263596899618,72.14777821842054,72.65101204213802
87.5,72.70306957104253,73.4669218511605,73.17166275391891,72.8729858024466,72.44790087682783,72.94716338340172
90.0,72.90306957104252,73.63358982687998,73.37166275391891,73.01217160822407,72.62148884003324,73.12304335658945
92.5,72.93513059177982,73.7,73.40032894280357,73.1023023206405,72.67950318624663,73.1781176609878
95.0,72.90306957104252,73.66692185116051,73.37166275391891,73.09194381315004,72.64790087682783,73.15089731654027
97.5,72.80306957104251,73.6,73.2861845050195,73.0023023206405,72.58460605983149,73.07000698262033
100.0,72.76845083805433,73.4669218511605,73.20032894280355,72.9023023206405,72.45841976530093,72.97325838664005
103.0,72.66845083805433,73.33358982687997,73.08618450501949,72.79285624148876,72.36366967090756,72.86190392784948
106.0,72.60306957104251,73.23358982687998,73.00032894280356,72.6829429119757,72.26366967090756,72.76958021005719
109.0,72.50306957104252,73.0669218511605,72.94313939533782,72.57323332644617,72.16879117152659,72.66293608959904
112.0,72.46845083805432,72.9669218511605,72.87166275391891,72.4829429119757,72.09515785780997,72.58829070325145
115.0,72.40306957104252,72.90076749445562,72.80065786069426,72.40345351146745,72.02160662525564,72.5173306158014
118.0,72.36845083805431,72.76845083805433,72.72913392494289,72.32385690711072,71.93747100601585,72.43600906672634
122.0,72.36845083805431,72.7007674944556,72.70065786069425,72.2838785280963,71.90108509339842,72.40107878894132
125.0,72.33513059177983,72.60076749445561,72.65742449135816,72.21423846497345,71.84323466757007,72.33996718255608
128.0,72.33513059177983,72.56845083805433,72.65742449135816,72.18500830000139,71.78593548356858,72.3172557267062
132.0,72.33513059177983,72.53513059177983,72.64346508697898,72.15535223900304,71.75400982570957,72.29579155362973
136.0,72.33513059177983,72.53513059177983,72.67199384997417,72.14580337460791,71.72282087219412,72.29465960333734
140.0,72.36845083805431,72.53513059177983,72.71508314243884,72.15627238668591,71.70726302253928,72.31013408415876
145.0,72.40306957104252,72.56845083805433,72.74346508697897,72.15627238668591,71.70280093298516,72.32965610555078
150.0,72.40306957104252,72.60306957104251,72.81508314243885,72.18734647033963,71.70799749417911,72.35967578987032
155.0,72.50306957104252,72.66845083805433,72.88683695097149,72.24853904339454,71.71911302850354,72.42340689165198
160.0,72.57150800786938,72.76845083805433,72.95808127197247,72.26969275405874,71.72441063606088,72.4794608344719
165.0,72.60306957104251,72.83663575667187,73.0726484311316,72.34125004927144,71.76719918993268,72.54699499692327
170.0,72.70306957104253,72.93663575667188,73.17264843113159,72.4222776678182,71.80475066942203,72.63299921051741
175.0,72.77150800786937,73.00306957104252,73.2871668922436,72.50429617655317,71.84689285552999,72.70974921805912
180.0,72.87150800786938,73.13663575667186,73.40130813607779,72.56588141054972,71.86387704901026,72.79940488238984
185.0,72.97150800786939,73.20306957104252,73.50130813607778,72.63914474048649,71.86985634113718,72.87204257528579
190.0,73.00690501035459,73.27150800786939,73.57264843113158,72.67202070452169,71.8607843084076,72.91543230212527
195.0,73.1069050103546,73.33821129888743,73.65905509047516,72.69285748440964,71.84090620339809,72.97146866953821
200.0,73.1069050103546,73.37150800786938,73.71573126164822,72.686574035511,71.77490483313699,72.98082366901937
206.0,73.1760917544922,73.30690501035458,73.74510093472827,72.66076123181445,71.68221865754572,72.9694120355617
212.0,73.1760917544922,73.30690501035458,73.74510093472827,72.60585442190184,71.55270671088753,72.94017613335902
218.0,73.1760917544922,73.20690501035459,73.70293748475285,72.50607402499574,71.38790655729524,72.86617024601239
224.0,73.07609175449223,73.1069050103546,73.65971162456,72.39156144454478,71.20098594582623,72.76511515618424
230.0,73.07609175449223,72.94283030471973,73.57461192973442,72.25743778817778,70.9616523308712,72.65136469707481
236.0,72.9760917544922,72.77609175449221,73.47461192973442,72.09396651705097,70.68264714676329,72.50163810358646
240.0,72.87609175449221,72.57609175449221,73.37461192973443,71.92982596230812,70.3951531536649,72.34446702165752
250.0,72.77609175449221,72.31227178315618,73.24607766783814,71.70537483042325,70.05443688588826,72.15012426408708
258.0,72.57609175449221,72.08219967332305,73.08946128786867,71.50128902257337,69.69077161008211,71.93453357688081
265.0,72.4760917544922,71.78219967332305,72.93271257836936,71.28911228466649,69.3031115318624,71.724749235758
272.0,72.27609175449223,71.51916705502752,72.80359507493894,71.08689087697758,68.9362855581515,71.51178018937938
280.0,72.1760917544922,71.28982856673471,72.64770564348939,70.8911880436319,68.57972814382924,71.32574743922349
290.0,72.07609175449221,71.08982856673472,72.5477056434894,70.78141894612502,68.26727121911433,71.18211926464713
300.0,72.0457671943847,70.88982856673474,72.53271257836937,70.7055407735628,68.0111667664398,71.09225986579808
307.0,72.0457671943847,70.82758719283592,72.53271257836937,70.7055407735628,67.82341427379403,71.0622819248716
315.0,72.14576719438469,70.79897445130925,72.61834583164506,70.7987048488954,67.7187788038561,71.11375270902221
325.0,72.31227178315618,70.82758719283592,72.77525122642456,71.00554077356281,67.73660659610391,71.24632574819799
335.0,72.5457671943847,70.96588846059689,73.00359507493896,71.24968230267973,67.83213243546427,71.45107320918599
345.0,72.84576719438469,71.16588846059686,73.2610247430264,71.57523735522162,67.9901505712043,71.71387127674771
355.0,73.1457671943847,71.33752777300028,73.58879404668059,71.93682970670591,68.1676117246482,72.00127555450888
365.0,73.4457671943847,71.53752777300028,73.84607766783812,72.27998373954489,68.36278348051887,72.27193175976964
375.0,73.74576719438468,71.66588846059688,74.13142096048344,72.60460975143747,68.51712822718935,72.53242824222724
387.0,74.0457671943847,71.80963256681619,74.37461192973441,72.91209445027403,68.63085096835937,72.77768556313342
400.0,74.2457671943847,71.84898359150841,74.55971162456001,73.10867312987378,68.63981197915685,72.93282538941926
412.0,74.44576719438469,71.74898359150842,74.63175513861907,73.21899185972124,68.55731762123898,73.01042714132267
425.0,74.5457671943847,71.66194867563766,74.65971162456,73.25810416156796,68.38982584909132,73.030254793471
437.0,74.5457671943847,71.46194867563766,74.60359507493897,73.19970971568657,68.10548598644877,72.95369283320464
450.0,74.51592692226706,71.27641629732153,74.47461192973442,73.03897722031444,67.79206440420859,72.8271544386329
462.0,74.38219967332304,70.97641629732153,74.30359507493895,72.82424944881465,67.42454319153569,72.62812594100113
475.0,74.15260953202217,70.692378988098,74.06264712636354,72.50535219769326,66.99625312602195,72.35738999611218
487.0,73.86096514237182,70.45062128010365,73.79272180649572,72.12834972767004,66.55245686457113,72.05282194657994
500.0,73.43257218046557,70.192378988098,73.49272180649571,71.68808081501436,66.11983449291218,71.68426548144303
515.0,72.94314826109435,70.05062128010363,73.13628240487206,71.20769734414519,65.68152895089342,71.29074610700158
530.0,72.42179738688895,69.87641629732153,72.75383697975168,70.66026844496093,65.25725327781127,70.86610869591325
545.0,71.86878033996791,69.76194867563765,72.38467198105687,70.104396254555,64.85974708768342,70.45054547186464
560.0,71.28382334167594,69.68888547155004,72.02966643952459,69.56548549216986,64.44622818735128,70.04642457337638
580.0,70.80034112939828,69.64898359150843,71.67457720919764,69.06382923535229,64.07369668208915,69.69114414913841
600.0,70.37584607527145,69.56588846059688,71.36416784504539,68.60181452168297,63.70428554151857,69.36886301007607
615.0,70.01832544184971,69.52758719283591,71.10840531031671,68.23342633307357,63.35182931909566,69.11057979634765
630.0,69.8517743753474,69.51916705502754,70.9203857253813,67.96291799771541,63.05470873006672,68.94907762089844
650.0,69.87584607527147,69.51916705502754,70.8203857253813,67.80916742624458,62.75956656877469,68.8846532434775
670.0,70.05866027600834,69.48219967332304,70.80458551926982,67.76593817010395,62.557836802548195,68.90175331463817
690.0,70.34293979360191,69.48219967332304,70.8436701954954,67.80071688644621,62.33118954704133,68.98494137464598
710.0,70.6891563012964,69.48219967332304,70.9139316586015,67.91912293019907,62.17329114396486,69.11482752089105
730.0,71.10464502318536,69.48219967332304,71.01139323072618,68.05421471416466,62.056477935311705,69.2828450586238
750.0,71.5948570588317,69.45260953202218,71.15126317223464,68.21804707261168,61.95364031682183,69.49302605544429
775.0,72.05017075212572,69.45260953202218,71.26653957825427,68.3563854056388,61.87929753782282,69.69654389202974
800.0,72.4797774579057,69.55260953202216,71.39366590096782,68.50605362296747,61.811903804761315,69.92218374814195
825.0,72.83964531976002,69.6234968506598,71.46653957825427,68.55371566742681,61.75456239406857,70.09291664971818
850.0,73.13964531976,69.6948570588317,71.5516115040177,68.59931987316392,61.680138315585026,70.24780637017066
875.0,73.37071732495409,69.79485705883171,71.5817624374694,68.58609652031856,61.632685985730475,70.36154538583298
900.0,73.53663575667186,69.89897445130924,71.6142595479255,68.54531558682723,61.58057476595178,70.44865472478499
925.0,73.63663575667186,69.97082970284298,71.61743277830695,68.46913156470204,61.546373188455604,70.49259558241295
950.0,73.67150800786939,70.08219812790055,71.62124129132604,68.37399581335727,61.511254056699386,70.51527183207301
975.0,73.63821129888743,70.15521969308378,71.58283194581125,68.28953343455927,61.488784405329085,70.49418206606235
1000.0,73.57001488257477,70.20942248426019,71.57129196116674,68.18825524751355,61.48950084016812,70.46124036756753
1030.0,73.40231994589774,70.22526453928849,71.48721353649631,68.05027177388554,61.470406505543664,70.3576193727652
1060.0,73.20306957104252,70.21832544184971,71.47366577906334,67.97284011197377,61.4273098846416,70.26309396126943
1090.0,72.97150800786939,70.18161208533421,71.40474573551184,67.86764321765865,61.35050215776006,70.13284391025671
1120.0,72.70906430015984,70.04852015458805,71.34707383741775,67.77468841179505,61.253811742905256,69.9768370498906
1150.0,72.37896989520115,69.89780984381858,71.30973431064967,67.66562906613731,61.06806064944446,69.79568706639986
1180.0,72.05017075212572,69.60432912249857,71.29352560609668,67.5339524756505,60.828569352008444,69.59132726720276
1220.0,71.72104166298747,69.28230649956842,71.29878250828314,67.40003017173501,60.517392804844064,69.38994901199803
1250.0,71.32104166298748,68.7947221765047,71.29878250828314,67.22450958043618,60.108892714789874,69.12973281294471
1280.0,70.98656646311248,68.27915446671193,71.35156485342442,67.05899478907067,59.65136049798005,68.91346279583615
1320.0,70.58656646311246,67.63131741555753,71.4005039034121,66.86617008274104,59.12568720662976,68.65991832122576
1360.0,70.1501707521257,66.8840546157494,71.46232494770146,66.6476393068345,58.57876536008203,68.39820258650872
1400.0,69.71592692226707,66.1670591773177,71.53918625244553,66.46290955608784,58.02162883827586,68.17173703788706
1450.0,69.28219967332305,65.3840546157494,71.5621391111094,66.27664815429556,57.5090479716571,67.93323670529614
1500.0,68.78219967332305,64.60137735040871,71.55750726044465,66.06772753715327,57.016071699416415,67.67898251944465
1550.0,68.25667255930051,63.8667207368606,71.54807463968972,65.89673385606538,56.57971471857448,67.44367746006428
1600.0,67.70473530118575,63.12081894554056,71.44807463968971,65.70419362882242,56.203769825636286,67.16672259154706
1650.0,67.13855083142047,62.53510550729973,71.29092516477368,65.51880366050258,55.89997103946304,66.88083229959506
1700.0,66.50942076110277,61.98573603864206,71.07501721569159,65.34293296008491,55.61901516838935,66.56129070216434
1750.0,65.91147494842764,61.585739156489694,70.8133419777795,65.19946142970618,55.39410010188038,66.24452237540783
1800.0,65.30870389637977,61.33331023801675,70.53501156455374,65.04150571675729,55.193756748363185,65.93039878275654
1850.0,64.800892817766,61.27387961222817,70.23519856555377,64.92012003857187,55.03138432031061,65.6445563344686
1900.0,64.30274274418537,61.36769521305294,69.95660712721724,64.81013810573096,54.85235086596121,65.38991704771749
1950.0,63.87527887886523,61.61227178315619,69.73472676911969,64.77061755039503,54.6489668884883,65.2085110462302
2000.0,63.5181436471121,62.070829702842985,69.5106323937104,64.72771074513565,54.4362606689365,65.06267787818332
2060.0,63.285195553299445,62.68915630129642,69.35932322048113,64.71265983628183,54.16512457306692,65.00711648125491
2120.0,63.07877178285867,63.44659692804832,69.25161911335726,64.70366606176002,53.88206130934445,65.01289171495274
2180.0,62.92509593872359,64.21832613468221,69.21708968621063,64.72888116144904,53.56038101027329,65.09226036806857
2240.0,62.825095938723564,64.94142122357896,69.18613120935623,64.73931264748023,53.2242316926402,65.18926348581658
2300.0,62.72509593872357,65.6301206597481,69.1974427285419,64.71717188659386,52.847725756825255,65.31407950171615
2360.0,62.7443452822386,66.14314826109435,69.223148253989,64.66475399656167,52.47558935774801,65.4312280792561
2400.0,62.78393038983222,66.39843514857178,69.25247572705106,64.57676543654998,52.10218619514802,65.49289363608382
2500.0,62.94610042237147,66.44314826109434,69.28164240754622,64.40814196519614,51.7015758878707,65.50527638094955
2580.0,63.03442035091189,66.16820626411149,69.31446792646454,64.15546731562469,51.31324434004797,65.42276334844807
2650.0,63.24041068732144,65.71347960017948,69.33522007633302,63.87332565893054,50.949171191619826,65.30981017994046
2720.0,63.458251492120425,65.17179133196204,69.34354879022196,63.56264990343557,50.59359412964508,65.182567179524
2800.0,63.67355758553458,64.55242311342381,69.36120971445527,63.223583652994535,50.309021023207166,65.05769639760138
2900.0,63.97806807438104,63.89313203554735,69.34858634871946,62.87558940074288,50.02324115817001,64.9406135479002
3000.0,64.21028772419102,63.297580337682874,69.36000416990804,62.528723930010074,49.811523803548525,64.85406345896362
3070.0,64.43316276393927,62.81499088640797,69.29949418965003,62.202450972465556,49.671000655408406,64.75700443018148
3150.0,64.67660008738412,62.3523706787993,69.31824715388012,61.953704616508446,49.54670617982593,64.73036844702882
3250.0,64.77233236865054,61.92230786812674,69.2814560855051,61.772160576504234,49.46523321334658,64.66125452641094
3350.0,64.94836735062424,61.70130625083816,69.28258779611234,61.64365124932311,49.41560431323545,64.6625154645852
