Freq "Front Wall Bounce"
22.4 27.52913392494287
23.0 28.34313939533783
23.6 29.171662753918923
24.0 29.943139395337823
25.0 30.729133924942886
25.8 31.443139395337823
26.5 32.0861845050195
27.2 32.729133924942886
28.0 33.3431393953378
29.0 34.00032894280355
30.0 34.743139395337835
30.7 35.5716627539189
31.5 36.5716627539189
32.5 37.77166275391889
33.5 39.0716627539189
34.5 40.44313939533782
35.5 41.84313939533783
36.5 43.27166275391889
37.5 44.64313939533784
38.7 45.87166275391891
40.0 46.971662753918906
41.2 47.87166275391891
42.5 48.64313939533781
43.7 49.2716627539189
45.0 49.84313939533783
46.2 50.37166275391891
47.5 50.8861845050195
48.7 51.471662753918906
50.0 52.14313939533781
51.5 52.929133924942875
53.0 53.84313939533783
54.5 54.84313939533783
56.0 55.94313939533782
58.0 57.14313939533781
60.0 58.44313939533782
61.5 59.7716627539189
63.0 61.243139395337835
65.0 62.729133924942886
67.0 64.20032894280355
69.0 65.72913392494287
71.0 67.17166275391891
73.0 68.52913392494288
75.0 69.7716627539189
77.5 70.84313939533781
80.0 71.72913392494289
82.5 72.37166275391891
85.0 72.87166275391891
87.5 73.17166275391891
90.0 73.37166275391891
92.5 73.40032894280357
95.0 73.37166275391891
97.5 73.2861845050195
100.0 73.20032894280355
103.0 73.08618450501949
106.0 73.00032894280356
109.0 72.94313939533782
112.0 72.87166275391891
115.0 72.80065786069426
118.0 72.72913392494289
122.0 72.70065786069425
125.0 72.65742449135816
128.0 72.65742449135816
132.0 72.64346508697898
136.0 72.67199384997417
140.0 72.71508314243884
145.0 72.74346508697897
150.0 72.81508314243885
155.0 72.88683695097149
160.0 72.95808127197247
165.0 73.0726484311316
170.0 73.17264843113159
175.0 73.2871668922436
180.0 73.40130813607779
185.0 73.50130813607778
190.0 73.57264843113158
195.0 73.65905509047516
200.0 73.71573126164822
206.0 73.74510093472827
212.0 73.74510093472827
218.0 73.70293748475285
224.0 73.65971162456
230.0 73.57461192973442
236.0 73.47461192973442
240.0 73.37461192973443
250.0 73.24607766783814
258.0 73.08946128786867
265.0 72.93271257836936
272.0 72.80359507493894
280.0 72.64770564348939
290.0 72.5477056434894
300.0 72.53271257836937
307.0 72.53271257836937
315.0 72.61834583164506
325.0 72.77525122642456
335.0 73.00359507493896
345.0 73.2610247430264
355.0 73.58879404668059
365.0 73.84607766783812
375.0 74.13142096048344
387.0 74.37461192973441
400.0 74.55971162456001
412.0 74.63175513861907
425.0 74.65971162456
437.0 74.60359507493897
450.0 74.47461192973442
462.0 74.30359507493895
475.0 74.06264712636354
487.0 73.79272180649572
500.0 73.49272180649571
515.0 73.13628240487206
530.0 72.75383697975168
545.0 72.38467198105687
560.0 72.02966643952459
580.0 71.67457720919764
600.0 71.36416784504539
615.0 71.10840531031671
630.0 70.9203857253813
650.0 70.8203857253813
670.0 70.80458551926982
690.0 70.8436701954954
710.0 70.9139316586015
730.0 71.01139323072618
750.0 71.15126317223464
775.0 71.26653957825427
800.0 71.39366590096782
825.0 71.46653957825427
850.0 71.5516115040177
875.0 71.5817624374694
900.0 71.6142595479255
925.0 71.61743277830695
950.0 71.62124129132604
975.0 71.58283194581125
1000.0 71.57129196116674
1030.0 71.48721353649631
1060.0 71.47366577906334
1090.0 71.40474573551184
1120.0 71.34707383741775
1150.0 71.30973431064967
1180.0 71.29352560609668
1220.0 71.29878250828314
1250.0 71.29878250828314
1280.0 71.35156485342442
1320.0 71.4005039034121
1360.0 71.46232494770146
1400.0 71.53918625244553
1450.0 71.5621391111094
1500.0 71.55750726044465
1550.0 71.54807463968972
1600.0 71.44807463968971
1650.0 71.29092516477368
1700.0 71.07501721569159
1750.0 70.8133419777795
1800.0 70.53501156455374
1850.0 70.23519856555377
1900.0 69.95660712721724
1950.0 69.73472676911969
2000.0 69.5106323937104
2060.0 69.35932322048113
2120.0 69.25161911335726
2180.0 69.21708968621063
2240.0 69.18613120935623
2300.0 69.1974427285419
2360.0 69.223148253989
2400.0 69.25247572705106
2500.0 69.28164240754622
2580.0 69.31446792646454
2650.0 69.33522007633302
2720.0 69.34354879022196
2800.0 69.36120971445527
2900.0 69.34858634871946
3000.0 69.36000416990804
3070.0 69.29949418965003
3150.0 69.31824715388012
3250.0 69.2814560855051
3350.0 69.28258779611234
3450.0 69.24128017957867
3550.0 69.20566216781857
3650.0 69.18699578322433
3750.0 69.16396431786063
3870.0 69.13819966199594
4000.0 69.1549247989384
4120.0 69.21109592224504
4250.0 69.21848231828434
4370.0 69.31848231828434
4500.0 69.35617602572232
4620.0 69.45957261245859
4750.0 69.58579379095492
4870.0 69.6826342784428
5000.0 69.8682975196104
5150.0 70.04977457184701
5300.0 70.23580066154689
5450.0 70.39563978319916
5600.0 70.57083877389934
5800.0 70.75070923787628
6000.0 70.8449469866321
6150.0 70.94983160200393
6300.0 70.98198461251664
6500.0 70.95475566269147
6700.0 70.9161223309129
6900.0 70.79415606550077
7100.0 70.66298734828003
7300.0 70.500881447908
7500.0 70.31799323498092
7750.0 70.09950238116693
8000.0 69.87487431832507
8250.0 69.6702882480267
8500.0 69.46640391155492
8750.0 69.27632205879085
9000.0 69.07532264669629
9250.0 68.88019788202747
9500.0 68.72547674398305
9750.0 68.58111950977323
10000.0 68.45887466124206
10300.0 68.35887466124207
10600.0 68.29363755277487
10900.0 68.28654336859142
11200.0 68.29363755277487
11500.0 68.35887466124207
11800.0 68.45887466124206
12200.0 68.58089998779919
12500.0 68.75887466124206
12800.0 69.00570176303329
13200.0 69.20570176303329
13600.0 69.5057017630333
14000.0 69.70570176303329
14500.0 69.90570176303329
15000.0 70.00570176303329
15500.0 70.00570176303329
16000.0 69.90570176303329
16500.0 69.70570176303329
17000.0 69.38089998779918
17500.0 68.98089998779919
18000.0 68.48089998779919
18500.0 67.93402515585484
19000.0 67.40570176303329
19500.0 66.88089998779918
