Freq "Rear Wall Bounce"
22.4 27.82020417154773
23.0 28.63074331374797
23.6 29.446443854493353
24.0 30.230743313747965
25.0 31.014985806666928
25.8 31.73606382766546
26.5 32.388799512136345
27.2 33.01498580666693
28.0 33.641136049660346
29.0 34.304530228412816
30.0 35.04113604966038
30.7 35.883543252576104
31.5 36.883543252576104
32.5 38.04644385449335
33.5 39.3464438544933
34.5 40.725537604645424
35.5 42.14644385449331
36.5 43.55704004263565
37.5 44.920325648184544
38.7 46.16761323932211
40.0 47.257042848330215
41.2 48.17815796525598
42.5 48.93606382766545
43.7 49.57815796525598
45.0 50.14644385449334
46.2 50.66761323932211
47.5 51.20453022841282
48.7 51.76761323932212
50.0 52.44113604966037
51.5 53.220204171547735
53.0 54.12032564818455
54.5 55.125537604645416
56.0 56.24113604966037
58.0 57.44113604966037
60.0 58.72032564818454
61.5 60.08354325257612
63.0 61.52032564818455
65.0 63.01498580666694
67.0 64.50453022841282
69.0 66.01498580666693
71.0 67.44644385449334
73.0 68.80976116399623
75.0 70.04644385449333
77.5 71.12553760464542
80.0 72.02020417154775
82.5 72.68354325257611
85.0 73.17815796525598
87.5 73.47828062366327
90.0 73.65186858686867
92.5 73.70988293308207
95.0 73.67828062366327
97.5 73.61498580666692
100.0 73.48879951213637
103.0 73.39404941774299
106.0 73.294049417743
109.0 73.19917091836203
112.0 73.1255376046454
115.0 73.05198637209108
118.0 72.96785075285129
122.0 72.93146484023386
125.0 72.87361441440551
128.0 72.81631523040402
132.0 72.78438957254501
136.0 72.75320061902956
140.0 72.73764276937472
145.0 72.73318067982059
150.0 72.73837724101455
155.0 72.74949277533898
160.0 72.75479038289632
165.0 72.79757893676812
170.0 72.83513041625747
175.0 72.87727260236542
180.0 72.89425679584569
185.0 72.90023608797262
190.0 72.89116405524304
195.0 72.87128595023353
200.0 72.80528457997242
206.0 72.71259840438115
212.0 72.58308645772297
218.0 72.41828630413067
224.0 72.23136569266167
230.0 71.99203207770664
236.0 71.71302689359872
240.0 71.42553290050033
250.0 71.0848166327237
258.0 70.72115135691755
265.0 70.33349127869784
272.0 69.96666530498693
280.0 69.61010789066468
290.0 69.29765096594977
300.0 69.04154651327524
307.0 68.85379402062946
315.0 68.74915855069153
325.0 68.76698634293935
335.0 68.86251218229971
345.0 69.02053031803973
355.0 69.19799147148363
365.0 69.39316322735431
375.0 69.54750797402478
387.0 69.6612307151948
400.0 69.67019172599228
412.0 69.58769736807442
425.0 69.42020559592676
437.0 69.1358657332842
450.0 68.82244415104402
462.0 68.45492293837113
475.0 68.02663287285739
487.0 67.58283661140656
500.0 67.15021423974761
515.0 66.71190869772886
530.0 66.28763302464671
545.0 65.89012683451885
560.0 65.47660793418672
580.0 65.10407642892459
600.0 64.73466528835401
615.0 64.3822090659311
630.0 64.08508847690216
650.0 63.78994631561012
670.0 63.58821654938363
690.0 63.36156929387677
710.0 63.203670890800296
730.0 63.08685768214714
750.0 62.98402006365727
775.0 62.90967728465826
800.0 62.84228355159675
825.0 62.78494214090401
850.0 62.71051806242046
875.0 62.66306573256591
900.0 62.61095451278722
925.0 62.57675293529104
950.0 62.54163380353482
975.0 62.51916415216452
1000.0 62.519880587003556
1030.0 62.5007862523791
1060.0 62.45768963147704
1090.0 62.3808819045955
1120.0 62.28419148974069
1150.0 62.0984403962799
1180.0 61.85894909884388
1220.0 61.5477725516795
1250.0 61.13927246162531
1280.0 60.68174024481549
1320.0 60.1560669534652
1360.0 59.60914510691747
1400.0 59.052008585111295
1450.0 58.53942771849253
1500.0 58.04645144625185
1550.0 57.610094465409915
1600.0 57.23414957247172
1650.0 56.930350786298476
1700.0 56.64939491522479
1750.0 56.42447984871582
1800.0 56.22413649519862
1850.0 56.06176406714604
1900.0 55.88273061279665
1950.0 55.67934663532374
2000.0 55.466640415771934
2060.0 55.195504319902355
2120.0 54.91244105617989
2180.0 54.590760757108725
2240.0 54.25461143947564
2300.0 53.87810550366069
2360.0 53.50596910458344
2400.0 53.13256594198346
2500.0 52.73195563470614
2580.0 52.34362408688341
2650.0 51.97955093845526
2720.0 51.62397387648052
2800.0 51.3394007700426
2900.0 51.053620905005445
3000.0 50.84190355038396
3070.0 50.70138040224384
3150.0 50.57708592666137
3250.0 50.495612960182015
3350.0 50.445984060070884
3450.0 50.40431608586502
3550.0 50.39105724410946
3650.0 50.399526701941156
3750.0 50.37317236083757
3870.0 50.38363238732161
4000.0 50.354109097708076
4120.0 50.315899948863944
4250.0 50.22514489966487
4370.0 50.14569840227166
4500.0 50.028205075895855
4620.0 49.933388826744206
4750.0 49.83432767734958
4870.0 49.7469385455817
5000.0 49.68747677510082
5150.0 49.63160784846714
5300.0 49.625198177424735
5450.0 49.61389235992961
5600.0 49.60474838170852
5800.0 49.57023570547456
6000.0 49.53850504401184
6150.0 49.42587543611192
6300.0 49.28293245225005
6500.0 49.06629453821505
6700.0 48.798901362237714
6900.0 48.47107268103905
7100.0 48.08732336797756
7300.0 47.71110913341444
7500.0 47.32290059364304
7750.0 46.934848693417266
8000.0 46.57001957755433
8250.0 46.22837503869901
8500.0 45.89395743156642
8750.0 45.613983047134994
9000.0 45.34389327741526
9250.0 45.11380183633166
9500.0 44.94566456953454
9750.0 44.8092501890378
10000.0 44.68612327392724
10300.0 44.595540026878965
10600.0 44.539568865930235
10900.0 44.51052260588226
11200.0 44.539568865930235
11500.0 44.595425290663954
11800.0 44.681628570646794
12200.0 44.81965461239746
12500.0 45.002361389345694
12800.0 45.21948052934313
13200.0 45.42781768626715
13600.0 45.71186101442025
14000.0 45.920184104887866
14500.0 46.117040465440525
15000.0 46.217940876191776
15500.0 46.22407995029003
16000.0 46.12695607355177
16500.0 45.925419068806164
17000.0 45.6153703086856
17500.0 45.203496426808655
18000.0 44.71537030868559
18500.0 44.18746116504239
19000.0 43.62407995029004
19500.0 43.10934342393561
