Freq "Side Wall Bounce"
22.4 28.23268206747595
23.0 29.032682067475932
23.6 29.832682067475943
24.0 30.632682067475955
25.0 31.432682067475938
25.8 32.132682067475955
26.5 32.83268206747594
27.2 33.43268206747594
28.0 34.03268206747593
29.0 34.73268206747595
30.0 35.43268206747594
30.7 36.33268206747594
31.5 37.33268206747594
32.5 38.43268206747594
33.5 39.73268206747595
34.5 41.132682067475926
35.5 42.53268206747593
36.5 43.93268206747594
37.5 45.33268206747594
38.7 46.54278097322084
40.0 47.632682067475926
41.2 48.61354856560409
42.5 49.33268206747594
43.7 50.0135485656041
45.0 50.532682067475946
46.2 51.07317618823389
47.5 51.63268206747594
48.7 52.152627363796284
50.0 52.83268206747593
51.5 53.632682067475926
53.0 54.53268206747593
54.5 55.532682067475946
56.0 56.63268206747594
58.0 57.83268206747593
60.0 59.13268206747594
61.5 60.5232359883242
63.0 61.93268206747594
65.0 63.43268206747594
67.0 64.93268206747594
69.0 66.43268206747594
71.0 67.83268206747593
73.0 69.23268206747593
75.0 70.43268206747592
77.5 71.53268206747593
80.0 72.43268206747594
82.5 73.13268206747594
85.0 73.62301571583161
87.5 73.90336554928204
90.0 74.0425513550595
92.5 74.13268206747594
95.0 74.12232355998547
97.5 74.03268206747593
100.0 73.93268206747594
103.0 73.8232359883242
106.0 73.71332265881114
109.0 73.60361307328161
112.0 73.51332265881113
115.0 73.43383325830288
118.0 73.35423665394616
122.0 73.31425827493173
125.0 73.24461821180888
128.0 73.21538804683682
132.0 73.18573198583847
136.0 73.17618312144334
140.0 73.18665213352135
145.0 73.18665213352135
150.0 73.21772621717507
155.0 73.27891879022998
160.0 73.30007250089417
165.0 73.37162979610687
170.0 73.45265741465363
175.0 73.5346759233886
180.0 73.59626115738516
185.0 73.66952448732192
190.0 73.70240045135712
195.0 73.72323723124508
200.0 73.71695378234644
206.0 73.69114097864988
212.0 73.63623416873727
218.0 73.53645377183118
224.0 73.42194119138021
230.0 73.28781753501322
236.0 73.12434626388641
240.0 72.96020570914355
250.0 72.73575457725869
258.0 72.53166876940881
265.0 72.31949203150192
272.0 72.11727062381301
280.0 71.92156779046734
290.0 71.81179869296045
300.0 71.73592052039824
307.0 71.73592052039824
315.0 71.82908459573083
325.0 72.03592052039825
335.0 72.28006204951517
345.0 72.60561710205705
355.0 72.96720945354134
365.0 73.31036348638033
375.0 73.6349894982729
387.0 73.94247419710946
400.0 74.13905287670921
412.0 74.24937160655668
425.0 74.28848390840339
437.0 74.230089462522
450.0 74.06935696714987
462.0 73.85462919565009
475.0 73.53573194452869
487.0 73.15872947450548
500.0 72.7184605618498
515.0 72.23807709098062
530.0 71.69064819179637
545.0 71.13477600139043
560.0 70.59586523900529
580.0 70.09420898218772
600.0 69.6321942685184
615.0 69.263806079909
630.0 68.99329774455084
650.0 68.83954717308002
670.0 68.79631791693939
690.0 68.83109663328165
710.0 68.9495026770345
730.0 69.0845944610001
750.0 69.24842681944712
775.0 69.38676515247424
800.0 69.53643336980291
825.0 69.58409541426225
850.0 69.62969961999936
875.0 69.616476267154
900.0 69.57569533366267
925.0 69.49951131153747
950.0 69.4043755601927
975.0 69.31991318139471
1000.0 69.21863499434899
1030.0 69.08065152072098
1060.0 69.0032198588092
1090.0 68.89802296449409
1120.0 68.80506815863049
1150.0 68.69600881297275
1180.0 68.56433222248593
1220.0 68.43040991857045
1250.0 68.25488932727161
1280.0 68.0893745359061
1320.0 67.89654982957647
1360.0 67.67801905366994
1400.0 67.49328930292327
1450.0 67.307027901131
1500.0 67.09810728398871
1550.0 66.92711360290082
1600.0 66.73457337565786
1650.0 66.54918340733802
1700.0 66.37331270692034
1750.0 66.22984117654161
1800.0 66.07188546359272
1850.0 65.9504997854073
1900.0 65.84051785256639
1950.0 65.80099729723047
2000.0 65.75809049197109
2060.0 65.74303958311727
2120.0 65.73404580859545
2180.0 65.75926090828447
2240.0 65.76969239431567
2300.0 65.7475516334293
2360.0 65.69513374339711
2400.0 65.60714518338541
2500.0 65.43852171203157
2580.0 65.18584706246013
2650.0 64.90370540576598
2720.0 64.593029650271
2800.0 64.25396339982997
2900.0 63.90596914757832
3000.0 63.55910367684551
3070.0 63.23283071930099
3150.0 62.98408436334388
3250.0 62.80254032333967
3350.0 62.67403099615855
3450.0 62.59092212684686
3550.0 62.57912868771446
3650.0 62.57728739291245
3750.0 62.60214078600576
3870.0 62.6807735048077
4000.0 62.715071452413355
4120.0 62.765551213334945
4250.0 62.819992826104695
4370.0 62.87858917163915
4500.0 62.94970004170089
4620.0 63.00897314575052
4750.0 63.088043189502244
4870.0 63.190415438470126
5000.0 63.287881068912796
5150.0 63.3802015606076
5300.0 63.49672392827337
5450.0 63.59218260790199
5600.0 63.66583013558342
5800.0 63.718801144994856
6000.0 63.72344956449446
6150.0 63.657259071488085
6300.0 63.52285275195575
6500.0 63.281807489628946
6700.0 62.994397380699624
6900.0 62.64487593271353
7100.0 62.24768806238353
7300.0 61.8243397815442
7500.0 61.40960222408637
7750.0 60.99560486123663
8000.0 60.57743569352651
8250.0 60.20332982088392
8500.0 59.83549487873408
8750.0 59.5413670739365
9000.0 59.26699212269702
9250.0 59.006466782503495
9500.0 58.80657583726261
9750.0 58.639108979219316
10000.0 58.52241462631561
10300.0 58.4309176178939
10600.0 58.359531176477816
10900.0 58.32978851191292
11200.0 58.38764575094041
11500.0 58.412730380208885
11800.0 58.530917617893905
12200.0 58.650126336874564
12500.0 58.847221109093994
12800.0 59.06852939879745
13200.0 59.28332873038333
13600.0 59.543844674527904
14000.0 59.76852939879744
14500.0 59.943844674527895
15000.0 60.057520472634906
15500.0 60.07481459929146
16000.0 59.97481459929146
16500.0 59.76041882107998
17000.0 59.447221109094
17500.0 59.047221109094
18000.0 58.547221109094
18500.0 58.02241462631561
19000.0 57.46382161412029
19500.0 56.922414626315614
