Freq "Side Wall Bounce"
20.5078 58.57027090671521
21.9727 56.70426432242259
23.4375 59.55457556082014
24.9023 61.70492515682362
26.3672 64.40963045915063
27.832 67.25682813826005
29.2969 69.52893910713716
30.7617 72.49503906036603
32.2266 74.99172996611159
33.6914 76.98179045552568
35.1562 79.04993616821524
36.6211 80.89501868914293
38.0859 82.61800935798784
39.5508 83.20073650451276
41.0156 83.88929271857045
42.4805 84.81300908674429
43.9453 85.48793577766614
45.4102 85.76595606830556
46.875 85.86096691926333
48.3398 86.01868366967152
51.2695 86.00432068924324
52.7344 85.87188550505198
54.1992 85.80122040955484
55.6641 85.7813057950335
58.5938 85.69870135367394
60.0586 85.69792960403657
62.9883 85.60588639171203
64.4531 85.47524287057941
67.3828 85.3600200169718
68.8477 85.34523478944476
71.7773 85.44591942231656
74.707 85.43685650126403
77.6367 85.38752757142835
79.1016 85.38104476550126
82.0312 85.49785592696979
84.9609 85.43565895815048
87.8906 85.44059987580938
90.8203 85.45529162290362
95.2148 85.53479638959756
98.1445 85.67354214523901
101.074 85.68715025595583
105.469 85.58899267450333
108.398 85.62095528200241
112.793 85.62047680491861
117.188 85.41002568975654
120.117 85.54056518614605
124.512 85.51381035676856
128.906 85.57905304577518
133.301 85.52207827835728
139.16 85.26667167363536
143.555 85.13669401543304
147.949 85.38553507911082
153.809 85.35591012414726
159.668 85.39146781081138
165.527 85.38796745234623
171.387 85.19771184955
177.246 85.13236985612014
183.105 85.10411514808655
188.965 85.15536291320406
196.289 85.2572868302698
203.613 85.13441213675664
210.938 85.09816996908658
218.262 84.93633488944783
225.586 84.91789294737183
232.91 84.96120875276681
241.699 84.84339228235828
250.488 85.03679584636394
259.277 85.03511620233415
268.066 84.88607752469969
276.855 84.85216312495537
287.109 84.87814243409154
297.363 84.85946711321382
307.617 84.90911382554272
319.336 84.88158258213791
329.59 84.6367261003453
341.309 84.39073792191412
353.027 84.94974788695528
366.211 85.41182366136799
379.395 85.54117763470886
392.578 84.84563679409479
405.762 84.85938338160958
420.41 85.31362396045539
435.059 84.68061864974139
451.172 85.08866143653448
465.82 85.41668154339793
483.398 85.1694061588736
499.512 84.8412494549961
517.09 84.241884295091
536.133 84.33102647353657
555.176 84.9860216019029
574.219 84.75265605307335
594.727 84.00008481961943
615.234 83.71831782017505
637.207 83.66189963212759
659.18 83.75568006029577
682.617 83.74368082685167
707.52 83.11054910438568
732.422 83.08856657601858
757.324 82.57587125244912
785.156 82.4255356078545
811.523 82.51231826077274
840.82 81.46208509661544
870.117 81.88566338133548
900.879 82.00568097329746
933.105 82.34482622987353
965.332 82.69980717518217
1000.49 81.07122393816887
1035.64 81.55935185119806
1072.27 81.58433604898265
1108.89 80.69509797012849
1148.44 80.89647831432981
1189.45 81.00989933763262
1230.47 81.19986633786881
1274.41 80.9757413454402
1319.82 80.78177408915893
1366.7 80.73756872756702
1413.57 80.30181837885206
1463.38 80.49236585584272
1516.11 80.28732006213765
1568.85 79.95596713791296
1624.51 79.2211452467569
1681.64 80.10069263380574
1741.7 81.137504463768
1803.22 80.58172113782065
1866.21 79.61041080861061
1932.13 79.01890819624542
1999.51 79.58473736750712
2069.82 80.13246634710246
2143.07 79.44048449250491
2219.24 79.18782440808188
2296.88 79.77126567118374
2378.91 79.54433357928121
2462.4 79.15820662580138
2548.83 79.29431567091744
2639.65 79.1940168538205
2731.93 79.42378339706518
2828.61 79.93178780499282
2928.22 79.64101622924471
3030.76 79.85698814539454
3137.7 79.94815019904254
3249.02 79.02585726436187
3363.28 78.77042840219562
3481.93 78.304633000636
3604.98 77.63128440460338
3732.42 78.02674293499798
3864.26 78.13933118547
4000.49 78.41334786673376
4141.11 78.30036929819452
4287.6 78.43014078464493
4438.48 78.26041850870688
4595.21 78.56210017856385
4756.35 77.98080927988606
4924.8 77.43772115438506
5097.66 77.28800453453286
5277.83 76.96740241431563
5463.87 77.37200687752627
5657.23 76.79775311800009
5856.45 77.12692084243518
6062.99 76.83337147577542
6276.86 77.16080227070775
6498.05 77.35905257974808
6726.56 77.12856472884494
6963.87 77.46061282992304
7209.96 77.67527416653923
7464.84 77.64314584149194
7727.05 77.66179188223721
7999.51 77.45113468508997
8282.23 77.36016254744489
8573.73 77.30022335756482
8876.95 77.20002718759554
9188.96 76.83975962671654
9514.16 76.21451604792013
9849.61 75.52677954687574
10196.8 75.03707566199844
10555.7 74.28013749233888
10927.7 73.55152005695817
11313.0 73.00556063948821
11712.9 72.55189603580637
12126.0 72.49158385312263
12553.7 72.79724095258264
12996.1 73.49320591783594
13454.6 74.19584202370062
13929.2 74.20650913681213
14419.9 75.07205301115167
14928.2 75.38591908178539
15455.6 75.3026911954746
16000.5 74.73190385759567
16564.5 74.26385034371219
17148.9 74.21648543002976
17752.4 74.46958364886875
18379.4 74.09987616666479
19026.9 72.46995441296015
19697.8 69.82425873633984
19999.5 68.44534574020054
