Freq,Floor Bounce,Ceiling Bounce,Front Wall Bounce,Side Wall Bounce,Rear Wall Bounce,Total Early Reflection
20.5078,67.31869730123178,66.76570244472536,66.97114998353962,67.35708117120787,68.31310485074488,67.37883427893755
21.9727,70.48535454878392,69.87012221226736,70.1196558305348,70.4743412844024,71.32674334427135,70.48396541979115
23.4375,72.4446187912039,71.82641878960952,72.0789415029772,72.4331104087686,73.28727846738569,72.4429283266366
24.9023,74.09383954224715,73.45636891143191,73.72707747890678,74.06365094461985,74.85905498449428,74.06616969630481
26.3672,75.74176773337925,75.09086638697033,75.3700471792963,75.70413353844926,76.50522842197452,75.7089393408598
27.832,77.17957645736739,76.51052960004266,76.8008233142732,77.1303971098589,77.92070367543279,77.13463497941058
29.2969,78.51536663218802,77.86729823758832,78.14531702922626,78.46948224487461,79.25271970885026,78.47543306195426
30.7617,79.80619985867865,79.15696694472315,79.4335677678887,79.76096573316445,80.55376355328788,79.7681600042351
32.2266,81.07046526734493,80.42236770990462,80.69752254620774,81.02284619918292,81.82127947491814,81.0328683923904
33.6914,82.33621963614287,81.68276732424088,81.96038145661987,82.28378424324536,83.0847034545448,82.29563670357952
35.1562,83.50962459585703,82.85423330152234,83.13279486753903,83.45384334687442,84.25604458218477,83.46735911967549
36.6211,84.58697383033645,83.93106567170626,84.21043631356461,84.52569968833184,85.31977630270988,84.54031527806913
38.0859,85.50913067653218,84.85829984399003,85.13390592356178,85.44703702718583,86.24600465571753,85.46440965296382
39.5508,86.15873067653219,85.50639947829943,85.78268229747432,86.09230582243977,86.89075492347699,86.11157248374498
41.0156,86.58226817930304,85.91209759065366,86.19751042471405,86.50589326699942,87.3081801632347,86.52695109497927
42.4805,86.7277927684079,86.06273275911333,86.34399142113763,86.65102218444899,87.46348704361515,86.67580537075693
43.9453,86.72166700129749,86.05549967110201,86.33674988164458,86.6417158034916,87.45815300672835,86.66883810625473
45.4102,86.64685815869335,85.98149949055733,86.26211231812803,86.56348574015274,87.3802203798123,86.59277253635732
46.875,86.55603858496113,85.88393087454843,86.1686751104727,86.4660478361794,87.27854165130456,86.49637861512737
48.3398,86.43713858496113,85.75879530890171,86.04785607269874,86.33834059258906,87.146205608324,86.37107582071683
51.2695,86.27260648213179,85.59009478871168,85.88111584628895,86.16433841894361,86.97568808627322,86.20210013778811
52.7344,86.21619409625472,85.556536439928,85.82948036209396,86.11929695493691,86.9589858268286,86.16231565664033
54.1992,86.19206167841682,85.54220381748232,85.80899393208384,86.09358699851789,86.92583499575183,86.1380886956597
55.6641,86.17549116188361,85.52089841810394,85.79293087307376,86.06366076055171,86.8748453326214,86.10991156021224
58.5938,86.16191447073298,85.4914596801052,85.77521580013008,86.029371000295,86.8215114423397,86.0792386569788
60.0586,86.16586019165625,85.5010288625123,85.77869595129938,86.03335557394935,86.84317523951619,86.08829789224676
62.9883,86.24974360905959,85.57619845258168,85.85409333525577,86.11014057165157,86.94727226947329,86.17250230191844
64.4531,86.26218910220031,85.57646387612863,85.86047474829938,86.11312432115122,86.9528582400158,86.17819386055311
67.3828,86.36773496288264,85.66359326502558,85.95959368649204,86.19730186364255,87.02429103263255,86.26699099748598
68.8477,86.43495086529306,85.73082484724245,86.02903381495092,86.25492913983572,87.06378784531863,86.32615269535877
71.7773,86.52268972836302,85.83422334486112,86.12625191348822,86.32985310888066,87.10505059305271,86.40491554005204
74.707,86.62476973216918,85.94482281962007,86.2316106458954,86.41918992319702,87.17947433358846,86.50012137156635
77.6367,86.68004594603845,85.99135549183609,86.28243492884613,86.45485809322632,87.20585829379043,86.54242940604456
79.1016,86.74967923722728,86.05155522909875,86.34908051994547,86.51149740328322,87.25039786169351,86.60145373777222
82.0312,86.85511723255856,86.13808963957788,86.44846954715021,86.591610018939,87.30457495261108,86.68559374974582
84.9609,86.9564024335466,86.23029354846886,86.54917767086454,86.66804221431242,87.34829857557902,86.76708667384369
87.8906,86.96331125880471,86.2261230961878,86.54237410758446,86.66942736797766,87.38948782225329,86.77622477847146
90.8203,87.15657926157382,86.40317813533865,86.74490798324807,86.8103528100953,87.39985556451238,86.9166731707944
95.2148,87.13875593203156,86.38851333213769,86.72792856543329,86.76877760659973,87.33767137697454,86.88506306686108
98.1445,87.15714997067289,86.40725860823285,86.75122523958811,86.76253559421174,87.27686368792602,86.88220970942382
101.074,87.19120373688982,86.43904906449109,86.79337377520481,86.77032026596322,87.2077094953049,86.88991605104287
105.469,87.30761780371041,86.54497337578215,86.92062651452049,86.84811175267043,87.16861062195312,86.96602441457591
108.398,87.33786749824019,86.52546114529196,86.93248942487561,86.81980145843438,87.05117861235688,86.94157005972507
112.793,87.41713452875155,86.60248171300823,87.02870971546437,86.83401840698188,86.87040522181057,86.95905375263631
117.188,87.44832882657903,86.6195385082039,87.07302748349008,86.80831139020151,86.676163689097,86.9359463879829
120.117,87.52262949863568,86.6668132587032,87.14594285304979,86.83042437164866,86.56061622945735,86.95958792414278
124.512,87.5800842333229,86.65875679236827,87.18689860613628,86.8038545782449,86.36571022274788,86.9398815803625
128.906,87.59025740230575,86.62198716673812,87.18911642489368,86.74392688921775,86.14292493252903,86.88592326705914
133.301,87.63522075167775,86.5966913644769,87.22647587137047,86.69225313020569,85.82789186554182,86.83843332317237
139.16,87.67868813949983,86.57872240297246,87.27313057347942,86.62584917066619,85.41268031063326,86.77990432606398
143.555,87.67261156223725,86.50703864031091,87.25558408424733,86.53547086097184,85.10567540076366,86.69963853505625
147.949,87.7091645517722,86.4465673280103,87.28140487006026,86.46612907491932,84.71961297294719,86.63835917458046
153.809,87.7768001827568,86.39144536808514,87.34644901347644,86.38829840317962,84.14026427903721,86.57550605842354
159.668,87.91798351593609,86.51876938787704,87.52416575767506,86.48667473397687,83.80151192882622,86.66243253629693
165.527,87.91450729360554,86.56011274500595,87.5589344206731,86.41014737259262,83.21104421206248,86.60598071983549
171.387,88.07222324622454,86.55886657979237,87.6982728226998,86.41109848920385,82.53795730752856,86.62748122325125
177.246,88.04416556432344,86.45332547484324,87.67753803519336,86.28218449193822,81.82201214243307,86.51681041954765
183.105,87.87372109942554,86.21526115898767,87.5146150413692,85.99678634546639,81.02899182428332,86.27365346715392
188.965,87.75110018672264,86.02172320607929,87.422315419174,85.73200094922011,79.98006618708175,86.06835511509105
196.289,87.58118994356272,85.8944657923601,87.29715488442217,85.4959725086809,79.00219069761913,85.87068630911052
203.613,87.60595839687417,85.78039884794384,87.32835266248046,85.41417289543199,78.2740074034355,85.82138772177554
210.938,87.53030029029942,85.79995428170996,87.27842425803155,85.3716639264985,78.16107131563116,85.77674654987494
218.262,87.40393072852697,85.58635010714629,87.12243714230611,85.13166750813349,78.04505208391129,85.60435241148298
225.586,87.53854862907441,85.66457973063187,87.28952110451222,85.19953554466001,77.74532840989129,85.71058139807117
232.91,87.4536158823713,85.56853535801997,87.19812402858047,85.07928380868908,77.44646069568196,85.60863666125306
241.699,87.45655825457072,85.3334434526144,87.10636703268109,84.9842647323849,77.57709856377745,85.52460669860473
250.488,87.90914772381846,85.38337892434889,87.53078627608808,85.26250385935114,77.59649452435809,85.85026921959583
259.277,87.44453947622128,85.378313458226,87.17523261128404,84.96656653363652,77.75919822797879,85.55223560294685
268.066,87.68812317211176,85.28190065443617,87.36019143059949,85.0838939799047,77.91117533888546,85.69001804851926
276.855,87.38345833200867,85.2235177109962,87.11068659478408,85.13804035525935,78.08392844094682,85.52734681410725
287.109,87.27255639402519,85.23911781604092,87.06269802947418,84.885974569548,78.8340768041588,85.4672517286476
297.363,87.33895025328259,85.47594675690355,87.24625733857035,85.09744839034502,79.20328223685729,85.63906530071257
307.617,87.34405477749496,85.31413605971441,87.0849040485104,85.14985110249806,79.24862515658978,85.57502432884638
319.336,87.32931542169788,85.24218302758959,87.06943711668784,84.94433490990862,79.56362103711024,85.53139424084733
329.59,87.53605052865122,85.57840971320388,87.3688071038272,85.30275141977846,80.01854150064696,85.8283598757003
341.309,87.57149308439925,85.41621250869981,87.29661663703713,85.07912050134168,80.0467191411028,85.750597553177
353.027,87.57298398988353,85.18998371506797,87.27823744430844,85.0735964318875,79.9434614287728,85.69824607598834
366.211,88.04890107320584,85.53410645394608,87.88013208004632,85.467516831879,80.04550995665029,86.15469508372233
379.395,87.66460919104853,85.55623826032031,87.51658443863235,85.54277325168157,80.56686391050305,85.97752914115655
392.578,87.56684783675644,85.39860446970427,87.42750306326344,85.3150222518169,80.94439175123064,85.8771783538632
405.762,87.53940492662623,85.44870714711195,87.52082099112621,84.94303380114735,80.46056822151306,85.81256036428414
420.41,87.94410959042617,85.83346246117817,87.81214521160648,85.80940669950046,80.98128522523788,86.26675251730678
435.059,87.73226535027584,85.58808341451889,87.64917164743024,85.06499472403611,80.81412064008335,85.97459096253168
451.172,88.62738059873692,85.70156340759681,88.51873816254407,86.29515501532646,81.87672554527254,86.79764176153135
465.82,88.05109022366231,85.86963643363958,88.31805133672133,85.93788939887968,81.32802372093302,86.4970103483204
483.398,88.47247558424009,85.86406156139266,88.32971869137289,85.56876476360534,81.3686961537749,86.5658890222124
499.512,88.68054591914863,85.94473367766086,88.48802809182031,85.25539321198502,79.9906708058002,86.5748307705511
517.09,87.70408488140788,85.42320756440554,87.8737769924026,85.33151030193737,81.24318631666085,86.07525855995358
536.133,87.56689743279527,84.57970492663232,87.92799252788585,85.11896998532569,79.99510606823377,85.80607692625264
555.176,87.57611112777384,84.75485863294885,87.66406525973926,85.58765509263317,79.66498975300004,85.82011260881036
574.219,87.37571836650984,84.74636210881533,87.65254417226272,85.4787003674256,80.01019000291672,85.75308404367915
594.727,86.51742816220157,85.01458565575847,87.11216896861322,84.75403597054054,80.1972493189942,85.2725192424208
615.234,86.64989135025778,84.63263659326877,86.90841570281074,84.73297516530486,78.93967762034923,85.10379920185797
637.207,87.00951021510443,84.348651483021,87.25195930840336,84.94267719072737,79.62000913073291,85.33848051845354
659.18,85.6829215107743,84.73417400222422,86.7712751415758,85.16286368777718,78.9149446542315,84.91139783057272
682.617,86.14453238221806,84.28657190165525,86.77909490667409,84.66230230892693,79.26584818983424,84.86643169393
707.52,86.6740413445214,84.3733647173319,87.25377169628223,85.03938117389417,79.05824786611561,85.2365439020859
732.422,86.01202392425607,85.1306064928249,86.95241444352659,85.04635593877451,79.3016851182707,85.1204017772963
757.324,85.66722458467065,85.00379704019709,86.54590326897221,84.98878030751229,79.21374114718427,84.87287729818551
785.156,84.26325684660883,83.88635405161943,87.51951011584433,85.72254598619897,79.5912233578044,84.88817413371129
811.523,85.19887635901033,84.3872262725125,86.39665181202592,84.53254244124936,78.89930678335766,84.48214337004082
840.82,84.50090572016272,83.67605247576243,86.6288798210952,84.83693925643828,78.46527027453057,84.31355473634933
870.117,85.70407370731043,84.42178709221254,87.19828272106203,84.69663667616179,78.5679809886444,84.88577743920084
900.879,85.86815401415957,84.13094888400427,87.46785570831814,85.16960997417301,78.60622333415579,85.06408891076049
933.105,86.54770395608334,84.0305383745562,87.16471825096954,84.68103297636148,78.78110948375544,85.03655301601945
965.332,86.43849102007827,83.06797520309304,87.6640986423765,84.58580648088748,79.29970836047751,85.05052736522784
1000.49,86.99085084196828,83.27227819397174,87.3888835352245,83.91624965770555,77.83245643834933,84.96321605828551
1035.64,86.72817959504009,83.95286700600961,87.43045560905236,84.02903480632844,77.52354117434868,85.00258100520178
1072.27,87.51824001986222,83.37806418639111,86.3766633977355,83.11619321750636,77.10912526363961,84.69200029919227
1108.89,87.06864522887443,83.47479949022453,86.51786838158068,82.920010370084,75.60719003682914,84.51026731813549
1148.44,86.89424497041664,81.63183251689162,85.5822187714207,82.20144712269467,74.51320900661402,83.76801632384264
1189.45,86.91477439142412,82.8500676308605,87.1285711585051,83.1929698679935,75.05684362814632,84.59718363450799
1230.47,87.0732262856843,83.36761452703718,87.03625331199127,83.57202446521653,76.37117191923863,84.78054642375801
1274.41,86.90137444822861,82.54982779936331,87.6582840845876,83.97063916046774,76.00756644828611,84.89228352988631
1319.82,86.9206739799274,82.53396687561097,87.19003765037284,83.78305476963727,75.72666181910161,84.6872430840513
1366.7,86.40214927617117,82.74009586070407,86.51923753210751,82.52146706849211,74.86777424127315,84.09161173539916
1413.57,86.97716933181341,82.20532747760923,86.74800765766533,82.83308336502864,75.18597137308352,84.35419268361211
1463.38,86.60513563218407,81.75066419498914,86.63837577971636,82.79856174651023,74.8631017387119,84.11466512756155
1516.11,86.01796581376931,81.01048956352025,87.27776668932016,83.71777808101835,74.91071624387054,84.23772526297113
1568.85,85.81665769596191,81.34678672028879,87.66420450364005,83.58817221016801,75.37841892274365,84.36157420417003
1624.51,85.74461963191388,80.97386186256026,86.86518655222892,83.05256852710974,74.98534874153313,83.87336399199066
1681.64,85.08761275529172,81.52349633574785,85.62117307740463,81.81803776660986,74.61163316548597,83.05544075816961
1741.7,83.46651738255565,81.37542340735435,85.87637619777686,81.90166771057771,73.25226205338288,82.65965273306345
1803.22,82.94984004614585,81.96776784911567,87.22562412861573,82.98932511244145,74.18836708514058,83.45465563161811
1866.21,82.83166138958468,81.75312017564538,87.50302926537138,83.54088611779554,74.21213911624349,83.64277416301312
1932.13,82.13783827383091,81.29376313301357,86.53085297171403,82.68335699252897,73.91070743450898,82.82520280893735
1999.51,80.73405942346606,81.74295885455392,86.10312345575005,82.10450340148655,73.26962620026312,82.35048047177008
2069.82,79.972767424398,82.89877574119174,87.13839970299979,82.79743015053593,73.17207217753327,83.1086866836675
2143.07,80.29332056958988,83.58620262764067,87.79245033003407,83.63974587696822,73.86663793943309,83.7745654963063
2219.24,80.4394726755106,83.46998196952674,87.41265251046677,83.66041380690669,74.26354035034502,83.59117779796867
2296.88,78.7872709690112,83.96412356981168,86.61497568982757,83.33155018602115,73.71560660259712,83.10611199645598
2378.91,78.94823555392863,84.35175787754127,87.12769195428923,83.58049322649279,72.85468571554328,83.48059479240096
2462.4,80.39898893335102,84.32516940025317,87.06499292213778,83.31618067178107,72.41389063501666,83.50679031293345
2548.83,80.84862418020653,83.47681904843434,86.67557529675126,82.77284411068939,72.44729585391305,83.08051510687227
2639.65,81.14098111391966,83.78725290519839,87.06632574013389,82.97614316754284,72.0295016738092,83.39458145638234
2731.93,82.28137395944084,83.49822476544176,86.84254087586278,82.61772690445305,71.3995752271577,83.31523078642515
2828.61,83.01117388090954,83.07574446558256,86.12542284318688,81.997252935318,70.46643816969151,82.9330589116328
2928.22,82.98632422694452,83.29085333376862,86.66713856807101,82.50539322502215,70.78511735980962,83.2898477717186
3030.76,83.34538133692136,83.16302516053484,86.23948397446271,82.21238241554259,70.47162232059732,83.10249934482562
3137.7,83.91382131305329,83.64183358479356,86.22415240066847,81.93861413398912,69.86095002594023,83.27441256297654
3249.02,85.04709627972792,83.69241144845012,87.0257758097825,82.82167956381427,71.0724563306971,84.02144645930112
3363.28,85.64702112108334,83.70701151218114,87.39698858330911,83.26595014286208,71.43707404741626,84.39976802809416
3481.93,85.80555235465594,83.31354354657789,87.02464435428561,83.00546989221287,70.90401533759115,84.18722401541103
3604.98,85.55195724819812,82.77356939483711,87.37140977010563,83.0193096642912,70.94562425417016,84.1739086786301
3732.42,85.40174118217999,82.47205436682675,86.96499642601096,82.3193945475846,69.90450875680607,83.80607057487842
3864.26,85.36943269296744,82.51372510930419,86.95149193423414,81.94852423285276,69.53757596571877,83.74355299010399
4000.49,85.15600503708477,82.26614052080804,87.03254299312462,82.08905547321173,69.82702103744636,83.70194087638775
4141.11,84.87267252650004,82.06853739307229,87.05000977172575,81.8434952468723,69.14662093623376,83.56480546022753
4287.6,85.21773770125215,81.92089558140161,86.7794785939831,81.25418650563311,69.03516787347982,83.44776238286448
4438.48,84.86700547777552,81.7193577079845,87.23270249605345,81.80977181309576,69.21206607610202,83.59484219623842
4595.21,84.71550683229692,81.86786765443084,86.71705681289787,81.15887069200058,69.5525525599274,83.25965500683671
4756.35,84.61465042798588,81.3349253236547,86.8601459015505,81.28500530615825,68.92024765125177,83.23416319794406
4924.8,84.39149149759913,80.90730700309338,86.0917971917732,81.04024034607188,69.15067950073814,82.74165962011125
5097.66,83.76699276445162,80.66043950148816,86.25780466587366,81.05457778830417,67.44173463741105,82.60061617109392
5277.83,84.33602003802899,81.00571320840648,86.3190549693546,80.68436409848957,67.66394519181047,82.78211955818843
5463.87,84.15186176140787,81.21587533091274,86.46672312573111,80.71101556117988,66.38244916574025,82.82325516436374
5657.23,84.44352752413843,81.12391834629018,86.40865645856707,79.87330048033954,66.14339386029911,82.77086310174184
5856.45,84.51805640354989,81.04090790047927,86.60315824024286,80.04149768876891,66.63982926026138,82.8918313625838
6062.99,85.01091479982325,81.07218522794751,85.95920955773087,79.90390800770187,65.9780979506209,82.74704668269634
6276.86,84.63148640792765,81.05562974671362,86.04789976219674,80.07675550712983,66.11821460803455,82.67834869805584
6498.05,84.49620486842079,81.10030324951309,86.508298354479,80.08760279848082,65.7526564537104,82.84999913342854
6726.56,84.52548727518284,81.08107159138156,86.16230829485887,79.95191587366287,65.96394541784592,82.685199636631
6963.87,84.31611903264107,80.8880509512258,86.35181673277921,80.4283547601476,66.08147171415429,82.73679534999536
7209.96,84.60013745721733,80.9898314369498,86.4506887674353,80.53161928946993,66.34904920948772,82.89136968286773
7464.84,85.12024262905435,80.72889794335416,86.33067625116533,80.56660645239857,66.23492242940564,82.9715675269074
7727.05,85.25085194936266,80.73348262169966,86.30934790304826,80.70447842762125,66.52878948565109,83.0234670131819
7999.51,84.95644034244853,80.88848019390184,86.33154875677242,80.75967735137097,65.94154660982373,82.96009160016203
8282.23,84.78124198421875,80.82517271894115,86.13941870859273,80.45750398450929,65.4987128845292,82.7754962804621
8573.73,84.21914609978268,80.76095961814814,85.88269132319161,80.18550341030455,65.35876438827306,82.44838824393476
8876.95,84.02900700757873,80.44181783645753,85.66885448505715,79.80992909352418,64.82332777945537,82.20743384625614
9188.96,83.50712554644394,79.74129438912028,85.44421399564621,79.33171960810063,63.897217968785256,81.80087155325323
9514.16,83.14763837063494,79.17162432722809,85.3876465106322,78.80161296518116,62.19398273876594,81.53726847672469
9849.61,83.05988030054706,79.09124603386259,85.45989722368454,78.50598508642044,60.938699685910805,81.50511649140819
