Freq "Front Wall Bounce"
20.5078 66.94353180172145
21.9727 70.09203764871663
23.4375 72.05132332115903
24.9023 73.69945929708861
26.3672 75.34242899747812
27.832 76.77320513245503
29.2969 78.11769884740809
30.7617 79.40594958607053
32.2266 80.66990436438957
33.6914 81.9327632748017
35.1562 83.10517668572086
36.6211 84.18281813174644
38.0859 85.10628774174361
39.5508 85.75506411565615
41.0156 86.16989224289588
42.4805 86.31637323931946
43.9453 86.30913169982641
45.4102 86.23449413630986
46.875 86.14105692865454
48.3398 86.02023789088057
51.2695 85.85349766447078
52.7344 85.80186218027579
54.1992 85.78137575026567
55.6641 85.76531269125559
58.5938 85.74759761831191
60.0586 85.75107776948121
62.9883 85.8264751534376
64.4531 85.83285656648121
67.3828 85.93197550467387
68.8477 86.00141563313275
71.7773 86.09863373167005
74.707 86.20399246407723
77.6367 86.25481674702796
79.1016 86.3214623381273
82.0312 86.42085136533204
84.9609 86.52155948904637
87.8906 86.5147559257663
90.8203 86.7172898014299
95.2148 86.70031038361512
98.1445 86.72360705776994
101.074 86.76575559338664
105.469 86.89300833270232
108.398 86.90487124305744
112.793 87.0010915336462
117.188 87.04540930167191
120.117 87.11832467123162
124.512 87.15928042431811
128.906 87.16149824307551
133.301 87.1988576895523
139.16 87.24551239166125
143.555 87.22796590242916
147.949 87.25378668824209
153.809 87.31883083165827
159.668 87.4965475758569
165.527 87.53131623885493
171.387 87.67065464088164
177.246 87.6499198533752
183.105 87.48699685955103
188.965 87.39469723735583
196.289 87.269536702604
203.613 87.30073448066229
210.938 87.25080607621338
218.262 87.09481896048794
225.586 87.26190292269405
232.91 87.1705058467623
241.699 87.07874885086292
250.488 87.50316809426991
259.277 87.14761442946588
268.066 87.33257324878132
276.855 87.08306841296591
287.109 87.03507984765601
297.363 87.21863915675218
307.617 87.05728586669223
319.336 87.04181893486967
329.59 87.34118892200902
341.309 87.26899845521896
353.027 87.25061926249028
366.211 87.85251389822815
379.395 87.48896625681418
392.578 87.39988488144527
405.762 87.49320280930804
420.41 87.78452702978831
435.059 87.62155346561207
451.172 88.4911199807259
465.82 88.29043315490316
483.398 88.30210050955472
499.512 88.46040991000214
517.09 87.84615881058443
536.133 87.90037434606768
555.176 87.63644707792109
574.219 87.62492599044455
594.727 87.08455078679505
615.234 86.88079752099257
637.207 87.22434112658519
659.18 86.74365695975763
682.617 86.75147672485592
707.52 87.22615351446406
732.422 86.92479626170842
757.324 86.51828508715404
785.156 87.49189193402616
811.523 86.36903363020775
840.82 86.60126163927703
870.117 87.17066453924386
900.879 87.44023752649997
933.105 87.13710006915137
965.332 87.63648046055833
1000.49 87.36126535340632
1035.64 87.40283742723419
1072.27 86.34904521591733
1108.89 86.49025019976251
1148.44 85.55460058960253
1189.45 87.10095297668693
1230.47 87.0086351301731
1274.41 87.63066590276944
1319.82 87.16241946855467
1366.7 86.49161935028934
1413.57 86.72038947584716
1463.38 86.61075759789819
1516.11 87.25014850750199
1568.85 87.63658632182188
1624.51 86.83756837041075
1681.64 85.59355489558646
1741.7 85.8487580159587
1803.22 87.19800594679757
1866.21 87.47541108355321
1932.13 86.50323478989586
1999.51 86.07550527393188
2069.82 87.11078152118162
2143.07 87.7648321482159
2219.24 87.3850343286486
2296.88 86.5873575080094
2378.91 87.10007377247106
2462.4 87.0373747403196
2548.83 86.64795711493309
2639.65 87.03870755831572
2731.93 86.81492269404461
2828.61 86.09780466136871
2928.22 86.63952038625284
3030.76 86.21186579264455
3137.7 86.1965342188503
3249.02 86.99815762796433
3363.28 87.36937040149094
3481.93 86.99702617246744
3604.98 87.34379158828746
3732.42 86.93737824419279
3864.26 86.92387375241597
4000.49 87.00492481130645
4141.11 87.02239158990758
4287.6 86.75186041216493
4438.48 87.20508431423528
4595.21 86.6894386310797
4756.35 86.83252771973233
4924.8 86.06417900995503
5097.66 86.2301864840555
5277.83 86.29143678753643
5463.87 86.43910494391294
5657.23 86.3810382767489
5856.45 86.57554005842469
6062.99 85.9315913759127
6276.86 86.02028158037857
6498.05 86.48068017266083
6726.56 86.1346901130407
6963.87 86.32419855096104
7209.96 86.42307058561713
7464.84 86.30305806934716
7727.05 86.28172972123009
7999.51 86.30393057495425
8282.23 86.11180052677456
8573.73 85.85507314137344
8876.95 85.64123630323898
9188.96 85.41659581382804
9514.16 85.36002832881402
9849.61 85.43227904186637
10196.8 85.41055174150537
10555.7 85.34805930902534
10927.7 85.29009152635757
11313.0 85.24210667816222
11712.9 85.17084462574319
12126.0 85.09031700093998
12553.7 84.943998832344
12996.1 84.7635842683496
13454.6 84.6261247524834
13929.2 84.5446689438823
14419.9 84.41779499406522
14928.2 84.3984391964189
15455.6 84.15060037142608
16000.5 83.80255538577961
16564.5 83.17495361062737
17148.9 82.76415052884543
17752.4 82.81495307557944
18379.4 82.77692587847083
19026.9 82.65878059345938
19697.8 82.57304061920743
19999.5 82.65114330936784
