Freq,On Axis,Listening Window,Sound Power,Early Reflections,Early Reflections DI,Sound Power DI,DI offset
20.5078,75.2554696969697,75.43039263166807,80.04212133709112,78.32409811337607,57.106294518292,55.38827129457695,60
21.9727,77.2727696969697,77.42500522165659,82.48950699456387,80.62164992057853,56.80335530107806,54.93549822709272,60
23.4375,81.48596969696968,81.61309729870831,86.14777324045004,84.40879730861266,57.20429999009565,55.465324058258275,60
24.9023,86.02466969696968,86.13787807903901,90.04405881770684,88.49270267065894,57.64517540838007,56.09381926133217,60
26.3672,90.20036969696969,90.28567492082433,93.4044956200245,92.0997635274897,58.185911393334635,56.88117930079983,60
27.832,94.10026969696969,94.17904692634136,97.05274891913967,95.83407615663761,58.34497076970375,57.12629800720168,60
29.2969,97.73166969696969,97.80443274941507,100.36272696596924,99.2607460579479,58.54368669146717,57.441705783445826,60
30.7617,100.87346969696969,100.94336393387071,103.26320666743091,102.25585977673195,58.68750415713876,57.68015726643981,60
32.2266,103.10946969696971,103.17889086354623,105.3306032760093,104.38999210950922,58.78889875403701,57.84828758753693,60
33.6914,104.5464696969697,104.60900601095983,106.48456317041416,105.65183917829775,58.95716683266208,58.12444284054567,60
35.1562,105.1864696969697,105.24711449260047,107.00761191361244,106.22445804925664,59.022656443343834,58.23950257898804,60
36.6211,105.66346969696968,105.720713931801,107.31919986981202,106.60372891699994,59.11698501480106,58.401514061988976,60
38.0859,105.9514696969697,106.00510697395777,107.46728987351541,106.81047748304283,59.194629490914934,58.53781710044235,60
39.5508,106.1394696969697,106.19061610771354,107.53948954299214,106.93125645705442,59.25935965065912,58.651126564721395,60
41.0156,106.23046969696969,106.28104155599303,107.59880895031856,107.00375065071431,59.27729090527872,58.68223260567447,60
42.4805,106.36146969696969,106.40955392358644,107.58530475234168,107.0540341488571,59.355519774729345,58.82424917124476,60
43.9453,106.3894696969697,106.43519441564298,107.53041644468823,107.03366627407551,59.40152814156747,58.904777970954754,60
45.4102,106.46746969696969,106.51117424194277,107.53081884579099,107.06788893767788,59.44328530426489,58.98035539615178,60
46.875,106.53346969696969,106.57457641578124,107.5162878717811,107.08915416345879,59.48542225232245,59.058288544000135,60
48.3398,106.5894696969697,106.62888780004377,107.4930042284872,107.10157135977174,59.52731644027203,59.135883571556576,60
51.2695,106.64346969696969,106.67627560994264,107.37037491186169,107.05638522347537,59.61989038646726,59.30590069808095,60
52.7344,106.69246969696971,106.72192133241386,107.33146356553267,107.05643296029183,59.66548837212203,59.390457766881184,60
54.1992,106.57546969696969,106.60662149210981,107.23380772929612,106.95266130150446,59.653960190605346,59.37281376281369,60
55.6641,106.5594696969697,106.58674076701908,107.11777804338149,106.88143203652356,59.70530873049552,59.46896272363759,60
58.5938,106.55146969696969,106.58046021924534,107.11057343011637,106.87457324192133,59.70588697732401,59.469886789128964,60
60.0586,106.50646969696969,106.53400334049206,107.02324015003416,106.80618198068582,59.72782135980624,59.51076319045791,60
62.9883,106.46846969696969,106.49173469527943,106.88961861907492,106.71385681089826,59.77787788438117,59.60211607620451,60
64.4531,106.4354696969697,106.45761804683997,106.8228572290838,106.66187057055703,59.79574747628294,59.634760817756174,60
67.3828,106.30046969696969,106.32172607137221,106.65112233319314,106.50456830638628,59.817157764985936,59.67060373817907,60
68.8477,106.23546969696969,106.25493987704928,106.55197388763943,106.42117536459679,59.83376451245249,59.70296598940985,60
71.7773,106.2694696969697,106.28307733872683,106.47419746488363,106.39622227888509,59.886855059841736,59.808879873843196,60
74.707,106.3534696969697,106.36692273487559,106.54780440496002,106.4750036626397,59.89191907223589,59.81911832991557,60
77.6367,106.3504696969697,106.36046463725461,106.44908508858742,106.4215406555526,59.938923981702004,59.911379548667185,60
79.1016,106.29746969696969,106.30635035653378,106.37828259251695,106.35885853602606,59.94749182050772,59.92806776401683,60
82.0312,106.2164696969697,106.22300316777286,106.2457352597306,106.24935159165832,59.973651576114534,59.977267908042265,60
84.9609,106.24746969696969,106.24865634093923,106.16315299745307,106.21734569612053,60.0313106448187,60.08550334348617,60
87.8906,106.1004696969697,106.10480786286706,106.0981820925704,106.1136368470669,59.99117101580016,60.006625770296665,60
90.8203,106.11646969696969,106.11427596145771,105.9730508668076,106.05562823890378,60.05864772255393,60.14122509465011,60
95.2148,106.1984696969697,106.19186023399408,105.99562902356429,106.09734597909043,60.09451425490364,60.19623121042979,60
98.1445,106.12246969696969,106.1134477472424,105.86737555004164,105.99594816139847,60.11749958584393,60.24607219720076,60
101.074,105.91046969696967,105.90387952217188,105.71873673047891,105.81506633895845,60.08881318321343,60.18514279169297,60
105.469,106.1514696969697,106.1343772710833,105.7209548625227,105.93454325078312,60.19983402030017,60.41342240856059,60
108.398,106.44646969696969,106.4241662628651,105.92101188291396,106.18019726463824,60.24396899822686,60.50315437995114,60
112.793,106.39346969696969,106.36397848708671,105.80894999824376,106.0891441972924,60.27483428979431,60.55502848884295,60
117.188,106.57846969696968,106.5394943213418,105.75886988188246,106.15928451608195,60.38020980525985,60.780624439459345,60
120.117,106.76846969696969,106.72906125752863,105.87668256892977,106.31754416258526,60.41151709494336,60.85237868859886,60
124.512,106.8144696969697,106.77714687900854,105.915387444566,106.35783827685219,60.41930860215635,60.86175943444255,60
128.906,106.74246969696969,106.70707778117574,105.904461811917,106.30866833231036,60.39840944886538,60.80261596925874,60
133.301,106.77546969696968,106.73149250101072,105.8602840015167,106.29403263850963,60.437459862501086,60.87120849949402,60
139.16,106.85246969696968,106.8028692719262,105.76838372241377,106.28421680130363,60.51865247062257,61.034485549512425,60
143.555,106.68746969696969,106.63846148567418,105.64126141443705,106.12875647970858,60.5097050059656,60.99720007123713,60
147.949,106.59846969696969,106.54216431475294,105.47925316268855,105.99556010491955,60.54660420983339,61.06291115206439,60
153.809,106.75846969696968,106.68712015577333,105.30576306296761,105.98847135421025,60.69864880156308,61.381357092805715,60
159.668,106.8534696969697,106.77638722289761,105.309583480828,106.03852813722307,60.73785908567454,61.466803742069615,60
165.527,106.7554696969697,106.68238093009226,105.19179432422845,105.94161856069286,60.740762369399405,61.49058660586381,60
171.387,106.7074696969697,106.62219680929005,104.96584714098884,105.79606452377422,60.826132285515826,61.6563496683012,60
177.246,106.52546969696971,106.4384743372018,104.64665281637022,105.548090290528,60.8903840466738,61.791821520831576,60
183.105,106.12546969696969,106.03162900621844,104.16061046988037,105.09492310681142,60.936705899407016,61.87101853633807,60
188.965,106.0914696969697,105.99095647342466,103.8813125077193,104.9528226103179,61.038133863106765,62.10964396570536,60
196.289,106.04846969696969,105.93941228001552,103.70094282771562,104.83318537183794,61.106226908177575,62.238469452299896,60
203.613,105.90746969696968,105.77455130988977,103.19945255081649,104.49460715450053,61.279944155389245,62.575098759073285,60
210.938,105.79146969696968,105.65907661690783,102.96966470690168,104.32291403784811,61.33616257905972,62.68941191000614,60
218.262,105.30546969696971,105.17668406927282,102.81966854639019,103.96789474303066,61.20878932624217,62.357015522882634,60
225.586,105.8024696969697,105.65101801177482,102.92133982661198,104.28783545482699,61.363182556947834,62.72967818516284,60
232.91,105.8054696969697,105.64878810491606,102.55224437103683,104.13183459310119,61.516953511814876,63.09654373387923,60
241.699,105.6904696969697,105.55079141011939,102.41829471361257,104.02417048071054,61.52662092940885,63.13249669650682,60
250.488,105.74446969696969,105.60357658205231,102.50987547324308,104.08545320803721,61.518123374015104,63.09370110880923,60
259.277,106.35246969696969,106.1991359191371,102.77955173306819,104.55576832280774,61.64336759632937,63.41958418606892,60
268.066,106.12546969696969,105.96877278066867,102.65616516909392,104.36075356929058,61.60801921137809,63.31260761157475,60
276.855,106.2434696969697,106.10437452565438,102.69782136764495,104.44327988423004,61.66109464142434,63.40655315800943,60
287.109,106.3864696969697,106.2399898628903,102.72507668831058,104.53131556130127,61.70867430158903,63.51491317457972,60
297.363,107.31646969696969,107.12488530037882,103.04574237482171,105.1976766456579,61.927208654720914,64.07914292555711,60
307.617,107.5284696969697,107.35184222920955,103.06202081451514,105.35723725747803,61.99460497173152,64.28982141469442,60
319.336,107.91846969696968,107.7113785666962,103.11041488539692,105.58079981859943,62.13057874809677,64.60096368129928,60
329.59,107.6564696969697,107.52450046924443,103.09396159211504,105.49347236426031,62.03102810498412,64.4305388771294,60
341.309,107.24746969696969,107.04567491299863,102.65610260706852,104.9750269158785,62.07064799712013,64.38957230593012,60
353.027,106.83546969696968,106.67509253562423,102.25914878410985,104.63276250934277,62.04233002628146,64.41594375151438,60
366.211,106.7874696969697,106.54518618997703,101.96123041318734,104.35621066165768,62.18897552831935,64.5839557767897,60
379.395,107.41646969696968,107.19627942465996,102.37815596543663,104.91432525064131,62.28195417401865,64.81812345922333,60
392.578,106.92046969696969,106.70855976754197,102.66121276017847,104.81676479157291,61.89179497596906,64.0473470073635,60
405.762,107.5554696969697,107.24241757701054,102.79290822470253,105.08166955822095,62.16074801878959,64.44950935230801,60
420.41,107.05346969696967,106.81245421874097,102.48923907681726,104.79726909239056,62.0151851263504,64.32321514192371,60
435.059,106.52746969696969,106.27706072295918,102.10979863593475,104.21236001310486,62.06470070985432,64.16726208702443,60
451.172,106.6194696969697,106.24081025712448,102.36177556360299,104.36471572621957,61.87609453090491,63.87903469352149,60
465.82,106.97146969696969,106.54749680729248,101.91660122931029,104.21863414162374,62.32886266566874,64.63089557798219,60
483.398,106.8024696969697,106.45670255804336,101.72958897363397,103.92262081246474,62.53408174557862,64.7271135844094,60
499.512,107.22446969696969,106.79575690810023,101.70405111254288,104.15825453930003,62.6375023688002,65.09170579555735,60
517.09,107.11346969696967,106.78526139931728,102.16815788362302,104.60948766367234,62.17577373564494,64.61710351569425,60
536.133,106.97746969696969,106.61926684208882,101.78697380736197,104.44954822830506,62.16971861378376,64.83229303472685,60
555.176,106.8474696969697,106.4612964986812,101.3444050283947,103.9715206740705,62.48977582461069,65.11689147028649,60
574.219,107.6834696969697,107.23752205119337,101.95714492215932,104.70975089426253,62.52777115693084,65.28037712903405,60
594.727,107.61946969696969,107.19036333640088,101.72937387192755,104.62613925825852,62.56422407814236,65.46098946447333,60
615.234,106.7544696969697,106.45902008265926,101.10284622692473,103.87152554907897,62.5874945335803,65.35617385573454,60
637.207,107.69646969696969,107.25938664052468,101.43466001536655,104.37353113088695,62.885855509637736,65.82472662515814,60
659.18,106.84546969696969,106.48170188044199,100.84466354896543,103.86440577439488,62.61729610604711,65.63703833147656,60
682.617,106.81346969696969,106.45757394362933,100.764897891017,103.78011359128162,62.67746035234771,65.69267605261233,60
707.52,107.10146969696969,106.57217434315798,100.39953339015258,103.53188890108831,63.040285442069674,66.1726409530054,60
732.422,106.4904696969697,106.1122035735386,100.45897700739796,103.60535101850411,62.506852555034484,65.65322656614063,60
757.324,106.1384696969697,105.63403979809766,99.91981786705442,102.97921508964734,62.65482470845032,65.71422193104324,60
785.156,106.66846969696968,106.3130522906512,100.25156149205819,103.54057702082169,62.77247526982951,66.06149079859301,60
811.523,107.15546969696969,106.41605349566095,100.18126280770304,103.47049517686254,62.945558318798405,66.23479068795791,60
840.82,106.8634696969697,106.22798954703644,100.13007898149647,103.34965526520132,62.87833428183512,66.09791056553998,60
870.117,107.44346969696969,106.73355957030336,100.73310421172584,103.82185662574986,62.9117029445535,66.00045535857751,60
900.879,106.97246969696968,106.39678180192051,100.16168774948498,103.60395704739184,62.79282475452867,66.23509405243553,60
933.105,107.45246969696969,106.97176387067206,100.655097417387,103.91978346889678,63.05198040177528,66.31666645328507,60
965.332,107.4284696969697,106.60759836897626,100.01908832934609,103.56292011318814,63.044678255788114,66.58851003963017,60
1000.49,107.28546969696968,106.45715686418956,100.35276660493506,103.91000127394005,62.5471555902495,66.1043902592545,60
1035.64,106.4994696969697,106.22430829117823,100.2397692236049,103.84769410612157,62.37661418505667,65.98453906757334,60
1072.27,106.42646969696969,105.77699879251868,99.99556830619244,103.47315654674223,62.30384224577645,65.78143048632624,60
1108.89,106.87246969696969,106.13171814208343,100.05992540300826,103.4959261693598,62.635791972723624,66.07179273907516,60
1148.44,106.57746969696969,105.99672990398028,100.16971849017469,103.56564165214802,62.431088251832264,65.8270114138056,60
1189.45,107.24046969696971,106.18578621690895,100.11103533023302,103.81549398881381,62.37029222809514,66.07475088667593,60
1230.47,107.41346969696968,106.55128004060717,100.36612581128468,103.80486834370973,62.74641169689744,66.18515422932249,60
1274.41,107.6294696969697,106.7340039383865,100.39144218815716,103.99172769335802,62.74227624502848,66.34256175022934,60
1319.82,108.26846969696969,107.4310846169485,100.85526920399107,104.60318459572495,62.82790002122354,66.57581541295743,60
1366.7,107.6774696969697,107.17316984056121,100.96291761931843,104.87657091684939,62.29659892371183,66.21025222124278,60
1413.57,107.28646969696969,106.815080339735,100.73825147372106,104.21645357115113,62.59862676858387,66.07682886601394,60
1463.38,107.12846969696969,106.30534182473701,100.104960704413,103.80245793975641,62.502883884980605,66.20038112032401,60
1516.11,106.7074696969697,105.74240169431225,100.00294194838281,103.97871923587044,61.76368245844181,65.73945974592944,60
1568.85,105.83446969696969,105.30590477202064,100.06050515659017,103.95122442580973,61.35468034621091,65.24539961543047,60
1624.51,105.66746969696969,105.13660842381758,99.87089028020301,103.81382778685388,61.3227806369637,65.26571814361456,60
1681.64,106.31046969696969,105.82104519971037,100.36784218119504,103.75495943765027,62.0660857620601,65.45320301851532,60
1741.7,106.8744696969697,106.72659478449381,100.62181294031917,104.09780223346198,62.628792551031836,66.10478184417464,60
1803.22,107.3504696969697,106.97960294399601,100.83689214260846,104.47388415533344,62.50571878866258,66.14271080138755,60
1866.21,107.09846969696969,106.6463282791446,100.53003987162067,104.33598862483096,62.31033965431364,66.11628840752392,60
1932.13,106.61646969696969,105.9939505973553,100.10506092843141,103.78492408184798,62.20902651550732,65.88888966892388,60
1999.51,106.51546969696969,106.01359296404723,99.95217321291912,103.61902132529022,62.394571638757014,66.06141975112811,60
2069.82,106.4954696969697,106.24455884929148,99.81085020278162,103.58326960069027,62.66128924860121,66.43370864650986,60
2143.07,106.6774696969697,106.2937313551978,99.48655969136487,103.27463559993258,63.019095755265226,66.80717166383293,60
2219.24,106.00646969696969,105.67093790101026,99.00172318415149,102.72655817966648,62.94437972134378,66.66921471685878,60
2296.88,105.16446969696969,105.19962831552633,99.00888828285348,102.85545856666434,62.34416974886199,66.19074003267285,60
2378.91,105.61046969696969,105.39322185129042,99.2296779128559,103.02264878297964,62.370573068310776,66.16354393843451,60
2462.4,107.66146969696968,107.1396158897294,100.2595420318668,104.10081085433077,63.038805035398624,66.8800738578626,60
2548.83,107.29746969696967,107.53913431263238,100.62857922064578,104.42679571787977,63.112338594752615,66.91055509198661,60
2639.65,105.79346969696971,106.31617192527212,100.3207926744216,104.09999384996235,62.21617807530977,65.99537925085052,60
2731.93,104.99546969696969,105.5059454335215,99.57967387746157,103.39117050337609,62.114774930145416,65.92627155605993,60
2828.61,106.0054696969697,106.03776366937988,99.46831254133325,103.34258793116187,62.69517573821801,66.56945112804664,60
2928.22,106.5974696969697,106.61699269513349,99.61523467784265,103.52955375927542,63.087438935858074,67.00175801729084,60
3030.76,106.84346969696969,106.73554777150936,99.43436892185498,103.33604266140813,63.39950511010123,67.30117884965438,60
3137.7,105.8864696969697,106.13509798622403,99.10801583465357,102.921816603636,63.21328138258802,67.02708215157045,60
3249.02,105.4634696969697,105.62474223931763,98.7283468143791,102.6556974143279,62.96904482498972,66.89639542493853,60
3363.28,105.81546969696969,105.70828195768077,98.58726449066789,102.50415306440179,63.20412889327898,67.12101746701288,60
3481.93,106.4694696969697,105.95782474251808,98.75251923194361,102.75069392151867,63.20713082099941,67.20530551057448,60
3604.98,106.6504696969697,105.8705639533062,98.72753689692217,102.69828610025186,63.17227785305434,67.14302705638403,60
3732.42,107.25046969696967,106.39631237453112,98.76667536720831,102.73650660676304,63.65980576776808,67.62963700732281,60
3864.26,106.1774696969697,105.734204094516,98.46137427708913,102.54478759312941,63.18941650138659,67.27282981742687,60
4000.49,105.93046969696971,105.31696107130212,98.22679304960249,102.32324912447014,62.99371194683198,67.09016802169963,60
4141.11,106.61346969696969,105.88496479395546,98.22387965994417,102.43324837464101,63.45171641931445,67.66108513401129,60
4287.6,106.6364696969697,105.9622182046225,98.28652279567788,102.47426447785116,63.48795372677134,67.67569540894462,60
4438.48,106.5894696969697,105.87979549132899,98.19714985949408,102.43560098017679,63.444194511152205,67.68264563183492,60
4595.21,106.08946969696969,105.55369092249778,98.18977741659734,102.33020650681384,63.22348441568394,67.36391350590044,60
4756.35,107.20846969696969,106.1166778294056,98.33748232526081,102.61871816524499,63.49795966416062,67.7791955041448,60
4924.8,107.10946969696968,105.93786110513112,98.07393980065544,102.21621257366166,63.721648531469455,67.86392130447568,60
5097.66,106.54846969696968,105.5651174829375,97.7682360283389,102.08228430282826,63.48283318010924,67.79688145459859,60
5277.83,107.0054696969697,106.10446946897166,98.20922494672726,102.44362633626646,63.660843132705196,67.8952445222444,60
5463.87,106.73246969696967,105.8337409599921,98.20242335227226,102.58054270539263,63.25319825459947,67.63131760771984,60
5657.23,107.36346969696969,106.39614426490165,98.45515614407105,102.89618343606841,63.49996082883324,67.9409881208306,60
5856.45,106.93146969696969,105.86740194443095,98.13378376103836,102.26304140214211,63.604360542288845,67.7336181833926,60
6062.99,107.02946969696968,106.16999748334459,98.31547829270168,102.69838790586533,63.471609577479256,67.8545191906429,60
6276.86,107.04146969696968,105.79684848896403,97.92731675800434,102.55731851544742,63.23952997351661,67.8695317309597,60
6498.05,107.15846969696969,106.00289812367986,97.84517694462495,102.26309710660716,63.73980101707269,68.1577211790549,60
6726.56,107.3644696969697,106.22138477853645,97.81663286124211,102.22878225547225,63.99260252306419,68.40475191729433,60
6963.87,106.90746969696968,106.00937046733067,97.71103012616645,102.41037061185753,63.59899985547314,68.29834034116422,60
