Freq "Ceiling Bounce"
20.5078 73.12414849998795
21.9727 73.58959582863172
23.4375 79.36070831178269
24.9023 83.06072043518343
26.3672 84.8759410426154
27.832 88.45689692207056
29.2969 91.62807171840677
30.7617 93.99551498577227
32.2266 96.3693232106603
33.6914 98.48538567719392
35.1562 100.3449172661484
36.6211 101.97490295459936
38.0859 103.31960870285394
39.5508 104.55120944396593
41.0156 105.44126937266496
42.4805 106.31371359973586
43.9453 106.86371359973587
45.4102 107.30625199265762
46.875 107.48953831328812
48.3398 107.67309285894471
51.2695 108.3456002721837
52.7344 108.39347401526872
54.1992 108.45423222585912
55.6641 108.51889346631866
58.5938 108.59994953918225
60.0586 108.64899438189619
62.9883 108.7110398386575
64.4531 108.73333929688062
67.3828 108.82922780598132
68.8477 108.89558479540797
71.7773 109.02256061058506
74.707 109.10065827079006
77.6367 109.198783799393
79.1016 109.26416791987317
82.0312 109.33300525517795
84.9609 109.37314220221616
87.8906 109.39576640206407
90.8203 109.3480734679525
95.2148 109.67205581743417
98.1445 109.80391893826474
101.074 109.62768440326049
105.469 109.55200482573424
108.398 109.67453243633831
112.793 109.65446861121471
117.188 109.63581710485525
120.117 109.80899079835271
124.512 109.94878963578513
128.906 109.93171932427849
133.301 109.64225957558732
139.16 109.76054375138406
143.555 109.92529709516428
147.949 109.81493133647385
153.809 109.64474774086615
159.668 109.76118464414336
165.527 109.91159560125973
171.387 110.02088717308511
177.246 109.90949839220045
183.105 109.88481829595777
188.965 110.14249607637784
196.289 110.3272557529242
203.613 109.71808950541227
210.938 109.46600471345253
218.262 108.96638611041789
225.586 108.87282130240197
232.91 108.38281788120834
241.699 107.58333003489307
250.488 108.27021946811018
259.277 108.62220524865552
268.066 108.27741952836791
276.855 107.99082815383835
287.109 108.65228876629924
297.363 108.12446568504127
307.617 108.05930357050337
319.336 107.55169110427515
329.59 109.06287944367118
341.309 108.71075852368489
353.027 109.35508919635024
366.211 109.05778101266812
379.395 107.49329032978078
392.578 107.20243554170354
405.762 106.72072351217041
420.41 107.37438939775524
435.059 106.56720493700307
451.172 106.14504964298531
465.82 106.40928929337984
483.398 103.86885429477333
499.512 103.29449031181818
517.09 102.96542818841235
536.133 104.56095845488124
555.176 106.21549513794224
574.219 105.89093731748476
594.727 106.33195061454589
615.234 109.40143233383988
637.207 108.88334209498304
659.18 106.36204078760267
682.617 105.89294978013169
707.52 103.30221256518408
732.422 101.66582156000375
757.324 106.02608797301012
785.156 108.35316547725094
811.523 108.74049611502758
840.82 109.75170812606329
870.117 109.45112665867681
900.879 108.27772036649529
933.105 110.34135782766565
965.332 108.00638335424777
1000.49 108.69944478698419
1035.64 107.8625654960461
1072.27 108.30588264321494
1108.89 108.22041012938003
1148.44 107.64965080817555
1189.45 107.34344483660745
1230.47 106.29859677922693
1274.41 105.26585252688442
1319.82 104.22642825252125
1366.7 103.97421712494915
1413.57 104.0158412279721
1463.38 100.93232595522993
1516.11 102.56388456669374
1568.85 101.26689454092626
1624.51 101.57673994755352
1681.64 100.0515924414916
1741.7 100.18856592908224
1803.22 99.98139678917143
1866.21 100.06658740573532
1932.13 101.08875711803925
1999.51 102.40346160810473
2069.82 103.3525095292062
2143.07 104.32975223930188
2219.24 105.30977225914178
2296.88 105.20961253074573
2378.91 105.23859723997013
2462.4 105.98201334847509
2548.83 107.23033864496777
2639.65 106.19010347837482
2731.93 105.05844306785531
2828.61 104.62061147914098
2928.22 104.50697360793258
3030.76 104.13169725387989
3137.7 104.4735633377309
3249.02 104.08309917855972
3363.28 104.19355058432696
3481.93 103.98291088525842
3604.98 104.76114904449761
3732.42 104.91334675723532
3864.26 104.93481660058225
4000.49 104.45060908017462
4141.11 104.75178314210797
4287.6 105.08294751593304
4438.48 105.22079953498844
4595.21 105.08864305124905
4756.35 105.26551213804915
4924.8 105.44485405306857
5097.66 105.74378455917685
5277.83 105.94025768063035
5463.87 105.67385135076546
5657.23 106.0882404043091
5856.45 106.1105383850769
6062.99 105.65999780492527
6276.86 105.62722165544197
6498.05 105.17381781864198
6726.56 104.71743002210026
6963.87 104.80137833765855
7209.96 104.53381244681343
7464.84 104.18284595202734
7727.05 103.79858187230464
7999.51 103.32739748280827
8282.23 103.20885610695187
8573.73 103.01673937645403
8876.95 103.07863018207706
9188.96 102.73020984831322
9514.16 102.07666995908693
9849.61 101.99369947369287
10196.8 101.39115907014495
10555.7 100.6515643270523
10927.7 99.89683175192827
11313.0 101.42868387831503
11712.9 102.87527739350615
12126.0 102.38692804697254
12553.7 100.06251431558518
12996.1 101.20073930666892
13454.6 102.9769766858259
13929.2 104.02065136348419
14419.9 103.55767662649109
14928.2 101.54775568546161
15455.6 99.39706897768414
16000.5 98.42624124964448
16564.5 99.65532048224456
17148.9 100.08762760393675
17752.4 99.69819042712291
18379.4 99.79094000385949
19026.9 100.57230457114748
19697.8 96.37477637741259
19999.5 89.8155922830281
