Freq "Estimated In-Room Response"
22.4 35.5741949612957
23.0 37.00816524376641
23.6 38.424814699781294
24.0 40.30777589271882
25.0 41.93683996195004
25.8 43.29419849068226
26.5 44.55004322631406
27.2 46.231933884563105
28.0 47.7475539609659
29.0 49.08172662002359
30.0 50.42084090796193
30.7 51.977965406012814
31.5 53.34219194559027
32.5 54.58948632301296
33.5 56.05094269995949
34.5 57.37133933943592
35.5 58.57694441534535
36.5 59.877875224484185
37.5 61.07471768690678
38.7 62.181162334267555
40.0 63.26868405513896
41.2 64.2770540475849
42.5 65.22156505126584
43.7 66.11327937751668
45.0 66.94794581262101
46.2 67.76720346341331
47.5 68.53780125956423
48.7 69.26849021149584
50.0 69.98865364628158
51.5 70.65808075456424
53.0 71.28968504274508
54.5 71.89350565610025
56.0 72.48277565453022
58.0 73.09222167557662
60.0 73.66819560576464
61.5 74.25363030391055
63.0 74.83671661708736
65.0 75.41123439049439
67.0 75.97503583330243
69.0 76.51447144567517
71.0 77.08356042796639
73.0 77.65479892065866
75.0 78.16963953840157
77.5 78.61575247477808
80.0 79.04444692495521
82.5 79.4760565905126
85.0 79.88963463247123
87.5 80.28162771833946
90.0 80.6070556829964
92.5 80.91542202556664
95.0 81.17696389879008
97.5 81.41620708853108
100.0 81.63356019021766
103.0 81.83566736237033
106.0 82.01484013793878
109.0 82.18123953645922
112.0 82.37452574433695
115.0 82.53461611005623
118.0 82.67013391717374
122.0 82.8389565534648
125.0 82.94449918515214
128.0 83.04886205241353
132.0 83.1121006724983
136.0 83.20862008787326
140.0 83.25428024993789
145.0 83.3174053768844
150.0 83.35694934399618
155.0 83.36393288403401
160.0 83.34418820304542
165.0 83.30883362122063
170.0 83.21338227239386
175.0 83.11467705627494
180.0 82.94957500190871
185.0 82.73585493589016
190.0 82.4922808930127
195.0 82.1965261872816
200.0 81.83128499102452
206.0 81.43842441774122
212.0 81.01950809031621
218.0 80.59671865031702
224.0 80.18114532250782
230.0 79.77692982850284
236.0 79.38985805448226
240.0 79.03493951961441
250.0 78.75840990237809
258.0 78.59690974046143
265.0 78.57943472726303
272.0 78.70311240823972
280.0 78.93153795563505
290.0 79.19658836631389
300.0 79.49501961583444
307.0 79.80631036816116
315.0 80.0684649230816
325.0 80.32790671521217
335.0 80.51292505629844
345.0 80.60138737637202
355.0 80.59364882603452
365.0 80.4966473169885
375.0 80.33195670706938
387.0 80.13842134649732
400.0 79.97538333039888
412.0 79.83248446413752
425.0 79.72189384161295
437.0 79.61329652492259
450.0 79.49536852060083
462.0 79.38898987710857
475.0 79.27537980103003
487.0 79.15550586109661
500.0 78.95372036842664
515.0 78.75904798357938
530.0 78.49627808922973
545.0 78.21375657875464
560.0 77.95353996364439
580.0 77.7320037175834
600.0 77.56529367672567
615.0 77.41057337258853
630.0 77.25785491664202
650.0 76.98740216834493
670.0 76.5439831479732
690.0 76.10470842000151
710.0 75.78775364969748
730.0 75.56740869749154
750.0 75.45253154113944
775.0 75.42567506545473
800.0 75.5246677999333
825.0 75.8968413046383
850.0 76.41185541505895
875.0 76.81367978549508
900.0 76.8774259952253
925.0 76.66724118096994
950.0 76.47168154531897
975.0 76.61740645401862
1000.0 77.11217903602783
1030.0 77.51852595106595
1060.0 77.53134790272637
1090.0 77.3540642768315
1120.0 77.66673293653973
1150.0 78.80031155543911
1180.0 79.7139352351082
1220.0 78.72628548686997
1250.0 77.14482181055615
1280.0 76.86586322619758
1320.0 77.5398240401658
1360.0 77.73751966836538
1400.0 77.08616664653262
1450.0 76.60444342076737
1500.0 76.88812392374668
1550.0 76.57900888743185
1600.0 75.41855667409153
1650.0 74.18680151843522
1700.0 73.56227657354373
1750.0 73.85148012256188
1800.0 74.09982046817096
1850.0 73.99722434995977
1900.0 73.76415036174598
1950.0 73.28853377241384
2000.0 72.9025105482104
2060.0 72.69143084584496
2120.0 72.95806193906277
2180.0 73.07519593897861
2240.0 72.51255435964836
2300.0 71.98482598339336
2360.0 71.78453536080285
2400.0 72.37400986063825
2500.0 72.78130391552774
2580.0 72.78350256483857
2650.0 72.57530865210283
2720.0 72.23759296366818
2800.0 71.8963400470106
2900.0 72.0367385101241
3000.0 72.18807019620186
3070.0 72.3908185210587
3150.0 72.68330146617797
3250.0 72.60536962872509
3350.0 72.61330930708094
3450.0 72.71864989516736
3550.0 73.12567021107645
3650.0 73.2866981923565
3750.0 73.24196136739644
3870.0 73.18324397529011
4000.0 72.87043020439981
4120.0 72.9399889083517
4250.0 73.25369224981667
4370.0 73.15642749236041
4500.0 73.31532728708522
4620.0 73.55273560012039
4750.0 73.85726919423978
4870.0 74.25392235096517
5000.0 74.59287549698432
5150.0 74.90789057606192
5300.0 75.45939763256793
5450.0 75.91538287069893
5600.0 75.98280297379551
5800.0 75.7002644864345
6000.0 75.85398725062757
6150.0 76.85989162422786
6300.0 77.83862092256096
6500.0 77.14235223934985
6700.0 76.50190819833081
6900.0 76.27173120540265
7100.0 76.29922889518677
7300.0 77.31417114995955
7500.0 77.36300481758134
7750.0 75.4118254085635
8000.0 74.92071502406763
8250.0 75.43648164302532
8500.0 77.24553516315093
8750.0 78.21522756211566
9000.0 75.88389068711261
9250.0 74.96309235374342
9500.0 75.42305903168042
9750.0 77.6559084054405
10000.0 75.15186741256505
10300.0 74.39614180038556
10600.0 75.48252420922202
10900.0 75.89599783513498
11200.0 75.44988650955565
11500.0 75.61184646694129
11800.0 75.99655276160298
12200.0 76.92516761823725
12500.0 77.28528279051919
12800.0 77.5739972173286
13200.0 77.50862859844308
13600.0 74.55458423785144
14000.0 73.2151969248532
14500.0 73.50618088315264
15000.0 73.90559473206956
15500.0 75.9731971078133
16000.0 73.43920148535943
16500.0 74.74713222916706
17000.0 74.92310853864286
17500.0 72.4959215841706
18000.0 73.76267487746789
18500.0 74.50403902600368
19000.0 76.01963977880293
19500.0 68.1732473996813
