Freq,Floor Bounce,Ceiling Bounce,Front Wall Bounce,Side Wall Bounce,Rear Wall Bounce,Total Early Reflection
20.5078,64.32452864780578,63.4308176993124,63.99778704697475,63.760701285788386,63.48216912756885,63.8120536392851
21.2402,64.78455789955277,63.61518022920458,64.32694245888163,63.99114981593951,63.33001186406722,64.04011083681463
21.9727,65.32024199531968,63.535472303639494,64.71271492944541,64.32165882942316,63.38852400918586,64.31627310939251
22.7051,65.84337051724235,64.19215870470454,65.24296451746841,64.89678736850979,64.0892860520632,64.90292293048341
23.4375,67.04133155612834,65.2364570409821,66.38355116902441,66.04409389006389,65.20207728976288,66.03842848048397
24.1699,68.14259264586141,66.41930199485851,67.5117641161274,67.20148131506741,66.41992052183562,67.1897534483263
25.6348,68.93277742195778,67.07227848142723,68.25154748141865,67.95105947922755,67.22557743761651,67.94083888889097
26.3672,69.71891745865138,68.16819165193371,69.13527883733087,68.87609117336298,68.25653459054145,68.86941303843747
27.0996,70.77270821041057,69.68232385516636,70.32511691938711,70.15190351064358,69.74436644677502,70.1539025451186
27.832,70.47258464315009,69.04741798930736,69.90454030653126,69.66375423468001,69.05743317972562,69.66298170848702
29.2969,71.48253576723923,70.01637390581686,70.90282476311205,70.67671759590762,70.12814476996238,70.67463454452428
30.0293,71.84484848852402,70.31708779546685,71.25120922467327,70.99786647127885,70.3679247256126,70.99378516342976
31.4941,72.64205702351225,71.19652389230951,72.0770460876635,71.82299814878529,71.15280514676515,71.8147071897353
32.2266,73.04869606446323,71.5982421291888,72.47875997604098,72.22200180627553,71.5413520112,72.21481333139504
33.6914,73.7950984390363,72.27537611948239,73.2051541508654,72.94191781343231,72.24957994369528,72.93315849359134
34.4238,74.18904584615368,72.71508760263758,73.61401469549811,73.35901426557274,72.68529176178077,73.34995689302735
35.8887,74.76524854830431,73.26860377116073,74.18334673306862,73.91374089782106,73.2034890483106,73.90656416808608
37.3535,75.33799918638617,73.83214829368073,74.77286694102594,74.48621910298847,73.74744173309315,74.47637023621928
38.8184,75.99117321410922,74.49355668458581,75.42940273757904,75.14288202222406,74.41800715487496,75.13532811098614
39.5508,76.27276482823045,74.76353192721439,75.70872980679354,75.41339490148141,74.65766323247777,75.40512504051884
41.0156,76.90041332149151,75.39320523264794,76.3381713705375,76.04200378784441,75.28438264510885,76.0335435996364
42.4805,77.44272544768101,75.94322945200321,76.8828767376356,76.58879607068411,75.85486998399703,76.58335084785251
43.9453,77.94421650548573,76.40349298863961,77.3768601876789,77.06255007707426,76.27283881476441,77.05653410877204
45.4102,78.47866369348922,76.90852843674337,77.90736155315197,77.58143878610991,76.76013449865259,77.57411424441412
47.6074,79.16874993247916,77.70619423465735,78.61731286175784,78.34060538261815,77.70232053412694,78.34345176006447
49.0723,79.55056251966118,78.01305198817731,78.98244689143098,78.67389480589922,77.97701254724797,78.68075510045077
50.5371,79.97006512364892,78.39732492381961,79.39526234053224,79.08022886404213,78.39191345775855,79.0893863682208
52.7344,80.61648900516943,79.05627623317203,80.06092869066558,79.70892888284035,78.93587674820907,79.7212863553276
54.1992,80.95153460569986,79.39770793673988,80.39780766618371,80.03745620711683,79.22766172667424,80.04933572714503
56.3965,81.40027520358906,79.84005612218161,80.85063641460508,80.47906359184397,79.64593360288657,80.49141077414711
58.5938,81.77561521965276,80.22620465313764,81.23233663830044,80.85479749788226,80.02694128651135,80.87100657599402
60.0586,81.99837260632924,80.45856739668561,81.46802971179304,81.06924799427296,80.2038500568835,81.08907111525761
62.2559,82.28184035727114,80.72423195540632,81.73728037884834,81.35020705480486,80.50146941047066,81.36817876719557
64.4531,82.38102973582014,80.76366733516586,81.81188163696129,81.4150834101603,80.60439622607572,81.4455465282115
66.6504,82.53270583740604,80.83331478603931,81.93794822834897,81.53442562799883,80.67999928977167,81.55878218912198
69.5801,82.69018313223944,81.00572119275286,82.09479018184034,81.71615240847099,81.0826161105971,81.7644182624959
71.7773,82.75495902879544,81.01217479962231,82.15191619066447,81.73103071603119,81.01784570931424,81.78597033767419
73.9746,82.7989524483292,81.04860430652761,82.20382778920047,81.75973906487289,81.03275647245096,81.82254644956606
76.9043,82.85030090451765,81.08262394024685,82.25700926586717,81.77616687404438,80.94577342221065,81.84172333988084
79.834,82.86197104804047,81.05944788191944,82.26070620750714,81.76304806763305,80.89929946579139,81.8314894653333
82.7637,82.81583901175055,81.00465170043421,82.2053260737587,81.70692295017426,80.87351884128825,81.78319475891122
85.6934,82.85096405307779,80.89630043892194,82.22404103635665,81.67478156538893,80.7775410070185,81.75661436259924
88.623,83.05645396224162,81.2317254680315,82.47369910796515,81.93381746339905,81.03588865008042,82.01240230316829
91.5527,83.08979565889246,81.35432933558228,82.5225904200228,81.9684809218954,81.13174517062478,82.07449995445157
94.4824,83.171814424415,81.39925746809703,82.58638026127892,82.02072657608663,81.19368175113884,82.13716789239902
98.1445,83.20401913073746,81.3711494721864,82.60084096855296,82.00726366531698,81.20678025725022,82.14334633645073
101.807,83.23998907517698,81.41107730493361,82.64109238562614,82.02664703892916,81.26078703015132,82.18063569648075
105.469,83.25575072016484,81.3505817297497,82.62509646851713,81.96004176167199,81.16846846634196,82.14335128858983
109.131,83.30702246085472,81.20271169385056,82.63057815274927,81.91289261099082,81.10777316757073,82.11496398088391
112.793,83.19761028127328,81.13924351944934,82.56005013883984,81.77930084511397,80.91652813794923,82.00437492888192
116.455,83.28858439842321,81.04068501712852,82.60957869759409,81.73396819834593,80.71209966478898,81.98422892252843
120.85,83.49828894385638,81.13346578995515,82.84110197244844,81.87633468621283,80.48049726251256,82.10426873870989
125.244,83.54859060281021,81.38696993929676,82.97330570695358,82.03940344629153,80.57146662653321,82.23400792693631
129.639,83.56689940714034,81.4927190508856,83.03038737805147,82.0882956928804,80.63505055096563,82.28801605560366
134.033,83.46064225321177,81.42148807306877,82.93036590217932,81.96142792066783,80.59171592749203,82.19381533490204
138.428,83.38454401203698,81.30719171692937,82.88161020086196,81.82648454038869,80.26207349949566,82.0724733260339
143.555,83.53069930786391,81.38425174921446,83.03206101960171,81.88404718329927,80.05739696720178,82.14657285070048
148.682,83.84190939650027,81.86180732906314,83.44482136262235,82.3474538383091,80.59236880732576,82.56758442422034
153.809,83.77195984532511,81.97189147805264,83.40809167091933,82.29541250439985,80.81212372201139,82.57773629490549
159.668,83.65962099720537,81.77139066762537,83.29855291835392,82.03993260111882,80.37617645307627,82.38217796792227
164.795,83.86445944018939,81.85097962691162,83.5522271478294,82.14710596762598,79.97558372453531,82.48749501448829
170.654,84.24390334857223,82.41281982963962,84.02003643147441,82.65602628650933,79.86129342032399,82.89380537828389
176.514,84.17622678715377,82.72768606657438,84.10842005137759,82.85550612547019,80.23941270055576,83.03279622732512
183.105,83.79630074814523,82.6872132631562,83.85009630077336,82.60298472084251,80.08280462046298,82.79679189447631
189.697,83.65523600239646,82.69221707560445,83.80124478472305,82.47398754906466,80.07629223290643,82.72484266302813
196.289,83.92440164783292,82.95746214304978,84.11435685039756,82.7522464713256,79.98994606022555,82.96909601963992
202.881,83.51545995117228,82.73283273550187,83.70777457720158,82.51014834382853,79.65341017117055,82.63734868634269
210.205,83.3716045393463,82.7295314999716,83.69758684405483,82.35564334973304,79.38310306127663,82.54255384144724
217.529,83.53110518014107,83.105470145709,83.97505143705993,82.65860557501863,79.48807471926091,82.80116163950858
225.586,83.38458841452744,82.94733316764318,83.74308336812116,82.3900934398306,80.2700862990451,82.7029812962252
232.91,83.72508552448983,83.05679025715315,84.13925436092599,82.44333999516189,80.23216079528231,82.91511313987596
241.699,83.56471766192217,83.26820358541545,84.2804255603732,82.6326454071635,79.73314341739825,82.94376437361097
249.756,83.64773929100465,83.57794649754251,84.6625361281088,82.931299729334,77.95300723023576,83.05756581717667
258.545,84.10299616900525,84.06395143786443,85.12366450176864,83.95370639277914,80.01517371829253,83.75249733543899
268.066,83.5986890807711,83.82404591202194,84.8218647989846,83.35964349913709,80.17831492134373,83.40323576200137
277.588,83.58158111894669,83.78195264929168,84.87343847749821,83.3199755571243,80.42380397617912,83.42100129174668
287.109,82.6832441461631,83.65660238379698,84.28033674606014,82.75200698993541,79.90491192295667,82.88610288347891
297.363,82.66219222401931,83.05644335342437,84.61835304597962,82.74690129828942,78.13797263893471,82.69381468130746
307.617,83.72086011130213,83.79458131426583,85.37099098652791,83.84005988367844,78.3006605392916,83.53835127949478
318.604,83.18031725664008,83.84315043005265,85.17700672237044,83.71403987760775,78.71096352109501,83.38116263817925
329.59,82.97768989498093,84.0424336844783,85.00875216139563,83.76250811260513,78.40798325511088,83.32905328705272
341.309,82.64945448934073,83.35178147583274,84.63689336275527,83.43515684823751,78.89226309807165,82.96366418165796
353.76,82.25113209699731,82.95905655740358,84.3332592618372,83.08200359563367,78.95891598445863,82.64258187857837
366.211,82.08004716686669,83.6685907533608,84.23175303565957,83.08909195357609,79.6119179945466,82.80688281739742
378.662,81.48770489757817,83.90345350014196,84.2250366605464,82.58375993464436,80.34994858448906,82.74504405632621
392.578,82.48171454294524,83.81967960617801,84.85126044377814,82.73850676702448,79.79115480572636,83.03975952062598
405.762,83.09665937716589,83.68561797099235,85.34638160078961,82.86317021488772,78.87877002985287,83.2252156982872
420.41,84.15028328345123,83.61969622699985,86.09810924502551,84.1434036669977,77.14933291680106,83.83405041594392
435.059,84.23226451350979,83.33141894166816,85.09192572398813,84.2867248686133,79.31525635182943,83.6439135891718
450.439,83.66896856819454,82.3454517018947,84.42955176356807,82.70136531302435,79.99992515560399,82.86875645613452
466.553,84.42176848227761,82.86894453813527,84.98938882846326,82.33658547071202,79.66684997790347,83.22109622379423
482.666,84.35441699057688,84.10016269830584,84.96554485163432,82.11189950815603,78.77790945868378,83.35026053412801
500.244,84.54064230652472,83.57275565865508,85.03411972224083,82.6142982677359,77.32194498830975,83.29361132933876
517.822,85.03354960162525,83.66810704646946,84.9777804304038,82.67654215035488,77.77958967184139,83.46814750895221
536.133,84.92075297831761,83.8234981275757,84.90249881234317,82.67546761965399,77.53908255321996,83.43528415764037
554.443,85.35217239837046,83.80464126820259,85.26367340023319,82.03035886137062,78.52333327791472,83.6168170382206
574.219,85.36481477419899,83.4971974423905,84.87587729471653,82.31057132882054,78.04093288855996,83.45928654010862
594.727,85.50168095432792,83.84501130679952,84.93146499438461,82.03899952737805,77.09102022202494,83.50135148000706
615.234,86.27479632619583,83.80819545568139,84.55419627537995,82.51122777486552,75.68966048893837,83.67422409883747
637.207,85.32830745634809,83.86328557098675,84.67410451464666,81.52274923784546,77.90872236877165,83.351006769724
659.912,84.67190008056895,83.5043591301052,85.52968453315863,82.82461466623587,78.00202016863761,83.5384532159145
683.35,86.14469944575235,83.70554229911583,86.012177459904,83.18678060372036,77.07263844332826,84.16574201353114
706.787,86.26547238315574,84.02912199047591,85.22014461987673,82.92259526758636,75.31272542277009,83.94008841392838
731.689,85.58462008247007,83.27298610228644,85.36837383778393,82.4893186972215,76.91467112067194,83.59843362733211
758.057,85.93664169391532,82.78590549365953,85.77608476157617,82.04036659671368,77.5836263515076,83.72053029289945
784.424,86.38163848402267,83.55469996274138,86.24197819371307,83.19997315769542,76.96667958881702,84.28447804624949
812.256,85.93245185340062,83.95193985015406,85.86601657967569,81.71670245514147,75.61527803158135,83.84287681296287
840.82,85.97834696030141,84.39752361521153,84.72338666535437,81.97952214118028,74.65423051399726,83.63632283016602
870.85,85.4217461059782,83.30699563562918,85.28876366025715,81.45721028387163,75.56098900715507,83.33019363177719
901.611,85.13299996245716,82.59091749622476,85.60580653134532,82.14871698987614,73.81009134644715,83.2603677010791
933.105,84.76459544340892,82.74143445983768,85.66163892804994,82.07509360089577,74.08633841515687,83.19181767538586
966.064,84.46563354546183,81.50748482427865,85.81938326801401,82.19278385135146,74.81135280332079,83.00580717461722
999.756,84.5475888873647,82.67124170413786,85.8478713802085,82.12856116767531,74.22796577343829,83.1975144173278
1034.91,84.5757807606347,81.72748497409425,85.87377540798244,82.34633796468975,73.48365462449387,83.08052489723289
1071.53,83.53039366042383,82.1507220860137,85.75255775263459,82.3937147406378,73.792380376094,82.84685357666955
1109.62,84.35945833540325,80.85915447579141,85.5685403033211,81.61801228057622,73.38869262751724,82.65837165210678
1148.44,83.40242245272229,81.52902577647927,84.43372992532554,80.94630787076778,73.14496576735003,81.95149407438272
1189.45,83.32386882142012,81.83001083743898,85.38061230744655,80.96936220973507,73.34072982186942,82.35104622007921
1231.2,83.20636026089852,81.77516792040016,84.6094744476251,80.33706958642611,71.40016381549276,81.87879744409017
1274.41,81.93159058993594,81.77297519483503,84.11809339865573,80.4012213682954,71.48709975406007,81.38810544923497
1319.82,82.65770137908527,81.2297952990817,84.8899511504549,80.47043572409244,72.18012714517741,81.78063201487967
1365.97,82.0516615786681,81.10081820491736,84.50124856131228,80.27874055405898,71.19179525168337,81.4047084699522
1414.31,82.91831720069776,81.57389038485863,84.51538347123926,79.81002144467598,71.08992731152497,81.64886226909118
1464.11,83.46597866210035,82.03125080437584,84.1618961432081,80.15985776460482,71.877446562447,81.82782963567782
1515.38,82.6095419949177,80.94055111055506,84.52399205093467,79.96492056285484,70.07170722548929,81.45701540580704
1568.85,82.37272617266022,80.48217413304135,83.99753826182828,79.9883710440966,71.12010206358318,81.12709248825796
1624.51,83.61229743688811,81.77282751165598,84.89620075252031,79.73252440858839,72.44232634623563,82.04382080595558
1681.64,83.91257786528129,80.77593824148838,84.22068454686662,80.08394603434365,70.64883058125753,81.72363912609276
1740.97,83.29073927940023,81.74798718886045,84.24421283786313,80.15838281252005,71.3370073722129,81.7372953235445
1802.49,84.07126776327708,81.17304282259047,83.76227583962631,80.09764799354961,71.76809449993605,81.71118861905234
1866.21,82.51231405977366,81.90774098328092,84.49409777282563,79.56396660663364,71.8155912406497,81.5871457256995
1932.13,83.65385504926286,82.52863025447535,85.45155803161957,81.0005522748298,71.84320627454633,82.5672861697847
2000.24,83.60749430964245,81.60557284661344,85.09622322892048,80.2492942132841,70.34878586938116,82.11797773957946
2070.56,84.38614484343854,81.13132324033155,84.25361649133123,80.378711448051,69.68185773585273,81.98108381796645
2143.8,83.28298123991459,80.79519301928448,83.41817096242059,78.8053695916011,69.14254739058376,81.05105925430692
2219.24,83.11467464483931,80.86718500189131,83.9234748027234,79.49600949877744,68.16145276624478,81.26688951295836
2297.61,82.8201152043451,81.44049687734991,83.39329264455381,78.99516339780351,67.7877902612905,81.0349852744491
2378.17,82.93121324303618,79.67302996680189,82.62973632289602,78.64664235858051,67.22634327074297,80.42074933133307
2462.4,82.60114766050977,80.85211984554468,82.87722392258483,78.23024485206177,67.39028533269132,80.56657093265841
2548.83,82.73736601103681,80.21867373938507,82.61918528708641,77.86685096651937,67.03323302452299,80.35028127792617
2638.92,82.03185714721101,80.16781229312805,82.87843887870731,77.45884890662754,66.29915429494784,80.1501035508532
2731.93,82.19457452421443,79.96362965860118,82.60175691278025,77.26925767818088,66.71561119311018,80.04304017152884
2828.61,81.654508554729,79.32740765162252,83.59108994194628,78.3196202588104,67.03067341431284,80.28246875527837
2928.22,81.62103591241038,79.14509173550324,83.11030297269471,78.30721445670714,67.28982675206359,80.04419734571036
3031.49,81.57922961919306,79.43909182689715,82.96111039004835,78.36205033857948,66.35182118539994,80.0206572605574
3138.43,81.56491179520465,78.90556159158575,83.11709951109358,79.10889469240442,65.68208983023175,80.09649787492467
3249.02,81.95190410775459,79.5860258440477,83.76421027560804,79.26520481458624,65.07615537119958,80.59350802516272
3363.28,82.77949797802763,79.49120327126562,82.91976001489617,78.68077928733848,65.50397698624958,80.42829095514205
3481.93,82.45907674944718,79.418417539182,83.05682795419297,78.66739097638838,65.57067724825151,80.35800798619155
3604.98,82.82534594398187,79.5356341195357,83.12458201447632,78.65384063251469,64.60579576919805,80.51606778712059
3732.42,82.65490695321115,79.9461835551751,83.25134142386034,78.94414381075849,65.65551130769678,80.61876921973888
3863.53,83.00312332346572,79.76160446435033,83.34475764774119,79.222077891716,66.39762800985211,80.77950792929113
3999.76,83.15831617819092,79.86378386284188,83.06491412049165,78.6977233194953,65.52228897798477,80.67469310509031
4141.11,82.83775771348832,80.05793139647349,83.58811247400185,79.30034956302543,65.29536893040199,80.86729048215318
4286.87,83.09812791298954,80.05546666079874,83.01453674783374,79.20925571946327,65.37373910068398,80.73620605425462
4438.48,82.87316847726859,80.38541501181794,83.22620652166432,78.8938102446624,65.52765224296598,80.7506703474823
4594.48,83.13741790334078,80.47236463611878,83.15989893995308,79.07628843474436,64.65981815928338,80.85079606176336
4757.08,82.97571248654785,80.35808854980155,83.60546179955568,79.24358116915393,64.67918389866077,80.95751974451545
4924.8,83.37931326186157,80.3661689222677,83.48148539821486,78.88235964626746,64.15222451900307,80.99932463840305
5098.39,82.796767820486,80.25927642766052,84.04554048470766,79.12529357246024,64.14933577909333,81.03632883521067
5277.83,83.27485475248858,79.96749949103878,84.08353804034772,79.33003330190698,64.73701834934943,81.18307321901986
5463.87,83.43714971786989,80.30534641036184,84.26592136876306,79.53346544164525,64.71032882920133,81.38468179654276
5656.49,83.3533001012372,80.00047658659405,84.52668039809147,79.4456450660592,64.9845139289017,81.40627378406853
5856.45,83.09586538151348,79.69209134096772,83.81813867411702,79.36504860955685,64.61115357013094,80.98513662740447
6062.99,83.16058184253679,79.38640532153451,83.98044970054426,79.37243160637726,64.78068251467847,81.02761691057502
6276.86,83.19061720464211,78.9905209250075,83.67772231169072,78.73051592460266,64.21747549925684,80.7791737036056
6498.05,82.93328482332527,79.29298560661834,84.03908398042543,78.89415227701826,62.86398186314757,80.89463127126936
6727.29,83.24003293279567,79.61705140988738,83.80359939241488,78.7158554972973,63.50745283110922,80.92826709761624
6964.6,83.2314372979813,79.96059684747827,84.44333534728764,78.77449299031156,62.17416199860517,81.23716079872362
7209.96,83.29158763896402,80.0629125380256,84.04898249323672,78.5133922851298,62.23667651665278,81.08271519592867
7464.11,82.79109817714168,80.00586817544843,84.5425542137067,78.94848910551268,61.893378409481755,81.17236335124083
7727.78,82.9622311553336,79.90840152123862,84.32933949888246,78.2860064543104,61.65156647372831,81.04174912887572
