Freq,Floor Bounce,Ceiling Bounce,Front Wall Bounce,Side Wall Bounce,Rear Wall Bounce,Total Early Reflection
22.4,53.56845083805432,52.35603885002969,53.52144653764064,52.87509915273726,49.8888373667764,52.62821824854608
23.0,54.36845083805433,53.286566463112464,54.39389322416359,53.69875676042925,50.75428054232755,53.48275379477296
23.6,55.26769521305293,54.1865664631125,55.321446537640654,54.54291220548741,51.6730048174433,54.379725022313025
24.0,56.067695213052914,55.052609532022174,56.16340201745824,55.34625696469989,52.51871811314375,55.20845683249
25.0,56.86845083805433,55.88219967332303,56.99452236235969,56.16917974279541,53.3851841325246,56.034032781324086
25.8,57.63513059177983,56.68219967332304,57.79179303928227,56.914677486193014,54.18825267763857,56.81442188601734
26.5,58.43663575667186,57.482199673323024,58.605919252204686,57.714677486193,55.02600955523984,57.6224650355788
27.2,59.168450838054326,58.24898514879551,59.33673748996509,58.414677486193014,55.82217543511662,58.36147861529089
28.0,59.93663575667186,59.012271783156194,60.10591925220467,59.17398875432508,56.605219050331286,59.128823120481684
29.0,60.67071732495408,59.81227178315618,60.84709226064558,59.914677486193014,57.41428712678025,59.887342845342445
30.0,61.40228461396019,60.54283030471974,61.561696263971925,60.65741315536384,58.16614569861922,60.61904078543347
30.7,62.17071732495408,61.276091754492214,62.31704993328867,61.37398875432508,58.92386666030701,61.36567225355577
31.5,62.87071732495407,62.006905010354586,63.03175513861906,62.073988754325086,59.70698741670317,62.08492117923973
32.5,63.636635756671865,62.70690501035459,63.75907003611941,62.81182366475353,60.474884845348114,62.82298475920298
33.5,64.37071732495409,63.506905010354586,64.4590700361194,63.506983414082626,61.20758281103322,63.553685302499616
34.5,65.07071732495409,64.17150800786938,65.14611540654961,64.1837291047636,61.93158326287643,64.2417225956937
35.5,65.80228461396018,64.87150800786937,65.84611540654961,64.88372910476359,62.6736529569385,64.95434033734519
36.5,66.50228461396017,65.57150800786938,66.54479812098769,65.62070188121241,63.43997222332716,65.66920312316272
37.5,67.23663575667187,66.30690501035458,67.2447981209877,66.32070188121243,64.15835599382345,66.38667938301586
38.7,67.96845083805432,67.07150800786938,67.97331062323636,67.0207018812124,64.91959694855677,67.12144244717152
40.0,68.66845083805431,67.77150800786939,68.67331062323636,67.7207018812124,65.6344419935872,67.82323338239856
41.2,69.36845083805433,68.47150800786939,69.37331062323636,68.42070188121241,66.38383488503912,68.52923111874958
42.5,70.06845083805432,69.17150800786939,70.07331062323637,69.12070188121241,67.10789482493607,69.23217446454179
43.7,70.76845083805433,69.87150800786937,70.71739302852534,69.82070188121241,67.81926920310268,69.92006779210048
45.0,71.46845083805432,70.53821129888743,71.40229476693692,70.47680320017618,68.55147112615111,70.60530795744098
46.2,72.13435140868503,71.20690501035459,72.07397253892371,71.17680320017618,69.27817848716755,71.28739684204588
47.5,72.80076749445561,71.87150800786937,72.70229476693693,71.79805014496486,69.97213276280112,71.93905811819009
48.7,73.43513059177984,72.5069050103546,73.37397253892372,72.45821281202574,70.62551746464247,72.58996236514454
50.0,74.06845083805433,73.13821129888743,74.00229476693693,73.09805014496486,71.34434625665924,73.23393017333399
51.5,74.70076749445563,73.77387961222819,74.60229476693694,73.69805014496485,71.99873528233853,73.85582805867904
53.0,75.26845083805433,74.30690501035458,75.20229476693693,74.29805014496486,72.6342552424684,74.43958295012547
54.5,75.83513059177984,74.90690501035459,75.75907003611941,74.8795506777773,73.23004837635364,75.01710824698172
56.0,76.36845083805433,75.47387961222817,76.32979499755905,75.43820413572708,73.85465150980991,75.5829561481395
58.0,76.93513059177984,76.00690501035459,76.88748929892041,75.99805014496486,74.44310640273135,76.14257118796351
60.0,77.43513059177982,76.5069050103546,77.40229476693692,76.49805014496486,74.99961236231513,76.65376930084388
61.5,77.90076749445561,77.00690501035459,77.88748929892041,76.99805014496486,75.51944419178659,77.14476928821992
63.0,78.36845083805433,77.47387961222819,78.38748929892041,77.45688018620129,76.00807027251504,77.62118174496196
65.0,78.80306957104251,77.9069050103546,78.80229476693692,77.89805014496487,76.47548573923316,78.05657981218542
67.0,79.23513059177982,78.3069050103546,79.23175513861906,78.29805014496486,76.92149967758384,78.4776198671053
69.0,79.60306957104251,78.7069050103546,79.63175513861906,78.69805014496485,77.3416905962626,78.87283991826095
71.0,79.96845083805432,79.03821129888742,80.00229476693691,79.0568801862013,77.68933512088685,79.22916137364531
73.0,80.26845083805433,79.30690501035458,80.30229476693692,79.33820413572708,78.02522226245317,79.52466213718358
75.0,80.56845083805433,79.60690501035458,80.60229476693692,79.59805014496487,78.31359855105443,79.81535051058596
77.5,80.76845083805433,79.8069050103546,80.80229476693692,79.79805014496488,78.55011437018844,80.02053735891803
80.0,80.90306957104252,79.94283030471973,80.93175513861907,79.93820413572706,78.7606279052883,80.1661234680334
82.5,81.00306957104252,80.0069050103546,81.03175513861906,80.02070188121242,78.8861814830575,80.25971572448147
85.0,81.00306957104252,80.04283030471974,81.04675150375354,80.02070188121242,78.94372020454148,80.27851420219162
87.5,80.93663575667186,79.94283030471973,81.03175513861906,79.92070188121242,78.95020593598096,80.2225982213345
90.0,80.80306957104253,79.74283030471973,80.87525122642457,79.74375958238677,78.85804571679277,80.06926683535825
92.5,80.60306957104252,79.51227178315618,80.70489499373622,79.46516840337087,78.67794123468397,79.85933392476521
95.0,80.33821129888743,79.1489851487955,80.41998423401444,79.08852204138269,78.37750198180217,79.54581697171947
97.5,79.97150800786939,78.78623512455236,80.11998423401444,78.6773889104284,77.97030207020738,79.18215844457805
100.0,79.64044167945492,78.35667255930049,79.81998423401443,78.22669501426712,77.43891400628901,78.78999219865406
103.0,79.30690501035458,77.92758719283593,79.45000634017073,77.76702684154726,76.78574096437386,78.36213944146064
106.0,79.0404416794549,77.59897445130925,79.20489499373622,77.34207582704609,75.97151304784646,77.9899985478831
109.0,78.8404416794549,77.33752777300026,79.00489499373622,77.04513806681017,75.06237763845668,77.67870478050787
112.0,78.7069050103546,77.23752777300028,78.83175513861906,76.90086940526011,74.16829117095723,77.46164880046926
115.0,78.67150800786938,77.23752777300028,78.71704993328868,76.86412506776946,73.28605718754544,77.3382483643395
118.0,78.57150800786938,77.22758719283591,78.58748929892042,76.91766180479466,72.583273425688,77.23167899982838
122.0,78.43663575667186,77.18982856673473,78.4437907541973,76.9334035549047,72.26960777046664,77.13039070608183
125.0,78.16845083805433,77.08219967332303,78.17297191737701,76.86910851874457,72.31017865649686,76.95446570575977
128.0,77.76845083805433,76.77609175449221,77.78748929892042,76.66244965331123,72.6123408055439,76.66746900063067
132.0,77.20306957104253,76.30690501035458,77.25907003611941,76.28078789497029,73.0597061607172,76.25603800125198
136.0,76.60306957104252,75.60690501035458,76.64675150375355,75.69117509502738,73.47252380544276,75.74342391616027
140.0,75.90690501035459,74.80690501035458,76.08086845464632,74.98717399212586,73.7758396807193,75.18928890587944
145.0,75.61227178315617,74.1489851487955,75.90126136965907,74.31542003946673,73.93069491617227,74.85875136765624
150.0,75.85260953202219,74.03752777300028,76.1600593685791,73.98970777185568,73.92124109467778,74.90944895990964
155.0,76.65260953202218,74.63546263134681,76.99817545090703,74.29671504524555,73.7445539246077,75.46590428523702
160.0,77.71592692226706,75.63546263134683,77.95251964068126,75.16847240947524,73.48237970225786,76.29992441169867
165.0,78.71592692226706,76.73546263134682,78.87848478147016,76.20523554107982,73.32272908305099,77.19381889546754
170.0,79.4457671943847,77.5950645803583,79.57848478147015,77.07460295806011,73.28867549083775,77.90368387997702
175.0,79.84576719438469,78.08219812790055,79.99366590096783,77.57604918841146,73.42182229149805,78.32358017255635
180.0,79.87609175449221,78.23752777300028,80.03924275721991,77.81795240374898,73.79558948555218,78.44113159871935
185.0,79.7457671943847,78.16588846059686,79.92940676691629,77.7508253968645,74.41202160711055,78.3941569114106
190.0,79.58219967332303,77.96588846059689,79.82940676691626,77.57821003569008,75.07104821549235,78.31202268749678
195.0,79.75260953202216,77.9096325668162,79.98847217927516,77.48269339323856,75.6631819192926,78.43661901081849
200.0,80.25260953202218,78.26194867563764,80.5136394060688,77.6530830307792,75.99339675305691,78.84868101470059
206.0,80.85260953202219,78.83546263134683,81.1136394060688,78.06380046180355,75.93984307174513,79.35198975370996
212.0,81.41592692226708,79.43546263134682,81.6136394060688,78.5988693866379,75.5203893478698,79.8175315434936
218.0,81.61592692226706,79.72179738688895,81.81363940606882,78.92946279047815,74.84290777546578,79.99439176149453
224.0,81.45260953202218,79.58219812790054,81.66005936857911,78.81541918620563,74.1362220447385,79.81503629789945
230.0,81.06096514237181,78.96194867563766,81.33516047995819,78.23768037266983,73.70975273169877,79.37061347484924
236.0,80.77082970284299,78.2672655885961,81.09485407749126,77.44804442835758,73.50870479293624,78.95634864265377
240.0,80.84314826109434,78.08161208533421,81.2480931247916,77.14469396413904,73.16696332732249,78.93833200101398
250.0,81.20464502318536,78.53776734285542,81.59485407749126,77.6080828219025,72.48835510344568,79.27512877992783
258.0,81.37082970284297,78.9672655885961,81.87455785944566,78.1636956653301,71.68370442801266,79.5441883683403
265.0,81.42179738688895,78.93546263134682,82.0430337046988,78.30419827652369,71.42044825498998,79.62468209262227
272.0,81.53546263134683,78.71792789764851,82.27118930448192,77.97114216079945,71.86268105653441,79.67158974472318
280.0,82.00942248426018,78.92875610128314,82.58147278830732,77.60124852436702,72.25102818403477,79.93455585025937
290.0,82.39506458035831,79.34915203998831,82.78643721525845,77.51248527423292,72.10982889803391,80.18923482963373
300.0,82.05521969308379,79.22875610128314,82.35378373474546,77.15565225519858,71.22969522620335,79.83542798098763
307.0,80.6950645803583,77.80982855556756,81.12076211162325,75.97235661096867,69.6758031034871,78.52516470062154
315.0,78.75866027600834,75.4171947443536,79.39888657798578,73.97244321512103,67.82705603534919,76.59055529485092
325.0,77.37584607527145,73.47277674488686,78.08147278830731,72.26707343913559,66.32882468137885,75.11443660434163
335.0,77.24293979360189,73.73638088039144,77.85968554741491,72.37955536600451,65.50526377257782,75.0127925275476
345.0,78.00942248426018,74.72643297742508,78.68643721525844,73.47853898569367,65.40564217786645,75.85626855684119
355.0,79.21832544184971,75.41904449785342,80.04273131524617,74.26528005747268,65.85586956076298,76.98787713868867
365.0,80.2710674427392,75.86382205324666,81.13871757721681,74.61832884742786,66.39983173154094,77.9004308085612
375.0,80.47106744273917,76.04465953615896,81.42833223333885,74.65962716017313,66.40627704401757,78.11885119848331
387.0,79.7944886893229,75.45872457742296,80.75923203800298,74.03121789116038,65.66466517913717,77.46030317879146
400.0,78.39179815677409,73.8765534603207,79.3574120312225,72.4074650708985,64.28999043450258,76.01641077072847
412.0,76.81395652088274,71.99723594431543,77.81821823412567,70.3729276966073,62.41625040620566,74.37770010000871
425.0,76.19179815677408,71.59265755490993,77.05268458216538,69.65419212021935,60.84800521276385,73.70027775558559
437.0,76.7361070797735,72.19472217650473,77.63377777961884,70.3484441549402,61.29401423730961,74.27860865817534
450.0,77.93753193576904,73.18246753146327,78.96891808825734,71.42486265199841,62.21008105747953,75.50023660455385
462.0,78.88888863538652,73.76382205324666,80.0693013819206,72.21586588462843,62.219722474686634,76.45712944913575
475.0,79.07825745704102,73.39124872640113,80.53244851168354,72.31034955704682,61.67696280536248,76.7070635691202
487.0,79.00851320750932,72.86612501951208,80.56891808825736,72.2392512589698,61.226730500631376,76.64651651130183
500.0,78.75800804769341,72.43669399809313,80.46930138192059,72.09528170079477,61.26673038901875,76.46607534433274
515.0,78.33925752533571,71.42515007718616,80.26413532059087,71.61720777774889,61.9200038525055,76.11605779408931
530.0,78.54273297424511,71.51153589924147,80.3657685524923,71.10536872910289,62.1218527748683,76.21120049620886
545.0,79.05905592381313,72.19441444972205,80.77235924862431,70.70628346986733,62.25578614510606,76.62768397639095
560.0,79.42672208916905,72.35269579506135,81.23472476250839,71.01202810168684,62.283601007273816,77.02471225538021
580.0,80.01101842217598,72.83878621388877,81.92939731148881,71.91452178581919,61.84005913642703,77.67127374974477
600.0,80.39533257014982,73.4234581987282,82.27175802099505,72.62464488291297,61.50879448432076,78.06133424418633
615.0,80.20252973822757,72.83980936753103,82.29880662434398,72.38539775437731,61.70189985896799,77.95992681472173
630.0,79.5422920764254,71.98436225521608,81.7021277073731,71.27356711780845,61.7994079486967,77.30287417547089
650.0,78.62638463906275,71.66082861347981,80.61333764110483,69.5031731433783,62.0019912909472,76.2985077329807
670.0,78.28397949702587,70.98686427957848,80.57824849288797,69.0825959287201,61.565827099599616,76.09983183139964
690.0,79.35297629164799,71.08107444645536,82.05635729242066,70.5676832495984,62.34335638746492,77.36645016567584
710.0,80.81399508116125,72.69590903473029,83.36719067396054,72.00393789868063,63.2690826932905,78.74288758347161
730.0,81.34882433806493,73.74053501177823,84.06719067396054,72.90307922422336,63.56723688201147,79.41486063043712
750.0,81.26091364210784,74.00091389014041,83.99070030987322,73.11316841194426,63.57097053493872,79.3673299733414
775.0,80.39363934264023,73.61719474435358,83.32133325062371,72.58714670180737,63.50619519020839,78.66548485470557
800.0,79.75465901190178,72.89664781293231,82.64290017470402,72.92271239433572,62.991456008616765,78.05309649127766
825.0,79.5668360609759,72.07858264009717,82.57758738107114,72.29497933594726,61.96924604936254,77.87057243195062
850.0,79.2041707691565,72.04090753602632,82.19504000621873,71.23310500485321,61.656953336167376,77.4783492082875
875.0,77.94321230049516,70.46226370149553,81.47927743510803,70.95879596373584,61.01893368864904,76.58422306989384
900.0,77.90785835169017,72.29561715933443,81.09716196954989,71.48769661868734,59.09075205408651,76.48113599250021
925.0,79.33243475604748,73.76570276170649,81.58883793519945,71.82564439852145,58.54813210057894,77.31855412642628
950.0,79.35436996411114,72.93925752533572,81.92477003217324,70.95122807287815,58.27902456181009,77.39968643712487
975.0,78.56123386229756,70.7844476236301,82.25523398141779,68.81517426755933,58.49189421359914,77.16306063389457
1000.0,77.62121590679624,71.85052612831404,82.33882536968918,68.80043880165726,60.80961241303605,77.0462981669373
1030.0,77.9738024293654,74.4625132206552,81.53107638008058,72.16788662791109,62.077192392312526,77.00726092433206
1060.0,79.01458026313014,75.2017460112477,80.81956197620761,74.00153321140924,62.05739196192455,77.16553022564581
1090.0,79.14066681957172,74.58318629029516,81.3549622851471,74.09156894684124,61.40917142259765,77.39458981117735
1120.0,80.10330383828929,75.50146480937387,82.25517964259913,74.25789802844226,61.799137514175484,78.24971682962669
1150.0,80.91395652088273,75.84293492570156,82.63043453637773,73.87091610392618,60.761908398977624,78.69987356736304
1180.0,81.8072270690557,75.18918406427574,83.55267790706385,72.04434115421319,58.89222952326256,79.32503701758758
1220.0,82.75657014803853,76.13403046914816,84.4696503442227,71.1245030756776,58.588201061980996,80.19749224901598
1250.0,82.22320753866266,74.70879341872708,84.09969860250324,70.84498318298712,59.39742063032196,79.69844233502903
1280.0,80.4843622552161,73.95546408520384,83.2421163183545,70.906580134515,60.86429914470753,78.58739607222715
1320.0,79.7692144778937,73.18687662824875,81.98551489022923,70.62727810076791,59.670401171924695,77.57543296491517
1360.0,78.73885478274063,70.92664543441657,81.79049902646837,68.59259044510544,58.77903628155988,76.92296748373717
1400.0,78.75002917385903,72.27617418613407,81.51026077881453,68.8179524806734,58.03395978707094,76.84343366663192
1450.0,78.74507194826725,72.10427632267053,81.50541968014691,68.06620725974872,56.243584271779454,76.80147186989203
1500.0,77.10553627912041,71.23546091849049,80.92748991864488,65.50275928718446,54.42431013949535,75.84958785802087
1550.0,76.62790007353128,71.83964531976001,80.21424424581895,65.87891042645833,55.56524771674388,75.32923663684262
1600.0,76.70722417372365,73.5523523256542,79.5538722737269,68.96476066841431,56.077918624531364,75.26422085583226
1650.0,78.95159316859873,74.23115197647014,78.79993264996436,69.50396804778102,56.24761613857574,75.80338919782746
1700.0,79.42042427558204,71.66091364210784,78.99576875717378,67.61780151636819,56.34733456981574,75.74564250142528
1750.0,79.86463261459788,70.64452417682413,80.86413720534448,68.29649777833728,57.359444768954845,76.7732572059527
1800.0,78.73902538151331,68.73718737242099,80.72701493959241,66.9218884462144,59.04369459080466,76.15370839816983
1850.0,78.92783751806047,71.74870006333806,80.34610863781806,69.95338061263281,60.551170153832715,76.28196587713141
1900.0,78.94264565432186,72.30427632267052,79.27135356376743,70.19486066725487,60.48446265768331,75.8324643498009
1950.0,79.84293492570157,72.29337099324437,80.93589877676216,70.49852142217544,58.946377846987716,76.98019722133607
2000.0,79.69641043056626,71.11378546682992,81.91964864673676,69.2629551509377,57.55673038285745,77.33621842318698
2060.0,79.86463261459788,69.81604515502961,82.65190049196993,68.07176660570788,56.587712146507855,77.7458217444201
2120.0,79.86812895785312,70.10190235499849,82.61153834498377,69.05678748630248,55.71446514143277,77.75423145173845
2180.0,80.64456013056277,72.19643568420723,82.66653567131172,70.77108989733685,55.04128301099628,78.19047843930694
2240.0,80.79955698518822,73.40191445428934,82.00450029681943,71.0218211411709,54.376797640460936,77.9751918122124
2300.0,81.2488243380649,72.76548441747306,82.15760227255548,69.5934820293482,51.302631937374215,78.13991260752047
2360.0,79.28657023787737,69.61772155339538,81.1116486518673,66.24078944762061,49.39789773212702,76.57962618623436
2400.0,78.30922325566851,66.80466902024482,81.06193776126638,64.23980223153079,50.890654256893285,76.08572188381386
2500.0,76.7658089407434,63.50204404422746,81.47360370104782,65.61601133210867,52.01395247352569,75.88671546188591
2580.0,77.51816823227762,65.51518511433086,81.56744789827322,67.83554989739407,52.00432523545429,76.22688104609898
2650.0,77.58224628277011,65.72249530256222,81.43048628864847,66.90071815958262,50.35787055294436,76.12914970690241
2720.0,76.39104243873759,63.417016532358275,81.672560165408,65.04864727096714,48.83416970976096,75.93311758482392
2800.0,77.56703745847467,66.63696012594369,81.74452482404571,66.4747128246162,49.48257125094652,76.34847050222788
2900.0,77.46713692014892,66.46024099189508,81.7575332892103,67.09714753131789,49.05904108262784,76.34125336660874
3000.0,79.40523985907176,71.98456243414707,81.43670794262304,68.78572074156463,49.865044790948545,76.98730437348887
3070.0,79.59234482967035,72.79257377748324,81.90384740009567,67.6990284585023,52.91514140215993,77.3426240780537
3150.0,79.6429411441418,72.8836832566953,82.96379257708948,65.52395326106227,52.724249491210614,77.9679257922533
3250.0,79.3094245587272,72.45614315194662,83.28706866874381,64.44762898665678,51.48084817136693,78.04805196485886
3350.0,79.38534601569602,72.93243475604747,83.1988325345401,63.937149195391555,52.57578041796084,78.03426791955688
