Freq "Side Wall Bounce"
22.4 50.79661814007905
23.0 51.620275747771004
23.6 52.464431192829224
24.0 53.267775952041674
25.0 54.09069873013719
25.8 54.8361964735348
26.5 55.63619647353478
27.2 56.3361964735348
28.0 57.09550774166688
29.0 57.8361964735348
30.0 58.57893214270561
30.7 59.29550774166687
31.5 59.995507741666856
32.5 60.73334265209532
33.5 61.428502401424424
34.5 62.105248092105384
35.5 62.80524809210539
36.5 63.54222086855421
37.5 64.2422208685542
38.7 64.9422208685542
40.0 65.6422208685542
41.2 66.34222086855421
42.5 67.04222086855421
43.7 67.74222086855421
45.0 68.39832218751796
46.2 69.09832218751798
47.5 69.71956913230666
48.7 70.37973179936753
50.0 71.01956913230664
51.5 71.61956913230665
53.0 72.21956913230666
54.5 72.80106966511909
56.0 73.35972312306886
58.0 73.91956913230665
60.0 74.41956913230665
61.5 74.91956913230665
63.0 75.37839917354309
65.0 75.81956913230665
67.0 76.21956913230663
69.0 76.61956913230665
71.0 76.97839917354308
73.0 77.25972312306885
75.0 77.51956913230664
77.5 77.71956913230665
80.0 77.85972312306886
82.5 77.9422208685542
85.0 77.9422208685542
87.5 77.84222086855421
90.0 77.66527856972854
92.5 77.38668739071265
95.0 77.01004102872447
97.5 76.59890789777019
100.0 76.1482140016089
103.0 75.68854582888905
106.0 75.26359481438787
109.0 74.96665705415195
112.0 74.8223883926019
115.0 74.78564405511126
118.0 74.83918079213645
122.0 74.8549225422465
125.0 74.79062750608635
128.0 74.58396864065303
132.0 74.20230688231207
136.0 73.61269408236917
140.0 72.90869297946763
145.0 72.2369390268085
150.0 71.91122675919745
155.0 72.21823403258735
160.0 73.08999139681701
165.0 74.12675452842161
170.0 74.99612194540188
175.0 75.49756817575324
180.0 75.73947139109077
185.0 75.67234438420628
190.0 75.49972902303188
195.0 75.40421238058036
200.0 75.57460201812098
206.0 75.98531944914534
212.0 76.52038837397969
218.0 76.85098177781994
224.0 76.73693817354743
230.0 76.1591993600116
236.0 75.36956341569937
240.0 75.06621295148081
250.0 75.52960180924428
258.0 76.08521465267188
265.0 76.22571726386549
272.0 75.89266114814123
280.0 75.5227675117088
290.0 75.43400426157469
300.0 75.07717124254035
307.0 73.89387559831046
315.0 71.8939622024628
325.0 70.18859242647736
335.0 70.3010743533463
345.0 71.40005797303546
355.0 72.18679904481446
365.0 72.53984783476965
375.0 72.58114614751491
387.0 71.95273687850215
400.0 70.32898405824028
412.0 68.2944466839491
425.0 67.57571110756115
437.0 68.26996314228198
450.0 69.34638163934018
462.0 70.13738487197021
475.0 70.23186854438859
487.0 70.16077024631159
500.0 70.01680068813656
515.0 69.53872676509069
530.0 69.02688771644469
545.0 68.62780245720911
560.0 68.93354708902862
580.0 69.83604077316099
600.0 70.54616387025476
615.0 70.3069167417191
630.0 69.19508610515022
650.0 67.4246921307201
670.0 67.00411491606188
690.0 68.4892022369402
710.0 69.92545688602242
730.0 70.82459821156516
750.0 71.03468739928606
775.0 70.50866568914917
800.0 70.8442313816775
825.0 70.21649832328903
850.0 69.154623992195
875.0 68.88031495107764
900.0 69.40921560602914
925.0 69.74716338586325
950.0 68.87274706021996
975.0 66.7366932549011
1000.0 66.72195778899905
1030.0 70.08940561525286
1060.0 71.92305219875101
1090.0 72.01308793418303
1120.0 72.17941701578403
1150.0 71.79243509126796
1180.0 69.96586014155496
1220.0 69.04602206301938
1250.0 68.7665021703289
1280.0 68.82809912185678
1320.0 68.5487970881097
1360.0 66.51410943244724
1400.0 66.7394714680152
1450.0 65.98772624709052
1500.0 63.424278274526245
1550.0 63.8004294138001
1600.0 66.88627965575611
1650.0 67.4254870351228
1700.0 65.53932050370999
1750.0 66.21801676567905
1800.0 64.84340743355618
1850.0 67.8748995999746
1900.0 68.11637965459664
1950.0 68.42004040951721
2000.0 67.18447413827947
2060.0 65.99328559304965
2120.0 66.97830647364427
2180.0 68.69260888467862
2240.0 68.9433401285127
2300.0 67.51500101669
2360.0 64.16230843496241
2400.0 62.16132121887257
2500.0 63.537530319450454
2580.0 65.75706888473587
2650.0 64.82223714692442
2720.0 62.97016625830892
2800.0 64.39623181195799
2900.0 65.01866651865967
3000.0 66.70723972890642
3070.0 65.62054744584407
3150.0 63.44547224840407
3250.0 62.36914797399858
3350.0 61.85866818273335
3450.0 67.29959668728655
3550.0 68.43766331559867
3650.0 67.17467675994732
3750.0 67.22278268295383
3870.0 64.73078510993658
4000.0 66.00985592814042
4120.0 65.0262587411226
4250.0 64.97956578052089
4370.0 66.77038199806357
4500.0 64.62972504683638
4620.0 65.77786601052419
4750.0 64.4111082009843
4870.0 65.60771750480409
5000.0 66.07312235784785
5150.0 65.57982059082404
5300.0 64.85435698847967
5450.0 61.98107176998339
5600.0 62.58206500821217
5800.0 63.93645341132924
6000.0 63.023318201039274
6150.0 61.0216504727082
6300.0 60.6556343086167
6500.0 59.66926919672211
6700.0 60.47198739235205
6900.0 62.22695472512707
7100.0 62.42076590418114
7300.0 64.06429379722464
7500.0 62.945526151909334
7750.0 61.9698179140632
8000.0 62.32697032288539
8250.0 61.494408246204515
8500.0 60.56468464319387
8750.0 60.77404025857838
9000.0 61.371810177485386
9250.0 62.85129862008884
9500.0 62.433686320277644
9750.0 61.07379364628166
10000.0 61.06651738328863
10300.0 62.00327929353237
10600.0 64.80255158863146
10900.0 63.773426384395435
11200.0 63.00258009601265
11500.0 62.35449602538942
11800.0 62.24044765584344
12200.0 61.57444007905222
12500.0 61.80386742811474
12800.0 60.84068804111111
13200.0 60.608506883701395
13600.0 61.41489549360624
14000.0 61.05361118031392
14500.0 60.6631258557904
15000.0 60.687741839175985
15500.0 61.05198163404819
16000.0 61.224799895831225
16500.0 60.64505711359941
17000.0 59.34730663900373
17500.0 58.523869779008976
18000.0 56.60873702007082
18500.0 53.77710576304624
19000.0 52.346685720427175
19500.0 46.590064015945174
