Freq,Floor Bounce,Ceiling Bounce,Front Wall Bounce,Side Wall Bounce,Rear Wall Bounce,Total Early Reflection
22.4,-4.864869408220187,-4.3930949896454194,-5.185572536602507,-4.899427317482775,-4.824555083944517,-4.825986881753579
23.0,-1.0315491619456623,1.1715080078693632,-0.36908015674703165,-0.1722045796324494,-0.1523140679765902,-0.04943985321733635
23.6,1.1999999999999886,2.37150800786938,1.4180558905938767,1.5930757467863828,1.8317490293354126,1.7018147448286243
24.0,2.0007674944556015,2.8382112988874155,1.9431393953378233,2.1829748583115247,2.458234404576558,2.2973838549416428
25.0,3.4030695710424936,3.203069571042505,2.8786286971583195,3.2174996392940614,3.464713826881649,3.238167128566431
25.8,4.400000000000006,5.9069050103545635,4.574657654914205,4.932398573481322,5.175979995690653,5.030986621044008
26.5,6.400767494455636,7.37150800786938,6.372663677109699,6.738603718797549,6.981813683556766,6.789408857275305
27.2,7.735130591779836,8.303069571042528,7.55742449135812,7.861664799506741,7.824528405965623,7.863484627483956
28.0,9.966921851160492,11.238211298887421,10.135082059566514,10.34282328854863,10.273109848913066,10.41468012086068
29.0,11.866921851160498,13.071508007869397,12.0180558905939,12.183601701195784,12.100550090174067,12.269758282345151
30.0,14.53358982687999,15.403069571042494,14.571993849974149,14.71286577407443,14.580034699137059,14.773049984449216
30.7,16.19999999999999,17.10306957104251,16.257756674645293,16.43671651181492,16.279710512446968,16.468655963761762
31.5,18.566921851160487,19.168450838054298,18.557756674645304,18.663280217992906,18.46542292543967,18.69173824024614
32.5,20.46692185116052,21.03513059177982,20.443139395337823,20.551208793850577,20.34641859214645,20.575474027309184
33.5,22.80000000000001,23.30076749445564,22.80000000000001,22.87070470559084,22.646033458450603,22.889235856448124
34.5,24.53358982687999,24.900767494455636,24.457424491358154,24.56027588070907,24.318731285196634,24.55847494818798
35.5,26.400000000000006,26.868450838054343,26.41442746339746,26.461427071536008,26.210214772211998,26.476377581364375
36.5,28.766921851160504,29.100767494455624,28.69999999999999,28.750287816778496,28.545059664560625,28.776453536010933
37.5,30.83358982688,31.20076749445562,30.80000000000001,30.85028781677849,30.633772658945844,30.867680857777884
38.7,32.8669218511605,33.16692185116048,32.82880715674531,32.85028781677849,32.59783514161458,32.865948590102875
40.0,35.0,35.16692185116051,34.92880715674528,34.96096768959768,34.69250789112505,34.95250976033836
41.2,36.766921851160504,36.96692185116052,36.69999999999999,36.75028781677847,36.45558821561673,36.73101972623755
42.5,38.8669218511605,39.16692185116048,38.88585448910237,38.86050825906233,38.63930109481544,38.88715681220492
43.7,41.06692185116049,41.266921851160504,41.04313939533782,41.05028781677848,40.8072630225393,41.049347960300054
45.0,43.16692185116048,43.36692185116053,43.14313939533781,43.14027672897046,42.89152498165578,43.144373200792415
46.2,45.599999999999994,45.80000000000001,45.599999999999994,45.5702410264216,45.296371109423035,45.57628764000424
47.5,47.599999999999994,47.83358982687997,47.614427463397476,47.620185055415874,47.41172897987116,47.61804663736615
48.7,49.766921851160504,49.93358982687997,49.80000000000001,49.75028781677847,49.57439430983314,49.76655926738525
50.0,51.80000000000001,51.96692185116052,51.814427463397465,51.74073299106129,51.382068571851335,51.745115893132294
51.5,54.099999999999994,54.19999999999999,54.099999999999994,54.04027672897047,53.73341181447404,54.03761467670708
53.0,56.19999999999999,56.30000000000001,56.19999999999999,56.15028781677847,55.89055606268917,56.150327924874546
54.5,58.400000000000006,58.5,58.400000000000006,58.32041425029581,58.05437732789176,58.33756771837298
56.0,60.400000000000006,60.5,60.457424491358154,60.38018335884988,60.111973522697895,60.37201228521285
58.0,62.46692185116049,62.599999999999994,62.5,62.43024251089325,62.14899354644395,62.431829965095886
60.0,64.4,64.56692185116049,64.5,64.40023026257853,64.1383231874232,64.4035210299002
61.5,66.4,66.6,66.5,66.42018505541589,66.22702444325283,66.43118631658282
63.0,68.33358982687997,68.4,68.4,68.31033398215007,68.10084827545623,68.31033412861821
65.0,70.19999999999999,70.3,70.21442746339746,70.13047117562834,69.9009722664808,70.1512617403038
67.0,71.86692185116051,72.0,71.94313939533782,71.84027672897047,71.58497091767053,71.84938073514289
69.0,73.4,73.5,73.48585448910237,73.38041467447778,73.16903530085021,73.38866463415697
71.0,74.93358982687997,75.0,75.0,74.9204142502958,74.67974671417619,74.9083402468883
73.0,76.16692185116051,76.23358982687998,76.21442746339747,76.11056369748752,75.89018884442972,76.12488991767636
75.0,77.33358982687997,77.4,77.4,77.28041467447778,77.06379188131675,77.29731911966219
77.5,78.33358982687997,78.4,78.4,78.29056454574895,78.07962495191838,78.30234697487782
80.0,79.2669218511605,79.33358982687999,79.35742449135816,79.19056454574894,78.99006737458818,79.2297088722695
82.5,80.0,80.0669218511605,80.08585448910239,79.96050825906232,79.73735085147645,79.9719035910988
85.0,80.63358982687998,80.7,80.74313939533782,80.59056454574895,80.3687911715266,80.60915381444494
87.5,81.23358982687998,81.29999999999998,81.34313939533781,81.18064597778591,80.9686691017184,81.20715726951381
90.0,81.6669218511605,81.73358982687998,81.78585448910238,81.61102844176084,81.41099808459467,81.64359813915985
92.5,82.06692185116049,82.13358982687998,82.18585448910238,82.01102844176084,81.81642633231375,82.04462769429867
95.0,82.43358982687997,82.46692185116049,82.50032894280355,82.32110710001655,82.13735085147644,82.37384371467303
97.5,82.70076749445562,82.76692185116049,82.80032894280355,82.62110710001653,82.38982442471232,82.65823293351743
100.0,82.93358982687998,82.93358982687998,82.98585448910238,82.82110710001653,82.61087719539236,82.85905947877166
103.0,83.13358982687998,83.13358982687998,83.20032894280357,83.02110710001654,82.85817503850105,83.07101161838837
106.0,83.23358982687998,83.23358982687998,83.32913392494288,83.12110710001653,82.96342523977168,83.17796132446037
109.0,83.30076749445561,83.2669218511605,83.38585448910237,83.18133993642205,82.9846060598315,83.22602477418037
112.0,83.43358982687997,83.3669218511605,83.52913392494287,83.30115655304873,83.10060592794656,83.34865892715737
115.0,83.43358982687997,83.43358982687997,83.5716627539189,83.32110710001655,83.13230961291933,83.38090862975824
118.0,83.53358982687996,83.50076749445562,83.65774911351315,83.38179716861285,83.17938141716078,83.45364514984028
122.0,83.60076749445561,83.56692185116049,83.72913392494289,83.43232160096682,83.20580511467111,83.51060035920403
125.0,83.66692185116051,83.60076749445561,83.75774911351313,83.46234593316878,83.22678074647122,83.54682156547567
128.0,83.7007674944556,83.60076749445561,83.82913392494288,83.50345351146744,83.23711053242435,83.5788237138701
132.0,83.76692185116049,83.60076749445561,83.85774911351314,83.50345351146744,83.23711053242435,83.59857314807584
136.0,83.80076749445563,83.60076749445561,83.87231738497823,83.50345351146744,83.2476555565489,83.61066143392833
140.0,83.80076749445563,83.60076749445561,83.92913392494287,83.51427092071017,83.26379188131675,83.62786294994194
145.0,83.80076749445563,83.66845083805433,83.95774911351313,83.55535223900303,83.24238624500815,83.65162501038982
150.0,83.90076749445562,83.66845083805433,83.95774911351313,83.58387852809629,83.24238624500815,83.6780817037898
155.0,83.90076749445562,83.66845083805433,83.97231738497823,83.54511964131137,83.25340572662846,83.67563804900188
160.0,83.90076749445562,83.63513059177983,83.98683695097148,83.5250290776792,83.22209458611567,83.66255343650549
165.0,83.86845083805433,83.63513059177983,83.98683695097148,83.5151889984021,83.20145697133427,83.65010810152184
170.0,83.86845083805433,83.63513059177983,83.98683695097148,83.46512273933648,83.12775545156063,83.6272152502045
175.0,83.80076749445563,83.56845083805433,83.94346508697899,83.43554822706392,83.05914550861527,83.57222101410832
180.0,83.76845083805433,83.53513059177983,83.9297799508283,83.36720780673343,82.99661651852813,83.53145999274005
185.0,83.66845083805433,83.46845083805432,83.88683695097149,83.27786776995234,82.89698043308857,83.45281252402839
190.0,83.56845083805433,83.36845083805431,83.7726484311316,83.12873114400082,82.6918893230909,83.32191463881202
195.0,83.46845083805432,83.20306957104252,83.65905509047515,82.98964854692655,82.54984632585517,83.19099448654688
200.0,83.36845083805431,83.00306957104253,83.5297799508283,82.83012039042436,82.38715697660298,83.04236927721706
206.0,83.23513059177982,82.90306957104251,83.4444421880207,82.68132691824479,82.2304297368541,82.9195048711249
212.0,83.10306957104252,82.77150800786939,83.27361898907654,82.50485948689163,82.0304297368541,82.75887155465622
218.0,82.86845083805433,82.50306957104252,83.05905509047517,82.26363386500536,81.73670645187853,82.51082771268426
224.0,82.70306957104252,82.27150800786937,82.88813421139209,82.00647097389262,81.41660490748562,82.28810617860417
230.0,82.60306957104251,82.07150800786937,82.78813421139208,81.85914202503605,81.17427689532812,82.13636732771504
236.0,82.50306957104252,81.87150800786938,82.64510093472825,81.65064003833024,80.96536100584117,81.96907549033547
240.0,82.33663575667187,81.70690501035459,82.5317328344666,81.47479097095325,80.70879088695523,81.79956757752096
250.0,82.27150800786937,81.54283030471974,82.46033851710708,81.33380268028074,80.3511707018791,81.6551209654859
258.0,82.20306957104253,81.41227178315619,82.41862915413242,81.25550328023544,80.22465279037085,81.57071177630954
265.0,82.10306957104252,81.24283030471973,82.31769047133514,81.07715467156608,80.05214979827855,81.43203783386201
272.0,81.97150800786937,81.07609175449221,82.15971162456,80.91762988210442,79.82209028847257,81.26787373826843
280.0,81.77150800786939,80.88219967332304,82.00327386173457,80.68072393933853,79.51727023510995,81.05815651416606
290.0,81.67150800786939,80.71227178315618,81.87461192973443,80.5167911459805,79.20802750989681,80.89701336029874
300.0,81.54044167945491,80.58219967332305,81.74638849111075,80.40360346746296,79.08173832995531,80.77077796433373
307.0,81.37150800786938,80.48219967332304,81.64638849111074,80.30666287413413,79.01552118862328,80.6595934731598
315.0,81.37609175449221,80.4489851487955,81.6762292462144,80.14913745698158,78.7817285373211,80.60175302007231
325.0,81.34044167945491,80.21916705502754,81.59073576156004,80.03108124071146,78.56367490166835,80.47764373744138
335.0,81.2404416794549,80.11916705502753,81.51963474575119,79.91791522411346,78.30406318856411,80.36256683454562
345.0,81.1760917544922,80.0566725593005,81.49073576156005,79.8365700590432,77.95148734236803,80.2699865410788
355.0,81.1760917544922,79.95667255930051,81.53465014071753,79.8143180591896,77.67303513550621,80.226996994919
365.0,81.2122717831562,79.86096514237182,81.54831996303515,79.8167537977478,77.526625730076,80.2063508780647
375.0,81.1760917544922,79.72758719283591,81.49073576156005,79.74288861421671,77.45264645180825,80.13554096765547
387.0,81.2122717831562,79.79897445130925,81.591073084902,79.73697534630085,77.4433368732115,80.1832691696828
400.0,81.2122717831562,79.73752777300028,81.59170996321623,79.67779578923901,77.33203122651861,80.14984502774404
412.0,81.08219967332305,79.54898359150843,81.50684500366415,79.44950921363541,77.00273751942063,79.98395238550741
425.0,80.88219967332304,79.62179738688896,81.46491864863073,79.39361456180471,77.00183914743855,79.92473383457192
437.0,80.86096514237182,80.12179738688894,81.79429573932319,79.4816210781591,76.92209854881767,80.11912120729164
450.0,81.00963256681621,80.62179738688896,82.22406643185523,79.8992556816755,76.90659638577854,80.4548364565455
462.0,81.0489835915084,80.98219812790056,82.32406643185524,80.04111687675403,76.80195205758847,80.58655183757269
475.0,80.73546263134682,81.37082970284297,82.35684980393708,80.10441861476137,76.55009013275135,80.60886189353411
487.0,79.82526453928848,81.7234968506598,81.97142108736452,79.96521696117368,76.44952754856602,80.37883676048625
500.0,79.67662798253905,81.28982856673473,81.34831996303517,79.61712065616476,76.07419798624086,79.96396811314358
515.0,80.22758719283593,80.78219967332305,81.3317328344666,79.6455352364412,75.93164096476649,79.9330543835478
530.0,80.69897445130925,80.29897445130925,81.74607766783814,79.82795437300133,75.66440666722214,80.06075089311544
545.0,80.79897445130925,80.1096325668162,81.83271257836935,79.91049024914922,75.30474628445012,80.06154943227764
560.0,80.9096325668162,79.98219812790055,81.98879404668057,80.22296723409825,74.97359313856586,80.1508387784434
580.0,80.70963256681621,79.94898359150841,81.98879404668057,80.33465324577298,74.88380585376446,80.1153829314955
600.0,80.8552196930838,80.02179738688895,82.17525122642458,80.36943188111562,75.00689152793984,80.23528534836038
615.0,80.78219812790056,79.82179738688896,82.04607766783812,80.28168241802817,74.7937068516295,80.10936471134379
630.0,80.68219812790056,79.73546263134682,81.97461192973442,80.30558093865704,74.61883723329039,80.04253145192679
650.0,80.7552196930838,79.65062128010362,82.07525122642457,80.40668191316476,74.86091841896265,80.11118309323848
670.0,80.6950645803583,79.55062128010366,82.11834583164506,80.38614775059762,74.89149518721473,80.09055536193328
690.0,80.7094224842602,79.70034112939828,82.23271257836936,80.47628151752332,74.90394437987146,80.17711763071821
710.0,80.80034112939828,79.7672655885961,82.64963652984531,80.85779280022409,74.93724313515384,80.43036698510015
730.0,80.66136837622763,79.78538710465898,82.81998423401444,81.0635277119737,75.25674972923531,80.52577681725508
750.0,80.45865724017871,79.72875610128314,82.74933300911412,80.99889911869646,75.21103959155317,80.43345166358934
775.0,80.20473949550548,80.02875610128314,82.87949971036133,81.0282327640971,75.13663113941894,80.48367855120489
800.0,79.63638088039146,80.26136837622764,82.73924275721993,80.73192603087585,74.93643613586678,80.29862585233218
825.0,78.70851320750933,80.16136837622764,82.26688668697375,80.18713146389943,74.27924394112729,79.80263889001932
850.0,77.90722706905572,79.96136837622764,81.96910435091777,79.81950303556289,73.89921378809349,79.43211659410728
875.0,77.34878700732918,79.62602452356691,81.75932909922398,79.36110523914012,73.52598370934689,79.08319622931798
900.0,77.15592043373775,79.7033038382893,81.90433100962667,79.20791485048699,73.21051008056938,79.08115024694196
925.0,76.98859177923461,79.72643297742508,82.22294230691988,79.37679313561136,73.23688894481916,79.22646075993704
950.0,76.60996605888053,79.84852015458806,82.28133525403342,79.2207954160831,73.0761489308273,79.19458058688772
975.0,76.11206543822881,80.14852015458806,82.18283194581124,79.05570082748392,72.99086304906942,79.1381713185333
1000.0,74.78591413862914,80.40330383828929,81.80368082506436,78.54294827338799,72.83976071139065,78.83145042021124
1030.0,74.49993506837711,80.00473949550548,81.44707383741773,78.21667086820975,72.50917780690963,78.47547048345875
1060.0,75.2283183746752,79.55648313414828,81.53030536698873,78.13330124970858,72.15737935846465,78.41810574666994
1090.0,75.88397949702585,79.04449659419708,81.4745713510589,77.91733143577645,71.83809796059946,78.28165080068466
1120.0,76.52057765478033,78.90994607707172,81.74721382321846,78.06396717452186,71.93541815561824,78.47397112234611
1150.0,77.0223915743246,79.35872457742298,82.19085081841871,78.28146513391013,72.0887286742308,78.87342893580413
1180.0,77.2308800341432,79.68230649956844,82.35613494728727,78.35367473317041,72.187805628692,79.06155361953608
1220.0,77.98318629029515,79.7017460112477,82.25496037582865,78.14192586879983,71.57345907358427,79.07244945420756
1250.0,78.59389595883673,79.53308937677079,81.9539464655092,77.90032845900625,71.32627683405846,78.96748588478638
1280.0,79.04258273663015,79.56493035341096,81.71421568373935,77.78053086311198,71.40549006724098,78.95297232650286
1320.0,79.28382334167594,78.86382205324666,81.9480432658876,78.4047838933342,72.3531499041669,79.08306491863144
1360.0,79.45062128010365,77.86506011325957,82.28932835534613,79.47180606410276,73.47476331113684,79.339894956914
1400.0,81.19506458035829,79.02545420369874,82.97106329434989,79.48753707801541,72.92439207786556,80.15573402200016
1450.0,82.27717895989804,79.61326997082844,82.98054354979544,78.37878198228532,70.88974361969903,80.33559199771548
1500.0,82.57215664893684,79.6713175143374,82.60671016889617,77.44561597623189,69.50220608409867,80.17217972454159
1550.0,82.5210416629875,79.85131759580825,82.782046197001,77.49525489324499,69.22983016301313,80.25005590376345
1600.0,82.21430637862282,79.66226370149553,83.35147588371923,77.98684498275261,69.45918469406628,80.39099665204851
1650.0,81.86668552790022,79.09080616590045,83.4244079409196,77.98246311331644,69.83841718092916,80.23083402035019
1700.0,81.75858760124326,78.99265755490995,82.64037598944492,77.19894780734458,69.3751737131172,79.76823106172458
1750.0,81.34314683892156,78.46082861347982,81.89601060963058,76.32873767024073,68.43680348186223,79.14935073625551
1800.0,80.76668408046665,77.85493991248688,82.10709638710534,76.31875497719204,67.6694728892471,78.93724857655627
1850.0,80.27215664893683,77.6282115720272,82.34037598944494,76.43640208876141,67.05702148554606,78.8637097501406
1900.0,79.59408963790565,77.31192126753355,81.48339381191835,75.91563580274128,66.76680903272586,78.18802652477997
1950.0,78.72926530883569,77.31152326304965,80.37703642681718,75.1951734136625,65.81073500213333,77.39470009745226
2000.0,78.00986628672328,76.87383513626847,80.48539809890559,75.30019998798637,65.78529051650817,77.18374085864546
2060.0,78.1054240073266,77.20901938276998,81.04816129620599,74.8449656538101,64.88401820917822,77.45270222007917
2120.0,77.93183881345315,77.59780984381857,80.78182235557236,74.19716975158751,64.49166982675206,77.29894997807824
2180.0,77.3888837796346,76.79265755490997,80.49319108052394,74.08842303000432,64.48604733206567,76.86755476295443
2240.0,76.79215915969807,75.72285985267754,80.47074906634518,74.00817289680616,64.33237596998592,76.52155033666796
2300.0,76.22821157202719,74.78272006052921,79.58496805798701,73.15522633522966,63.345439435869594,75.6998989981547
2360.0,75.45405093453076,73.81851550199947,79.2923517781132,72.69673169073188,62.53897233658506,75.17364710806575
2400.0,74.79913536951436,73.20089436543526,79.6616855728753,73.20960169990137,62.67137337572976,75.22145578529438
2500.0,74.64413052381576,73.6687693989117,78.89239023090973,72.70539928656609,61.75946107190926,74.77241493536509
2580.0,74.56194867563767,73.55906263657509,78.76238761162,72.90389057114328,62.11072503669058,74.7019827333612
2650.0,75.15355116220061,73.59215915969807,79.28172338597693,73.33352550451923,62.415103476167886,75.15008959319903
2720.0,75.9194260042461,74.51152326304965,78.63735687783515,72.30329030574057,61.26206054248654,75.01715266346031
2800.0,76.3535511622006,74.36001642302816,78.79981965796135,72.58156310373757,61.72081493575503,75.20975405530041
2900.0,76.86310810471056,74.32712108809375,79.45700947082668,72.77315697108266,61.866537589093724,75.66717608249292
3000.0,77.29503865849018,74.74913385654654,79.1269120022773,71.80382053952712,61.71333512719558,75.6088807681619
3070.0,77.59141809464185,75.06355877122027,79.45357193427813,72.13832208329396,61.66820519040547,75.92236545156322
3150.0,78.07436617787408,75.11116081759258,80.18468132222402,72.6569236220029,62.17007970283623,76.45535298201975
3250.0,78.50049345838576,75.53451276341988,80.21428051409957,72.64811453432587,62.357395436632984,76.66041035525461
3350.0,79.17106744273917,76.22821508991026,80.92435834875167,73.19254483903315,63.115152022349776,77.34331835335134
3450.0,79.54090753602631,76.28910921343738,81.0040519301284,73.30156949927147,63.127899248007566,77.51235929790185
3550.0,79.37100612011483,76.28230649956842,81.12043523631321,73.45801834662558,62.79235516732433,77.52060524324136
