Freq "Ceiling Bounce"
22.4 -4.3930949896454194
23.0 1.1715080078693632
23.6 2.37150800786938
24.0 2.8382112988874155
25.0 3.203069571042505
25.8 5.9069050103545635
26.5 7.37150800786938
27.2 8.303069571042528
28.0 11.238211298887421
29.0 13.071508007869397
30.0 15.403069571042494
30.7 17.10306957104251
31.5 19.168450838054298
32.5 21.03513059177982
33.5 23.30076749445564
34.5 24.900767494455636
35.5 26.868450838054343
36.5 29.100767494455624
37.5 31.20076749445562
38.7 33.16692185116048
40.0 35.16692185116051
41.2 36.96692185116052
42.5 39.16692185116048
43.7 41.266921851160504
45.0 43.36692185116053
46.2 45.80000000000001
47.5 47.83358982687997
48.7 49.93358982687997
50.0 51.96692185116052
51.5 54.19999999999999
53.0 56.30000000000001
54.5 58.5
56.0 60.5
58.0 62.599999999999994
60.0 64.56692185116049
61.5 66.6
63.0 68.4
65.0 70.3
67.0 72.0
69.0 73.5
71.0 75.0
73.0 76.23358982687998
75.0 77.4
77.5 78.4
80.0 79.33358982687999
82.5 80.0669218511605
85.0 80.7
87.5 81.29999999999998
90.0 81.73358982687998
92.5 82.13358982687998
95.0 82.46692185116049
97.5 82.76692185116049
100.0 82.93358982687998
103.0 83.13358982687998
106.0 83.23358982687998
109.0 83.2669218511605
112.0 83.3669218511605
115.0 83.43358982687997
118.0 83.50076749445562
122.0 83.56692185116049
125.0 83.60076749445561
128.0 83.60076749445561
132.0 83.60076749445561
136.0 83.60076749445561
140.0 83.60076749445561
145.0 83.66845083805433
150.0 83.66845083805433
155.0 83.66845083805433
160.0 83.63513059177983
165.0 83.63513059177983
170.0 83.63513059177983
175.0 83.56845083805433
180.0 83.53513059177983
185.0 83.46845083805432
190.0 83.36845083805431
195.0 83.20306957104252
200.0 83.00306957104253
206.0 82.90306957104251
212.0 82.77150800786939
218.0 82.50306957104252
224.0 82.27150800786937
230.0 82.07150800786937
236.0 81.87150800786938
240.0 81.70690501035459
250.0 81.54283030471974
258.0 81.41227178315619
265.0 81.24283030471973
272.0 81.07609175449221
280.0 80.88219967332304
290.0 80.71227178315618
300.0 80.58219967332305
307.0 80.48219967332304
315.0 80.4489851487955
325.0 80.21916705502754
335.0 80.11916705502753
345.0 80.0566725593005
355.0 79.95667255930051
365.0 79.86096514237182
375.0 79.72758719283591
387.0 79.79897445130925
400.0 79.73752777300028
412.0 79.54898359150843
425.0 79.62179738688896
437.0 80.12179738688894
450.0 80.62179738688896
462.0 80.98219812790056
475.0 81.37082970284297
487.0 81.7234968506598
500.0 81.28982856673473
515.0 80.78219967332305
530.0 80.29897445130925
545.0 80.1096325668162
560.0 79.98219812790055
580.0 79.94898359150841
600.0 80.02179738688895
615.0 79.82179738688896
630.0 79.73546263134682
650.0 79.65062128010362
670.0 79.55062128010366
690.0 79.70034112939828
710.0 79.7672655885961
730.0 79.78538710465898
750.0 79.72875610128314
775.0 80.02875610128314
800.0 80.26136837622764
825.0 80.16136837622764
850.0 79.96136837622764
875.0 79.62602452356691
900.0 79.7033038382893
925.0 79.72643297742508
950.0 79.84852015458806
975.0 80.14852015458806
1000.0 80.40330383828929
1030.0 80.00473949550548
1060.0 79.55648313414828
1090.0 79.04449659419708
1120.0 78.90994607707172
1150.0 79.35872457742298
1180.0 79.68230649956844
1220.0 79.7017460112477
1250.0 79.53308937677079
1280.0 79.56493035341096
1320.0 78.86382205324666
1360.0 77.86506011325957
1400.0 79.02545420369874
1450.0 79.61326997082844
1500.0 79.6713175143374
1550.0 79.85131759580825
1600.0 79.66226370149553
1650.0 79.09080616590045
1700.0 78.99265755490995
1750.0 78.46082861347982
1800.0 77.85493991248688
1850.0 77.6282115720272
1900.0 77.31192126753355
1950.0 77.31152326304965
2000.0 76.87383513626847
2060.0 77.20901938276998
2120.0 77.59780984381857
2180.0 76.79265755490997
2240.0 75.72285985267754
2300.0 74.78272006052921
2360.0 73.81851550199947
2400.0 73.20089436543526
2500.0 73.6687693989117
2580.0 73.55906263657509
2650.0 73.59215915969807
2720.0 74.51152326304965
2800.0 74.36001642302816
2900.0 74.32712108809375
3000.0 74.74913385654654
3070.0 75.06355877122027
3150.0 75.11116081759258
3250.0 75.53451276341988
3350.0 76.22821508991026
3450.0 76.28910921343738
3550.0 76.28230649956842
3650.0 76.22773304031627
3750.0 75.89587874590276
3870.0 75.45374288789321
4000.0 74.6320980952248
4120.0 74.09867748547335
4250.0 73.95447715330634
4370.0 74.46073506160971
4500.0 74.67314211136083
4620.0 75.04577223479652
4750.0 75.2182491319224
4870.0 75.0022520696168
5000.0 74.8728793779823
5150.0 74.53220488328333
5300.0 73.519032343648
5450.0 72.28827189748915
5600.0 71.44862163685856
5800.0 70.47985234006251
6000.0 69.89751749841197
6150.0 70.33159966837576
6300.0 71.00588302564898
6500.0 71.47423383499108
6700.0 72.4739705621025
6900.0 72.2009927013073
7100.0 71.07552377260242
7300.0 70.70330383828929
7500.0 70.44066681957173
7750.0 70.108078510557
8000.0 69.9770419162686
8250.0 70.19017581993758
8500.0 70.43583714190525
8750.0 69.92137844512784
9000.0 69.50920772341834
9250.0 68.7940130194786
9500.0 69.37399184234279
9750.0 69.83557846745938
10000.0 69.54066805894
10300.0 69.47397173071407
10600.0 69.37805325317166
10900.0 69.43098098015143
11200.0 69.84416826970306
11500.0 69.55651856427099
11800.0 66.30404825072377
12200.0 63.533411397881295
12500.0 64.59913536951436
12800.0 64.68367895591848
13200.0 63.86880817213037
13600.0 64.75590035007127
14000.0 67.63966956690459
14500.0 70.06191653345637
15000.0 68.62469792087046
15500.0 66.51678155938056
16000.0 67.89099930883407
16500.0 68.54125032844401
17000.0 66.60770534685334
17500.0 65.05341441594119
18000.0 67.0234581987282
18500.0 66.97473140136792
19000.0 67.31305194378083
19500.0 66.78821900646496
