Freq "Rear Wall Bounce"
22.4 -4.8245550839445315
23.0 -0.1523140679766044
23.6 1.8317490293353984
24.0 2.4582344045766007
25.0 3.464713826881635
25.8 5.175979995690668
26.5 6.9818136835567515
27.2 7.824528405965609
28.0 10.273109848913109
29.0 12.100550090174053
30.0 14.580034699137045
30.7 16.279710512446954
31.5 18.465422925439654
32.5 20.346418592146435
33.5 22.64603345845059
34.5 24.31873128519662
35.5 26.210214772211984
36.5 28.54505966456064
37.5 30.63377265894583
38.7 32.59783514161457
40.0 34.69250789112506
41.2 36.455588215616714
42.5 38.63930109481542
43.7 40.80726302253929
45.0 42.89152498165576
46.2 45.29637110942302
47.5 47.41172897987114
48.7 49.574394309833124
50.0 51.38206857185132
51.5 53.733411814474024
53.0 55.89055606268916
54.5 58.05437732789174
56.0 60.11197352269791
58.0 62.14899354644396
60.0 64.13832318742318
61.5 66.22702444325282
63.0 68.10084827545622
65.0 69.90097226648082
67.0 71.58497091767055
69.0 73.16903530085021
71.0 74.67974671417619
73.0 75.89018884442972
75.0 77.06379188131675
77.5 78.07962495191838
80.0 78.99006737458816
82.5 79.73735085147645
85.0 80.36879117152661
87.5 80.96866910171842
90.0 81.41099808459467
92.5 81.81642633231374
95.0 82.13735085147644
97.5 82.3898244247123
100.0 82.61087719539236
103.0 82.85817503850105
106.0 82.96342523977168
109.0 82.98460605983149
112.0 83.10060592794657
115.0 83.13230961291931
118.0 83.17938141716078
122.0 83.2058051146711
125.0 83.22678074647122
128.0 83.23711053242435
132.0 83.23711053242435
136.0 83.24765555654889
140.0 83.26379188131675
145.0 83.24238624500815
150.0 83.24238624500815
155.0 83.25340572662846
160.0 83.22209458611566
165.0 83.20145697133428
170.0 83.12775545156062
175.0 83.05914550861526
180.0 82.99661651852813
185.0 82.89698043308857
190.0 82.69188932309089
195.0 82.54984632585517
200.0 82.38715697660298
206.0 82.2304297368541
212.0 82.0304297368541
218.0 81.73670645187853
224.0 81.4166049074856
230.0 81.17427689532812
236.0 80.96536100584116
240.0 80.70879088695523
250.0 80.35117070187911
258.0 80.22465279037087
265.0 80.05214979827853
272.0 79.82209028847255
280.0 79.51727023510995
290.0 79.20802750989681
300.0 79.08173832995531
307.0 79.0155211886233
315.0 78.78172853732109
325.0 78.56367490166836
335.0 78.30406318856413
345.0 77.95148734236801
355.0 77.6730351355062
365.0 77.526625730076
375.0 77.45264645180823
387.0 77.44333687321149
400.0 77.33203122651862
412.0 77.00273751942062
425.0 77.00183914743855
437.0 76.92209854881766
450.0 76.90659638577853
462.0 76.80195205758847
475.0 76.55009013275135
487.0 76.44952754856602
500.0 76.07419798624088
515.0 75.93164096476649
530.0 75.66440666722214
545.0 75.30474628445013
560.0 74.97359313856586
580.0 74.88380585376446
600.0 75.00689152793986
615.0 74.7937068516295
630.0 74.61883723329039
650.0 74.86091841896264
670.0 74.89149518721473
690.0 74.90394437987145
710.0 74.93724313515382
730.0 75.2567497292353
750.0 75.21103959155319
775.0 75.13663113941892
800.0 74.93643613586678
825.0 74.27924394112729
850.0 73.89921378809349
875.0 73.5259837093469
900.0 73.21051008056936
925.0 73.23688894481914
950.0 73.0761489308273
975.0 72.9908630490694
1000.0 72.83976071139067
1030.0 72.50917780690965
1060.0 72.15737935846465
1090.0 71.83809796059944
1120.0 71.93541815561825
1150.0 72.08872867423078
1180.0 72.18780562869202
1220.0 71.57345907358429
1250.0 71.32627683405846
1280.0 71.40549006724096
1320.0 72.3531499041669
1360.0 73.47476331113684
1400.0 72.92439207786555
1450.0 70.88974361969902
1500.0 69.50220608409869
1550.0 69.22983016301313
1600.0 69.45918469406628
1650.0 69.83841718092914
1700.0 69.3751737131172
1750.0 68.43680348186223
1800.0 67.66947288924709
1850.0 67.05702148554604
1900.0 66.76680903272586
1950.0 65.81073500213333
2000.0 65.78529051650816
2060.0 64.88401820917822
2120.0 64.49166982675204
2180.0 64.48604733206568
2240.0 64.3323759699859
2300.0 63.34543943586961
2360.0 62.53897233658505
2400.0 62.67137337572974
2500.0 61.75946107190927
2580.0 62.11072503669057
2650.0 62.415103476167886
2720.0 61.26206054248652
2800.0 61.72081493575503
2900.0 61.86653758909371
3000.0 61.71333512719558
3070.0 61.66820519040546
3150.0 62.17007970283622
3250.0 62.35739543663297
3350.0 63.11515202234979
3450.0 63.12789924800758
3550.0 62.792355167324345
3650.0 63.072564953359816
3750.0 63.54509573640901
3870.0 63.567576875346504
4000.0 62.64124510965172
4120.0 61.746215342907206
4250.0 62.12235444931065
4370.0 61.40615993367733
4500.0 61.48296545596489
4620.0 61.48355993974266
4750.0 61.18085698597828
4870.0 60.819921214723436
5000.0 60.66097593973504
5150.0 59.955072893715425
5300.0 58.44894078605135
5450.0 57.05388401420133
5600.0 56.72366298436019
5800.0 56.90140172433969
6000.0 58.0235796803246
6150.0 58.78503322966496
6300.0 59.384171474966124
6500.0 59.952294845474896
6700.0 60.79045445211041
6900.0 61.33383685773022
7100.0 60.66550809947489
7300.0 58.11321791790074
7500.0 55.79316853039769
7750.0 53.697070182575814
8000.0 52.36370354501351
8250.0 52.64942479990508
8500.0 53.49457779643568
8750.0 53.85729810484678
9000.0 54.98610905196402
9250.0 58.33762546712482
9500.0 58.17772174481932
9750.0 56.58182527887344
10000.0 55.389963730921366
10300.0 54.40796221877788
10600.0 52.78820243124757
10900.0 52.75169791730714
11200.0 52.806914714563945
11500.0 53.115358827142686
11800.0 53.21924868658532
12200.0 52.536167243362556
12500.0 51.947284086313786
12800.0 50.475475535702756
13200.0 49.81091112486904
13600.0 51.30173510506309
14000.0 52.515069515892336
14500.0 52.6364451545288
15000.0 52.24494178951788
15500.0 50.46170907032932
16000.0 47.6309004817693
16500.0 48.330132519545984
17000.0 51.10182170885183
17500.0 52.1927633001075
18000.0 52.22992563089021
18500.0 50.59914042627081
19000.0 44.036538936617106
19500.0 40.2979603687492
