Freq "Side Wall Bounce"
22.4 -4.899427317482775
23.0 -0.1722045796324494
23.6 1.5930757467863828
24.0 2.1829748583115247
25.0 3.2174996392940614
25.8 4.932398573481322
26.5 6.738603718797549
27.2 7.861664799506741
28.0 10.34282328854863
29.0 12.183601701195784
30.0 14.71286577407443
30.7 16.43671651181492
31.5 18.663280217992906
32.5 20.551208793850577
33.5 22.87070470559084
34.5 24.56027588070907
35.5 26.461427071536008
36.5 28.750287816778496
37.5 30.85028781677849
38.7 32.85028781677849
40.0 34.96096768959768
41.2 36.75028781677847
42.5 38.86050825906233
43.7 41.05028781677848
45.0 43.14027672897046
46.2 45.5702410264216
47.5 47.620185055415874
48.7 49.75028781677847
50.0 51.74073299106129
51.5 54.04027672897047
53.0 56.15028781677847
54.5 58.32041425029581
56.0 60.38018335884988
58.0 62.43024251089325
60.0 64.40023026257853
61.5 66.42018505541589
63.0 68.31033398215007
65.0 70.13047117562834
67.0 71.84027672897047
69.0 73.38041467447778
71.0 74.9204142502958
73.0 76.11056369748752
75.0 77.28041467447778
77.5 78.29056454574895
80.0 79.19056454574894
82.5 79.96050825906232
85.0 80.59056454574895
87.5 81.18064597778591
90.0 81.61102844176084
92.5 82.01102844176084
95.0 82.32110710001655
97.5 82.62110710001653
100.0 82.82110710001653
103.0 83.02110710001654
106.0 83.12110710001653
109.0 83.18133993642205
112.0 83.30115655304873
115.0 83.32110710001655
118.0 83.38179716861285
122.0 83.43232160096682
125.0 83.46234593316878
128.0 83.50345351146744
132.0 83.50345351146744
136.0 83.50345351146744
140.0 83.51427092071017
145.0 83.55535223900303
150.0 83.58387852809629
155.0 83.54511964131137
160.0 83.5250290776792
165.0 83.5151889984021
170.0 83.46512273933648
175.0 83.43554822706392
180.0 83.36720780673343
185.0 83.27786776995234
190.0 83.12873114400082
195.0 82.98964854692655
200.0 82.83012039042436
206.0 82.68132691824479
212.0 82.50485948689163
218.0 82.26363386500536
224.0 82.00647097389262
230.0 81.85914202503605
236.0 81.65064003833024
240.0 81.47479097095325
250.0 81.33380268028074
258.0 81.25550328023544
265.0 81.07715467156608
272.0 80.91762988210442
280.0 80.68072393933853
290.0 80.5167911459805
300.0 80.40360346746296
307.0 80.30666287413413
315.0 80.14913745698158
325.0 80.03108124071146
335.0 79.91791522411346
345.0 79.8365700590432
355.0 79.8143180591896
365.0 79.8167537977478
375.0 79.74288861421671
387.0 79.73697534630085
400.0 79.67779578923901
412.0 79.44950921363541
425.0 79.39361456180471
437.0 79.4816210781591
450.0 79.8992556816755
462.0 80.04111687675403
475.0 80.10441861476137
487.0 79.96521696117368
500.0 79.61712065616476
515.0 79.6455352364412
530.0 79.82795437300133
545.0 79.91049024914922
560.0 80.22296723409825
580.0 80.33465324577298
600.0 80.36943188111562
615.0 80.28168241802817
630.0 80.30558093865704
650.0 80.40668191316476
670.0 80.38614775059762
690.0 80.47628151752332
710.0 80.85779280022409
730.0 81.0635277119737
750.0 80.99889911869646
775.0 81.0282327640971
800.0 80.73192603087585
825.0 80.18713146389943
850.0 79.81950303556289
875.0 79.36110523914012
900.0 79.20791485048699
925.0 79.37679313561136
950.0 79.2207954160831
975.0 79.05570082748392
1000.0 78.54294827338799
1030.0 78.21667086820975
1060.0 78.13330124970858
1090.0 77.91733143577645
1120.0 78.06396717452186
1150.0 78.28146513391013
1180.0 78.35367473317041
1220.0 78.14192586879983
1250.0 77.90032845900625
1280.0 77.78053086311198
1320.0 78.4047838933342
1360.0 79.47180606410276
1400.0 79.48753707801541
1450.0 78.37878198228532
1500.0 77.44561597623189
1550.0 77.49525489324499
1600.0 77.98684498275261
1650.0 77.98246311331644
1700.0 77.19894780734458
1750.0 76.32873767024073
1800.0 76.31875497719204
1850.0 76.43640208876141
1900.0 75.91563580274128
1950.0 75.1951734136625
2000.0 75.30019998798637
2060.0 74.8449656538101
2120.0 74.19716975158751
2180.0 74.08842303000432
2240.0 74.00817289680616
2300.0 73.15522633522966
2360.0 72.69673169073188
2400.0 73.20960169990137
2500.0 72.70539928656609
2580.0 72.90389057114328
2650.0 73.33352550451923
2720.0 72.30329030574057
2800.0 72.58156310373757
2900.0 72.77315697108266
3000.0 71.80382053952712
3070.0 72.13832208329396
3150.0 72.6569236220029
3250.0 72.64811453432587
3350.0 73.19254483903315
3450.0 73.30156949927147
3550.0 73.45801834662558
3650.0 73.62872530214183
3750.0 73.55026059707718
3870.0 73.57095853035189
4000.0 73.27984570341616
4120.0 72.7516439252348
4250.0 73.27166580115737
4370.0 73.11333268602937
4500.0 73.45069033847722
4620.0 73.53505810090931
4750.0 73.34958677156578
4870.0 73.51690353168975
5000.0 73.28076995784924
5150.0 72.51139395908544
5300.0 71.65009580761176
5450.0 70.98912983107253
5600.0 70.50867457910242
5800.0 70.61225792765036
6000.0 71.2023126728777
6150.0 71.58094353161901
6300.0 71.78394312505813
6500.0 71.96118826857554
6700.0 72.32648079190069
6900.0 73.29926153512274
7100.0 73.76163661793555
7300.0 73.38501414885422
7500.0 72.71604120895307
7750.0 72.28717660371831
8000.0 71.80904372360939
8250.0 70.78017234308403
8500.0 69.77827793307395
8750.0 68.83827647184431
9000.0 68.02625099882341
9250.0 71.22814689599407
9500.0 72.30395637828687
9750.0 72.60095823299564
10000.0 73.02297901105669
10300.0 72.67486700790701
10600.0 71.61893515180137
10900.0 70.73128511133069
11200.0 70.2975374426505
11500.0 70.61490385433119
11800.0 72.16287194867593
12200.0 72.0154570367329
12500.0 71.03901589672434
12800.0 70.06447936912218
13200.0 69.88587453554692
13600.0 70.11784093171366
14000.0 71.7689808760261
14500.0 72.52212904627615
15000.0 71.90397892954039
15500.0 71.77783882377634
16000.0 72.14686338954017
16500.0 71.46053772083869
17000.0 70.32090595441869
17500.0 71.60494668461489
18000.0 72.84412870526776
18500.0 72.6415223649618
19000.0 68.6077772887642
19500.0 66.01050729868412
