Freq "Side Wall Bounce"
22.4 -4.242465292166315
23.0 0.4847574456840107
23.6 2.2500377721028144
24.0 2.8399368836279564
25.0 3.874461664610493
25.8 5.589360598797782
26.5 7.395565744113981
27.2 8.518626824823201
28.0 10.99978531386509
29.0 12.840563726512215
30.0 15.369827799390862
30.7 17.093678537131353
31.5 19.320242243309337
32.5 21.20817081916701
33.5 23.52766673090727
34.5 25.217237906025503
35.5 27.11838909685244
36.5 29.407249842094927
37.5 31.50724984209492
38.7 33.50724984209492
40.0 35.61792971491411
41.2 37.40724984209493
42.5 39.51747028437876
43.7 41.70724984209494
45.0 43.79723875428692
46.2 46.22720305173806
47.5 48.277147080732334
48.7 50.40724984209493
50.0 52.397695016377725
51.5 54.6972387542869
53.0 56.80724984209493
54.5 58.977376275612244
56.0 61.03714538416631
58.0 63.0872045362097
60.0 65.05719228789496
61.5 67.07714708073233
63.0 68.96729600746653
65.0 70.7874332009448
67.0 72.49723875428691
69.0 74.03737669979422
71.0 75.57737627561225
73.0 76.76752572280398
75.0 77.93737669979421
77.5 78.94752657106538
80.0 79.8475265710654
82.5 80.61747028437877
85.0 81.24752657106539
87.5 81.83760800310236
90.0 82.26799046707728
92.5 82.66799046707729
95.0 82.97806912533298
97.5 83.27806912533298
100.0 83.478069125333
103.0 83.67806912533298
106.0 83.77806912533299
109.0 83.83830196173848
112.0 83.95811857836517
115.0 83.97806912533298
118.0 84.03875919392931
122.0 84.08928362628325
125.0 84.11930795848522
128.0 84.1604155367839
132.0 84.1604155367839
136.0 84.1604155367839
140.0 84.1712329460266
145.0 84.21231426431947
150.0 84.24084055341275
155.0 84.20208166662783
160.0 84.18199110299565
165.0 84.17215102371854
170.0 84.12208476465294
175.0 84.09251025238036
180.0 84.02416983204988
185.0 83.9348297952688
190.0 83.78569316931726
195.0 83.64661057224298
200.0 83.4870824157408
206.0 83.33828894356125
212.0 83.16182151220809
218.0 82.92059589032179
224.0 82.66343299920906
230.0 82.5161040503525
236.0 82.30760206364667
240.0 82.1317529962697
250.0 81.99076470559717
258.0 81.91246530555189
265.0 81.73411669688252
272.0 81.57459190742087
280.0 81.33768596465498
290.0 81.17375317129694
300.0 81.0605654927794
307.0 80.9636248994506
315.0 80.80609948229801
325.0 80.68804326602789
335.0 80.57487724942989
345.0 80.49353208435963
355.0 80.47128008450605
365.0 80.47371582306425
375.0 80.39985063953316
387.0 80.39393737161731
400.0 80.33475781455547
412.0 80.10647123895184
425.0 80.05057658712116
437.0 80.13858310347555
450.0 80.55621770699196
462.0 80.69807890207046
475.0 80.7613806400778
487.0 80.62217898649011
500.0 80.2740826814812
515.0 80.30249726175765
530.0 80.48491639831778
545.0 80.56745227446568
560.0 80.8799292594147
580.0 80.99161527108942
600.0 81.02639390643205
615.0 80.93864444334463
630.0 80.96254296397348
650.0 81.06364393848119
670.0 81.04310977591408
690.0 81.13324354283975
710.0 81.51475482554055
730.0 81.72048973729017
750.0 81.6558611440129
775.0 81.68519478941356
800.0 81.38888805619231
825.0 80.84409348921588
850.0 80.47646506087935
875.0 80.01806726445656
900.0 79.86487687580343
925.0 80.03375516092781
950.0 79.87775744139955
975.0 79.71266285280036
1000.0 79.19991029870445
1030.0 78.8736328935262
1060.0 78.79026327502503
1090.0 78.57429346109288
1120.0 78.7209291998383
1150.0 78.93842715922658
1180.0 79.01063675848684
1220.0 78.79888789411626
1250.0 78.55729048432268
1280.0 78.43749288842844
1320.0 79.06174591865064
1360.0 80.1287680894192
1400.0 80.14449910333184
1450.0 79.03574400760176
1500.0 78.10257800154832
1550.0 78.15221691856145
1600.0 78.64380700806905
1650.0 78.63942513863287
1700.0 77.85590983266103
1750.0 76.98569969555717
1800.0 76.97571700250849
1850.0 77.09336411407784
1900.0 76.57259782805772
1950.0 75.85213543897893
2000.0 75.95716201330282
2060.0 75.50192767912657
2120.0 74.85413177690396
2180.0 74.74538505532075
2240.0 74.66513492212259
2300.0 73.81218836054612
2360.0 73.35369371604834
2400.0 73.86656372521783
2500.0 73.36236131188252
2580.0 73.56085259645972
2650.0 73.99048752983568
2720.0 72.96025233105703
2800.0 73.23852512905403
2900.0 73.4301189963991
3000.0 72.46078256484358
3070.0 72.7952841086104
3150.0 73.31388564731935
3250.0 73.30507655964232
3350.0 73.84950686434959
3450.0 73.95853152458791
3550.0 74.11498037194201
3650.0 74.28568732745829
3750.0 74.20722262239364
3870.0 74.22792055566833
4000.0 73.9368077287326
4120.0 73.40860595055126
4250.0 73.92862782647381
4370.0 73.7702947113458
4500.0 74.10765236379368
4620.0 74.19202012622576
4750.0 74.00654879688224
4870.0 74.1738655570062
5000.0 73.93773198316569
5150.0 73.16835598440187
5300.0 72.3070578329282
5450.0 71.64609185638896
5600.0 71.16563660441885
5800.0 71.26921995296681
6000.0 71.85927469819416
6150.0 72.23790555693547
6300.0 72.44090515037458
6500.0 72.61815029389197
6700.0 72.98344281721712
6900.0 73.95622356043917
7100.0 74.41859864325201
7300.0 74.04197617417067
7500.0 73.37300323426952
7750.0 72.94413862903477
8000.0 72.46600574892584
8250.0 71.43713436840048
8500.0 70.43523995839038
8750.0 69.49523849716074
9000.0 68.68321302413986
9250.0 71.8851089213105
9500.0 72.96091840360333
9750.0 73.25792025831208
10000.0 73.67994103637314
10300.0 73.33182903322346
10600.0 72.2758971771178
10900.0 71.38824713664712
11200.0 70.95449946796693
11500.0 71.27186587964765
11800.0 72.81983397399239
12200.0 72.67241906204933
12500.0 71.69597792204078
12800.0 70.72144139443864
13200.0 70.54283656086335
13600.0 70.7748029570301
14000.0 72.42594290134257
14500.0 73.17909107159261
15000.0 72.56094095485682
15500.0 72.4348008490928
16000.0 72.80382541485663
16500.0 72.11749974615515
17000.0 70.97786797973512
17500.0 72.26190870993135
18000.0 73.5010907305842
18500.0 73.29848439027825
19000.0 69.26473931408063
19500.0 66.66746932400058
