Freq "Total Early Reflection"
22.4 -4.825986881753579
23.0 -0.04943985321733635
23.6 1.7018147448286243
24.0 2.2973838549416428
25.0 3.238167128566431
25.8 5.030986621044008
26.5 6.789408857275305
27.2 7.863484627483956
28.0 10.41468012086068
29.0 12.269758282345151
30.0 14.773049984449216
30.7 16.468655963761762
31.5 18.69173824024614
32.5 20.575474027309184
33.5 22.889235856448124
34.5 24.55847494818798
35.5 26.476377581364375
36.5 28.776453536010933
37.5 30.867680857777884
38.7 32.865948590102875
40.0 34.95250976033836
41.2 36.73101972623755
42.5 38.88715681220492
43.7 41.049347960300054
45.0 43.144373200792415
46.2 45.57628764000424
47.5 47.61804663736615
48.7 49.76655926738525
50.0 51.745115893132294
51.5 54.03761467670708
53.0 56.150327924874546
54.5 58.33756771837298
56.0 60.37201228521285
58.0 62.431829965095886
60.0 64.4035210299002
61.5 66.43118631658282
63.0 68.31033412861821
65.0 70.1512617403038
67.0 71.84938073514289
69.0 73.38866463415697
71.0 74.9083402468883
73.0 76.12488991767636
75.0 77.29731911966219
77.5 78.30234697487782
80.0 79.2297088722695
82.5 79.9719035910988
85.0 80.60915381444494
87.5 81.20715726951381
90.0 81.64359813915985
92.5 82.04462769429867
95.0 82.37384371467303
97.5 82.65823293351743
100.0 82.85905947877166
103.0 83.07101161838837
106.0 83.17796132446037
109.0 83.22602477418037
112.0 83.34865892715737
115.0 83.38090862975824
118.0 83.45364514984028
122.0 83.51060035920403
125.0 83.54682156547567
128.0 83.5788237138701
132.0 83.59857314807584
136.0 83.61066143392833
140.0 83.62786294994194
145.0 83.65162501038982
150.0 83.6780817037898
155.0 83.67563804900188
160.0 83.66255343650549
165.0 83.65010810152184
170.0 83.6272152502045
175.0 83.57222101410832
180.0 83.53145999274005
185.0 83.45281252402839
190.0 83.32191463881202
195.0 83.19099448654688
200.0 83.04236927721706
206.0 82.9195048711249
212.0 82.75887155465622
218.0 82.51082771268426
224.0 82.28810617860417
230.0 82.13636732771504
236.0 81.96907549033547
240.0 81.79956757752096
250.0 81.6551209654859
258.0 81.57071177630954
265.0 81.43203783386201
272.0 81.26787373826843
280.0 81.05815651416606
290.0 80.89701336029874
300.0 80.77077796433373
307.0 80.6595934731598
315.0 80.60175302007231
325.0 80.47764373744138
335.0 80.36256683454562
345.0 80.2699865410788
355.0 80.226996994919
365.0 80.2063508780647
375.0 80.13554096765547
387.0 80.1832691696828
400.0 80.14984502774404
412.0 79.98395238550741
425.0 79.92473383457192
437.0 80.11912120729164
450.0 80.4548364565455
462.0 80.58655183757269
475.0 80.60886189353411
487.0 80.37883676048625
500.0 79.96396811314358
515.0 79.9330543835478
530.0 80.06075089311544
545.0 80.06154943227764
560.0 80.1508387784434
580.0 80.1153829314955
600.0 80.23528534836038
615.0 80.10936471134379
630.0 80.04253145192679
650.0 80.11118309323848
670.0 80.09055536193328
690.0 80.17711763071821
710.0 80.43036698510015
730.0 80.52577681725508
750.0 80.43345166358934
775.0 80.48367855120489
800.0 80.29862585233218
825.0 79.80263889001932
850.0 79.43211659410728
875.0 79.08319622931798
900.0 79.08115024694196
925.0 79.22646075993704
950.0 79.19458058688772
975.0 79.1381713185333
1000.0 78.83145042021124
1030.0 78.47547048345875
1060.0 78.41810574666994
1090.0 78.28165080068466
1120.0 78.47397112234611
1150.0 78.87342893580413
1180.0 79.06155361953608
1220.0 79.07244945420756
1250.0 78.96748588478638
1280.0 78.95297232650286
1320.0 79.08306491863144
1360.0 79.339894956914
1400.0 80.15573402200016
1450.0 80.33559199771548
1500.0 80.17217972454159
1550.0 80.25005590376345
1600.0 80.39099665204851
1650.0 80.23083402035019
1700.0 79.76823106172458
1750.0 79.14935073625551
1800.0 78.93724857655627
1850.0 78.8637097501406
1900.0 78.18802652477997
1950.0 77.39470009745226
2000.0 77.18374085864546
2060.0 77.45270222007917
2120.0 77.29894997807824
2180.0 76.86755476295443
2240.0 76.52155033666796
2300.0 75.6998989981547
2360.0 75.17364710806575
2400.0 75.22145578529438
2500.0 74.77241493536509
2580.0 74.7019827333612
2650.0 75.15008959319903
2720.0 75.01715266346031
2800.0 75.20975405530041
2900.0 75.66717608249292
3000.0 75.6088807681619
3070.0 75.92236545156322
3150.0 76.45535298201975
3250.0 76.66041035525461
3350.0 77.34331835335134
3450.0 77.51235929790185
3550.0 77.52060524324136
3650.0 77.43012832793525
3750.0 77.24118172760927
3870.0 77.0982569050893
4000.0 76.64960166365141
4120.0 76.10102585622212
4250.0 76.12706760096872
4370.0 76.00492525476943
4500.0 76.02984754741655
4620.0 76.14769071275279
4750.0 76.06395528288145
4870.0 76.13163607953673
5000.0 76.12352899485415
5150.0 75.67486987540265
5300.0 75.03178730548599
5450.0 74.69010159701993
5600.0 74.6133692538078
5800.0 74.79684455954852
6000.0 75.03060686300502
6150.0 74.9549373287989
6300.0 74.81337242372831
6500.0 74.74662387804878
6700.0 74.72352366941635
6900.0 74.89126333846562
7100.0 75.18519834200404
7300.0 75.20909101306498
7500.0 75.16218429914773
7750.0 75.3335668606478
8000.0 75.3935157099366
8250.0 74.93663146130157
8500.0 74.39718972522974
8750.0 74.04815953711834
9000.0 74.13054741504828
9250.0 74.78791824578046
9500.0 74.86117093151523
9750.0 74.86236922149295
10000.0 75.41322912739611
10300.0 75.90599594361093
10600.0 75.99625083680141
10900.0 75.79961745086963
11200.0 75.47628357260082
11500.0 75.01492970831725
11800.0 74.71252806800067
12200.0 73.56663109706189
12500.0 73.16923818350992
12800.0 73.57326268028706
13200.0 73.44015136209083
13600.0 73.62684606906006
14000.0 73.9895052432915
14500.0 75.03492602476868
15000.0 75.37605402896723
15500.0 75.46304363754925
16000.0 75.85774628921777
16500.0 75.34351812038142
17000.0 74.46401867931456
17500.0 75.19586011193552
18000.0 75.63290111558892
18500.0 75.16564356661439
19000.0 74.11216600383429
19500.0 72.3152508252621
