Freq "Floor Bounce"
22.4 30.065857275952553
23.0 30.76585727595254
23.6 31.46585727595256
24.0 32.12285902893767
25.0 32.78042420054253
25.8 33.407246999167356
26.5 34.08042420054254
27.2 34.66563268960989
28.0 35.26563268960989
29.0 35.89317164073087
30.0 36.493171640730864
30.7 37.0523764150643
31.5 37.652376415064296
32.5 38.21213611976863
33.5 38.7121361197686
34.5 39.312136119768624
35.5 39.840662562913295
36.5 40.340662562913295
37.5 40.87244826645845
38.7 41.40123572626639
40.0 41.90123572626639
41.2 42.40123572626639
42.5 42.86235742942078
43.7 43.36235742942081
45.0 43.86235742942078
46.2 44.3240248702602
47.5 44.79188145404554
48.7 45.25380974359446
50.0 45.72402487026021
51.5 46.22402487026022
53.0 46.653809743594465
54.5 47.08623512455239
56.0 47.52402487026022
58.0 47.95380974359446
60.0 48.38623512455237
61.5 48.82402487026022
63.0 49.22402487026024
65.0 49.624024870260214
67.0 50.056672559300495
69.0 50.49471929119203
71.0 50.86588846059688
73.0 51.265888460596884
75.0 51.665888460596875
77.5 52.037527773000264
80.0 52.40473530118577
82.5 52.77662798253904
85.0 53.176627982539046
87.5 53.54898359150842
90.0 53.88888547155004
92.5 54.26194867563767
95.0 54.635462631346826
97.5 54.983823341675944
100.0 55.32526453928848
103.0 55.667265588596095
106.0 56.018325441849726
109.0 56.36136837622763
112.0 56.68161208533421
115.0 57.03610707977349
118.0 57.3590626365751
122.0 57.61638770313007
125.0 57.90921140720404
128.0 58.19727311966744
132.0 58.426968202942305
136.0 58.672630210371196
140.0 58.90722706905572
145.0 59.0586096117203
150.0 59.23386746839947
155.0 59.44528993868245
160.0 59.529637820681955
165.0 59.69500059240538
170.0 59.799015187348616
175.0 59.8506267739353
180.0 59.994904254611654
185.0 60.07260330753233
190.0 60.06227233162625
195.0 60.10063624654997
200.0 60.148635049185586
206.0 60.137619844361026
212.0 60.11316101238542
218.0 60.06617322142945
224.0 59.965996229363796
230.0 59.87432533371937
236.0 59.71819780875505
240.0 59.669349126299394
250.0 59.56229882512413
258.0 59.404845312832194
265.0 59.38164888860091
272.0 59.32238285160601
280.0 59.23213157500207
290.0 59.18393058213131
300.0 59.122147761009856
307.0 59.064171685573115
315.0 59.030513733375415
325.0 59.07335476562446
335.0 59.123476137282054
345.0 59.09804670748717
355.0 59.09445716736839
365.0 59.04090753602631
375.0 58.998713807650006
387.0 58.89877115712663
400.0 58.77559328521993
412.0 58.66837679776488
425.0 58.55557010865026
437.0 58.36356280702161
450.0 58.27620914493053
462.0 58.237974850405735
475.0 58.24653166230675
487.0 58.236015377583996
500.0 58.22633918191025
515.0 58.27605470384661
530.0 58.33690963714625
545.0 58.42456002321573
560.0 58.49641839113626
580.0 58.552139462389235
600.0 58.562052019207684
615.0 58.59483139642167
630.0 58.48979779516743
650.0 58.34248442845664
670.0 58.28302654922042
690.0 58.20686177633702
710.0 57.94078768063757
730.0 57.763744847302135
750.0 57.65655649085441
775.0 57.490068850248065
800.0 57.16560861109916
825.0 56.75427931284739
850.0 56.09521707200081
875.0 55.38672278729503
900.0 54.59793870802456
925.0 53.680160054934106
950.0 53.24625637116365
975.0 53.68912251720924
1000.0 54.73285923084076
1030.0 55.57933231143295
1060.0 56.34347039029352
1090.0 56.77089600007291
1120.0 56.37569581518241
1150.0 55.699961042069546
1180.0 55.33925873400132
1220.0 54.54052505968909
1250.0 53.6114867186342
1280.0 53.23697213023105
1320.0 53.580804948112615
1360.0 53.965742472084386
1400.0 54.41246386716628
1450.0 54.68188613593527
1500.0 54.88042420054252
1550.0 55.1825273484195
1600.0 55.44437692919813
1650.0 55.205703719716425
1700.0 54.36466314161463
1750.0 53.345832864462395
1800.0 52.53156903112625
1850.0 52.91570726143
1900.0 54.4728854102117
1950.0 56.63543888730992
2000.0 58.275375912110974
2060.0 59.22355337356744
2120.0 59.22470872985775
2180.0 58.08393613372175
2240.0 56.16663795627082
2300.0 54.45843189554766
2360.0 53.82905723867779
2400.0 53.84942663042273
2500.0 54.774670115034226
2580.0 56.43902106433076
2650.0 57.096111232754566
2720.0 55.93187109616579
2800.0 53.67689671862934
2900.0 55.04882433806493
3000.0 57.95801296552776
3070.0 58.95563638500026
3150.0 58.29810190657838
3250.0 56.93268757119692
3350.0 57.73173247360073
3450.0 59.44595265857279
3550.0 59.124987863849285
3650.0 56.826620870828464
3750.0 52.69965969924901
3870.0 51.55364911258644
4000.0 54.410006623053846
4120.0 54.02375468815458
4250.0 52.08764003446949
4370.0 55.029378213206
4500.0 58.6212377639374
4620.0 59.01817635197618
4750.0 57.65524212184626
4870.0 53.65847540341008
5000.0 49.762260444054746
5150.0 44.690178107501296
5300.0 51.52538097851854
5450.0 51.06745042730927
5600.0 52.780984324188054
5800.0 52.90500125539948
6000.0 51.32709336875256
6150.0 52.2019056580271
6300.0 51.68517973859446
6500.0 52.122048450424856
6700.0 49.52194974029916
6900.0 54.31837297260209
7100.0 50.191366610596376
7300.0 51.711750108861594
7500.0 52.345952658572784
7750.0 49.617293985571294
8000.0 52.154202990353795
8250.0 54.0384301930421
8500.0 51.30914494217109
8750.0 46.13047090372808
9000.0 54.330635745688554
9250.0 51.948718061685256
9500.0 53.85557010865024
9750.0 52.10675810359727
10000.0 52.77354792281035
10300.0 55.831224069970546
10600.0 53.02524894321287
10900.0 53.40384460460386
11200.0 54.50685390422274
11500.0 54.91227178315617
11800.0 55.21832676913881
12200.0 61.03937186872665
12500.0 53.22294362715999
12800.0 52.673973652529995
13200.0 55.31851062591363
13600.0 49.658404167249785
14000.0 49.53257218046558
14500.0 52.31603436689916
15000.0 58.47131056003013
15500.0 58.900512914684285
16000.0 64.6570209095995
16500.0 64.4511944413052
17000.0 60.24707889051909
17500.0 60.40354847751779
18000.0 54.97545410307394
18500.0 59.91753170733659
19000.0 57.70482075379297
19500.0 56.726155357300684
