Freq "Rear Wall Bounce"
22.4 28.11957496270135
23.0 28.772075311556947
23.6 29.393654408266528
24.0 29.971586616890576
25.0 30.587633670697542
25.8 31.169914933152157
26.5 31.776809761302545
27.2 32.32847053101848
28.0 32.884818302801804
29.0 33.43741010484406
30.0 33.97413782574456
30.7 34.46413791729999
31.5 34.99779348426112
32.5 35.51021995972316
33.5 36.02267534627386
34.5 36.48242827375692
35.5 36.966265120525705
36.5 37.45682729631211
37.5 37.93317601821242
38.7 38.41515557682966
40.0 38.87572797587508
41.2 39.340232714430286
42.5 39.78224818568013
43.7 40.22411075416706
45.0 40.661206316050354
46.2 41.117098091295375
47.5 41.54435348416355
48.7 41.990051124524186
50.0 42.43952262255685
51.5 42.857801959898055
53.0 43.263399534506576
54.5 43.722808485840446
56.0 44.141773407378494
58.0 44.55484541403398
60.0 44.94364982339036
61.5 45.3733623931563
63.0 45.7826081629335
65.0 46.19084386321357
67.0 46.61178732697694
69.0 47.033790854307725
71.0 47.43797695323612
73.0 47.82628275417754
75.0 48.23726179353521
77.5 48.647483051342775
80.0 49.05768030956996
82.5 49.479217316295205
85.0 49.8792173162952
87.5 50.289816925779476
90.0 50.70015032527914
92.5 51.10015032527916
95.0 51.532242055552885
97.5 51.942242455369794
100.0 52.35245201151129
103.0 52.77425098658719
106.0 53.19596403654005
109.0 53.607019892483365
112.0 54.032242055552885
115.0 54.47476334636447
118.0 54.896216011836756
122.0 55.29621601183676
125.0 55.70653421492173
128.0 56.11682796155549
132.0 56.5062941517447
136.0 56.88563202781556
140.0 57.26484905994617
145.0 57.627876467548745
150.0 57.986098085034385
155.0 58.34324050405361
160.0 58.685632027815544
165.0 59.02811534072113
170.0 59.38633926714981
175.0 59.717848344561375
180.0 60.04347853368046
185.0 60.408020729468646
190.0 60.72811534072112
195.0 61.07620915705547
200.0 61.41784834456138
206.0 61.72811534072112
212.0 62.0385964196516
218.0 62.328115340721126
224.0 62.59644580329275
230.0 62.82811534072111
236.0 63.1067634610892
240.0 63.328115340721126
250.0 63.53300924462188
258.0 63.78586237995344
265.0 64.02811534072113
272.0 64.22811534072112
280.0 64.41659391843835
290.0 64.55443122273886
300.0 64.67524196668192
307.0 64.77524196668192
315.0 64.90653421492173
325.0 65.03300924462188
335.0 65.18538518749205
345.0 65.31145248451922
355.0 65.43152595077544
365.0 65.52150081529898
375.0 65.60065963884806
387.0 65.65718908251824
400.0 65.73152595077545
412.0 65.7676003142043
425.0 65.80976210673954
437.0 65.83104300619478
450.0 65.84675283226157
462.0 65.89921112390115
475.0 65.94675283226158
487.0 65.94176070108388
500.0 65.88911102841797
515.0 65.80018432162977
530.0 65.72150081529898
545.0 65.66836679566738
560.0 65.60018432162977
580.0 65.55321563906203
600.0 65.53300924462187
615.0 65.53300924462187
630.0 65.51246867424793
650.0 65.50090561256572
670.0 65.57875129772798
690.0 65.56712687894014
710.0 65.36156275815038
730.0 65.17196352275094
750.0 65.18333917810311
775.0 65.16256729149272
800.0 65.15747738937766
825.0 65.11455152696945
850.0 65.04019305097601
875.0 65.01870055215228
900.0 64.98727138182382
925.0 64.79885315343446
950.0 64.6319380124502
975.0 64.77568961166195
1000.0 64.9400427012585
1030.0 64.85204148807857
1060.0 64.90492223287465
1090.0 65.10492223287464
1120.0 65.07085160861298
1150.0 65.22896553621588
1180.0 65.65438138673764
1220.0 65.67567593245735
1250.0 65.45935081685052
1280.0 65.49686657494466
1320.0 65.70461998532048
1360.0 65.78575483148573
1400.0 65.88958353830071
1450.0 65.74653394865315
1500.0 65.44645833654074
1550.0 65.17484064287923
1600.0 64.94371364841655
1650.0 64.78835504548593
1700.0 64.56012968017596
1750.0 64.46115098295826
1800.0 64.24907228936341
1850.0 64.18759128054398
1900.0 64.40303379885941
1950.0 64.5506998005739
2000.0 64.36803215249023
2060.0 64.1631967204932
2120.0 63.935294303228915
2180.0 63.646039345474264
2240.0 63.347580774784305
2300.0 63.187254622963465
2360.0 62.8995598249263
2400.0 62.74972878540618
2500.0 62.68397039931294
2580.0 62.20185588662568
2650.0 61.12802228287346
2720.0 60.675836636683385
2800.0 61.24145628468071
2900.0 61.05340427870304
3000.0 60.68369364697419
3070.0 60.436777131577415
3150.0 60.04390704518272
3250.0 59.650593740526375
3350.0 59.50951997981875
3450.0 59.33347194790365
3550.0 58.811611758815175
3650.0 58.156889752113656
3750.0 57.29028316920342
3870.0 56.75629937988076
4000.0 56.33670085537453
4120.0 55.945094916351806
4250.0 55.56644413466836
4370.0 55.17126549597498
4500.0 54.59617581402439
4620.0 53.90051525563915
4750.0 53.24346938277735
4870.0 52.91641535281731
5000.0 52.967572505186666
5150.0 53.000520818943144
5300.0 52.644117768212126
5450.0 52.04782880980632
5600.0 51.33284747488544
5800.0 51.42753049590287
6000.0 52.012903770097466
6150.0 52.85039840116454
6300.0 52.93350560431591
6500.0 52.690589258698196
6700.0 52.8949118572571
6900.0 53.26529753102601
7100.0 53.48659543233707
7300.0 53.30937306123958
7500.0 52.16155168225504
7750.0 50.56494592301904
8000.0 48.15791899762152
8250.0 46.74913423816314
8500.0 45.29647070596786
8750.0 43.18369826439236
9000.0 41.450184178587634
9250.0 40.61147575914613
9500.0 39.471018102567555
9750.0 37.03320818321019
10000.0 35.472257982137634
10300.0 33.783984521481116
10600.0 34.12589462654135
10900.0 35.41414904039944
11200.0 38.14754849316442
11500.0 38.848407461686705
11800.0 37.17903450762354
12200.0 41.941876690103115
12500.0 43.90291249234009
12800.0 45.40264425316701
13200.0 46.361033469330934
13600.0 45.389621318211226
14000.0 46.014881335550385
14500.0 44.73712483994019
15000.0 43.85744265178671
15500.0 41.96714130507398
16000.0 42.96271408573021
16500.0 45.978936273918166
17000.0 46.666160762644324
17500.0 45.341031354299446
18000.0 41.61545365253538
18500.0 41.927959495427345
19000.0 38.130354518106785
19500.0 32.145926713033546
