Freq "Sound Power"
20.5078 66.67036411001403
21.2402 67.7426532748585
21.9727 68.73410319320853
22.7051 69.63075237481378
23.4375 70.27082068630055
24.1699 70.57015728725965
25.6348 72.27988139335537
26.3672 73.31082496267723
27.0996 74.28414014919395
27.832 74.69918511912294
29.2969 75.28822624457284
30.0293 75.53704428463753
31.4941 76.54244720880338
32.2266 76.87456049259367
33.6914 77.48125662676644
34.4238 77.89237679146224
35.8887 78.27609394079228
37.3535 78.86443056498727
38.8184 79.39032189641081
39.5508 79.59050784535539
41.0156 80.03750988474096
42.4805 80.43419057840269
43.9453 80.9209739277118
45.4102 81.34004447402386
47.6074 81.94188608383574
49.0723 82.41305307034949
50.5371 82.85207913459428
52.7344 83.4055220706188
54.1992 83.78609019061285
56.3965 84.40224984810467
58.5938 85.01257006349505
60.0586 85.31343959035691
62.2559 85.71344200990866
64.4531 86.20819464269664
66.6504 86.5555193767124
69.5801 87.03607760941861
71.7773 87.27789829549714
73.9746 87.50957471296566
76.9043 87.74645740912628
79.834 87.80179547149143
82.7637 87.80861067161266
85.6934 87.98465742838793
88.623 87.8876159206741
91.5527 87.82699305690612
94.4824 87.71879020609404
98.1445 87.58644566595338
101.807 87.41882569431749
105.469 87.13240035695716
109.131 86.78019882950314
112.793 86.56029302053552
116.455 86.39622124806895
120.85 86.0840319542288
125.244 85.99410718036613
129.639 85.90338969922529
134.033 85.488635532938
138.428 85.14296963854532
143.555 85.05490760135322
148.682 84.7190918202048
153.809 84.58172436803873
159.668 84.14433955036758
164.795 83.89906535675642
170.654 84.08469447738355
176.514 83.4833826199608
183.105 83.1602866729151
189.697 83.1007411198263
196.289 82.71293352689919
202.881 82.51630567419123
210.205 82.45219466713344
217.529 82.32508317604065
225.586 81.75533972119622
232.91 81.68818206426697
241.699 81.31876941140119
249.756 81.37820197968169
258.545 81.34164877151922
268.066 81.31275757301667
277.588 80.63329536574315
287.109 80.72374236313259
297.363 80.19430257729317
307.617 79.89220121612239
318.604 79.82810839202337
329.59 80.11520355178133
341.309 79.93944369222775
353.76 79.4229757578776
366.211 79.13064581813323
378.662 79.3853853753287
392.578 79.29922363394074
405.762 79.18296307861534
420.41 79.37651853769766
435.059 79.74139054159008
450.439 79.75240199961497
466.553 79.11197246715538
482.666 79.42211340196458
500.244 79.61538647166014
517.822 79.69912844130751
536.133 79.51467820067441
554.443 79.79506427360974
574.219 79.87926995839534
594.727 79.66150119365425
615.234 79.52951009763962
637.207 79.8247538030647
659.912 81.06874787810766
683.35 81.30141838399855
706.787 79.86162682572319
731.689 78.92635354770178
758.057 78.32627144929273
784.424 78.01016374989707
812.256 78.21334758328801
840.82 78.28977711543673
870.85 78.47346888712896
901.611 78.9574219717002
933.105 79.58518973249768
966.064 79.2852000776491
999.756 79.34071618283537
1034.91 78.58557573944515
1071.53 78.40913859225648
1109.62 78.53974845640015
1148.44 78.96741640229605
1189.45 79.29437141288456
1231.2 79.70875872405115
1274.41 79.31843703209046
1319.82 79.06935947361764
1365.97 79.07952340998709
1414.31 79.47299135220022
1464.11 79.8704636863479
1515.38 80.11035031231998
1568.85 80.09129435031886
1624.51 80.04041430624304
1681.64 80.03661808493892
1740.97 80.52193059862806
1802.49 80.64841147861792
1866.21 80.71560401090116
1932.13 80.01021373416357
2000.24 79.66433024476258
2070.56 79.23396056506022
2143.8 78.12826229721165
2219.24 77.45266399819316
2297.61 77.26064891554572
2378.17 76.81891543320111
2462.4 76.39617988122316
2548.83 77.05917610216274
2638.92 77.26524570315746
2731.93 77.21798151639302
2828.61 77.40158942518724
2928.22 77.4427739122373
3031.49 77.69612046488628
3138.43 77.81533269270625
3249.02 77.86399373164257
3363.28 77.90268424448458
3481.93 77.97022479241808
3604.98 78.1277553874477
3732.42 78.37097063137968
3863.53 78.51406052030002
3999.76 78.87334770397858
4141.11 78.7982459048654
4286.87 79.02703514728955
4438.48 79.13620771736863
4594.48 78.93530912075093
4757.08 78.8613600560277
4924.8 78.79980111524745
5098.39 78.68918961823834
5277.83 78.72206740348626
5463.87 78.7914362968766
5656.49 79.07886746963494
5856.45 79.20851686739482
6062.99 79.23631898140265
6276.86 79.1690210703367
6498.05 79.38101517323517
6727.29 79.31891238777295
6964.6 79.54076444519261
7209.96 79.12059442445
7464.11 79.27409767308018
7727.78 78.96979131942437
8000.24 78.66849652844022
8282.23 78.63282230120355
8574.46 78.36782090054675
8876.22 78.08349106383825
9189.7 77.88043982174857
9513.43 77.54444703476047
9848.88 76.9738372681757
10196.8 76.6542076308964
10556.4 76.67196149118872
10928.5 76.8785751094004
11313.7 76.91461909050169
11712.9 76.81688434517612
12126.0 76.70823439013598
12553.7 76.73729774230087
12996.1 76.97896016961194
13454.6 77.27091801859117
13928.5 77.47295990234105
14419.9 77.48152722298072
14928.2 77.3262149385656
15454.8 76.95491427677536
15999.8 76.36638523534428
16564.5 75.88166581836035
17148.2 75.39317020932387
17753.2 74.69130438569049
18379.4 74.04422553367672
19027.6 73.29269018600728
19698.5 72.85711400875708
19999.5 72.84250577536223
