Freq "Front Wall Bounce"
22.4 -7.4357889195919995
23.0 -4.6249619287470125
23.6 -0.978065130319095
24.0 0.6413320055762881
25.0 1.6409905261716915
25.8 2.695096872787701
26.5 3.7776694461769864
27.2 4.814450090185858
28.0 5.567303625575249
29.0 6.393006204508737
30.0 6.169946512505732
30.7 7.94548037354059
31.5 10.549725244341857
32.5 13.62810646667134
33.5 15.149372660496454
34.5 16.62877783205724
35.5 19.049977311290718
36.5 20.827976222255728
37.5 21.61324683731533
38.7 22.351530353720023
40.0 24.45662093763835
41.2 27.497759961745885
42.5 31.035089957281514
43.7 32.62899248076732
45.0 32.27045795729262
46.2 32.49834644522744
47.5 33.579355722213535
48.7 37.50010433128111
50.0 40.27835884983335
51.5 42.593690909262534
53.0 44.313142590899616
54.5 46.452308058134804
56.0 49.224158201558794
58.0 49.31297816441537
60.0 50.926314849810865
61.5 53.85408606426722
63.0 55.66717955920731
65.0 57.6228530905132
67.0 59.06308519754117
69.0 60.81530988361209
71.0 62.61177192418347
73.0 64.28039808652933
75.0 65.94920810289862
77.5 67.54506370513984
80.0 69.14572993968822
82.5 70.65905509047516
85.0 72.14346508697898
87.5 73.51475531529209
90.0 74.8147553152921
92.5 75.95742449135815
95.0 76.95742449135814
97.5 77.67166275391891
100.0 78.17166275391891
103.0 78.54313939533782
106.0 78.74313939533782
109.0 78.90099441428072
112.0 79.01508314243884
115.0 79.1861845050195
118.0 79.24313939533782
122.0 79.32880715674528
125.0 79.34313939533783
128.0 79.4
132.0 79.42880715674528
136.0 79.44313939533782
140.0 79.4716627539189
145.0 79.4716627539189
150.0 79.5716627539189
155.0 79.6
160.0 79.6
165.0 79.58585448910236
170.0 79.58585448910236
175.0 79.58585448910236
180.0 79.58585448910236
185.0 79.48585448910237
190.0 79.42880715674528
195.0 79.38585448910237
200.0 79.3
206.0 79.3
212.0 79.2716627539189
218.0 79.3
224.0 79.4
230.0 79.41442746339746
236.0 79.48618450501948
240.0 79.61508314243885
250.0 79.70099441428073
258.0 79.71508314243883
265.0 79.70065786069425
272.0 79.62880715674528
280.0 79.54313939533782
290.0 79.5
300.0 79.45742449135814
307.0 79.44346508697897
315.0 79.38585448910237
325.0 79.32880715674528
335.0 79.30065786069426
345.0 79.24445718403786
355.0 79.18748929892041
365.0 79.08748929892042
375.0 79.00229476693693
387.0 79.00229476693693
400.0 79.00489499373623
412.0 79.00489499373623
425.0 78.95000634017072
437.0 78.95000634017072
450.0 78.9048949937362
462.0 78.9048949937362
475.0 78.9048949937362
487.0 78.97848478147017
500.0 79.1048949937362
515.0 79.11998423401442
530.0 78.99366590096783
545.0 78.8677916354448
560.0 78.76779163544481
580.0 78.79366590096782
600.0 78.91998423401444
615.0 79.063597780615
630.0 79.1048949937362
650.0 79.00489499373623
670.0 78.79817545090702
690.0 78.6444031024367
710.0 78.47455785944567
730.0 78.45086213388186
750.0 78.58664191481758
775.0 78.79485407749127
800.0 79.01363940606882
825.0 79.12251496369491
850.0 79.13366980709031
875.0 79.00489499373623
900.0 78.79817545090702
925.0 78.5351604799582
950.0 78.499422931822
975.0 78.65086213388186
1000.0 78.73443179205896
1030.0 78.89485407749126
1060.0 78.93516047995821
1090.0 78.71831517241345
1120.0 78.6106896630263
1150.0 78.51068966302631
1180.0 78.6444031024367
1220.0 78.68847217927515
1250.0 78.73025838484648
1280.0 78.67640057047572
1320.0 78.85378373474546
1360.0 79.17071823989353
1400.0 79.17455785944567
1450.0 79.23443179205896
1500.0 79.07640057047573
1550.0 79.15086213388186
1600.0 79.14440310243668
1650.0 79.06005936857912
1700.0 78.7228558880836
1750.0 78.62579638388722
1800.0 78.89485763696348
1850.0 79.0997196322694
1900.0 79.379322968396
1950.0 79.83754321429635
2000.0 79.8136394060688
2060.0 79.43025838484648
2120.0 79.34218865688729
2180.0 79.41735564865367
2240.0 79.58675264754275
2300.0 80.08942357824279
2360.0 80.29568844094993
2400.0 80.19827074128978
2500.0 80.34762624819669
2580.0 80.20508571101638
2650.0 80.00080511783138
2720.0 79.56455667065768
2800.0 78.86627638525718
2900.0 78.99203283446482
3000.0 79.0216272397626
3070.0 79.19888657798577
3150.0 79.28457291676025
3250.0 79.38929870666404
3350.0 79.4461774220328
3450.0 79.33464221114865
3550.0 79.62093228243582
3650.0 79.2265793803394
3750.0 79.09407419601689
3870.0 78.61793329885242
4000.0 78.6096803183575
4120.0 79.05978536730754
4250.0 78.91959905993954
4370.0 78.65512285460244
4500.0 78.39190440131125
4620.0 78.25311111393849
4750.0 77.88908722963038
4870.0 77.74540219268525
5000.0 77.69609110747395
5150.0 78.2005778614911
5300.0 78.86438765972679
5450.0 79.5043297217114
5600.0 79.77612024989526
5800.0 80.0514446083079
6000.0 79.0178421507265
6150.0 79.53477206747193
6300.0 79.62833223333885
6500.0 79.46414025743074
6700.0 79.2990367302001
6900.0 79.98245635398175
7100.0 80.35410024463741
7300.0 80.2173385635341
7500.0 80.11959905993955
7750.0 80.03869911125852
8000.0 80.77292812101933
8250.0 81.32059982341494
8500.0 81.16884620022127
8750.0 80.45197949150752
9000.0 79.87163752781072
9250.0 78.93445377743589
9500.0 78.66142639654586
9750.0 78.77981945185113
10000.0 79.16142639654586
10300.0 79.82720489101465
10600.0 80.19923528854964
10900.0 79.67428117671994
11200.0 78.77653119868637
11500.0 78.56556670010298
11800.0 79.14059970236885
12200.0 79.53110734592218
12500.0 79.45264063298347
12800.0 78.61355135210736
13200.0 76.96754991238107
13600.0 77.7506161012173
14000.0 77.74445902053124
14500.0 79.10832958090886
15000.0 79.97176612078243
15500.0 79.78670636246355
16000.0 78.39473992630533
16500.0 77.24766045084138
17000.0 77.40045395584966
17500.0 77.90533693194895
18000.0 78.94486093298761
18500.0 79.70954733889418
19000.0 78.37699114216632
19500.0 77.0164637746184
