Freq "Estimated In-Room Response"
20.5078 61.72827689482641
21.2402 62.65920596881766
21.9727 63.970148522127744
22.7051 65.45793930979517
23.4375 67.41843076553693
24.1699 68.94537272115005
25.6348 71.78568550317924
26.3672 73.22418446922646
27.0996 74.6096648326395
27.832 75.69951592355112
29.2969 77.61098860871807
30.0293 78.472670107695
31.4941 79.38117206641697
32.2266 79.68100638098127
33.6914 80.14758981813719
34.4238 80.34153138312949
35.8887 80.60611029319806
37.3535 80.8034927072878
38.8184 80.98882463298354
39.5508 81.07918661450665
41.0156 81.25745082455379
42.4805 81.43328560892348
43.9453 81.51586750300841
45.4102 81.74764833407987
47.6074 82.12156689688968
49.0723 82.22507200304429
50.5371 82.37522419254817
52.7344 82.6180907682919
54.1992 82.65412925535354
56.3965 82.90481408970996
58.5938 83.04463086690441
60.0586 83.11975062012887
62.2559 83.46855292542352
64.4531 83.47737910165878
66.6504 83.64313867982699
69.5801 83.66856022779875
71.7773 83.63818891332556
73.9746 83.65016642783894
76.9043 83.63590594540374
79.834 83.65023833593332
82.7637 83.6103861708152
85.6934 83.64755375191886
88.623 83.62943393960799
91.5527 83.62625256405158
94.4824 83.52943808533213
98.1445 83.3906099435938
101.807 83.26570580158278
105.469 83.2176383502819
109.131 83.34157828804763
112.793 83.17368751526563
116.455 83.17377418590443
120.85 83.34546836630994
125.244 83.48929896159336
129.639 83.71527666929194
134.033 83.9647503660795
138.428 84.20612598076127
143.555 84.46461433498874
148.682 84.88435685281894
153.809 84.96741470202977
159.668 84.85182750644265
164.795 84.90388416998013
170.654 85.16094973911665
176.514 85.1317153193402
183.105 84.70057366244316
189.697 84.64021907525806
196.289 84.87548996676618
202.881 84.5180593698014
210.205 84.3731801345269
217.529 84.44125660765008
225.586 84.11537258941769
232.91 84.11326422594243
241.699 84.3113462784461
249.756 84.23585001808097
258.545 84.42826510489402
268.066 84.31409562344403
277.588 84.27292413436379
287.109 84.16481152509985
297.363 83.64702712521303
307.617 84.58808365729017
318.604 83.62816879565185
329.59 83.57574294312673
341.309 82.9898501264016
353.76 82.72577133787063
366.211 82.52334694298101
378.662 82.09149389093302
392.578 82.40852001893643
405.762 82.57623095994818
420.41 82.22359353791423
435.059 82.31664027072806
450.439 82.04515755888454
466.553 81.95262167706477
482.666 81.64704677666072
500.244 80.9752077794935
517.822 81.06006583082889
536.133 81.1083219002018
554.443 81.40074727217223
574.219 81.08854823073254
594.727 80.67076980795558
615.234 79.43612971306119
637.207 79.70809710107866
659.912 79.73689540466746
683.35 79.52747110158388
706.787 79.14172854492877
731.689 78.57033765161249
758.057 78.25857270448513
784.424 78.71451047429677
812.256 79.56175859122955
840.82 81.19093086793947
870.85 82.2044571612895
901.611 82.33905990152925
933.105 82.3283781123584
966.064 81.88443552228132
999.756 81.83818477124439
1034.91 81.89469189715362
1071.53 81.72770910270448
1109.62 81.12171706343136
1148.44 81.06003323788644
1189.45 80.42862572052381
1231.2 80.63415266306356
1274.41 80.63986431835299
1319.82 80.05988941883766
1365.97 79.97326327662654
1414.31 79.59920480001117
1464.11 79.22166462390781
1515.38 78.90945945977623
1568.85 78.96979865899938
1624.51 79.26705052958681
1681.64 80.23277608379851
1740.97 80.43648354184398
1802.49 80.13140247194491
1866.21 80.66192100283422
1932.13 82.08062249295304
2000.24 82.30660646492828
2070.56 82.02994499478312
2143.8 81.72708814778352
2219.24 82.18963225757244
2297.61 82.66310054761249
2378.17 82.26309803722205
2462.4 81.77034415324557
2548.83 82.05429676651592
2638.92 82.01705031024801
2731.93 81.5923859944463
2828.61 81.45465382042669
2928.22 81.34984455989894
3031.49 81.05587794222915
3138.43 81.08958155615161
3249.02 81.34668702611364
3363.28 81.14631161982105
3481.93 80.93982826886844
3604.98 80.35303121941568
3732.42 80.18655409382666
3863.53 80.63283833225788
3999.76 80.6155703894598
4141.11 81.0358708109112
4286.87 80.76341117343462
4438.48 80.6576294122622
4594.48 80.87912262069338
4757.08 81.26816412919746
4924.8 81.50067627760522
5098.39 81.72427737572991
5277.83 81.28315649353272
5463.87 80.44421582140696
5656.49 79.65735169279621
5856.45 78.39096428634716
6062.99 77.34620117199842
6276.86 76.12966864216196
6498.05 76.90316689465719
6727.29 77.84333581517095
6964.6 78.64947730318393
7209.96 78.60602038460607
7464.11 78.93459425994294
7727.78 78.8985649542486
8000.24 79.28043184670861
8282.23 79.7985651935001
8574.46 79.92509160524853
8876.22 80.0854548213735
9189.7 80.00127591717214
9513.43 79.75584109730521
9848.88 79.84194658367396
10196.8 80.21434025197348
10556.4 80.47864073339058
10928.5 80.64831312271399
11313.7 80.88712317614582
11712.9 80.93036169009527
12126.0 80.04335651435105
12553.7 78.8523027982258
12996.1 78.49495066486918
13454.6 78.03578053059114
13928.5 76.70384065951873
14419.9 75.76939632948097
14928.2 77.15033302507533
15454.8 78.89887494627412
15999.8 80.13123499996854
16564.5 80.97519951592872
17148.2 81.53676219087235
17753.2 81.72457724922269
18379.4 81.46358474335219
19027.6 80.93296365519166
19698.5 79.93881702048526
19999.5 79.29991033857492
