Freq "Ceiling Bounce"
20.5078 60.01912908077058
21.9727 61.47040941551906
23.4375 65.32204330653481
24.9023 68.538261350024
26.3672 72.44229264459496
27.832 75.36026046123804
29.2969 77.8427760164186
30.7617 80.05951242638197
32.2266 82.02288158454728
33.6914 83.24055522609932
35.1562 84.01507630849291
36.6211 84.43098016224485
38.0859 84.54487519426092
39.5508 84.57866280462936
41.0156 84.66970049725683
42.4805 84.70879915187973
43.9453 84.73836783804045
45.4102 84.67991813274135
46.875 84.70921773885273
48.3398 84.76663807530659
51.2695 84.8139269859128
52.7344 84.8105039808652
54.1992 84.78273019037515
55.6641 84.72285865106677
58.5938 84.66193318438695
60.0586 84.59713075782292
62.9883 84.3923914101985
64.4531 84.29767160515199
67.3828 84.1174127496838
68.8477 84.04257037580349
71.7773 83.98218849825562
74.707 83.9928030720158
77.6367 84.05121825887254
79.1016 84.09391278938502
82.0312 84.23297318958947
84.9609 84.3919403534715
87.8906 84.5482985022703
90.8203 84.61287354290853
95.2148 84.76490799232462
98.1445 84.80623480863517
101.074 84.81400141560707
105.469 84.99907421075834
108.398 85.10634001500864
112.793 85.13099590333148
117.188 85.17039122186884
120.117 85.1955931731524
124.512 85.2175646861912
128.906 85.1901527797476
133.301 85.1962519394387
139.16 85.15994199148838
143.555 85.06844094159459
147.949 85.02936196829194
153.809 85.13855065981784
159.668 85.14700467811322
165.527 85.25637359528369
171.387 85.05137650911118
177.246 84.81304562200674
183.105 84.39702591767563
188.965 84.27070896442878
196.289 84.35849466256015
203.613 84.06618579907114
210.938 83.88236525943364
218.262 83.8047861303745
225.586 83.88300858393988
232.91 84.04440409269279
241.699 83.81983708768597
250.488 83.88120497355112
259.277 84.18616976873034
268.066 83.64697402288053
276.855 83.56850584014005
287.109 83.46040182312713
297.363 83.69102077623627
307.617 83.92254586826984
319.336 83.50959373449993
329.59 83.30214428927259
341.309 83.30066000487305
353.027 83.1813012167084
366.211 83.19096455999072
379.395 83.57051139816748
392.578 83.09754566496294
405.762 83.11156861952132
420.41 83.42967365529655
435.059 82.92491340383971
451.172 83.00667834480198
465.82 83.00777977341875
483.398 82.65037936614011
499.512 81.86961452697642
517.09 83.00530473834762
536.133 82.38794834666353
555.176 83.78429015069791
574.219 82.99445299605948
594.727 83.81861448819517
615.234 84.46567038646457
637.207 83.6116958026406
659.18 84.26950096950385
682.617 84.44600300078433
707.52 84.30152798624204
732.422 84.12049438100713
757.324 82.92519286864328
785.156 82.0521512959331
811.523 82.31899030948267
840.82 82.23174570244451
870.117 80.9070210043635
900.879 80.93711222997311
933.105 79.88753628030531
965.332 80.12550648179528
1000.49 80.84160339479095
1035.64 80.89082998785081
1072.27 81.63122055043642
1108.89 81.488623685127
1148.44 81.47591971359505
1189.45 81.35667194728003
1230.47 80.77952589065328
1274.41 80.19121866459838
1319.82 80.48430207291186
1366.7 81.9860170300249
1413.57 83.23579338392905
1463.38 82.79388308585663
1516.11 82.6278019390716
1568.85 81.81701600947765
1624.51 81.94238993841536
1681.64 82.61251213763238
1741.7 81.16107048038765
1803.22 81.50372633281374
1866.21 81.54479652359733
1932.13 82.17067416247123
1999.51 82.09277539257995
2069.82 81.79083261067963
2143.07 81.39822372082806
2219.24 80.51400592469908
2296.88 80.31221943127592
2378.91 80.3366447221946
2462.4 80.71342715411934
2548.83 81.46573826084655
2639.65 80.98006051646824
2731.93 80.6315575594716
2828.61 80.32329803226827
2928.22 80.28430858430902
3030.76 80.131196593355
3137.7 79.89308152946339
3249.02 80.37757896026727
3363.28 79.89425199022226
3481.93 80.82897037410201
3604.98 80.53193705667418
3732.42 80.74635239595871
3864.26 81.23941803315962
4000.49 80.90528742679759
4141.11 80.47345484438314
4287.6 80.58217450350172
4438.48 80.04129014046605
4595.21 79.44721387548023
4756.35 79.58573332257646
4924.8 78.60582141234846
5097.66 78.85915894300277
5277.83 78.43597929198926
5463.87 78.62409273464728
5657.23 78.64302386115041
5856.45 78.93840358603197
6062.99 78.7137534436616
6276.86 78.92527958205717
6498.05 78.38799156224252
6726.56 78.0539675830271
6963.87 77.58642216961938
7209.96 77.3702103572958
7464.84 77.62753195454395
7727.05 77.53529189970708
7999.51 78.05310703411759
8282.23 78.30057976449312
8573.73 77.92227704387777
8876.95 77.90119675082377
9188.96 77.91417533096502
9514.16 77.96136611558315
9849.61 77.91848141136202
10196.8 77.85454162211704
10555.7 77.82356733596716
10927.7 77.78577704021701
11313.0 77.97751289174347
11712.9 78.03766758662844
12126.0 78.00210586085629
12553.7 77.70604575734895
12996.1 77.01531268937484
13454.6 76.46323218638248
13929.2 76.2792751688604
14419.9 76.57300438905231
14928.2 77.10895228955859
15455.6 77.47819908413877
16000.5 77.22570288881445
16564.5 76.60766119477147
17148.9 75.43973488345496
17752.4 74.53898889683542
18379.4 73.75051825758273
19026.9 72.70949552003938
19697.8 71.74103341858965
19999.5 71.56337374595684
