Freq "On Axis"
22.4 54.3
23.0 54.500000000000014
23.6 54.7
24.0 54.8
25.0 55.000000000000014
25.8 55.10000000000001
26.5 55.3
27.2 55.39999999999999
28.0 55.500000000000014
29.0 55.60000000000001
30.0 55.7
30.7 55.8
31.5 55.89999999999999
32.5 55.89999999999999
33.5 56.000000000000014
34.5 56.000000000000014
35.5 56.10000000000001
36.5 56.10000000000001
37.5 56.2
38.7 56.39999999999999
40.0 56.8
41.2 57.60000000000001
42.5 58.89999999999999
43.7 60.500000000000014
45.0 62.2
46.2 63.89999999999999
47.5 65.5
48.7 67.0
50.0 68.59999999999998
51.5 70.4
53.0 72.2
54.5 74.0
56.0 75.5
58.0 76.6
60.0 77.2
61.5 77.40000000000002
63.0 77.6
65.0 77.9
67.0 78.50000000000001
69.0 79.3
71.0 80.1
73.0 80.7
75.0 81.3
77.5 81.6
80.0 81.9
82.5 82.10000000000001
85.0 82.49999999999999
87.5 83.0
90.0 83.50000000000001
92.5 83.89999999999999
95.0 84.3
97.5 84.5
100.0 84.60000000000001
103.0 84.7
106.0 84.8
109.0 84.99999999999999
112.0 85.2
115.0 85.4
118.0 85.6
122.0 85.8
125.0 85.9
128.0 85.8
132.0 85.6
136.0 85.3
140.0 85.2
145.0 85.2
150.0 85.4
155.0 85.6
160.0 85.8
165.0 86.00000000000001
170.0 86.00000000000001
175.0 86.09999999999998
180.0 86.2
185.0 86.2
190.0 86.39999999999999
195.0 86.5
200.0 86.6
206.0 86.6
212.0 86.5
218.0 86.3
224.0 85.9
230.0 85.6
236.0 85.4
240.0 85.4
250.0 85.7
258.0 86.09999999999998
265.0 86.6
272.0 86.9
280.0 87.10000000000001
290.0 87.10000000000001
300.0 87.0
307.0 86.9
315.0 86.7
325.0 86.6
335.0 86.39999999999999
345.0 86.3
355.0 86.2
365.0 86.2
375.0 86.2
387.0 86.2
400.0 86.2
412.0 86.2
425.0 86.09999999999998
437.0 86.00000000000001
450.0 85.9
462.0 85.9
475.0 85.8
487.0 85.8
500.0 85.8
515.0 85.9
530.0 85.9
545.0 85.8
560.0 85.8
580.0 85.7
600.0 85.7
615.0 85.8
630.0 85.9
650.0 86.00000000000001
670.0 86.09999999999998
690.0 86.2
710.0 86.2
730.0 86.09999999999998
750.0 86.00000000000001
775.0 86.00000000000001
800.0 86.00000000000001
825.0 86.00000000000001
850.0 86.00000000000001
875.0 86.09999999999998
900.0 86.2
925.0 86.3
950.0 86.39999999999999
975.0 86.5
1000.0 86.6
1030.0 86.7
1060.0 86.9
1090.0 87.0
1120.0 87.10000000000001
1150.0 87.0
1180.0 86.8
1220.0 86.6
1250.0 86.39999999999999
1280.0 86.39999999999999
1320.0 86.39999999999999
1360.0 86.39999999999999
1400.0 86.5
1450.0 86.6
1500.0 86.6
1550.0 86.7
1600.0 86.7
1650.0 86.7
1700.0 86.7
1750.0 86.8
1800.0 86.8
1850.0 86.9
1900.0 86.9
1950.0 86.8
2000.0 86.6
2060.0 86.3
2120.0 86.00000000000001
2180.0 85.7
2240.0 85.4
2300.0 85.2
2360.0 85.1
2400.0 85.1
2500.0 84.90000000000002
2580.0 84.8
2650.0 84.60000000000001
2720.0 84.60000000000001
2800.0 84.7
2900.0 84.8
3000.0 84.99999999999999
3070.0 85.1
3150.0 85.2
3250.0 85.2
3350.0 85.3
3450.0 85.4
3550.0 85.4
3650.0 85.4
3750.0 85.3
3870.0 85.3
4000.0 85.2
4120.0 84.99999999999999
4250.0 84.90000000000002
4370.0 84.7
4500.0 84.60000000000001
4620.0 84.5
4750.0 84.5
4870.0 84.5
5000.0 84.7
5150.0 85.1
5300.0 85.6
5450.0 85.9
5600.0 86.00000000000001
5800.0 86.00000000000001
6000.0 86.00000000000001
6150.0 86.09999999999998
6300.0 86.2
6500.0 86.39999999999999
6700.0 86.39999999999999
6900.0 86.2
7100.0 85.7
7300.0 85.2
7500.0 84.8
7750.0 84.7
8000.0 84.7
8250.0 84.7
8500.0 84.7
8750.0 84.7
9000.0 84.8
9250.0 84.99999999999999
9500.0 85.4
9750.0 85.7
10000.0 85.8
10300.0 85.9
10600.0 85.6
10900.0 85.2
11200.0 84.90000000000002
11500.0 84.60000000000001
11800.0 84.8
12200.0 85.2
12500.0 85.9
12800.0 86.6
13200.0 87.2
13600.0 87.6
14000.0 87.6
14500.0 87.40000000000002
15000.0 87.3
15500.0 87.10000000000001
16000.0 87.0
16500.0 86.9
17000.0 86.5
17500.0 85.9
18000.0 85.1
18500.0 84.1
19000.0 83.2
19500.0 81.9
