Freq "Ceiling Bounce"
20.5078 58.567657366249534
21.9727 61.293715232912376
23.4375 62.49846645310373
24.9023 63.80196512823534
26.3672 65.48415425648068
27.832 67.10775542065335
29.2969 68.91984594076577
30.7617 69.95227680754377
32.2266 71.054706038962
33.6914 72.5530193622103
35.1562 73.81608847354988
36.6211 74.8092980448562
38.0859 75.58780298583417
39.5508 76.62661391779233
41.0156 77.32153092390232
42.4805 77.97073277551371
43.9453 78.64117517964877
45.4102 79.19182523540042
46.875 79.74021050621772
48.3398 80.19174498817154
51.2695 81.08174612961633
52.7344 81.56492964235105
54.1992 81.97773524264308
55.6641 82.33176442375175
58.5938 82.98737243980167
60.0586 83.27510149002904
62.9883 83.82432929025808
64.4531 84.08653835125824
67.3828 84.58912580448485
68.8477 84.81568827643403
71.7773 85.24330566173833
74.707 85.6657449792708
77.6367 86.00483044852058
79.1016 86.13628918364537
82.0312 86.40048037644104
84.9609 86.63277861723023
87.8906 86.83637403511916
90.8203 86.960115276609
95.2148 87.23538755107292
98.1445 87.36821004603279
101.074 87.4107800761669
105.469 87.5376793367193
108.398 87.7395604762242
112.793 87.9346743843066
117.188 87.99193819504649
120.117 88.06848592694132
124.512 88.16703068730499
128.906 88.11664836898578
133.301 88.04808975762575
139.16 87.9382498740477
143.555 87.91110346591987
147.949 87.98322684870585
153.809 88.00599427282258
159.668 88.13386979993744
165.527 88.23105760049309
171.387 88.03521343021325
177.246 87.90481000574339
183.105 87.8250054439338
188.965 87.80719560021467
196.289 88.0626410384009
203.613 87.92114490405112
210.938 87.97859483701195
218.262 87.82310160944985
225.586 87.74989349386048
232.91 87.888446141922
241.699 87.51107006976933
250.488 87.463831634433
259.277 87.70045578950251
268.066 87.30732460363747
276.855 87.12528871453601
287.109 87.58075565478943
297.363 87.32628861817874
307.617 87.37386882027994
319.336 86.93926807981177
329.59 86.81402554394006
341.309 86.6780998962528
353.027 86.31805867137935
366.211 86.56843062568731
379.395 87.20709218016353
392.578 86.70048173729178
405.762 86.35983331669317
420.41 86.77138415977797
435.059 85.51965082050597
451.172 85.74354986906273
465.82 85.70723674947143
483.398 85.38373977187689
499.512 85.34269067986942
517.09 85.48163521869452
536.133 84.2583161934149
555.176 84.9374334115559
574.219 84.56860475553805
594.727 84.18346903033027
615.234 85.10377815195265
637.207 84.66430055632166
659.18 85.30562534952203
682.617 85.04235473716489
707.52 84.47419356652969
732.422 83.93779759947856
757.324 83.31370195978461
785.156 83.78740020800942
811.523 84.03860463722052
840.82 84.05289104904628
870.117 84.18500389200328
900.879 81.83279930273736
933.105 82.09886042253304
965.332 86.44867486735772
1000.49 83.24427207912247
1035.64 84.39360594175626
1072.27 85.3880040538993
1108.89 85.61333201085367
1148.44 83.46798232559978
1189.45 85.13981580131296
1230.47 84.98362630635924
1274.41 84.26978196942935
1319.82 85.27566555188224
1366.7 83.50138030814341
1413.57 82.64552742410055
1463.38 82.82018488898517
1516.11 82.97284555159096
1568.85 82.70683620097829
1624.51 83.27641449650052
1681.64 82.14341938441109
1741.7 80.64303212929048
1803.22 78.68618384288823
1866.21 78.18810884814924
1932.13 76.36856597594323
1999.51 76.04253900729819
2069.82 75.93354978544077
2143.07 74.06731266617021
2219.24 75.09330237228882
2296.88 76.7074106945099
2378.91 77.49362599498711
2462.4 77.88769320844833
2548.83 79.19881587290155
2639.65 79.43634595679649
2731.93 79.67912360954065
2828.61 79.6836734873828
2928.22 79.90177388083214
3030.76 79.18846454478634
3137.7 78.15969764938309
3249.02 77.84944611388889
3363.28 76.80343499435837
3481.93 75.81208925115624
3604.98 73.88463041728805
3732.42 75.2698442923748
3864.26 76.44012485279313
4000.49 79.60809059542152
4141.11 80.94158037125288
4287.6 81.14949850254483
4438.48 81.94418648983498
4595.21 82.40142087155856
4756.35 82.12596770200756
4924.8 82.62333670217762
5097.66 83.20625096901549
5277.83 83.1004415548316
5463.87 83.78071632692242
5657.23 83.87827346049411
5856.45 83.05351471798468
6062.99 83.48625072749076
6276.86 83.03140688280254
6498.05 82.76323388028399
6726.56 82.11354717152105
6963.87 81.66342753952807
7209.96 81.46671809139899
7464.84 81.34999321426722
7727.05 81.71132308761787
7999.51 81.50577298287584
8282.23 80.80460239084205
8573.73 80.14339145896736
8876.95 79.35197528150891
9188.96 78.7460799927103
9514.16 77.65054810516511
9849.61 77.19127039893232
10196.8 76.6809307632943
10555.7 76.39887701924637
10927.7 76.65845734505996
11313.0 76.78303637872872
11712.9 76.66647805190287
12126.0 76.76085356684207
12553.7 77.18985657813725
12996.1 77.15367467456451
13454.6 75.61053665694024
13929.2 74.12454366828732
14419.9 74.03021406528617
14928.2 72.79900417422715
15455.6 68.61869515227707
16000.5 65.96150291748502
16564.5 68.77888772447824
17148.9 70.35731496709982
17752.4 70.8740122046122
18379.4 69.43032173325331
19026.9 68.6811638409133
19697.8 67.78456391332617
19999.5 67.35536036829592
