Freq "Floor Bounce"
20.5078 58.91021881775902
21.9727 61.78123587337089
23.4375 63.073278154862464
24.9023 64.2195889914513
26.3672 65.74635496302
27.832 67.24849626146475
29.2969 69.0998328913229
30.7617 70.07617207738828
32.2266 71.08594489545132
33.6914 72.5290115957817
35.1562 73.7993004531688
36.6211 74.75628131744105
38.0859 75.49342243802337
39.5508 76.51046020870591
41.0156 77.20287807577833
42.4805 77.86163351448249
43.9453 78.51052873595445
45.4102 79.06878509194023
46.875 79.60584682849901
48.3398 80.04997809828161
51.2695 80.91997698241876
52.7344 81.4009442099598
54.1992 81.80721648066219
55.6641 82.13462136291099
58.5938 82.78287912105375
60.0586 83.0793770860108
62.9883 83.62714378741973
64.4531 83.88897717188884
67.3828 84.38754379966124
68.8477 84.61954374748636
71.7773 85.04101184718238
74.707 85.42818199851433
77.6367 85.76528249385852
79.1016 85.90275118276978
82.0312 86.17779040494678
84.9609 86.4052842908865
87.8906 86.60618982020104
90.8203 86.7233366633078
95.2148 87.00162348147707
98.1445 87.11342161446197
101.074 87.14585796590472
105.469 87.22946802220167
108.398 87.43162636118512
112.793 87.58696751238261
117.188 87.67874762664697
120.117 87.69668044502292
124.512 87.85261303710676
128.906 87.83467579129821
133.301 87.80152723015914
139.16 87.68860302643526
143.555 87.65989852850203
147.949 87.76818705579714
153.809 87.71547935785131
159.668 87.82999314514504
165.527 87.88558508419794
171.387 87.7375047052572
177.246 87.66102896564033
183.105 87.4913724929911
188.965 87.40863330649681
196.289 87.59415101078626
203.613 87.4441221244648
210.938 87.53290028146711
218.262 87.31470161162754
225.586 87.27979250210583
232.91 87.34879110263842
241.699 87.46276492141081
250.488 87.6112235848161
259.277 87.71185961044341
268.066 87.36546725119769
276.855 87.19071847959549
287.109 87.21993451738348
297.363 87.06437042853344
307.617 87.36970495624863
319.336 87.04002132190662
329.59 87.01806205517977
341.309 86.95414648812394
353.027 86.64314700908179
366.211 86.6507734716538
379.395 87.79726370283306
392.578 87.27167116039219
405.762 86.75753081165233
420.41 87.22841601686119
435.059 86.26575338452719
451.172 86.42805860499686
465.82 86.53929843890148
483.398 86.28840932073817
499.512 86.32714430222035
517.09 86.66592895393352
536.133 86.17494929912702
555.176 86.49233004044248
574.219 86.54799183450712
594.727 86.7389099177948
615.234 87.4020030059703
637.207 87.92183563660456
659.18 88.18463123045737
682.617 87.63589462487967
707.52 87.48723950479553
732.422 87.6304240429722
757.324 86.87437138400509
785.156 88.05510099718592
811.523 87.36686757183446
840.82 85.82339340125063
870.117 87.52618778706004
900.879 87.51813249880354
933.105 87.86373236211193
965.332 85.81563062849305
1000.49 86.80378470414149
1035.64 86.58414587600535
1072.27 85.9561996330677
1108.89 87.15033619760199
1148.44 87.65495324381364
1189.45 88.28994234669457
1230.47 88.33334654219308
1274.41 87.18189806377418
1319.82 87.42054496463334
1366.7 85.71079769304313
1413.57 85.36814041328958
1463.38 84.96741382372605
1516.11 84.45100522263765
1568.85 84.58915825086441
1624.51 84.64263384800611
1681.64 83.61766599835795
1741.7 82.38549397249841
1803.22 82.01755241798448
1866.21 81.9670030199436
1932.13 81.67124628831942
1999.51 81.11703854238652
2069.82 80.13072366664483
2143.07 80.13035009470492
2219.24 80.14315373586662
2296.88 79.07447490064808
2378.91 78.36691961648793
2462.4 77.9438962715877
2548.83 76.93758804893102
2639.65 76.93194582406605
2731.93 77.54199148408864
2828.61 77.95266096690469
2928.22 78.31861318439714
3030.76 78.84038227726788
3137.7 78.593784308403
3249.02 78.34577624969391
3363.28 79.39112981943312
3481.93 81.29845678020938
3604.98 82.05340646758809
3732.42 82.49417122477533
3864.26 82.79050401550924
4000.49 83.71708413444033
4141.11 84.15334452569422
4287.6 84.76262864583633
4438.48 85.23140744000511
4595.21 85.42796070531219
4756.35 85.80428011570922
4924.8 85.22540666391035
5097.66 85.42772033902148
5277.83 85.71713879376212
5463.87 85.4407257343774
5657.23 85.21370217855947
5856.45 85.07279620437816
6062.99 84.3480928865036
6276.86 83.09179467098048
6498.05 81.93034935953833
6726.56 83.41374849672525
6963.87 84.31388456433459
7209.96 85.36739430811004
7464.84 84.66995098900527
7727.05 84.33104385681045
7999.51 85.19263895040586
8282.23 85.75893799807965
8573.73 85.4221527433952
8876.95 85.11096392828395
9188.96 84.91189312884083
9514.16 84.61925258015035
9849.61 84.80601710183916
10196.8 84.21822687832214
10555.7 82.62974599265456
10927.7 80.5758911649736
11313.0 80.0479496030827
11712.9 79.91931887953092
12126.0 79.69576520349129
12553.7 79.57028881088615
12996.1 78.60244086562332
13454.6 79.68615124079038
13929.2 81.65052829942732
14419.9 82.13526790737305
14928.2 82.2610148346755
15455.6 81.94936565689497
16000.5 80.02443543977208
16564.5 79.13290706916835
17148.9 79.03363293417472
17752.4 79.42798227033668
18379.4 79.17756711847723
19026.9 78.20342740680528
19697.8 77.88771080274749
19999.5 77.49276425245145
