Freq "Front Wall Bounce"
20.5078 59.23663993494313
21.9727 62.03516216685648
23.4375 63.1852345873578
24.9023 64.31640223726691
26.3672 65.76842208303492
27.832 67.23100782053373
29.2969 69.07201890364321
30.7617 70.01069593535065
32.2266 71.00314075973473
33.6914 72.43114921952177
35.1562 73.67591989684416
36.6211 74.63148835982093
38.0859 75.35278842014739
39.5508 76.36831754312757
41.0156 77.05522304737984
42.4805 77.70766785497806
43.9453 78.35814769350668
45.4102 78.90798256791777
46.875 79.4414872429446
48.3398 79.88350954779621
51.2695 80.75460532708519
52.7344 81.23985020174665
54.1992 81.65800136935621
55.6641 81.99554104653672
58.5938 82.63529820262352
60.0586 82.92338152794298
62.9883 83.47308292686655
64.4531 83.73303308166084
67.3828 84.23292100683933
68.8477 84.46511785694788
71.7773 84.89468573753068
74.707 85.29492709291945
77.6367 85.63344640187864
79.1016 85.77223482590905
82.0312 86.0512579507211
84.9609 86.27472440871185
87.8906 86.48039766634781
90.8203 86.60895850197721
95.2148 86.89484790443737
98.1445 87.02215235741596
101.074 87.07880871251163
105.469 87.19411680523106
108.398 87.39720071657091
112.793 87.57427947232108
117.188 87.65864793140312
120.117 87.70401728081598
124.512 87.83630877920868
128.906 87.81905623959945
133.301 87.78417006043887
139.16 87.67636507368229
143.555 87.65886811295839
147.949 87.78256333544464
153.809 87.78088690582216
159.668 87.90599789779465
165.527 87.98426260133635
171.387 87.83395792928496
177.246 87.7500411119085
183.105 87.63626178925736
188.965 87.61365263782022
196.289 87.83277289667768
203.613 87.73775053132599
210.938 87.79567796500608
218.262 87.58458748996428
225.586 87.6173832885678
232.91 87.75012113810426
241.699 87.64082931113325
250.488 87.7305755577255
259.277 87.87158831349525
268.066 87.50405205863956
276.855 87.32279397786266
287.109 87.58490124392632
297.363 87.45662210933915
307.617 87.65535916797563
319.336 87.31228938485964
329.59 87.26439768898588
341.309 87.13091857980694
353.027 86.99717084860247
366.211 87.34444994545501
379.395 88.2174222415641
392.578 87.5033501782162
405.762 87.25460184326164
420.41 87.66362669655845
435.059 86.33257336151601
451.172 86.7363862555091
465.82 86.71790854176002
483.398 86.71081420561075
499.512 86.9270488708311
517.09 86.78485344695049
536.133 86.73605712125482
555.176 87.20142584361952
574.219 86.9084870874155
594.727 86.83974538198741
615.234 87.70182897110296
637.207 88.33067830157044
659.18 88.308092590069
682.617 88.02667324508691
707.52 88.07270236153195
732.422 87.13420281345981
757.324 87.15338295966755
785.156 86.24636407930524
811.523 86.77517185759868
840.82 87.93295302249521
870.117 87.04226247154031
900.879 87.44828129982893
933.105 87.49909231752159
965.332 87.98476056988943
1000.49 87.3130940746326
1035.64 85.59169338706602
1072.27 86.46846265604177
1108.89 87.20083234372805
1148.44 87.40197404136633
1189.45 88.3121384288676
1230.47 88.62918080283175
1274.41 88.0091126997705
1319.82 87.77921244237832
1366.7 86.53006753480986
1413.57 85.3249580554513
1463.38 86.56132432526832
1516.11 86.36837418178858
1568.85 86.36934578401917
1624.51 85.83022534403348
1681.64 85.72951613869205
1741.7 86.92001253869792
1803.22 87.76164154967728
1866.21 87.25855395078278
1932.13 86.56374659497355
1999.51 87.04218491158382
2069.82 87.91522282109227
2143.07 87.50811397381389
2219.24 86.29228223870783
2296.88 86.55612043708673
2378.91 87.0144165617942
2462.4 86.16712334331655
2548.83 85.6211060661366
2639.65 85.48673878656561
2731.93 84.84066601888571
2828.61 85.06851546131239
2928.22 85.20752790909839
3030.76 84.6994401744052
3137.7 85.1263031595698
3249.02 85.68703940715102
3363.28 86.2925126989424
3481.93 87.20068952999071
3604.98 87.04715570566829
3732.42 85.93673999522467
3864.26 84.78112029652314
4000.49 83.4625296232546
4141.11 83.64107644980001
4287.6 83.55905965339713
4438.48 83.21506101519414
4595.21 84.38032600514371
4756.35 83.52668849221554
4924.8 84.00349865574945
5097.66 83.32949638863303
5277.83 85.1354869490487
5463.87 85.39093096274917
5657.23 84.92935427990126
5856.45 84.82779923686931
6062.99 84.92486392811645
6276.86 84.40020931090824
6498.05 82.1975233193233
6726.56 82.77965286590154
6963.87 84.10185020451621
7209.96 84.7576094683156
7464.84 85.38723018184874
7727.05 86.1185613144078
7999.51 86.43637110749023
8282.23 86.25726195662106
8573.73 86.1368292477883
8876.95 86.12673742603228
9188.96 86.09504662436073
9514.16 86.18180107465714
9849.61 85.40665669127785
10196.8 84.7107089356077
10555.7 83.93555611990305
10927.7 82.87162549162156
11313.0 82.54394963146478
11712.9 81.63523992098031
12126.0 80.92758156099713
12553.7 81.12198090636824
12996.1 82.19667262537345
13454.6 83.68119740795764
13929.2 84.5670459496817
14419.9 84.66661093494604
14928.2 84.85641525284656
15455.6 85.02139986410955
16000.5 84.42220082934598
16564.5 83.3276094503144
17148.9 82.43075183068746
17752.4 81.46621611430257
18379.4 80.74192236053989
19026.9 79.72720981930121
19697.8 78.82384014840663
19999.5 78.53152094684741
