Freq,On Axis,Listening Window,Sound Power,Early Reflections,Early Reflections DI,Sound Power DI,DI offset
22.4,38.383544303797464,38.26511286117622,37.758044217969854,37.97744620885999,30.287666652316233,30.507068643206367,30
23.0,39.28354430379747,39.19520509754045,38.70007701817923,38.916700056746095,30.278505040794357,30.495128079361223,30
23.6,40.183544303797476,40.15809579140165,39.671032070908666,39.8800836495366,30.278012141865048,30.487063720492984,30
24.0,41.183544303797476,41.10014769056281,40.60783503419421,40.820711951693454,30.279435738869353,30.492312656368597,30
25.0,42.08354430379745,42.03140077395577,41.53268127755675,41.74806002682854,30.283340747127227,30.49871949639902,30
25.8,42.98354430379749,42.9488961480921,42.44464022973625,42.65764252137038,30.291253626721726,30.504255918355852,30
26.5,43.883544303797464,43.84889614809211,43.347877755771606,43.55110265544616,30.29779349264595,30.501018392320503,30
27.2,44.78354430379747,44.75898234616733,44.234565397284484,44.444062479265824,30.314919866901505,30.524416948882845,30
28.0,45.58354430379745,45.62356746340595,45.09879489959522,45.309320586803636,30.31424687660231,30.52477256381073,30
29.0,46.48354430379749,46.4671523307978,45.971132001948064,46.17708312316017,30.29006920763763,30.49602032884974,30
30.0,47.28354430379747,47.33235912089654,46.82406776231758,47.0300423559097,30.30231676498684,30.50829135857896,30
30.7,48.183544303797476,48.16458199238099,47.65553515760385,47.86564952384066,30.29893246854033,30.509046834777138,30
31.5,48.98354430379749,48.99757049195392,48.47818080817481,48.68192406104495,30.31564643090897,30.51938968377911,30
32.5,49.78354430379747,49.83031056793152,49.28333769583875,49.48746090197673,30.342849665954787,30.546972872092766,30
33.5,50.58354430379745,50.59603977715176,50.07697797163195,50.28533711490826,30.3107026622435,30.51906180551981,30
34.5,51.383544303797464,51.39603977715174,50.853133784607024,51.06861428593359,30.32742549121815,30.542905992544718,30
35.5,52.183544303797476,52.150975877069214,51.614311453562635,51.8445047108887,30.306471166180515,30.53666442350658,30
36.5,52.883544303797464,52.928526479509486,52.37214902868405,52.59496100725545,30.333565472254037,30.556377450825437,30
37.5,53.683544303797476,53.66177736888136,53.10401573866895,53.324207736268534,30.337569632612826,30.55776163021241,30
38.7,54.383544303797464,54.38380015035332,53.832245533070775,54.04867021943622,30.335129930917105,30.551554617282548,30
40.0,55.08354430379745,55.07280271910807,54.52879174193532,54.745067519642134,30.327735199465934,30.544010977172746,30
41.2,55.78354430379747,55.772802719108086,55.22272426315152,55.441076197194306,30.33172652191378,30.550078455956566,30
42.5,56.48354430379746,56.47331566419453,55.90619036746833,56.12832208671621,30.34499357747832,30.567125296726203,30
43.7,57.183544303797476,57.11790162513306,56.55368932897602,56.78356945534844,30.334332169784616,30.564212296157038,30
45.0,57.883544303797464,57.784567599600535,57.19442566678208,57.43505880623127,30.349508793369267,30.590141932818455,30
46.2,58.48354430379747,58.41790162513307,57.83548641119107,58.07261427039006,30.345287354743007,30.582415213942,30
47.5,59.183544303797476,59.06305117391716,58.46187769114286,58.69590266937013,30.367148504547032,30.6011734827743,30
48.7,59.78354430379747,59.663051173917154,59.065169576351295,59.30187706220795,30.361174111709204,30.59788159756586,30
50.0,60.383544303797464,60.296051526838625,59.690145858654176,59.93065439409196,30.365397132746665,30.605905668184448,30
51.5,60.98354430379747,60.89605152683862,60.27975291452469,60.52476130865543,30.37129021818319,30.616298612313926,30
53.0,61.58354430379747,61.49605152683863,60.87711251027562,61.13225027936798,30.363801247470647,30.618939016563004,30
54.5,62.183544303797476,62.096051526838636,61.46934302482069,61.726633011918295,30.36941851492034,30.626708502017948,30
56.0,62.78354430379747,62.696051526838616,62.064441740363236,62.32296540069177,30.373086126146845,30.63160978647538,30
58.0,63.383544303797464,63.31790162513306,62.6656657512105,62.9228664287149,30.395035196418164,30.652235873922564,30
60.0,63.98354430379746,63.917901625133055,63.26772845330213,63.526521994314635,30.39137963081842,30.65017317183093,30
61.5,64.58354430379747,64.59528016091332,63.91564090953446,64.18182494799743,30.413455212915892,30.67963925137886,30
63.0,65.28354430379747,65.23964234193272,64.5616474736345,64.83356709786595,30.40607524406677,30.677994868298228,30
65.0,65.98354430379747,65.96177736888134,65.25091822382453,65.53616376755102,30.425613601330326,30.710859145056816,30
67.0,66.68354430379748,66.67280271910809,65.97218360602704,66.24945243902336,30.423350280084733,30.700619113081046,30
69.0,67.48354430379749,67.46177736888134,66.72923133834843,67.0247320470681,30.437045321813244,30.732546030532916,30
71.0,68.28354430379747,68.22877968988028,67.4953051945503,67.7914547255609,30.437324964319387,30.733474495329986,30
73.0,68.98354430379746,68.97280271910807,68.24281689383947,68.53837958607511,30.434423133032965,30.7299858252686,30
75.0,69.78354430379747,69.77280271910809,69.00039899217933,69.3117079294658,30.46109478964229,30.772403726928758,30
77.5,70.48354430379747,70.46177736888136,69.67851975729326,70.00736882982801,30.454408539053347,30.7832576115881,30
80.0,71.18354430379748,71.10647540627811,70.29330531904715,70.6335541264156,30.472921279862504,30.813170087230958,30
82.5,71.68354430379748,71.66177736888135,70.83533564628343,71.1778862239592,30.48389114492214,30.82644172259792,30
85.0,72.18354430379748,72.12877968988029,71.26214180611485,71.61839255295088,30.51038713692941,30.866637883765435,30
87.5,72.58354430379745,72.48405598183795,71.62246618013201,71.98957139239721,30.494484589440745,30.861589801705946,30
90.0,72.88354430379746,72.78405598183795,71.91249686259562,72.28784237356467,30.49621360827328,30.871559119242335,30
92.5,73.18354430379748,73.08405598183796,72.17588314574267,72.57091717566273,30.513138806175235,30.90817283609529,30
95.0,73.48354430379747,73.38405598183795,72.45008086460889,72.86190297669819,30.522153005139756,30.933975117229053,30
97.5,73.78354430379747,73.7064754062781,72.7204782757686,73.14399267106121,30.56248273521689,30.985997130509503,30
100.0,74.08354430379747,73.98405598183794,72.95355759027957,73.4101339654617,30.573922016376244,31.030498391558368,30
103.0,74.28354430379747,74.18405598183796,73.12060719414043,73.59062134024828,30.59343464158968,31.063448787697524,30
106.0,74.38354430379746,74.28405598183795,73.1483002982944,73.6525816094182,30.631474372419746,31.13575568354355,30
109.0,74.38354430379746,74.26253701498642,73.04764565415141,73.57684554061184,30.68569147437458,31.21489136083501,30
112.0,74.18354430379748,74.10647540627811,72.84034825504544,73.41643050945952,30.69004489681859,31.266127151232666,30
115.0,73.98354430379746,73.88506751329928,72.55962377595846,73.16920962273323,30.715857890566042,31.32544373734082,30
118.0,73.88354430379746,73.76253701498642,72.32136840237447,72.97306363679128,30.78947337819514,31.441168612611946,30
122.0,73.68354430379748,73.58506751329928,72.1243356802432,72.79610265084033,30.788964862458954,31.460731833056073,30
125.0,73.68354430379748,73.56305117391716,72.01492942833734,72.7218713273769,30.841179846540257,31.54812174557982,30
128.0,73.58354430379748,73.48506751329927,71.9193129998844,72.64330326693364,30.841764246365628,31.565754513414873,30
132.0,73.48354430379747,73.38506751329928,71.82232901276865,72.5435067065513,30.841560806747978,31.562738500530628,30
136.0,73.38354430379746,73.22929786065609,71.70794727078913,72.40944045238771,30.819857408268376,31.521350589866955,30
140.0,73.18354430379748,73.10647540627812,71.60820751146947,72.29985042933417,30.80662497694395,31.49826789480865,30
145.0,73.18354430379748,73.05200100825994,71.57760011534819,72.25308016841713,30.798920839842808,31.474400892911746,30
150.0,73.18354430379748,73.10647540627812,71.65137853278017,72.30583830836693,30.800637097911192,31.45509687349795,30
155.0,73.38354430379746,73.26305117391715,71.75577993238933,72.41675889450458,30.846292279412566,31.507271241527818,30
160.0,73.48354430379747,73.38506751329928,71.80478999475702,72.49853615809127,30.886531355208007,31.58027751854226,30
165.0,73.58354430379748,73.44192102916728,71.73571286041056,72.49576092629809,30.946160102869186,31.706208168756717,30
170.0,73.68354430379748,73.46482140802992,71.48656423449319,72.37553792634068,31.089283481689236,31.978257173536733,30
175.0,73.58354430379748,73.33282462936143,71.07607774444436,72.1387879737033,31.194036655658124,32.256746884917064,30
180.0,73.38354430379746,73.16655663282557,70.5772951020562,71.82756187904894,31.338994753776632,32.58926153076938,30
185.0,73.18354430379748,73.0211720639352,70.1762384499014,71.57903110113604,31.442140962799158,32.84493361403379,30
190.0,73.08354430379747,72.88709040571268,69.96795528896594,71.44226363643594,31.444826769276744,32.919135116746745,30
195.0,72.88354430379746,72.72117206393519,69.7845321379711,71.2681947997378,31.452977264197386,32.93663992596409,30
200.0,72.68354430379748,72.52117206393518,69.6022662125706,71.08666789594304,31.434504167992145,32.918905851364585,30
206.0,72.68354430379748,72.50975445763005,69.57672840009258,71.06973078671916,31.44002367091089,32.933026057537475,30
212.0,72.78354430379747,72.56629378506769,69.58983291972572,71.11408238317975,31.452211401887936,32.97646086534196,30
218.0,72.88354430379746,72.65577289723696,69.57290954301276,71.1738389257182,31.481933971518757,33.0828633542242,30
224.0,72.88354430379746,72.75499434335845,69.5214303538902,71.22326840699235,31.5317259363661,33.23356398946825,30
230.0,72.98354430379747,72.84192102916728,69.50900214920236,71.2815823422937,31.56033868687358,33.33291887996492,30
236.0,72.98354430379747,72.86404447472205,69.52099105861525,71.29545497420219,31.568589500519863,33.3430534161068,30
240.0,72.88354430379746,72.79856767270704,69.47380497632264,71.23240683835267,31.566160834354363,33.3247626963844,30
250.0,72.88354430379746,72.67713857615516,69.33551233399956,71.11672805310528,31.56041052304988,33.3416262421556,30
258.0,72.78354430379747,72.57050022667349,69.16291120797186,70.9827304293922,31.587769797281283,33.40758901870163,30
265.0,72.78354430379747,72.51776950596499,69.05503941937236,70.91737030839491,31.600399197570084,33.46273008659263,30
272.0,72.68354430379748,72.51391903457642,69.11502422642131,70.97060958136856,31.543309453207854,33.398894808155106,30
280.0,72.78354430379747,72.58918353360997,69.25759549935401,71.07129092997002,31.51789260363995,33.33158803425596,30
290.0,72.88354430379746,72.72169718823109,69.36018316414821,71.1569892430451,31.564707945185987,33.36151402408288,30
300.0,72.98354430379747,72.82169718823108,69.39658102620017,71.20607955937632,31.615617628854764,33.42511616203092,30
307.0,73.18354430379748,72.9130326338208,69.39589292936273,71.25140301138818,31.661629622432628,33.517139704458074,30
315.0,73.28354430379747,73.0162580146919,69.38694046598467,71.26438685586578,31.75187115882612,33.629317548707235,30
325.0,73.48354430379747,73.16354792175414,69.38357398116588,71.28166321788353,31.88188470387061,33.77997394058826,30
335.0,73.58354430379748,73.33955824302252,69.47340831571483,71.37938271575842,31.9601755272641,33.86614992730769,30
345.0,73.78354430379747,73.51625801469189,69.55396912340443,71.51056512759192,32.00569288709997,33.96228889128746,30
355.0,73.98354430379746,73.66354792175416,69.54502403167419,71.60288914328078,32.06065877847338,34.11852389007997,30
365.0,74.08354430379747,73.78451334542139,69.5300620360087,71.65448976761795,32.13002357780344,34.25445130941269,30
375.0,74.28354430379747,73.94352641778048,69.50268813294234,71.68539178786754,32.25813462991293,34.44083828483814,30
387.0,74.28354430379747,74.017769505965,69.44719865731857,71.66803316024121,32.3497363457238,34.57057084864644,30
400.0,74.38354430379746,74.09761320813612,69.35869646588037,71.64599514479737,32.451618063338756,34.73891674225575,30
412.0,74.38354430379746,74.1104577260864,69.28157564896362,71.60602119025607,32.50443653583032,34.82888207712277,30
425.0,74.38354430379746,74.04881985330383,69.33311598007123,71.59374894434382,32.45507090896001,34.7157038732326,30
437.0,74.48354430379747,74.09211895634361,69.48266501765534,71.64514982493147,32.446969131412146,34.609453938688276,30
450.0,74.68354430379748,74.04761884301286,69.46894525500431,71.60994968605783,32.437669156955025,34.57867358800854,30
462.0,74.78354430379747,74.0654465791601,69.4061252161257,71.62250154571157,32.442945033448524,34.659321363034394,30
475.0,74.78354430379747,74.19370771474351,69.54198864518588,71.75311487572411,32.4405928390194,34.65171906955763,30
487.0,74.88354430379746,74.40324407485497,69.96676174738127,72.0670776272218,32.33616644763316,34.4364823274737,30
500.0,74.98354430379749,74.6246016348348,70.31323505632324,72.37499069234845,32.249610942486356,34.31136657851157,30
515.0,75.18354430379748,74.88276866380286,70.53925046581196,72.67288354403927,32.2098851197636,34.3435181979909,30
530.0,75.28354430379747,75.16258335136982,70.74005243039059,72.97341951989111,32.18916383147871,34.42253092097923,30
545.0,75.28354430379747,75.2460512720604,70.62799512520822,73.03233625606457,32.21371501599583,34.61805614685218,30
560.0,75.28354430379747,75.04991105453979,70.12080726607562,72.75531834138184,32.294592713157954,34.929103788464175,30
580.0,74.98354430379749,74.6378692878908,69.52404405934539,72.3164400906172,32.32142919727359,35.11382522854541,30
600.0,74.48354430379747,74.01555195645159,68.89772577896534,71.78214721629818,32.233404740153404,35.11782617748625,30
615.0,73.68354430379748,73.11085108458803,67.89076263130882,70.93859427678117,32.17225680780686,35.22008845327922,30
630.0,72.68354430379748,72.14260715879117,66.82895870910453,69.9895031017368,32.153104057054364,35.31364844968664,30
650.0,71.98354430379747,71.46911102603009,66.41556662414817,69.48284469362736,31.986266332402735,35.05354440188192,30
670.0,71.78354430379747,71.41612848597599,66.38762198069526,69.44001971517243,31.976108770803563,35.02850650528073,30
690.0,71.98354430379747,71.63012483555627,66.27744786204038,69.53906438531827,32.091060450238004,35.3526769735159,30
710.0,72.28354430379747,72.02465125008729,66.29744084562427,69.70880886610706,32.315842383980225,35.72721040446302,30
730.0,72.68354430379748,72.44313380181444,66.27552982732661,69.80401376354058,32.63912003827386,36.16760397448783,30
750.0,73.08354430379747,72.62598136801054,65.95924818225507,69.64205801683144,32.9839233511791,36.666733185755476,30
775.0,73.38354430379746,72.6785152478974,65.70357778021071,69.50779274344589,33.170722504451504,36.974937467686686,30
800.0,73.58354430379748,72.92079768848647,65.9451630965892,69.76541975239255,33.15537793609393,36.975634591897276,30
825.0,73.68354430379748,73.08050758368226,66.00039064610387,69.90490567083654,33.17560191284572,37.080116937578396,30
850.0,73.58354430379748,73.02392505591344,65.76596843291883,69.80832893463264,33.2155961212808,37.25795662299461,30
875.0,73.58354430379748,72.87592037918722,65.56330271015375,69.61304233909709,33.26287804009013,37.31261766903347,30
900.0,73.48354430379747,72.79658760130829,65.53237682930597,69.4114304330094,33.38515716829889,37.264210772002315,30
925.0,73.38354430379746,72.7452162063422,65.38354529633327,69.1480357834766,33.597180422865605,37.36167091000894,30
950.0,73.18354430379748,72.54115135846342,65.00592200974586,68.66319950830038,33.87795185016304,37.535229348717564,30
975.0,72.98354430379747,72.09738308915311,64.39966255562717,68.07106901172361,34.026314077429504,37.69772053352594,30
1000.0,72.78354430379747,71.63817661769025,64.43991747687878,67.91956789849893,33.71860871919132,37.19825914081147,30
1030.0,72.78354430379747,71.7051799845911,64.48224803015464,67.9179649693089,33.7872150152822,37.22293195443646,30
1060.0,72.98354430379747,72.21515166083084,64.40081690798979,67.93681363861754,34.278338022213305,37.81433475284105,30
1090.0,73.28354430379747,72.84636594093982,64.98791983343324,68.41795380250247,34.42841213843735,37.85844610750658,30
1120.0,73.68354430379748,72.82495405122617,64.50626476354488,68.14775787646771,34.677196174758464,38.318689287681295,30
1150.0,73.58354430379748,72.88341012429228,64.72823207154325,68.17207077626688,34.711339348025405,38.15517805274904,30
1180.0,73.18354430379748,72.88659274927741,64.99007330210702,68.29382345559014,34.59276929368727,37.89651944717039,30
1220.0,72.68354430379748,72.24519358880451,64.20423880463329,67.53210802183001,34.7130855669745,38.04095478417122,30
1250.0,72.28354430379747,71.54508146685802,63.301554613176776,66.69304003832191,34.85204142853611,38.243526853681246,30
1280.0,72.28354430379747,71.34528930290959,63.413121246049556,66.55500460963916,34.790284693270436,37.932168056860036,30
1320.0,72.48354430379749,71.77959247825275,63.96978067266858,66.94055009147415,34.8390423867786,37.809811805584175,30
1360.0,72.78354430379747,71.8630881485939,63.85874407533285,66.89962100942083,34.963467139173076,38.00434407326105,30
1400.0,72.78354430379747,71.9584030125522,64.22239996562351,67.14787793454168,34.810525078010514,37.73600304692869,30
1450.0,72.48354430379749,72.08802856126356,64.54528808256387,67.53226622186335,34.555762339400204,37.542740478699685,30
1500.0,72.28354430379747,72.04233841982219,64.55700504440543,67.50316393620454,34.53917448361764,37.48533337541676,30
1550.0,71.98354430379747,71.90146360670249,64.90037000703562,67.6198536437436,34.281609962958896,37.00109359966687,30
1600.0,71.78354430379747,71.84136692307719,65.25738547169911,67.92407395522493,33.91729296785226,36.58398145137808,30
1650.0,71.88354430379746,71.86935598974021,65.59858638070239,68.2291554445074,33.640200545232815,36.27076960903783,30
1700.0,72.78354430379747,72.36319598929147,66.26770916439469,69.40531897018283,32.957877019108636,36.09548682489678,30
1750.0,73.58354430379748,73.11746050103892,66.79722132185934,70.26434185861146,32.85311864242746,36.32023917917958,30
1800.0,74.18354430379748,73.74138556257522,67.19894706829622,70.74369641341879,32.99768914915643,36.542438494279,30
1850.0,74.48354430379747,74.15181009644459,67.27445746167481,70.69478200213103,33.45702809431356,36.87735263476978,30
1900.0,74.38354430379746,74.44597739141723,67.54724317492109,70.76316480092345,33.68281259049378,36.89873421649614,30
1950.0,74.38354430379746,74.42021146933219,67.73138021896376,70.90342608546774,33.516785383864445,36.68883125036842,30
2000.0,74.68354430379748,74.27267217981613,67.29763053572361,70.67310410139358,33.59956807842255,36.975041644092514,30
2060.0,74.68354430379748,74.40756040377424,67.14033707506924,70.55244833568192,33.855112068092325,37.267223328705,30
2120.0,75.28354430379747,74.64347131275868,66.83479728900271,70.55203042420298,34.091440888555695,37.80867402375597,30
2180.0,75.08354430379745,74.33544866757605,66.14670246177423,70.05284755060367,34.28260111697237,38.18874620580182,30
2240.0,75.18354430379748,74.24900928137893,65.6929850717321,69.72836670692257,34.52064257445636,38.556024209646836,30
2300.0,74.98354430379749,73.76890367105021,64.8300980295081,69.18911508506925,34.579788585980964,38.93880564154212,30
2360.0,74.88354430379746,73.3866183286678,64.20400632983562,68.74674683216017,34.639871496507624,39.18261199883217,30
2400.0,75.08354430379745,73.32201745406654,64.15836253511803,68.76304993735432,34.558967516712215,39.16365491894851,30
2500.0,75.18354430379748,73.33703497560879,64.0668722467279,68.74061560647495,34.59641936913384,39.27016272888089,30
2580.0,75.68354430379748,73.53726681208532,64.13230304946563,68.91218538856033,34.62508142352499,39.40496376261969,30
2650.0,75.88354430379746,73.53069798189945,64.06423501519892,68.89573196904213,34.63496601285732,39.46646296670053,30
2720.0,74.98354430379749,72.63295754595627,64.22838756735811,68.57954620983246,34.053411336123816,38.40456997859816,30
2800.0,74.38354430379746,72.07189792983708,64.49941188895887,68.2352603874813,33.836637542355774,37.5724860408782,30
