Freq "Sound Power"
22.4 37.974499914172384
23.0 38.91653271438176
23.6 39.887487767111196
24.0 40.82429073039674
25.0 41.74913697375928
25.8 42.66109592593878
26.5 43.564333451974136
27.2 44.451021093487014
28.0 45.31525059579775
29.0 46.187587698150594
30.0 47.04052345852011
30.7 47.87199085380638
31.5 48.69463650437734
32.5 49.49979339204128
33.5 50.29343366783448
34.5 51.069589480809555
35.5 51.830767149765165
36.5 52.58860472488658
37.5 53.32047143487148
38.7 54.048701229273306
40.0 54.74524743813785
41.2 55.43917995935405
42.5 56.12264606367086
43.7 56.77014502517855
45.0 57.41088136298461
46.2 58.0519421073936
47.5 58.67833338734539
48.7 59.281625272553825
50.0 59.90660155485671
51.5 60.49620861072722
53.0 61.09356820647815
54.5 61.68579872102322
56.0 62.280897436565766
58.0 62.88212144741303
60.0 63.48418414950466
61.5 64.13209660573699
63.0 64.77810316983702
65.0 65.46737392002706
67.0 66.18863930222957
69.0 66.94568703455096
71.0 67.71176089075283
73.0 68.459272590042
75.0 69.21685468838186
77.5 69.89497545349579
80.0 70.50976101524968
82.5 71.05179134248596
85.0 71.47859750231738
87.5 71.83892187633454
90.0 72.12895255879815
92.5 72.3923388419452
95.0 72.66653656081142
97.5 72.93693397197113
100.0 73.1700132864821
103.0 73.33706289034296
106.0 73.36475599449693
109.0 73.26410135035394
112.0 73.05680395124797
115.0 72.77607947216099
118.0 72.537824098577
122.0 72.34079137644574
125.0 72.23138512453987
128.0 72.13576869608693
132.0 72.03878470897118
136.0 71.92440296699166
140.0 71.824663207672
145.0 71.79405581155072
150.0 71.8678342289827
155.0 71.97223562859186
160.0 72.02124569095955
165.0 71.95216855661309
170.0 71.70301993069572
175.0 71.29253344064689
180.0 70.79375079825873
185.0 70.39269414610393
190.0 70.18441098516847
195.0 70.00098783417363
200.0 69.81872190877313
206.0 69.79318409629511
212.0 69.80628861592825
218.0 69.78936523921529
224.0 69.73788605009273
230.0 69.72545784540489
236.0 69.73744675481778
240.0 69.69026067252517
250.0 69.55196803020209
258.0 69.37936690417439
265.0 69.2714951155749
272.0 69.33147992262384
280.0 69.47405119555654
290.0 69.57663886035074
300.0 69.6130367224027
307.0 69.61234862556526
315.0 69.6033961621872
325.0 69.60002967736841
335.0 69.68986401191736
345.0 69.77042481960696
355.0 69.76147972787672
365.0 69.74651773221123
375.0 69.71914382914487
387.0 69.6636543535211
400.0 69.5751521620829
412.0 69.49803134516615
425.0 69.54957167627376
437.0 69.69912071385787
450.0 69.68540095120684
462.0 69.62258091232823
475.0 69.75844434138841
487.0 70.1832174435838
500.0 70.52969075252577
515.0 70.75570616201449
530.0 70.95650812659312
545.0 70.84445082141075
560.0 70.33726296227815
580.0 69.74049975554792
600.0 69.11418147516787
615.0 68.10721832751135
630.0 67.04541440530706
650.0 66.6320223203507
670.0 66.60407767689779
690.0 66.4939035582429
710.0 66.5138965418268
730.0 66.49198552352914
750.0 66.1757038784576
775.0 65.92003347641324
800.0 66.16161879279173
825.0 66.2168463423064
850.0 65.98242412912136
875.0 65.77975840635628
900.0 65.7488325255085
925.0 65.6000009925358
950.0 65.22237770594839
975.0 64.6161182518297
1000.0 64.6563731730813
1030.0 64.69870372635717
1060.0 64.61727260419232
1090.0 65.20437552963577
1120.0 64.7227204597474
1150.0 64.94468776774578
1180.0 65.20652899830955
1220.0 64.42069450083582
1250.0 63.51801030937931
1280.0 63.629576942252086
1320.0 64.1862363688711
1360.0 64.07519977153538
1400.0 64.43885566182604
1450.0 64.7617437787664
1500.0 64.77346074060796
1550.0 65.11682570323815
1600.0 65.47384116790164
1650.0 65.81504207690492
1700.0 66.48416486059722
1750.0 67.01367701806187
1800.0 67.41540276449875
1850.0 67.49091315787734
1900.0 67.76369887112362
1950.0 67.9478359151663
2000.0 67.51408623192614
2060.0 67.35679277127177
2120.0 67.05125298520524
2180.0 66.36315815797676
2240.0 65.90944076793463
2300.0 65.04655372571062
2360.0 64.42046202603815
2400.0 64.37481823132056
2500.0 64.28332794293043
2580.0 64.34875874566816
2650.0 64.28069071140145
2720.0 64.44484326356064
2800.0 64.7158675851614
2900.0 64.71522723266031
3000.0 64.46343246444147
3070.0 64.87964854211273
3150.0 65.28632417210724
3250.0 64.95909476915388
3350.0 64.38760763957916
3450.0 64.25671622913771
3550.0 64.08761921866615
3650.0 63.48104402795808
3750.0 62.94886505908224
3870.0 63.078532911239336
4000.0 63.162052747420944
4120.0 63.50548634950265
4250.0 64.63882928569008
4370.0 65.41907374856011
4500.0 64.2730916319917
4620.0 62.83536406632864
4750.0 62.81303497556523
4870.0 62.47234309997772
5000.0 61.41009681158101
5150.0 60.568049382496014
5300.0 61.203468569122776
5450.0 62.88540175459313
5600.0 62.99087818227089
5800.0 62.06553487103167
6000.0 60.503901828498954
6150.0 60.43976004354043
6300.0 60.84090918832035
6500.0 60.61261013795156
6700.0 60.90656330838763
6900.0 62.1733235142332
7100.0 60.966569933226594
7300.0 60.3290129343099
7500.0 59.87169399882626
7750.0 60.29207021892569
8000.0 60.723021211465365
8250.0 60.3661125440464
8500.0 57.679515410000306
8750.0 56.510731977503156
9000.0 59.67562644212907
9250.0 60.625588712009275
9500.0 61.16265142810647
9750.0 60.37256669697203
10000.0 59.63573358257629
10300.0 61.561688447092806
10600.0 60.80120884962764
10900.0 59.29157056505311
11200.0 56.9414786434844
11500.0 54.92623846516018
11800.0 52.85884619324797
12200.0 61.071654751275474
12500.0 59.32736460439878
12800.0 57.56677006349915
13200.0 57.35053329368078
13600.0 56.20622133182026
14000.0 56.82349938821467
14500.0 57.66984958461177
15000.0 57.449111484724256
15500.0 59.83946486837108
16000.0 59.06393856841841
16500.0 57.09608946467655
17000.0 59.08226235463944
17500.0 55.63606998939366
18000.0 51.386705861708634
18500.0 53.01433272859089
19000.0 51.846099522983806
19500.0 46.82466224581617
