Freq "Rear Wall Bounce"
22.4 3.426536060814982
23.0 5.358404432447429
23.6 7.263686569240946
24.0 9.136693462828248
25.0 11.013866627394464
25.8 12.893181883030934
26.5 14.733560071105757
27.2 16.580035270493397
28.0 18.401769413196064
29.0 20.190540736223824
30.0 21.979282952252646
30.7 23.76875018582959
31.5 25.514913814098207
32.5 27.26732506159894
33.5 28.988133029728345
34.5 30.677861280694742
35.5 32.37712572061204
36.5 34.055766364346056
37.5 35.745176339627136
38.7 37.391812734337805
40.0 39.002051577732914
41.2 40.61203408965736
42.5 42.22246252808753
43.7 43.812034089657345
45.0 45.34348603402212
46.2 46.88034712875549
47.5 48.4117908814365
48.7 49.85360391627272
50.0 51.25360391627271
51.5 52.63262945071543
53.0 53.94300861079476
54.5 55.264173435712095
56.0 56.54300861079476
58.0 57.78475731698205
60.0 58.95336302495224
61.5 60.07447757129168
63.0 61.15336302495223
65.0 62.15336302495223
67.0 63.084757316982035
69.0 63.95336302495224
71.0 64.8323873931521
73.0 65.6323873931521
75.0 66.29525138019942
77.5 66.87423783502992
80.0 67.35336302495222
82.5 67.77423783502991
85.0 68.09525138019941
87.5 68.38475731698203
90.0 68.56369281090537
92.5 68.68475731698204
95.0 68.80085467589744
97.5 68.86393312995745
100.0 68.92198278799927
103.0 68.90085467589745
106.0 68.88475731698205
109.0 68.83262945071542
112.0 68.81155319615154
115.0 68.7801077162911
118.0 68.73262945071542
122.0 68.79085740405125
125.0 68.82222542615072
128.0 68.89109622466927
132.0 68.98059210419058
136.0 69.10181878148228
140.0 69.20181878148227
145.0 69.2703024830225
150.0 69.25998842502555
155.0 69.19756198249068
160.0 69.06721014671439
165.0 68.89829408972679
170.0 68.72453591286148
175.0 68.55712395046291
180.0 68.43591902495203
185.0 68.3738289529819
190.0 68.3538939425201
195.0 68.33363052401528
200.0 68.313028977682
206.0 68.1923072410236
212.0 68.00475616448203
218.0 67.69498475802345
224.0 67.42129403072508
230.0 67.13466402341592
236.0 66.87121476951864
240.0 66.69453404385104
250.0 66.67514668732925
258.0 66.62684619582036
265.0 66.48388812187059
272.0 66.2329545491164
280.0 65.82663646386548
290.0 65.3964556378167
300.0 65.05914762597568
307.0 64.85563604429291
315.0 64.72674730538859
325.0 64.67837567645944
335.0 64.62162792693879
345.0 64.55684780976787
355.0 64.45490835567827
365.0 64.32779635760022
375.0 64.1408615117706
387.0 63.925548317582894
400.0 63.7496336549288
412.0 63.64250577949849
425.0 63.61688645918758
437.0 63.59279153557641
450.0 63.497100251705035
462.0 63.34942681817925
475.0 63.342078606814624
487.0 63.36803794152763
500.0 63.26268111264183
515.0 62.867709582222574
530.0 62.50999475580943
545.0 62.20649257628597
560.0 62.29959141305733
580.0 62.29171129959283
600.0 62.57050535451539
615.0 62.71860875094289
630.0 62.557837037735354
650.0 62.42439476111329
670.0 61.96988664187806
690.0 61.241486653713636
710.0 60.79987189585407
730.0 60.389578521153084
750.0 60.086934970611495
775.0 60.03222046110818
800.0 59.825388846986414
825.0 59.524081361172335
850.0 58.854750009755506
875.0 58.54073621082645
900.0 57.87385851625072
925.0 57.20925819984572
950.0 57.23951959423954
975.0 56.94349147848938
1000.0 56.5142966042809
1030.0 56.006142359355565
1060.0 55.02686107107813
1090.0 53.70438240233055
1120.0 53.35823699002671
1150.0 54.36536553891608
1180.0 55.75230093169105
1220.0 58.88089049746354
1250.0 57.674556274831104
1280.0 57.20332355236302
1320.0 57.197983684821025
1360.0 55.84635649840088
1400.0 54.59056948983698
1450.0 55.56280873119148
1500.0 57.189763884255
1550.0 57.517538103706784
1600.0 58.26384085301133
1650.0 57.35100210482716
1700.0 54.66743039681728
1750.0 55.49672020366458
1800.0 57.12742849992566
1850.0 57.770812780545384
1900.0 58.072393305464175
1950.0 60.51798268465596
2000.0 65.22435156570167
2060.0 67.43321917733608
2120.0 60.10162578681279
2180.0 54.726809982649414
2240.0 52.42405286273565
2300.0 53.46631783615142
2360.0 56.2728753162706
2400.0 56.694932768271656
2500.0 54.95757511175425
2580.0 53.81048555647736
2650.0 54.43452496332361
2720.0 52.688233991075094
2800.0 53.42138805538758
2900.0 53.738349489432466
3000.0 54.02836405998569
3070.0 53.85979973652988
3150.0 53.68947490224669
3250.0 52.370395165810635
3350.0 52.73711297796949
3450.0 51.80134137574633
3550.0 52.743732023362995
3650.0 52.32327815012704
3750.0 50.97699146733868
3870.0 48.5306026930387
4000.0 47.25763479048507
4120.0 44.74531772817923
4250.0 45.09894408933292
4370.0 45.62848412299182
4500.0 46.11166807995912
4620.0 46.31589791093927
4750.0 45.98294016961535
4870.0 45.169013481530584
5000.0 44.139101300223615
5150.0 44.57716738463196
5300.0 44.80188335501674
5450.0 45.59298123681059
5600.0 45.448177158271974
5800.0 45.5728089507172
6000.0 44.63154484247744
6150.0 44.65552637284304
6300.0 43.541657427730854
6500.0 43.83401015303011
6700.0 45.31476740320181
6900.0 45.41816376421252
7100.0 44.982689521694425
7300.0 42.54095628876729
7500.0 42.36479241065021
7750.0 44.107873257462785
8000.0 45.831105646086115
8250.0 46.44457696891993
8500.0 47.485501791211504
8750.0 48.2359637765592
9000.0 47.61574091503715
9250.0 47.796522374677906
9500.0 45.74405151422438
9750.0 43.51834989240896
10000.0 42.9776089703642
10300.0 41.72852638669764
10600.0 40.238564764846615
10900.0 42.21116425089059
11200.0 43.339505161654955
11500.0 44.69559153317775
11800.0 45.422437809269354
12200.0 41.318856149591966
12500.0 41.985988147138045
12800.0 44.891507565803465
13200.0 43.69398563940925
13600.0 44.74358056090048
14000.0 42.25255008848481
14500.0 41.58252315939967
15000.0 41.3667149624396
15500.0 39.582150923230046
16000.0 39.39895443429515
16500.0 38.72676235144314
17000.0 36.43685848847244
17500.0 35.062875277765585
18000.0 36.0693530037795
18500.0 40.805424486046206
19000.0 37.85075527183798
19500.0 39.884274858384515
