Freq "Floor Bounce"
20.0 44.325207547169796
20.2909 44.35420754716979
20.586 44.62020754716981
20.8855 44.821207547169806
21.1893 44.952207547169806
21.4975 45.200207547169796
21.8102 45.543207547169814
22.1274 45.922207547169805
22.4492 46.28620754716981
22.7758 46.61520754716982
23.1071 46.8492075471698
23.4432 46.96020754716979
23.7841 47.0462075471698
24.1301 47.1772075471698
24.4811 47.3442075471698
24.8372 47.50020754716981
25.1984 47.72120754716981
25.5649 48.0402075471698
25.9368 48.38720754716981
26.3141 48.688207547169796
26.6968 49.033207547169795
27.0851 49.4032075471698
27.4791 49.64320754716981
27.8788 49.79220754716981
28.2843 49.9862075471698
28.6957 50.27520754716981
29.1131 50.674207547169814
29.5365 51.15120754716982
29.9661 51.4752075471698
30.402 51.5882075471698
30.8442 51.634207547169794
31.2929 51.819207547169796
31.748 52.196207547169806
32.2098 52.577207547169806
32.6783 52.87120754716979
33.1536 53.12620754716981
33.6359 53.3972075471698
34.1251 53.6772075471698
34.6215 53.8732075471698
35.125 53.978207547169816
35.6359 54.16120754716981
36.1543 54.44920754716982
36.6802 54.72720754716981
37.2137 54.940207547169805
37.755 55.140207547169794
38.3041 55.396207547169794
38.8613 55.7362075471698
39.4265 56.033207547169795
40.0 56.2782075471698
40.5818 56.51420754716982
41.1721 56.737540906088086
41.771 56.99420754716981
42.3785 57.3115409060881
42.9949 57.65754090608807
43.6203 57.96454090608809
44.2548 58.2388742394201
44.8985 58.629207623922625
45.5515 59.037207623922654
46.2141 59.27187439291987
46.8863 59.37487439291988
47.5683 59.387207854181156
48.2602 59.53320785418116
48.9621 59.79087469991943
49.6743 59.986875160418734
50.3968 60.20420877521509
51.1299 60.4472087752151
51.8736 60.72854244120357
52.6281 61.02720946599051
53.3936 61.28287654191651
54.1702 61.51721031027148
54.9581 61.772877462914906
55.7575 62.04121130805798
56.5685 62.343878537412905
57.3914 62.67387976541046
58.2261 62.98221376414733
59.073 63.18621522245006
59.9323 63.39888268190397
60.804 63.641550192463484
61.6884 63.94355195764116
62.5857 64.22855387631213
63.496 64.48122159131928
64.4196 64.74622374014753
65.3566 65.04555817413359
66.3073 65.35656055328383
67.2717 65.62389649431498
68.2502 65.8038991802446
69.2429 65.93523387033072
70.2501 66.120905012546
71.2719 66.34757328954494
72.3086 66.61457651253289
73.3603 66.90357988899518
74.4274 67.18358341893162
75.5099 67.46392058566202
76.6083 67.76359093922623
77.7226 68.06959492958397
78.8531 68.33893255581589
80.0 68.56393685279018
81.1636 68.77161034596098
82.3442 68.91927943967931
83.5419 69.0816198603095
84.757 69.24995840487978
85.9899 69.42596354529502
87.2406 69.65463834091932
88.5096 69.92364386472698
89.797 70.22564954197011
91.1031 70.50032515485235
92.4282 70.7586648720319
93.7726 71.01534109701478
95.1366 71.26368397292664
96.5204 71.52536088752085
97.9243 71.80203117920763
99.3486 72.06370857830062
100.794 72.33071578821824
102.26 72.59839377424025
103.747 72.8420721173236
105.256 73.06907994022289
106.787 73.30375887009161
108.34 73.54143815692153
109.916 73.77944659270158
111.515 74.02846036904822
113.137 74.2814781587702
114.783 74.50748728365656
116.452 74.66616822758728
118.146 74.80951171130404
119.865 74.96985926578891
121.608 75.1532031562105
123.377 75.34855744561439
125.171 75.53556779489547
126.992 75.73191239632537
128.839 75.97226138122753
130.713 76.24160638905413
132.615 76.52129008314805
134.543 76.80064696743466
136.5 77.06333150116801
138.486 77.29200451250152
140.5 77.4746895293732
142.544 77.63937490248053
144.617 77.82738723999931
146.721 77.99840756726302
148.855 78.13042028641985
151.02 78.2527675766611
153.217 78.4014543984123
155.445 78.59014157616522
157.706 78.80881555060903
160.0 79.04350321098545
162.327 79.248511954277
164.688 79.38386550557895
167.084 79.47053983446934
169.514 79.5625631245138
171.98 79.68757752243907
174.481 79.83991223731383
177.019 80.00692678726291
179.594 80.1816014954846
182.206 80.36495106352714
184.856 80.54395106352716
187.545 80.69063572405541
190.273 80.790975794528
193.041 80.86731070997271
195.849 80.98098574640207
198.697 81.15366083333942
201.587 81.35132073820223
204.52 81.52365578129954
207.494 81.63399087569793
210.512 81.67699087569794
213.574 81.68265088470423
216.681 81.68931094537795
219.833 81.69097105771532
223.03 81.71263122171251
226.274 81.79229143736572
229.565 81.9242767456209
232.905 82.0902579336754
236.292 82.26724362612556
239.729 82.38622947157454
243.216 82.46555082996505
246.754 82.49018419865875
250.343 82.36715742266874
253.984 82.21380545743277
257.678 82.19844115216868
261.426 82.16041621395082
265.229 82.10371545566481
269.087 82.15435406422488
273.001 82.21232033232532
276.972 82.15062356318424
281.0 82.01591975738138
285.088 81.8982178355029
289.234 81.88684449349314
293.441 81.9634824488961
297.709 82.07445063094153
302.04 82.15808558142962
306.433 82.17971706351773
310.89 82.18402363002784
315.412 82.16799264422097
320.0 82.16497160873277
324.655 82.27195141461631
329.377 82.38493672795678
334.168 82.43459483301523
339.028 82.4015916204257
343.959 82.276927548782
348.962 82.1226032315592
354.038 81.97029137303873
359.188 81.85231706669647
364.412 81.7683574609536
369.713 81.68940764749703
375.09 81.65346855426831
380.546 81.60653894498559
386.081 81.50295918362293
391.697 81.29706248819377
397.394 81.08518214762779
403.175 80.91965088470424
409.039 80.81879837374674
414.989 80.73997134910525
421.025 80.64648967095117
427.149 80.53635839808084
433.362 80.41424251419927
439.665 80.2951521120299
446.06 80.18540248525946
452.548 80.08634549947722
459.131 80.0056401714696
465.809 79.93626947453532
472.584 79.8712485344821
479.458 79.81090892909786
486.432 79.75158494014293
493.507 79.69292514232538
500.686 79.63696527810883
507.968 79.58200057781816
515.357 79.5313633556464
522.853 79.4843837122796
530.458 79.44074885293647
538.174 79.40181433112728
546.002 79.36851291749123
553.943 79.3398876182128
562.001 79.317248318794
570.175 79.2989506946338
578.469 79.28702077883139
586.883 79.28038139534297
595.419 79.27844247284281
604.08 79.28117939018186
612.866 79.28820223078
621.78 79.29895523769719
630.824 79.31299196526182
640.0 79.32939807116578
649.309 79.3474174296024
658.753 79.36647348067376
668.335 79.38544498704717
678.056 79.40375298750932
687.919 79.42063715939746
697.925 79.43542991858203
708.077 79.44755587368898
718.376 79.45522335922662
728.825 79.45946258668285
739.426 79.4582446696153
750.181 79.45196691291967
761.093 79.43890605370164
772.163 79.41864206882785
783.394 79.39233579930797
794.789 79.35891087822507
806.349 79.31804694326111
818.078 79.26876218746338
829.977 79.21212484154414
842.05 79.1477731059705
854.298 79.07608707394833
866.724 78.99741607857054
879.33 78.91347119344836
892.12 78.82460381887874
905.097 78.73352525853038
918.262 78.64224998303237
931.618 78.55343915563954
945.169 78.46945316058498
958.917 78.3949439042891
972.864 78.33388437039979
987.015 78.28924230068901
1001.37 78.2659837710758
1015.94 78.26573167851288
1030.71 78.29146254254131
1045.71 78.34415724849629
1060.92 78.42116441355851
1076.35 78.5225183784325
1092.0 78.64325958624187
1107.89 78.77709564117612
1124.0 78.92175355970828
1140.35 79.06893268492418
1156.94 79.21199694293091
1173.77 79.34960723664027
1190.84 79.46949907642907
1208.16 79.57996759454794
1225.73 79.66371829822539
1243.56 79.73008938008608
1261.65 79.76815885225076
1280.0 79.78466153647982
1298.62 79.76718085097137
1317.51 79.74674493512535
1336.67 79.69860206719032
1356.11 79.63828453484003
1375.84 79.57115409305261
1395.85 79.50415820317968
1416.15 79.44896698638568
1436.75 79.40534165431062
1457.65 79.39177811530284
1478.85 79.40729727627195
1500.36 79.45829306095489
1522.19 79.555633077369
1544.33 79.6903633829733
1566.79 79.85827588858128
1589.58 80.05188598905296
1612.7 80.26412572689718
1636.16 80.48692410602425
1659.95 80.71173903413033
1684.1 80.93192113872819
1708.6 81.14213442489482
1733.45 81.33974504619347
1758.66 81.5241155581908
1784.24 81.6943127971024
1810.19 81.85218157125826
1836.52 81.99844068855889
1863.24 82.13363339476761
1890.34 82.25616860077601
1917.83 82.3634667847752
1945.73 82.45028657355854
1974.03 82.51095255484564
2002.74 82.53653485909457
2031.87 82.52396572169242
2061.43 82.47039085177532
2091.41 82.37716451777683
2121.83 82.25260185779321
2152.69 82.10959639635449
2184.01 81.96739800808135
2215.77 81.85563865278137
2248.0 81.77837621483138
2280.7 81.76394291833364
2313.87 81.81046768088719
2347.53 81.91124417651703
2381.68 82.05506386655846
2416.32 82.22142495790742
2451.46 82.39838824451873
2487.12 82.57803080795154
2523.3 82.73914374025684
2560.0 82.88023632513466
2597.24 82.98893427402761
2635.01 83.05679538030326
2673.34 83.0531174907784
2712.23 83.00169824188099
2751.68 82.877102177666
2791.7 82.7122814679709
2832.31 82.52620351153547
2873.5 82.35985423594211
2915.3 82.23316890154523
2957.7 82.16813164102038
3000.72 82.18333753095287
3044.37 82.31959558089554
3088.65 82.60338840835267
3133.58 83.03526672603022
3179.16 83.61589551081114
3225.4 84.27923692932053
3272.31 84.95824101744331
3319.91 85.58247501220613
3368.2 86.10382167141547
3417.19 86.50611584879779
3466.89 86.80338346303121
3517.32 87.03114092898548
3568.48 87.22567958797264
3620.39 87.41407031927669
3673.05 87.59690743191963
3726.47 87.7566457260955
3780.67 87.85580878603584
3835.67 87.89430651024742
3891.46 87.81875114889226
3948.06 87.6741444124129
4005.49 87.43095106925313
4063.75 87.13277880494228
4122.86 86.79902406749291
4182.82 86.43573852647653
4243.66 86.03658611041301
4305.39 85.60764013663452
4368.01 85.17630665014404
4431.55 84.78828741503388
4496.01 84.45481967016185
4561.4 84.1593785329385
4627.75 83.87872730258596
4695.06 83.62917899570856
4763.35 83.428649909311
4832.64 83.28272944386084
4902.93 83.19272463129916
4974.24 83.1602018579294
5046.6 83.1805164730355
5120.0 83.18944614050105
5194.47 83.13294150095417
5270.03 83.01851607122522
5346.68 82.90324539992211
5424.45 82.8151288058043
5503.35 82.77245241485998
5583.4 82.80609038179973
5664.61 82.91533969830613
5747.01 83.0424605181279
5830.6 83.15967601539249
5915.41 83.24470122374956
6001.45 83.27513074527728
6088.74 83.23158185499413
6177.3 83.17686144446364
6267.15 83.14759532288066
6358.31 83.1266022542979
6450.8 83.1088123260892
6544.62 83.09055015958059
6639.82 83.05717358346934
6736.4 83.00611832803914
6834.38 82.94950172489943
6933.79 82.87766512127985
7034.64 82.78243964778571
7136.96 82.68294376771851
7240.77 82.6000145141103
7346.09 82.55724418865182
7452.94 82.55095422328748
7561.35 82.54353836342398
7671.33 82.54133895721405
7782.91 82.55848612121353
7896.12 82.58536851159265
8010.97 82.61459901976633
8127.49 82.64985775767114
8245.71 82.6646090202192
8365.65 82.62539682259442
8487.33 82.50380134809153
8610.78 82.33427378179346
8736.03 82.15276147028982
8863.09 81.97154040847194
8992.01 81.80026768234814
9122.8 81.56875695557837
9255.5 81.31763903491957
9390.12 81.1525754769629
9526.7 81.11218589243562
9665.27 81.12429688265469
9805.86 81.11295639238149
9948.49 81.04795287390992
10093.2 80.93809048810041
10240.0 80.78148630508876
10388.9 80.54827503945917
10540.1 80.24275865368752
10693.4 79.90300388206921
10848.9 79.521964090701
11006.7 79.11492405477512
11166.8 78.76044811081535
11329.2 78.46717122923377
11494.0 78.0844494208328
11661.2 77.47160108202931
11830.8 76.90973245455892
12002.9 76.55232244017537
12177.5 76.37761684460686
12354.6 76.39863525914552
12534.3 76.34728910415214
12716.6 76.03433847362133
12901.6 75.64662955521464
13089.2 75.31904364510841
13279.6 75.29234546351947
13472.8 75.55956113236267
13668.8 75.87327247414687
13867.6 75.83910835855319
14069.3 75.25364847553895
14273.9 74.37317020304708
14481.5 73.73927990444797
14692.2 73.67486990433403
14905.9 73.86743062503221
15122.7 74.0241877658466
15342.7 74.07952537043532
15565.8 74.12577825109744
15792.2 74.22559876470783
16021.9 74.31251890190129
16255.0 74.28962874672553
16491.4 74.00514181598258
16731.3 73.57614111017476
16974.7 73.06802218517585
17221.6 72.55716043223198
17472.1 72.18560700681098
17726.2 71.85187755843624
17984.0 71.2880118428369
18245.6 70.33847657048794
18511.0 69.33748960038253
18780.2 68.90117507059291
19053.4 69.07881454886486
19330.5 69.35212520066979
19611.7 69.46692137520787
19897.0 69.68456496708113
