Freq "Estimated In-Room Response"
20.5078 60.66142334937646
21.9727 61.76728166328655
23.4375 63.57637577224075
24.9023 64.81584960940707
26.3672 66.4742470015947
27.832 67.5866549940412
29.2969 68.56535400950554
30.7617 69.4931436069281
32.2266 70.47912832014738
33.6914 71.34878852183118
35.1562 72.14436271354518
36.6211 72.83569925582857
38.0859 73.66579523674815
39.5508 74.3135926750248
41.0156 75.21114515539237
42.4805 75.54877851120231
43.9453 76.19066323794058
45.4102 76.66922602056954
46.875 77.18545784460267
48.3398 77.71333159944068
51.2695 78.61060208439936
52.7344 79.05264240733217
54.1992 79.42331130000338
55.6641 79.81163483269889
58.5938 80.42930813831657
60.0586 80.73869736009155
62.9883 81.3756901666944
64.4531 81.64040786168539
67.3828 82.10436603922591
68.8477 82.26562183033741
71.7773 82.69237354045381
74.707 83.0677866981115
77.6367 83.37952295934832
79.1016 83.49242903239518
82.0312 83.7343383123057
84.9609 83.94854800483779
87.8906 84.00090235919816
90.8203 84.06527225240437
95.2148 84.22130896662759
98.1445 84.37674546959633
101.074 84.33451675379737
105.469 84.28380231615115
108.398 84.4174720696037
112.793 84.60474050478433
117.188 84.57969990528599
120.117 84.46758588048596
124.512 84.6540772526152
128.906 84.50793067950357
133.301 84.32818494266857
139.16 84.18238799098067
143.555 84.17333813773783
147.949 84.25583454961175
153.809 84.10968822954305
159.668 84.02953656252677
165.527 83.91512647097883
171.387 83.73403220489315
177.246 83.69949481747912
183.105 83.55606598439633
188.965 83.30698066970211
196.289 83.24011549334115
203.613 83.05405445152472
210.938 82.96006132376651
218.262 82.74250730253603
225.586 82.61354586495139
232.91 82.67442309694196
241.699 82.65124103900715
250.488 82.8026997826436
259.277 82.7991533294657
268.066 82.41252897403318
276.855 82.49909795082675
287.109 82.2262396710542
297.363 82.36827258120753
307.617 82.28267397146487
319.336 81.79430547976044
329.59 81.33506520649921
341.309 81.1125190258484
353.027 81.34699548150742
366.211 82.17921600267326
379.395 82.51325066544695
392.578 82.24634870449336
405.762 82.35436083066745
420.41 82.1701564896745
435.059 82.10096453539386
451.172 82.37741197672932
465.82 81.82240453584072
483.398 81.68712586918649
499.512 81.90769749191205
517.09 82.09080040774018
536.133 81.68594512146956
555.176 81.92240109186218
574.219 82.23820581836517
594.727 81.91844383891022
615.234 81.79059911316162
637.207 81.81848021422834
659.18 81.07827265821531
682.617 81.20694128911992
707.52 81.8625583529441
732.422 81.46774613513081
757.324 81.54059395507849
785.156 81.62189686931431
811.523 81.61143177277125
840.82 81.9888272731841
870.117 81.83924891272031
900.879 82.30439015894416
933.105 81.95504681637453
965.332 82.27151483604779
1000.49 81.95738514170428
1035.64 81.53116031748598
1072.27 81.59914647126504
1108.89 81.24860307621502
1148.44 80.95356188881354
1189.45 80.62422125173526
1230.47 80.74980436550419
1274.41 80.71811308436753
1319.82 81.11700679853254
1366.7 80.82493430552938
1413.57 80.38434221040403
1463.38 80.03252083371612
1516.11 79.06885406622573
1568.85 78.60307888783535
1624.51 78.52723237121461
1681.64 78.87549059530244
1741.7 79.03126356963476
1803.22 78.67214625364642
1866.21 77.84986961663172
1932.13 77.48604289758447
1999.51 78.14582120327181
2069.82 78.82997338568416
2143.07 78.7317687887373
2219.24 78.39240534760046
2296.88 78.06869743587316
2378.91 78.00953311714099
2462.4 78.84776644209286
2548.83 78.56500142622222
2639.65 77.95579491865485
2731.93 77.42725555383946
2828.61 77.44730328265925
2928.22 77.87217545931836
3030.76 77.90838794597738
3137.7 77.95972056762835
3249.02 77.93908052302638
3363.28 77.83157548618262
3481.93 78.16378009330192
3604.98 78.88552146251749
3732.42 79.13018694429942
3864.26 78.13061117123134
4000.49 77.65460730303793
4141.11 77.7689941861169
4287.6 77.42509738450786
4438.48 77.74495632648572
4595.21 76.94282187952967
4756.35 76.48333757653776
4924.8 76.8755846781122
5097.66 78.21751510372769
5277.83 79.21666635903367
5463.87 79.54156644156046
5657.23 79.27225009993946
5856.45 78.64315728612314
6062.99 78.78034419690242
6276.86 78.35148730784985
6498.05 78.26399885147055
6726.56 77.90796352095789
6963.87 77.32770265109043
7209.96 78.14023717317824
7464.84 79.66111354938752
7727.05 80.42482836877703
7999.51 79.90717678447402
8282.23 79.27943651267915
8573.73 78.7719220695434
8876.95 78.39645813970367
9188.96 77.49549951203404
9514.16 77.29201807242453
9849.61 77.59331909716605
10196.8 78.11113318340634
10555.7 77.95869271712635
10927.7 77.63485683894477
11313.0 77.17261938480276
11712.9 76.72532456508557
12126.0 76.64419126224365
12553.7 76.7842403096167
12996.1 76.9035950270126
13454.6 76.73165678744759
13929.2 76.46931579282565
14419.9 76.12196554870826
14928.2 75.5187971424587
15455.6 74.90268487663191
16000.5 74.45545708959861
16564.5 74.08761084000008
17148.9 73.54484309115655
17752.4 72.46994623626617
18379.4 71.54600624639244
19026.9 71.45483283153793
19697.8 71.51375895421275
19999.5 71.42014823975761
