Freq "Front Wall Bounce"
20.5078 61.58915813299667
21.9727 60.79940554809998
23.4375 56.97449974823992
24.9023 59.814172385825955
26.3672 64.82103080045273
27.832 67.00579140544464
29.2969 70.16536759467145
30.7617 74.54173393267546
32.2266 77.64612034092173
33.6914 80.66175703844077
35.1562 83.92675394623218
36.6211 86.91453093201751
38.0859 89.75352766957839
39.5508 92.19282726395592
41.0156 94.03284492023478
42.4805 95.6052389400557
43.9453 96.69563216745725
45.4102 97.34849076303321
46.875 97.80058731588606
48.3398 98.0571723833282
51.2695 98.16941706364751
52.7344 98.10756408259344
54.1992 98.0472287999914
55.6641 98.02040759066448
58.5938 97.838789581023
60.0586 97.760868375848
62.9883 97.61320273873119
64.4531 97.55908065206773
67.3828 97.55199960423441
68.8477 97.57222782280074
71.7773 97.6128924491063
74.707 97.62230076750151
77.6367 97.63222668465717
79.1016 97.66301934260255
82.0312 97.80290782521762
84.9609 97.91726803030257
87.8906 97.92134418405828
90.8203 98.03913822739395
95.2148 98.22897551734064
98.1445 98.40097706147564
101.074 98.47045834877436
105.469 98.50705133724132
108.398 98.53986180549724
112.793 98.78932585630088
117.188 98.90445454961102
120.117 98.9924711051998
124.512 99.24212310845944
128.906 99.29801590066735
133.301 99.06699356694863
139.16 98.79240595167019
143.555 98.93249196243293
147.949 99.0806975529098
153.809 99.07851548736636
159.668 99.14589063395974
165.527 98.99686828433168
171.387 98.6862581776098
177.246 98.55117558880077
183.105 98.87643954858765
188.965 98.60280759836918
196.289 98.22282544339986
203.613 98.3681348352024
210.938 98.40167152535068
218.262 98.5175401389272
225.586 98.7851312684178
232.91 98.8852966438585
241.699 98.92295362912236
250.488 99.28948709605184
259.277 99.21299676598792
268.066 99.03451656285945
276.855 98.94772460180245
287.109 98.75952251057883
297.363 99.48889411378819
307.617 99.37163610849476
319.336 99.62803738982679
329.59 99.40360467614458
341.309 99.75360416006798
353.027 99.74352888582948
366.211 99.1031782947386
379.395 99.56850027767614
392.578 98.38776401037659
405.762 98.70645492691007
420.41 98.7373372541904
435.059 98.30659086883169
451.172 98.85073446080774
465.82 98.63739718459011
483.398 98.90605214572996
499.512 99.10107427873957
517.09 98.71825116003579
536.133 98.90428485016328
555.176 98.8517168909651
574.219 98.7122815333631
594.727 98.54431282719091
615.234 98.13029499278974
637.207 97.82515817025593
659.18 96.76421667923724
682.617 97.0325812777828
707.52 98.24520639901891
732.422 98.8401994454844
757.324 98.35329867974949
785.156 96.61788600341067
811.523 96.89786803256558
840.82 96.81329838821497
870.117 96.83347927171143
900.879 97.27198420702574
933.105 101.18697880716495
965.332 101.60280735694936
1000.49 101.15882424748916
1035.64 100.60327640389185
1072.27 99.90836673183475
1108.89 98.53812761945797
1148.44 97.91505343871302
1189.45 98.21550575762927
1230.47 98.7137799169738
1274.41 99.34045680552371
1319.82 99.82979848414685
1366.7 99.96982988735782
1413.57 99.88481895875262
1463.38 99.5505224535472
1516.11 100.0250611858808
1568.85 99.9807625882307
1624.51 100.22769025548992
1681.64 101.24828125422817
1741.7 101.73718229308876
1803.22 101.16392322408154
1866.21 100.89142383805923
1932.13 100.06732768430761
1999.51 101.01599596793582
2069.82 100.8737976765543
2143.07 100.19523957312076
2219.24 99.79926949996177
2296.88 99.63979753206254
2378.91 100.59514689073275
2462.4 101.17600001958563
2548.83 100.41673968759319
2639.65 98.831661360864
2731.93 98.20563349705361
2828.61 99.0157520407191
2928.22 99.03688866264545
3030.76 98.53721259973754
3137.7 99.0866015061482
3249.02 99.2982294286547
3363.28 99.1777535394526
3481.93 99.24403262287684
3604.98 99.85013924776845
3732.42 100.1189119819311
3864.26 98.69740179290825
4000.49 98.42965257428824
4141.11 98.79624673886865
4287.6 98.56941643535728
4438.48 98.06064709193586
4595.21 97.48686775704455
4756.35 98.83657571710985
4924.8 98.56207534507259
5097.66 98.64891261550733
5277.83 99.04001342877267
5463.87 98.9891589939132
5657.23 99.40479808770453
5856.45 99.03468039890888
6062.99 99.29270655429143
6276.86 98.98647322385618
6498.05 99.20468852667237
6726.56 99.00760696374277
6963.87 99.16253411503013
7209.96 99.44127451036995
7464.84 98.88986950362384
7727.05 99.50781060775599
7999.51 98.8871219248234
8282.23 99.11603382464327
8573.73 98.80976559302105
8876.95 99.09567527633102
9188.96 98.45058023788008
9514.16 98.77065256359934
9849.61 98.4181048052588
10196.8 98.46738032131475
10555.7 98.24824997330687
10927.7 98.05699964856558
11313.0 98.25419055030899
11712.9 98.2819339479128
12126.0 98.37819735575407
12553.7 98.51250278372704
12996.1 98.79275914631494
13454.6 99.04925418894543
13929.2 99.19843953990151
14419.9 99.43263159525976
14928.2 99.57114915321858
15455.6 99.59040618157871
16000.5 99.4286599125735
16564.5 99.071755628216
17148.9 98.57140825585354
17752.4 97.86134413789502
18379.4 97.00784225668316
19026.9 95.9947017063528
19697.8 94.819813407374
19999.5 94.3132596121061
