Freq "Floor Bounce"
20.0 47.726776
20.290899 48.18977699999999
20.586 48.68377699999999
20.8855 49.216778000000005
21.189301 49.80477500000001
21.497499 50.446777
21.8102 51.13377800000001
22.127399 51.859779
22.4492 52.61077900000001
22.775801 53.373774999999995
23.1071 54.13377800000001
23.443199 54.875778
23.7841 55.586776999999984
24.1301 56.257778
24.4811 56.882778
24.8372 57.461776999999984
25.1984 57.995777000000004
25.564899 58.489777000000004
25.9368 58.95177799999999
26.3141 59.392776
26.6968 59.824780000000004
27.0851 60.259776999999985
27.479099 60.709778
27.878799 61.177775999999994
28.2843 61.662777000000006
28.6957 62.15778
29.1131 62.65078
29.536501 63.132778
29.966101 63.59377700000002
30.402 64.029778
30.8442 64.44278
31.2929 64.843773
31.748 65.246773
32.209801 65.668777
32.678299 66.126778
33.153599 66.626778
33.635899 67.16478000000001
34.125099 67.732773
34.621498 68.312775
35.125 68.88678
35.635899 69.438774
36.154301 69.959778
36.680199 70.44477800000001
37.213699 70.892776
37.755 71.321777
38.3041 71.740776
38.861301 72.059776
39.426498 72.41577900000001
40.0 72.763779
40.581799 73.11077899999998
41.1721 73.46077700000001
41.771 73.818779
42.378502 74.187775
42.9949 74.56778
43.6203 74.956779
44.254799 75.35377500000001
44.898499 75.756775
45.551498 76.16477999999998
46.2141 76.580772
46.886299 77.005775
47.568298 77.443779
48.260201 77.893776
48.962101 78.352776
49.674301 78.815773
50.396801 79.278778
51.129902 79.73577900000001
51.8736 80.18377699999999
52.628101 80.619774
53.3936 81.043777
54.1702 81.45477300000002
54.958099 81.850777
55.7575 82.231773
56.568501 82.597771
57.391399 82.946777
58.226101 83.280777
59.073 83.596771
59.932301 83.897774
60.804 84.183777
61.6884 84.452774
62.585701 84.70877100000001
63.496 84.99177600000002
64.419601 85.167778
65.356598 85.376778
66.307297 85.569771
67.271698 85.74577299999999
68.250198 85.90777600000001
69.242897 86.055771
70.250099 86.19577799999999
71.271896 86.328773
72.308601 86.45477300000002
73.360298 86.576775
74.427399 86.69277200000002
75.509903 86.802773
76.608299 86.905777
77.722603 86.999771
78.853104 87.085777
80.0 87.163773
81.163597 87.232773
82.3442 87.293777
83.541901 87.347771
84.757 87.393776
85.989899 87.434776
87.240601 87.469772
88.509598 87.50377699999999
89.797 87.526772
91.103104 87.551773
92.4282 87.572777
93.772598 87.592773
95.136597 87.610771
96.520401 87.62777699999998
97.924301 87.641777
99.348602 87.652771
100.794 87.659775
102.26 87.661774
103.747 87.659775
105.256 87.657776
106.787 87.657776
108.34 87.659775
109.916 87.661774
111.515 87.660774
113.137 87.64577499999999
114.783 87.599777
116.452 87.533775
118.146 87.44177200000001
119.865 87.351776
121.608 87.279778
123.377 87.229774
125.171 87.197777
126.992 87.177773
128.839 87.165771
130.713 87.159775
132.615 87.151772
134.543 87.13277400000001
136.5 87.096771
138.486 87.047775
140.5 86.979774
142.544 86.89477500000001
144.617 86.809776
146.721 86.738777
148.855 86.689774
151.02 86.662773
153.217 86.647774
155.445 86.638771
157.706 86.634773
160.0 86.635773
162.327 86.637772
164.688 86.642776
167.084 86.647774
169.514 86.651772
171.98 86.647774
174.481 86.624771
177.019 86.567772
179.594 86.47377799999998
182.206 86.364777
184.856 86.283775
187.545 86.248772
190.273 86.243774
193.041 86.25377699999999
195.849 86.251778
198.697 86.218773
201.587 86.140778
204.52 86.026772
207.494 85.916771
210.512 85.842773
213.574 85.809776
216.681 85.810776
219.833 85.826775
223.03 85.840775
226.274 85.838776
229.565 85.810776
232.905 85.756775
236.292 85.68177799999998
239.729 85.579773
243.216 85.499771
246.754 85.469772
250.343 85.472771
253.984 85.473778
257.678 85.433777
261.426 85.303772
265.229 85.104774
269.087 84.959778
273.001 84.893776
276.972 84.89577500000001
281.0 84.94577799999999
285.088 85.029778
289.234 85.103775
293.441 85.135773
297.709 85.121773
302.04 85.03948446123604
306.433 84.90323441294514
310.89 84.81402213682236
315.412 84.81285628987882
320.0 84.863734530214
324.655 84.90164751703867
329.377 84.86160828380935
334.168 84.72961011857294
339.028 84.55566405677081
343.959 84.45975038916559
348.962 84.55489278086077
354.038 84.70308289821368
359.188 84.74630940886068
364.412 84.78659335359634
369.713 84.83192365879249
375.09 84.79030473958764
380.546 84.75573152585109
386.081 84.82521406366253
391.697 84.98774365799628
397.394 85.13833135744918
403.175 85.18397009990142
409.039 85.1006643074508
414.989 84.90941192190317
421.025 84.70521499784476
427.149 84.56907585140965
433.362 84.44298817065531
439.665 84.31296864533718
446.06 84.28299959800711
452.548 84.3670957226019
459.131 84.52125434640216
465.809 84.65546953593417
472.584 84.75974962267948
479.458 84.91209694100336
486.432 85.06550919571178
493.507 85.15698309361977
500.686 85.09852360961986
507.968 84.92613918964693
515.357 84.74181644738537
522.853 84.5045704666359
530.458 84.26838660051688
538.174 84.08528420550141
546.002 83.88325000686031
553.943 83.92228773223842
562.001 84.27340501728969
570.175 84.72960232614888
578.469 85.076870302074
586.883 85.28922105011841
595.419 85.3816499495531
604.08 85.44316302024082
612.866 85.51276137625543
621.78 85.47844004519386
630.824 85.32720842241206
640.0 85.2880619074955
649.309 85.35999726604935
658.753 85.42703090537353
668.335 85.36914887619736
678.056 85.3123659565498
687.919 85.19767120705383
697.925 85.17107641444721
708.077 85.29757064962752
718.376 85.24117170838736
728.825 84.93486567228808
739.426 84.82266798800745
750.181 85.05356810744863
761.093 85.02956813007614
772.163 84.69668387707347
783.394 84.47990445964223
794.789 84.36223399620198
806.349 84.25266932488589
818.078 84.13222522079054
829.977 83.9008955343278
842.05 83.57468105558871
854.298 83.32758764775856
866.724 83.27560647054618
879.33 83.24175204547933
892.12 83.18102219433918
905.097 83.450420101939
918.262 84.12194666631301
931.618 84.86059708708235
945.169 85.3713832215408
958.917 85.73630763973249
972.864 86.06436491914042
987.015 86.23656359522587
1001.95 86.23656359522587
1007.81 86.28846000888345
1013.67 86.33500336239334
1019.53 86.37585423897269
1025.39 86.41101351650612
1031.25 86.44117533721209
1037.11 86.46595420199755
1042.97 86.4857679529434
1048.83 86.50120065957027
1054.69 86.51163782584298
1060.55 86.51841719461736
1066.41 86.52152555180837
1072.27 86.52096055125375
1078.12 86.51710508158558
1083.98 86.5102376546908
1089.84 86.5010371850591
1095.7 86.48921736179155
1101.56 86.4750880110159
1107.42 86.4589604393498
1113.28 86.4412097137563
1119.14 86.42145977956241
1125.0 86.40108510932578
1130.86 86.37839784843744
1136.72 86.35508510932576
1142.58 86.33012382761277
1148.44 86.30418613151255
1154.3 86.27660049278484
1160.16 86.24807929424284
1166.02 86.21820821038689
1171.88 86.18704330151391
1177.73 86.15390654201138
1183.59 86.12046290842551
1189.45 86.08533379319005
1195.31 86.04820828619438
1201.17 86.01011450003148
1207.03 85.97068809505555
1212.89 85.92952864287716
1218.75 85.88740153975735
1224.61 85.8438930864224
1230.47 85.79964702886366
1236.33 85.75438611589043
1242.19 85.70804783881334
1248.05 85.66130955730955
1253.91 85.61483386164872
1259.77 85.56796224071942
1265.62 85.52131465341846
1271.48 85.4756334471499
1277.34 85.43053053872391
1283.2 85.38702809308066
1289.06 85.34516648175864
1294.92 85.30526834573749
1300.78 85.26766245158613
1306.64 85.23208335406966
1312.5 85.19985612010575
1318.36 85.16999993751976
1324.22 85.14355210370583
1330.08 85.12086050444424
1335.94 85.10091246061394
1341.8 85.0844041545204
1347.66 85.07168010721031
1353.52 85.0617364984488
1359.38 85.05589898111569
1365.23 85.052509217266
1371.09 85.05253128710744
1376.95 85.05530950246586
1382.81 85.06047334820747
1388.67 85.0686973336464
1394.53 85.07896371946117
1400.39 85.09223397302395
1406.25 85.10718091384605
1412.11 85.12475684859702
1417.97 85.14467775351463
1423.83 85.16724610468682
1429.69 85.19241292198924
1435.55 85.21955694750201
1441.41 85.25032772931203
1447.27 85.28372095722736
1453.12 85.32042694845191
1458.98 85.36109690805046
1464.84 85.40572890595945
1470.7 85.45466840692555
1476.56 85.50756724716402
1482.42 85.56582168078137
1488.28 85.62902971403233
1494.14 85.69729275023884
1500.0 85.77080837483403
1505.86 85.84968006391266
1511.72 85.9345552088933
1517.58 86.02343381125254
1523.44 86.11796122856518
1529.3 86.2171363667421
1535.16 86.32062216855041
1541.02 86.42780149543107
1546.88 86.53829207114
1552.73 86.65171641853468
1558.59 86.76715299741056
1564.45 86.88388965508207
1570.31 87.00192623993598
1576.17 87.1199642783212
1582.03 87.23724333728727
1587.89 87.35319380831542
1593.75 87.46743161227886
1599.61 87.57862777575086
1605.47 87.68778431445101
1611.33 87.79224558464381
1617.19 87.89267136335408
1623.05 87.98840547139265
1628.91 88.07941076307401
1634.77 88.16442810144999
1640.62 88.24406297959534
1646.48 88.3170370597238
1652.34 88.3846378589803
1658.2 88.44492399544812
1664.06 88.49884574891017
1669.92 88.54646051256859
1675.78 88.58672098119885
1681.64 88.62037345862126
1687.5 88.6476608667437
1693.36 88.66832006147587
1699.22 88.68236361474561
1705.08 88.69008173766869
1710.94 88.69116661069718
1716.8 88.68698113416869
1722.66 88.67652954874332
1728.52 88.6610993628486
1734.38 88.64073454874887
1740.23 88.61543839749825
1746.09 88.58586247641546
1751.95 88.55204747218514
1757.81 88.51531130379722
1763.67 88.47467384284919
1769.53 88.43143200202681
1775.39 88.38594288253574
1781.25 88.33893139488895
1787.11 88.29032177072725
1792.97 88.24048831510214
1798.83 88.18981162601723
1804.69 88.13888473437734
1810.55 88.08770871360537
1816.41 88.03704815333369
1822.27 87.98650162729186
1828.12 87.9368399647174
1833.98 87.88788428326467
1839.84 87.83947149343666
1845.7 87.79226069174513
1851.56 87.7454689975028
1857.42 87.69924491439961
1863.28 87.65380874007245
1869.14 87.60858617533965
1875.0 87.56360543502916
1880.86 87.5185042104613
1886.72 87.47293917718326
1892.58 87.42688585033667
1898.44 87.37911171611104
1904.3 87.33124443398894
1910.16 87.28129081242757
1916.02 87.22965051400267
1921.88 87.17554771184574
1927.73 87.11917647602732
1933.59 87.06101042297189
1939.45 86.99989635422621
1945.31 86.93605789015196
1951.17 86.86954046362622
1957.03 86.80041914084069
1962.89 86.72929374236438
1968.75 86.65482796435688
1974.61 86.5787171356506
1980.47 86.49962448775676
1986.33 86.41921516080012
1992.19 86.33727312144153
1998.05 86.25416464221257
2003.91 86.17066053810684
2009.77 86.08665116236315
2015.62 86.00335992415913
2021.48 85.92023433006098
2027.34 85.83882995553685
2033.2 85.75903647521
2039.06 85.68151357411752
2044.92 85.60713306699854
2050.78 85.53524930148122
2056.64 85.46752043773927
2062.5 85.40307992590596
2068.36 85.3433932289862
2074.22 85.28706684510455
2080.08 85.23585776041104
2085.94 85.18844784722582
2091.8 85.14513924120843
2097.66 85.10565701599249
2103.52 85.06980641073346
2109.38 85.03714640613677
2115.23 85.00738864537183
2121.09 84.97995475405932
2126.95 84.95456422954862
2132.81 84.93007690834256
2138.67 84.90673712878174
2144.53 84.88377054846339
2150.39 84.86038540855489
2156.25 84.83599973979122
2162.11 84.81103809927603
2167.97 84.78495377653823
2173.83 84.75649576324693
2179.69 84.7264919701102
2185.55 84.69440479894647
2191.41 84.66022358308248
2197.27 84.6236572057842
2203.12 84.58528288352755
2208.98 84.54470428280561
2214.84 84.50243498584031
2220.7 84.45863552985278
2226.56 84.4139798828416
2232.42 84.36853649761645
2238.28 84.32274508387312
2244.14 84.277282007766
2250.0 84.23316579648358
2255.86 84.18966776737274
2261.72 84.14894167335612
2267.58 84.11077110645394
2273.44 84.07532408501719
2279.3 84.04325595265823
2285.16 84.01552000648931
2291.02 83.99216926711469
2296.88 83.97414877904063
2302.73 83.95965014121579
2308.59 83.95138567418147
2314.45 83.94689607374256
2320.31 83.94822922776422
2326.17 83.95290902292135
2332.03 83.96266672796692
2337.89 83.97585656445938
2343.75 83.99269268939776
2349.61 84.01154623480303
2355.47 84.03349755019478
2361.33 84.05660331387757
2367.19 84.08015537978909
2373.05 84.10432992293823
2378.91 84.12812080991756
2384.77 84.1514413145852
2390.62 84.17299951527721
2396.48 84.19272831300002
2402.34 84.21087529275243
2408.2 84.22587788002716
2414.06 84.23801980780858
2419.92 84.24698617152885
2425.78 84.25308878981603
2431.64 84.25541127935335
2437.5 84.25490458654713
2443.36 84.25099177653306
2449.22 84.24433418975593
2455.08 84.23498165419106
2460.94 84.2236214257725
2466.8 84.20937888047591
2472.66 84.19356584541642
2478.52 84.17686482757328
2484.38 84.1596644617942
2490.23 84.14265758502782
2496.09 84.1252762636052
2501.95 84.1094587313855
2507.81 84.08870981142813
2513.67 84.07761848961411
2519.53 84.07396785359782
2525.39 84.06665732762809
2531.25 84.06262098794117
2537.11 84.06215713824027
2542.97 84.06461106759168
2548.83 84.07152185411137
2554.69 84.08161591047684
2560.55 84.09543827651187
2566.41 84.11263140942876
2572.27 84.13345390121509
2578.12 84.1562683306114
2583.98 84.1816038847104
2589.84 84.20911676934915
2595.7 84.23810064262065
2601.56 84.26784556749058
2607.42 84.29833597391602
2613.28 84.32884091968519
2619.14 84.35840888447011
2625.0 84.38637028192495
2630.86 84.41302405132424
2636.72 84.43803453349797
2642.58 84.46044194028447
2648.44 84.48025744093647
2654.3 84.49688223925598
2660.16 84.51094898841663
2666.02 84.5215456294171
2671.88 84.52839303895588
2677.73 84.53280960991955
2683.59 84.53323163263548
2689.45 84.53132680812624
2695.31 84.5261915323515
2701.17 84.51885589169422
2707.03 84.50902139264113
2712.89 84.49807238016763
2718.75 84.48504765386427
2724.61 84.47132713633657
2730.47 84.45793254896265
2736.33 84.44424885999084
2742.19 84.43128222513374
2748.05 84.41965565336386
2753.91 84.40946767987418
2759.77 84.4022956020265
2765.62 84.39717070185657
2771.48 84.39475548163374
2777.34 84.39630006465774
2783.2 84.40079648890101
2789.06 84.40985270031078
2794.92 84.42177306915772
2800.78 84.43815214810098
2806.64 84.45766280681256
2812.5 84.48082998383138
2818.36 84.50738502619757
2824.22 84.5364976657934
2830.08 84.56752240540357
2835.94 84.60107754265724
2841.8 84.63547117904906
2847.66 84.67201630461497
2853.52 84.7083500602917
2859.38 84.74415885284289
2865.23 84.78010239074045
2871.09 84.81482135383256
2876.95 84.84840999915441
2882.81 84.87981323360009
2888.67 84.90943462718558
2894.53 84.93632796215935
2900.39 84.96110792447391
2906.25 84.98322652355897
2912.11 85.00163856946199
2917.97 85.017759846385
2923.83 85.03134583060431
2929.69 85.04135065435167
2935.55 85.04879398744687
2941.41 85.05411924011646
2947.27 85.05765842962909
2953.12 85.05903766804657
2958.98 85.05800237339827
2964.84 85.05682595728113
2970.7 85.05495958707962
2976.56 85.05200761836872
2982.42 85.04994086917067
2988.28 85.04806129889546
2994.14 85.04747634030942
3000.0 85.04832475249778
3005.86 85.05071413579422
3011.72 85.05490179747065
3017.58 85.06182974000377
3023.44 85.07145967357356
3029.3 85.08346094502397
3035.16 85.09875930880996
3041.02 85.11632696805955
3046.88 85.13709035495445
3052.73 85.16042306464738
3058.59 85.18656181657124
3064.45 85.21448514479547
3070.31 85.24415177410172
3076.17 85.27564663184671
3082.03 85.3078473780687
3087.89 85.34113860649288
3093.75 85.37453437219081
3099.61 85.40803139758374
3105.47 85.4406569870894
3111.33 85.47311519862168
3117.19 85.50404707945923
3123.05 85.5329014390287
3128.91 85.55930319987512
3134.77 85.58398260222154
3140.62 85.60668809613631
3146.48 85.626362277183
3152.34 85.64247327922365
3158.2 85.65632515735288
3164.06 85.66669780501383
3169.92 85.67517960099404
3175.78 85.6798400181078
3181.64 85.68240022418831
3187.5 85.68218978106394
3193.36 85.67951409212037
3199.22 85.67439592565019
3205.08 85.66783498511789
3210.94 85.66055280602907
3216.8 85.65114401013375
3222.66 85.6415770626862
3228.52 85.63157379650767
3234.38 85.62140082541144
3240.23 85.6120272570914
3246.09 85.60441555091654
3251.95 85.59657443913021
3257.81 85.59142398578715
3263.67 85.58794629171615
3269.53 85.58610332036803
3275.39 85.58727261448911
3281.25 85.58999557217655
3287.11 85.59591745600761
3292.97 85.60401420239111
3298.83 85.61467955972964
3304.69 85.62744432637885
3310.55 85.6417210099415
3316.41 85.6587413924489
3322.27 85.67624280879008
3328.12 85.69589259681678
3333.98 85.71572118759696
3339.84 85.73627430383502
3345.7 85.75743420501146
3351.56 85.77736716053032
3357.42 85.7969513959315
3363.28 85.81577570759859
3369.14 85.83315856855361
3375.0 85.84857950909557
3380.86 85.86163794170584
3386.72 85.87280134308497
3392.58 85.88166888581434
3398.44 85.88800541963558
3404.3 85.89184927303374
3410.16 85.89251868609885
3416.02 85.89031625338279
3421.88 85.88571847610154
3427.73 85.87830472875584
3433.59 85.86835817518842
3439.45 85.85635566405621
3445.31 85.84185407479626
3451.17 85.82631018427314
3457.03 85.80880248191853
3462.89 85.79052066314685
3468.75 85.77172051693368
3474.61 85.75239469332352
3480.47 85.73304509291442
3486.33 85.71412442515756
3492.19 85.69659792814073
3498.05 85.67971290349017
3503.91 85.6646804088052
3509.77 85.65195005364262
3515.62 85.64075852817206
3521.48 85.63279374414282
3527.34 85.62704120980572
3533.2 85.62372283004697
3539.06 85.62402725845651
3544.92 85.62671721121961
3550.78 85.63225063590089
3556.64 85.64061144872719
3562.5 85.65128865444572
3568.36 85.66403959370713
3574.22 85.6790963696933
3580.08 85.69597698195093
3585.94 85.7146718750723
3591.8 85.73349096033499
3597.66 85.75440461162312
3603.52 85.77472985515878
3609.38 85.79473510043275
3615.23 85.81518544182332
3621.09 85.83512250598682
3626.95 85.85457637971679
3632.81 85.87283494022654
3638.67 85.88968235572665
3644.53 85.90637863357223
3650.39 85.92022780515757
3656.25 85.93373296126383
3662.11 85.94566032151246
3667.97 85.95578496144415
3673.83 85.96510371356766
3679.69 85.9736276020019
3685.55 85.98107896685389
3691.41 85.98773205459922
3697.27 85.99405162020938
3703.12 86.00077995973021
3708.98 86.00662322125999
3714.84 86.01405735936711
3720.7 86.02131474161507
3726.56 86.02935531459485
3732.42 86.0389070700123
3738.28 86.05040174243463
3744.14 86.06334683977786
3750.0 86.07794371138262
3755.86 86.09514894197332
3761.72 86.11371981065065
3767.58 86.13461723364173
3773.44 86.15706599097176
3779.3 86.18255804151846
3785.16 86.2091042994834
3791.02 86.23843539591289
3796.88 86.2685702521896
3802.73 86.29973885878218
3808.59 86.33222511505802
3814.45 86.36551436672502
3820.31 86.39914154825293
3826.17 86.43236696057913
3832.03 86.46520083572531
3837.89 86.49793031125036
3843.75 86.52931127228699
3849.61 86.55986987954606
3855.47 86.58788820194226
3861.33 86.61437167444107
3867.19 86.63886308479222
3873.05 86.66086972809677
3878.91 86.68041269720008
3884.77 86.69750871694968
3890.62 86.71118469274683
3896.48 86.72221211984314
3902.34 86.73108175678271
3908.2 86.73681347173047
3914.06 86.7401766172242
3919.92 86.74118255980815
3925.78 86.74030795968363
3931.64 86.73679383570581
3937.5 86.73193316675973
3943.36 86.72565757905426
3949.22 86.71826635311146
3955.08 86.71098242195416
3960.94 86.70249212884977
3966.8 86.69508804338034
3972.66 86.68722329846247
3978.52 86.68065214931141
3984.38 86.67536396347056
3990.23 86.67179730914708
3996.09 86.6694911374335
4001.95 86.66965687922641
4007.81 86.67151217198906
4013.67 86.67637343172508
4019.53 86.68346290573587
4025.39 86.69300067603054
4031.25 86.70553761095776
4037.11 86.71930268871402
4042.97 86.73607209425117
4048.83 86.75407732614404
4054.69 86.7746531782543
4060.55 86.79525773421435
4066.41 86.81767345746445
4072.27 86.84068873318661
4078.12 86.86353603392628
4083.98 86.88677970162638
4089.84 86.90865302622532
4095.7 86.9301631960677
4101.56 86.95031871402755
4107.42 86.96890775797472
4113.28 86.98515822950755
4119.14 86.99885923493748
4125.0 87.0108031384338
4130.86 87.0196478389817
4136.72 87.02675232274015
4142.58 87.02997916047693
4148.44 87.03126654329577
4154.3 87.02946751627631
4160.16 87.02536999510116
4166.02 87.01876822971535
4171.88 87.01027938848607
