Freq "Total Early Reflection"
20.0 47.726776
20.290899 48.18977699999999
20.586 48.68377699999999
20.8855 49.216778000000005
21.189301 49.80477500000001
21.497499 50.446777
21.8102 51.13377800000001
22.127399 51.859779
22.4492 52.61077900000001
22.775801 53.373774999999995
23.1071 54.13377800000001
23.443199 54.875778
23.7841 55.586776999999984
24.1301 56.257778
24.4811 56.882778
24.8372 57.461776999999984
25.1984 57.995777000000004
25.564899 58.489777000000004
25.9368 58.95177799999999
26.3141 59.392776
26.6968 59.824780000000004
27.0851 60.259776999999985
27.479099 60.709778
27.878799 61.177775999999994
28.2843 61.662777000000006
28.6957 62.15778
29.1131 62.65078
29.536501 63.132778
29.966101 63.593777
30.402 64.029778
30.8442 64.44278
31.2929 64.843773
31.748 65.24677299999999
32.209801 65.668777
32.678299 66.126778
33.153599 66.626778
33.635899 67.16478
34.125099 67.732773
34.621498 68.312775
35.125 68.88678
35.635899 69.438774
36.154301 69.959778
36.680199 70.444778
37.213699 70.892776
37.755 71.321777
38.3041 71.740776
38.861301 72.059776
39.426498 72.415779
40.0 72.763779
40.581799 73.11077900000001
41.1721 73.460777
41.771 73.818779
42.378502 74.187775
42.9949 74.56778
43.6203 74.956779
44.254799 75.353775
44.898499 75.756775
45.551498 76.16478000000001
46.2141 76.580772
46.886299 77.005775
47.568298 77.443779
48.260201 77.893776
48.962101 78.352776
49.674301 78.815773
50.396801 79.278778
51.129902 79.735779
51.8736 80.18377700000002
52.628101 80.619774
53.3936 81.043777
54.1702 81.454773
54.958099 81.850777
55.7575 82.231773
56.568501 82.597771
57.391399 82.946777
58.226101 83.280777
59.073 83.596771
59.932301 83.897774
60.804 84.18377699999999
61.6884 84.452774
62.585701 84.708771
63.496 84.991776
64.419601 85.167778
65.356598 85.376778
66.307297 85.569771
67.271698 85.74577300000001
68.250198 85.907776
69.242897 86.055771
70.250099 86.19577800000002
71.271896 86.328773
72.308601 86.454773
73.360298 86.576775
74.427399 86.692772
75.509903 86.802773
76.608299 86.905777
77.722603 86.999771
78.853104 87.08577699999998
80.0 87.163773
81.163597 87.23277299999998
82.3442 87.293777
83.541901 87.347771
84.757 87.393776
85.989899 87.434776
87.240601 87.469772
88.509598 87.50377700000001
89.797 87.526772
91.103104 87.551773
92.4282 87.572777
93.772598 87.592773
95.136597 87.610771
96.520401 87.62777700000001
97.924301 87.641777
99.348602 87.652771
100.794 87.659775
102.26 87.661774
103.747 87.659775
105.256 87.65777599999998
106.787 87.65777599999998
108.34 87.659775
109.916 87.661774
111.515 87.660774
113.137 87.64577500000001
114.783 87.59977699999999
116.452 87.533775
118.146 87.441772
119.865 87.351776
121.608 87.279778
123.377 87.229774
125.171 87.197777
126.992 87.177773
128.839 87.165771
130.713 87.159775
132.615 87.151772
134.543 87.132774
136.5 87.09677099999999
138.486 87.047775
140.5 86.979774
142.544 86.894775
144.617 86.809776
146.721 86.738777
148.855 86.689774
151.02 86.662773
153.217 86.647774
155.445 86.63877099999999
157.706 86.634773
160.0 86.635773
162.327 86.637772
164.688 86.642776
167.084 86.647774
169.514 86.651772
171.98 86.647774
174.481 86.624771
177.019 86.56777199999999
179.594 86.47377800000001
182.206 86.364777
184.856 86.283775
187.545 86.248772
190.273 86.243774
193.041 86.25377700000001
195.849 86.251778
198.697 86.218773
201.587 86.140778
204.52 86.026772
207.494 85.916771
210.512 85.842773
213.574 85.809776
216.681 85.810776
219.833 85.826775
223.03 85.84077499999998
226.274 85.838776
229.565 85.810776
232.905 85.756775
236.292 85.68177800000001
239.729 85.579773
243.216 85.49977099999998
246.754 85.469772
250.343 85.472771
253.984 85.47377799999998
257.678 85.43377699999999
261.426 85.303772
265.229 85.104774
269.087 84.959778
273.001 84.893776
276.972 84.895775
281.0 84.94577800000002
285.088 85.029778
289.234 85.103775
293.441 85.135773
297.709 85.121773
302.04 85.0138603227569
306.433 84.85178777597866
310.89 84.73654823763644
315.412 84.7091500197229
320.0 84.73359055753801
324.655 84.7448604088156
329.377 84.67797829112949
334.168 84.51893188756233
339.028 84.31773807707921
343.959 84.19437185896754
348.962 84.2618573885318
354.038 84.38218693777793
359.188 84.39734989439967
364.412 84.40937352258081
369.713 84.42623687486531
375.09 84.35595616358432
380.546 84.29251682484507
386.081 84.33293553156024
391.697 84.46619978224244
397.394 84.58732738844799
403.175 84.60330266386794
409.039 84.49014211682108
414.989 84.2688354350301
421.025 84.03439181645557
427.149 83.86781076125945
433.362 83.7110883149076
439.665 83.55024362587723
446.06 83.4892567457012
452.548 83.54214514810126
459.131 83.66490428962653
465.809 83.76753604453211
472.584 83.84004715054454
479.458 83.96043860686794
486.432 84.08171162962401
493.507 84.1408665331591
500.686 84.04990298055846
507.968 83.84484239280046
515.357 83.62766199669802
522.853 83.35738561356015
530.458 83.08799857461626
538.174 82.87152046971765
546.002 82.6359427773089
553.943 82.64127407089731
562.001 82.95851437237323
570.175 83.38067782699093
578.469 83.69374801166269
586.883 83.8717467917842
595.419 83.9296711912632
604.08 83.95652514466911
612.866 83.99131991688034
621.78 83.9220489108781
630.824 83.73572416880155
640.0 83.66134398542306
649.309 83.69791204790343
658.753 83.72944803059892
668.335 83.63593779792966
678.056 83.54340366181268
687.919 83.39283506202749
697.925 83.33025171886078
708.077 83.42064363988138
718.376 83.32803694517852
728.825 82.98541920058123
739.426 82.8368111423768
750.181 83.03120773756713
761.093 82.97061348912806
772.163 82.60105358724412
783.394 82.34752005863699
794.789 82.19302030768253
806.349 82.04656116630177
818.078 81.8891580461644
829.977 81.6208152205188
842.05 81.25753477501533
854.298 80.97333339788567
866.724 80.88420714347714
879.33 80.81317867970516
892.12 80.7152483504641
905.097 80.9474251766153
918.262 81.58172180213059
931.618 82.28313959880525
945.169 82.75669414101424
958.917 83.08439751141373
972.864 83.37525388719092
987.015 83.51027365580767
1001.95 83.51027365580767
1007.81 83.55265073563393
1013.67 83.59198137439834
1019.53 83.62796869095429
1025.39 83.66017826038726
1031.25 83.68929238351987
1037.11 83.71494821687672
1042.97 83.73713895956877
1048.83 83.75621141355533
1054.69 83.77176601404116
1060.55 83.78468251826395
1066.41 83.79448625067654
1072.27 83.80139779011597
1078.12 83.80553749193398
1083.98 83.80686025002079
1089.84 83.80576219088897
1095.7 83.80219632035113
1101.56 83.79600915268026
1107.42 83.78771083427162
1113.28 83.7772192822282
1119.14 83.76417817593068
1125.0 83.74949858492892
1130.86 83.73223051105441
1136.72 83.71326384943202
1142.58 83.69191170364724
1148.44 83.66877710979932
1154.3 83.64355862268522
1160.16 83.61632704879031
1166.02 83.58685690551256
1171.88 83.5554161261245
1177.73 83.52169988954032
1183.59 83.48634316389935
1189.45 83.44879185041076
1195.31 83.4089569383753
1201.17 83.36707665107926
1207.03 83.32324944738767
1212.89 83.27717560499522
1218.75 83.22923701961425
1224.61 83.17930253585
1230.47 83.12750364305278
1236.33 83.07382622306741
1242.19 83.01825477251361
1248.05 82.961168805526
1253.91 82.9025669410542
1259.77 82.84253315068948
1265.62 82.78115769211477
1271.48 82.71877272216454
1277.34 82.65536569499989
1283.2 82.59127494051864
1289.06 82.52661559870091
1294.92 82.4615956439171
1300.78 82.39635357598071
1306.64 82.33093231968687
1312.5 82.26589517741652
1318.36 82.20098401395714
1324.22 82.13670280914138
1330.08 82.07331414540715
1335.94 82.01053976526822
1341.8 81.9487777844183
1347.66 81.88834607060589
1353.52 81.82895222658723
1359.38 81.77131854292037
1365.23 81.71492933032928
1371.09 81.66034174375199
1376.95 81.60745844263724
1382.81 81.55625497705296
1388.67 81.50727635699155
1394.53 81.46018320697905
1400.39 81.41561206098142
1406.25 81.37313772342306
1412.11 81.3333599429497
1417.97 81.29633824692795
1423.83 81.26240181961043
1429.69 81.23168331538164
1435.55 81.20407395757363
1441.41 81.18052005992072
1447.27 81.1607008397796
1453.12 81.145120573516
1458.98 81.1342870462685
1464.84 81.12831580585012
1470.7 81.12755412997942
1476.56 81.13191428763315
1482.42 81.14227432800669
1488.28 81.15851784456768
1494.14 81.18079786508974
1500.0 81.20928063868212
1505.86 81.24405850772897
1511.72 81.28558072953513
1517.58 81.33266942113448
1523.44 81.38627258459488
1529.3 81.44577601170124
1535.16 81.51093255410312
1541.02 81.58128269703052
1546.88 81.65651273974572
1552.73 81.736278575179
1558.59 81.81988048730095
1564.45 81.90672458400189
1570.31 81.99666316926057
1576.17 82.08871537013334
1582.03 82.182224700235
1587.89 82.27665236868566
1593.75 82.37156810544698
1599.61 82.4659445734984
1605.47 82.56026285001548
1611.33 82.65262413672383
1617.19 82.74329402711078
1623.05 82.83169500628462
1628.91 82.91767426008795
1634.77 83.00026965843165
1640.62 83.0797586752152
1646.48 83.15521423565224
1652.34 83.22737261717376
1658.2 83.2948953740477
1664.06 83.35832987468723
1669.92 83.41767890025537
1675.78 83.47220104756845
1681.64 83.52235689756871
1687.5 83.56830041529479
1693.36 83.60982682151459
1699.22 83.6469720408557
1705.08 83.6798989926742
1710.94 83.708431177329
1716.8 83.73353711625926
1722.66 83.75442680496283
1728.52 83.7720894336692
1734.38 83.78655358420892
1740.23 83.79776277094228
1746.09 83.80625402858281
1751.95 83.81192968126683
1757.81 83.81579382193779
1763.67 83.81710330810927
1769.53 83.8168160030452
1775.39 83.8149771376141
1781.25 83.81213902469459
1787.11 83.80803136498722
1792.97 83.80317464757302
1798.83 83.79759884402088
1804.69 83.79151775560592
1810.55 83.78513470296701
1816.41 83.7785999260348
1822.27 83.77189473928149
1828.12 83.76526975676443
1833.98 83.75861182805745
1839.84 83.75178278929877
1845.7 83.74511143422737
1851.56 83.7382417536546
1857.42 83.73115847902821
1863.28 83.72389813100492
1869.14 83.71633019489276
1875.0 83.70821896465614
1880.86 83.69952812917862
1886.72 83.69013143377718
1892.58 83.67988318106622
1898.44 83.66841480591899
1904.3 83.65618696942485
1910.16 83.64250154690518
1916.02 83.6276285388447
1921.88 83.61101349391839
1927.73 83.59286888243038
1933.59 83.57345663662824
1939.45 83.55241117884407
1945.31 83.52969090187341
1951.17 83.50548864157356
1957.03 83.47986179175012
1962.89 83.4530035647695
1968.75 83.4246351371408
1974.61 83.39529923694553
1980.47 83.364488902761
1986.33 83.33320139405758
1992.19 83.30100425945028
1998.05 83.2685034099813
2003.91 83.2356423983473
2009.77 83.20273297174029
2015.62 83.1700993384408
2021.48 83.13762179801236
2027.34 83.10565257126675
2033.2 83.07475124756603
2039.06 83.04467520269573
2044.92 83.01574472287294
2050.78 82.98803946225189
2056.64 82.96186044960172
2062.5 82.93698197726616
2068.36 82.91366060546662
2074.22 82.8919359368088
2080.08 82.87186037966892
2085.94 82.85313724828325
2091.8 82.83604613421362
2097.66 82.82026222270805
2103.52 82.80568516570364
2109.38 82.79242805940031
2115.23 82.77986531117955
2121.09 82.76832549732791
2126.95 82.75744209727482
2132.81 82.74689494664113
2138.67 82.73680559718557
2144.53 82.72695470234008
2150.39 82.7166886976137
2156.25 82.70631926206495
2162.11 82.69572134546155
2167.97 82.68504122885847
2173.83 82.6732623720533
2179.69 82.6613821103144
2185.55 82.64884324142785
2191.41 82.63554506292178
2197.27 82.62182638331917
2203.12 82.60738583482825
2208.98 82.5927278083539
2214.84 82.57756552406434
2220.7 82.56211216557489
2226.56 82.54665103422664
2232.42 82.53110060849428
2238.28 82.51565553741638
2244.14 82.50073640434462
2250.0 82.48644519294012
2255.86 82.47263508067765
2261.72 82.4598786432227
2267.58 82.44817873877454
2273.44 82.43757510200697
2279.3 82.42829053037897
2285.16 82.42067198151148
2291.02 82.41445803989325
2296.88 82.41007289757255
2302.73 82.40698636921843
2308.59 82.40586213852276
2314.45 82.4063160738999
2320.31 82.40840774455762
2326.17 82.41177535067219
2332.03 82.41704770532925
2337.89 82.42336834215739
2343.75 82.43090362217217
2349.61 82.4392446793836
2355.47 82.44861325717781
2361.33 82.45883736782656
2367.19 82.46903300931417
2373.05 82.47966241154711
2378.91 82.49063343550593
2384.77 82.50136993600594
2390.62 82.51203414747651
2396.48 82.52191021319372
2402.34 82.53187480465996
2408.2 82.54085983144768
2414.06 82.54913946318857
2419.92 82.55670829743896
2425.78 82.56351556056818
2431.64 82.56943440542477
2437.5 82.57467534079312
2443.36 82.57910887487299
2449.22 82.58291016933805
2455.08 82.58606688570441
2460.94 82.58875982969126
2466.8 82.59079261875823
2472.66 82.59299159852178
2478.52 82.59463497112137
2484.38 82.59666771913412
2490.23 82.5987441874831
2496.09 82.6009791018509
2501.95 82.60405749996197
2507.81 82.60964196679171
2513.67 82.61407704895944
2519.53 82.61696228481091
2525.39 82.6226474597193
2531.25 82.62958621153481
2537.11 82.63753727990553
2542.97 82.6462711274922
2548.83 82.65607133816341
2554.69 82.66686306148068
2560.55 82.6786081947098
2566.41 82.69108594374013
2572.27 82.7046033992165
2578.12 82.71834803162051
2583.98 82.73261404824797
2589.84 82.74742213437167
2595.7 82.7623849299884
2601.56 82.77733575411153
2607.42 82.79235028312206
2613.28 82.80709744885003
2619.14 82.82114221832903
2625.0 82.83469023328028
2630.86 82.84753910459723
2636.72 82.85971526651177
2642.58 82.87100377447804
2648.44 82.88130734494332
2654.3 82.89071609324633
2660.16 82.8989913161476
2666.02 82.90632484021504
2671.88 82.91237192957259
2677.73 82.91780518766568
2683.59 82.92202846219278
2689.45 82.92569920237229
2695.31 82.92837977162202
2701.17 82.93068289332342
2707.03 82.93254744824657
2712.89 82.93426111671198
2718.75 82.93540032296666
2724.61 82.9369220175009
2730.47 82.93873114405213
2736.33 82.94108392204345
2742.19 82.9435260176859
2748.05 82.94689236947666
2753.91 82.95120471831757
2759.77 82.9565704565267
2765.62 82.96279478022687
2771.48 82.97002628535496
2777.34 82.97872049030384
2783.2 82.98838368495903
2789.06 82.99962190547555
2794.92 83.0116707562541
2800.78 83.02521732142812
2806.64 83.03956133617467
2812.5 83.05505378287776
2818.36 83.07132411634556
2824.22 83.08843893915973
2830.08 83.10558069846569
2835.94 83.1235390775026
2841.8 83.14156118056377
2847.66 83.15982487688186
2853.52 83.17776541028992
2859.38 83.19525801251561
2865.23 83.21238715090142
2871.09 83.22881855776942
2876.95 83.24461243396883
2882.81 83.25941337193773
2888.67 83.27343798349727
2894.53 83.28616668497119
2900.39 83.29795093135895
2906.25 83.30871242446466
2912.11 83.31811377354934
2917.97 83.32662671410392
2923.83 83.33421855583468
2929.69 83.34052060990336
2935.55 83.34578701953038
2941.41 83.35077133367912
2947.27 83.35497090989851
2953.12 83.35870655555371
2958.98 83.36164834996225
2964.84 83.36491061607103
2970.7 83.3683199015901
2976.56 83.37168676426903
2982.42 83.37561114372131
2988.28 83.37992622773132
2994.14 83.38509657389191
3000.0 83.39111349915314
3005.86 83.3982426607279
3011.72 83.40619464201424
3017.58 83.41551828242072
3023.44 83.4260349694752
3029.3 83.4377896992666
3035.16 83.45099602644254
3041.02 83.4653121920565
3046.88 83.48110241732361
3052.73 83.49786793629511
3058.59 83.51592922570038
3064.45 83.53461566025733
3070.31 83.55414757427322
3076.17 83.57449631467888
3082.03 83.59512647066455
3087.89 83.61607626527987
3093.75 83.63730946613003
3099.61 83.65840781561846
3105.47 83.67920230079082
3111.33 83.69979959797206
3117.19 83.71988343224199
3123.05 83.73897694104575
3128.91 83.75734713500522
3134.77 83.77489826356438
3140.62 83.7915434491023
3146.48 83.80699474148368
3152.34 83.82114862699373
3158.2 83.83441938855337
3164.06 83.84623201369632
3169.92 83.85737910713274
3175.78 83.86720530466557
3181.64 83.87608058282402
3187.5 83.88416074717875
3193.36 83.89133544634832
3199.22 83.89766845725504
3205.08 83.90355201185784
3210.94 83.90937591550858
3216.8 83.91481881889221
3222.66 83.92014997153827
3228.52 83.92575623659444
3234.38 83.93143767733716
3240.23 83.93759950029393
3246.09 83.94476712110102
3251.95 83.95217035133432
3257.81 83.96070767729299
3263.67 83.97003887545988
3269.53 83.98050758050762
3275.39 83.99198587323616
3281.25 84.00441892816987
3287.11 84.01840319222461
3292.97 84.03297780828656
3298.83 84.04902942229435
3304.69 84.06585954250137
3310.55 84.08355556993423
3316.41 84.10246626036223
3322.27 84.12148924605498
3328.12 84.14128483327589
3333.98 84.16145754470317
3339.84 84.18221727504385
3345.7 84.20309947575676
3351.56 84.22366763767357
3357.42 84.24405544977012
3363.28 84.26447328482152
3369.14 84.28451830451536
3375.0 84.3038697783748
3380.86 84.32242539354395
3386.72 84.34057991112266
3392.58 84.35783253955678
3398.44 84.37442185803096
3404.3 84.39028471993089
3410.16 84.40509367553634
3416.02 84.41918151633578
3421.88 84.43248758906454
3427.73 84.44501875110153
3433.59 84.45691579020064
3439.45 84.46821987469293
3445.31 84.47919883513399
3451.17 84.48964925491386
3457.03 84.49994533359609
3462.89 84.51000088710957
3468.75 84.52025761512772
3474.61 84.53065549016831
3480.47 84.54094329542149
3486.33 84.55192593934868
3492.19 84.56340259496113
3498.05 84.57504735374184
3503.91 84.58764147264282
3509.77 84.60093988626176
3515.62 84.6148112602024
3521.48 84.62971106029826
3527.34 84.645087394679
3533.2 84.66138656236429
3539.06 84.67840553954436
3544.92 84.6961391226892
3550.78 84.71453026950131
3556.64 84.73356415451428
3562.5 84.7528956417341
3568.36 84.7726209727197
3574.22 84.79252317824356
3580.08 84.81256761009102
3585.94 84.83289482370131
3591.8 84.85283909766343
3597.66 84.87275331777872
3603.52 84.89206062770124
3609.38 84.91104690406725
3615.23 84.92945846525251
3621.09 84.94739177924818
3626.95 84.96451080386453
3632.81 84.98110755154417
3638.67 84.99660896982692
3644.53 85.01168515173532
3650.39 85.02558192968382
3656.25 85.03885872013564
3662.11 85.05162581225473
3667.97 85.0633710817585
3673.83 85.07461830402886
3679.69 85.08526938880253
3685.55 85.09548937620951
3691.41 85.10533522488605
3697.27 85.11476395455797
3703.12 85.12430343686802
3708.98 85.13345193803852
3714.84 85.14287953837288
3720.7 85.15252439063434
3726.56 85.16213880051819
3732.42 85.17200331007659
3738.28 85.1826952948099
3744.14 85.19375034352274
3750.0 85.20514876355836
3755.86 85.21729497563604
3761.72 85.23017512550686
3767.58 85.24348545425838
3773.44 85.2573366791296
3779.3 85.27182608866943
3785.16 85.28678241226152
3791.02 85.30237615543885
3796.88 85.3181700956367
3802.73 85.33402898863307
3808.59 85.35048521285518
3814.45 85.3667904551233
3820.31 85.38311792198174
3826.17 85.39905682067533
3832.03 85.4148113767894
3837.89 85.43015053167368
3843.75 85.44505673350717
3849.61 85.45935187565772
3855.47 85.47278408536152
3861.33 85.48533346202832
3867.19 85.49718365658632
3873.05 85.5082654097695
3878.91 85.51814655508701
3884.77 85.52737513036263
3890.62 85.53513058833981
3896.48 85.54230674233185
3902.34 85.5486123489879
3908.2 85.55399921976985
3914.06 85.55868237882872
3919.92 85.5629415691946
3925.78 85.5666732532025
3931.64 85.57000713088252
3937.5 85.5731505635717
3943.36 85.57631562669447
3949.22 85.57964407754972
3955.08 85.58346829793773
3960.94 85.58752817226507
3966.8 85.59253084807125
3972.66 85.59809091092974
3978.52 85.60475230788043
3984.38 85.61256975406114
3990.23 85.62167259512282
3996.09 85.63195376687335
4001.95 85.6436467444171
4007.81 85.65673833127428
4013.67 85.67143734846512
4019.53 85.68725684323407
4025.39 85.70477348375971
4031.25 85.72373381407506
4037.11 85.74374021248276
4042.97 85.76514879366148
4048.83 85.78733312390749
4054.69 85.81070553443435
4060.55 85.83449434354715
4066.41 85.85911466915827
4072.27 85.88398518436352
4078.12 85.90925759500331
4083.98 85.93401554709527
4089.84 85.958978423802
4095.7 85.98359637090891
4101.56 86.00765504541818
4107.42 86.03122050757374
4113.28 86.05374952615983
4119.14 86.07519008960527
4125.0 86.09575344882367
4130.86 86.11542570610762
4136.72 86.1339649047542
4142.58 86.15101126134122
4148.44 86.16733587068981
4154.3 86.18236932429431
4160.16 86.1963642885714
4166.02 86.2095715077634
4171.88 86.22178596585134
4177.73 86.23851819917951
4183.59 86.24940676863307
