Freq "On Axis"
20.5078 47.15497575757574
21.9727 48.28627575757575
23.4375 51.09197575757575
24.9023 51.83977575757574
26.3672 53.10007575757574
27.832 55.94727575757575
29.2969 57.435375757575756
30.7617 60.85767575757576
32.2266 62.761275757575746
33.6914 65.75687575757574
35.1562 68.12307575757575
36.6211 70.34897575757573
38.0859 72.39467575757574
39.5508 74.34447575757575
41.0156 76.11647575757574
42.4805 77.85317575757574
43.9453 79.49067575757574
45.4102 80.90557575757575
46.875 82.13387575757575
48.3398 83.41127575757575
51.2695 85.46137575757574
52.7344 86.30807575757575
54.1992 87.02567575757574
55.6641 87.65237575757574
58.5938 88.58487575757574
60.0586 88.94507575757575
62.9883 89.39367575757575
64.4531 89.47177575757574
67.3828 89.60667575757573
68.8477 89.62317575757575
71.7773 89.61907575757574
74.707 89.55167575757575
77.6367 89.47967575757575
79.1016 89.38907575757575
82.0312 89.20177575757576
84.9609 89.13317575757574
87.8906 89.18387575757576
90.8203 89.08597575757575
95.2148 88.97957575757574
98.1445 88.87157575757574
101.074 88.75427575757574
105.469 88.57987575757575
108.398 88.50767575757574
112.793 88.41607575757574
117.188 88.20457575757575
120.117 88.32477575757575
124.512 88.41767575757575
128.906 88.42107575757575
133.301 88.30937575757575
139.16 87.96237575757574
143.555 88.09817575757576
147.949 88.13077575757575
153.809 88.00577575757575
159.668 87.86857575757574
165.527 87.83047575757574
171.387 87.79457575757574
177.246 87.71627575757576
183.105 87.60737575757575
188.965 87.54197575757574
196.289 87.33837575757575
203.613 87.23757575757574
210.938 87.22857575757574
218.262 87.03447575757575
225.586 86.78347575757574
232.91 86.71687575757575
241.699 86.79027575757574
250.488 87.12197575757574
259.277 87.13757575757573
268.066 86.90557575757575
276.855 86.53037575757574
287.109 86.17017575757575
297.363 86.77597575757575
307.617 87.11247575757575
319.336 86.52807575757576
329.59 87.21667575757574
341.309 86.97627575757575
353.027 86.74607575757575
366.211 86.89857575757574
379.395 86.90887575757574
392.578 87.54447575757575
405.762 87.34997575757575
420.41 87.70547575757574
435.059 87.19957575757574
451.172 86.57337575757575
465.82 87.23437575757575
483.398 86.98237575757575
499.512 86.65727575757575
517.09 86.20927575757575
536.133 85.91067575757576
555.176 85.68957575757575
574.219 86.35337575757575
594.727 86.22137575757576
615.234 85.68277575757575
637.207 84.72477575757574
659.18 84.83847575757575
682.617 84.57857575757575
707.52 84.11327575757575
732.422 86.64957575757573
757.324 86.26787575757575
785.156 86.62867575757575
811.523 85.08707575757573
840.82 87.01487575757575
870.117 88.60937575757575
900.879 88.07347575757575
933.105 88.46797575757576
965.332 87.88747575757573
1000.49 87.88477575757575
1035.64 88.19727575757575
1072.27 88.50557575757576
1108.89 88.79487575757575
1148.44 89.07297575757575
1189.45 87.97227575757574
1230.47 88.60227575757575
1274.41 87.98407575757575
1319.82 87.61557575757574
1366.7 88.59017575757575
1413.57 88.35667575757573
1463.38 86.31007575757575
1516.11 88.47457575757575
1568.85 88.46447575757574
1624.51 88.04977575757574
1681.64 88.62067575757577
1741.7 89.35137575757575
1803.22 89.20737575757575
1866.21 89.60067575757576
1932.13 89.16677575757575
1999.51 90.06887575757575
2069.82 89.92077575757575
2143.07 89.15447575757575
2219.24 88.89597575757575
2296.88 89.03817575757574
2378.91 87.86087575757576
2462.4 87.67687575757576
2548.83 88.52367575757573
2639.65 87.60537575757574
2731.93 87.28817575757574
2828.61 87.40497575757574
2928.22 88.35127575757575
3030.76 88.30477575757574
3137.7 87.27577575757574
3249.02 87.84097575757575
3363.28 88.01427575757575
3481.93 88.19607575757574
3604.98 88.00897575757574
3732.42 87.55777575757575
3864.26 86.60057575757575
4000.49 86.92737575757575
4141.11 87.44977575757575
4287.6 87.44017575757574
4438.48 88.15357575757575
4595.21 88.02177575757575
4756.35 88.00977575757575
4924.8 86.60537575757574
5097.66 86.91467575757575
5277.83 87.19217575757573
5463.87 86.95427575757576
5657.23 87.09037575757576
5856.45 87.54017575757575
6062.99 87.35197575757574
6276.86 88.08167575757575
6498.05 88.09287575757574
6726.56 87.76147575757575
6963.87 87.58697575757574
7209.96 87.30387575757575
7464.84 87.43437575757575
7727.05 87.26407575757575
7999.51 87.04807575757575
8282.23 87.34927575757575
8573.73 87.62837575757575
8876.95 87.92077575757574
9188.96 88.10987575757575
9514.16 88.41317575757574
9849.61 88.75377575757575
10196.8 89.09067575757575
10555.7 89.27327575757575
10927.7 89.52337575757575
11313.0 89.18657575757577
11712.9 88.21247575757575
12126.0 87.78727575757574
12553.7 87.07527575757575
12996.1 86.97967575757575
13454.6 87.12047575757575
13929.2 87.18717575757574
14419.9 86.98197575757575
14928.2 86.73627575757574
15455.6 86.46977575757575
16000.5 86.74137575757574
16564.5 87.70577575757575
17148.9 89.01247575757574
17752.4 89.78537575757575
18379.4 90.26107575757577
19026.9 90.24987575757577
19697.8 90.03607575757574
19999.5 90.40227575757574
