Freq "Sound Power"
20.5078 50.61155266888987
21.9727 50.39928937078669
23.4375 52.24906847691339
24.9023 52.78658981159187
26.3672 54.08489387239878
27.832 56.674364565866185
29.2969 57.932637077914634
30.7617 61.04983930459515
32.2266 63.060133215955815
33.6914 66.03104125347018
35.1562 68.34018730374432
36.6211 70.56615884314768
38.0859 72.59624358000441
39.5508 74.54944602060408
41.0156 76.31335580625829
42.4805 78.02818744878327
43.9453 79.65581652112955
45.4102 81.05376227449332
46.875 82.37281499578354
48.3398 83.56833569684689
51.2695 85.58606344143888
52.7344 86.42181569193606
54.1992 87.15427428385574
55.6641 87.77439229400295
58.5938 88.64380249340347
60.0586 88.97830833427483
62.9883 89.43812856497624
64.4531 89.52168763290341
67.3828 89.64490562005443
68.8477 89.65707776294279
71.7773 89.66222222364436
74.707 89.55433551893474
77.6367 89.44802888055166
79.1016 89.37356779688636
82.0312 89.24921607141634
84.9609 89.09502665585497
87.8906 89.08904915279327
90.8203 89.047061211529
95.2148 88.90705783601076
98.1445 88.8179620124216
101.074 88.696283515431
105.469 88.50932545156333
108.398 88.43540869239267
112.793 88.3272763466564
117.188 88.04660708871343
120.117 88.03955738483744
124.512 88.03490352575162
128.906 88.08368646817613
133.301 87.97183129881175
139.16 87.68226915007126
143.555 87.61282679371907
147.949 87.65609327312328
153.809 87.54413692638352
159.668 87.36360924760122
165.527 87.19113330137829
171.387 87.14468904526754
177.246 87.16405493622342
183.105 87.07687219706533
188.965 86.96598798078368
196.289 86.72776919613118
203.613 86.48230424562585
210.938 86.30609790116205
218.262 86.13413640754104
225.586 85.97159223254076
232.91 85.68763374121582
241.699 85.561949779717
250.488 85.68503349785081
259.277 86.06368077287148
268.066 85.88200648834156
276.855 85.76265280742679
287.109 85.27641126622196
297.363 85.0969565013567
307.617 85.25195734611933
319.336 84.6644059940887
329.59 85.17695004652721
341.309 85.13088285988506
353.027 84.71807520436718
366.211 84.49467450353696
379.395 84.19328838967265
392.578 84.80940505243957
405.762 85.04437870344195
420.41 85.56540956565834
435.059 85.04017122009876
451.172 84.3608108155334
465.82 84.34983308561976
483.398 84.33406443492993
499.512 84.3035141086897
517.09 83.91783087754071
536.133 83.91085021681063
555.176 83.69259446222223
574.219 83.41347353832674
594.727 83.41673766067267
615.234 82.83410139122985
637.207 82.24868031563399
659.18 81.40523554674313
682.617 81.48594828333007
707.52 81.06590201684737
732.422 82.41879403592021
757.324 82.72579476723196
785.156 82.4170005922278
811.523 81.24808477128249
840.82 82.3233769298479
870.117 83.54098736623628
900.879 83.16242232808314
933.105 83.18062260798337
965.332 82.96626999105534
1000.49 82.70104498068908
1035.64 83.47890035206831
1072.27 82.9687916133121
1108.89 83.13676505725817
1148.44 83.80207281353988
1189.45 82.77124857693043
1230.47 82.70658734267617
1274.41 81.91616295796412
1319.82 82.13528606295989
1366.7 82.22425835572616
1413.57 82.91962702161746
1463.38 83.19356207586566
1516.11 82.91360919468714
1568.85 82.44808060277144
1624.51 81.86667888919311
1681.64 81.21635575005523
1741.7 81.25739086265492
1803.22 81.4097102638778
1866.21 81.31849337238624
1932.13 81.16739939486052
1999.51 81.5728488903329
2069.82 81.82747070161199
2143.07 81.59955930090811
2219.24 81.00590924292723
2296.88 81.44361024422247
2378.91 81.34514541285104
2462.4 80.63126001029524
2548.83 80.70731669197859
2639.65 80.54433247250496
2731.93 79.83968884617349
2828.61 79.68765775603678
2928.22 80.03921956990668
3030.76 80.1986609510681
3137.7 79.943275100288
3249.02 80.27112442001105
3363.28 80.52084112100103
3481.93 80.62675111544678
3604.98 80.8116626358447
3732.42 80.74390229472635
3864.26 80.14694081042131
4000.49 79.82705114134906
4141.11 79.84164967254272
4287.6 79.7167007334528
4438.48 79.6504714321003
4595.21 79.32431991647032
4756.35 79.25508432983666
4924.8 79.12648867268372
5097.66 78.9903299190811
5277.83 78.92740798118787
5463.87 79.03071023051841
5657.23 79.22213909308435
5856.45 79.41857805778065
6062.99 79.32025714978246
6276.86 79.39853803650314
6498.05 79.12636543407837
6726.56 79.0290342392256
6963.87 78.77715170101163
7209.96 78.53054480732563
7464.84 78.31104046793045
7727.05 78.18493065449454
7999.51 78.0625956176882
8282.23 78.05352816512983
8573.73 78.11611048406208
8876.95 78.17725195126219
9188.96 78.20992668226974
9514.16 78.24216289877894
9849.61 78.29467847398149
10196.8 78.47116965086671
10555.7 78.62812587358759
10927.7 78.68099302896793
11313.0 78.70460447394385
11712.9 78.63172959482883
12126.0 78.59217233822885
12553.7 78.53833079024663
12996.1 78.34446501518069
13454.6 78.32742794418118
13929.2 78.09841802105173
14419.9 77.56773564559249
14928.2 76.90047506898978
15455.6 76.03293818857519
16000.5 75.63143097899423
16564.5 76.11402089694958
17148.9 76.73711587623934
17752.4 76.93382185761082
18379.4 76.93594652508294
19026.9 76.571795951835
19697.8 76.07824014807767
19999.5 76.26459855011883
