Freq "Estimated In-Room Response"
22.4 40.75168351314656
23.0 42.00207726909247
23.6 43.246661615391474
24.0 44.48061282124331
25.0 45.71491443809444
25.8 46.922870107465144
26.5 48.112814818196824
27.2 49.27864278432358
28.0 50.443000729036754
29.0 51.5972450102079
30.0 52.71566148727132
30.7 53.81402074436454
31.5 54.88995042989458
32.5 55.958358881770835
33.5 56.99353610814106
34.5 57.97382118695968
35.5 58.945139032318565
36.5 59.896328875591735
37.5 60.82109055072857
38.7 61.694006637894915
40.0 62.54896775637188
41.2 63.33977677738224
42.5 64.10735573990894
43.7 64.83285098038367
45.0 65.52749402013505
46.2 66.15992779755378
47.5 66.76437222901029
48.7 67.33499570368431
50.0 67.85067646902691
51.5 68.33178786784624
53.0 68.77257047123803
54.5 69.21268035245613
56.0 69.64138821123916
58.0 70.03210833878612
60.0 70.45558738868694
61.5 70.89981825620578
63.0 71.35562096259875
65.0 71.85872721554868
67.0 72.39265976182973
69.0 72.96889328602363
71.0 73.54092181703892
73.0 74.10628031793455
75.0 74.63523662828328
77.5 75.12233740172749
80.0 75.5433305683141
82.5 75.91438326361063
85.0 76.23889943655905
87.5 76.53771987445774
90.0 76.83731537897918
92.5 77.15949664022534
95.0 77.50741643047472
97.5 77.85326984441295
100.0 78.16577914002832
103.0 78.38586450654513
106.0 78.50838809100972
109.0 78.54243968213075
112.0 78.54546026580218
115.0 78.56841589511471
118.0 78.62308326711124
122.0 78.75925193498153
125.0 78.9054706645947
128.0 79.02310848896614
132.0 79.10736332937508
136.0 79.12552967680598
140.0 79.11328774075645
145.0 79.07277538664519
150.0 78.9894092447177
155.0 78.83498269192125
160.0 78.60159377998916
165.0 78.31191198080792
170.0 77.97857396840827
175.0 77.68323763459367
180.0 77.50746416040576
185.0 77.46157575488043
190.0 77.38865150436237
195.0 77.17102641020381
200.0 76.9453030968267
206.0 77.03448031639607
212.0 77.26635490177543
218.0 77.47461391203868
224.0 77.62724024877463
230.0 77.69712503327469
236.0 77.70790734733623
240.0 77.69286183429305
250.0 77.70454646766675
258.0 77.68902610653694
265.0 77.69205739690952
272.0 77.64443703635084
280.0 77.58916236715046
290.0 77.53798671693362
300.0 77.5098890438403
307.0 77.48676786180911
315.0 77.36585787310338
325.0 77.2119288680599
335.0 77.05830381208771
345.0 76.97433847467255
355.0 76.91948000816112
365.0 76.79466751896135
375.0 76.58351768833938
387.0 76.38728127271223
400.0 76.24186718134241
412.0 76.05068364279707
425.0 75.80663046442372
437.0 75.66667680761317
450.0 75.76408208061463
462.0 76.02109561664253
475.0 76.21378622224081
487.0 76.208169739412
500.0 76.05415551715956
515.0 75.84513074459255
530.0 75.79427379867103
545.0 75.9752427021724
560.0 76.15094016632605
580.0 76.16051678733552
600.0 76.08185698668792
615.0 75.97038532254328
630.0 75.95731308676508
650.0 76.02786703956677
670.0 75.82384586174877
690.0 75.46660959898357
710.0 75.11175936958358
730.0 74.71258364993855
750.0 74.46975049806407
775.0 74.39706234198525
800.0 74.32659945548494
825.0 74.33895912163746
850.0 74.4354594259804
875.0 74.67911625501502
900.0 74.71820012321758
925.0 74.48788046820556
950.0 73.95558355189328
975.0 73.46290243405417
1000.0 73.3608534490237
1030.0 73.70254464946912
1060.0 74.07722901624848
1090.0 74.02839387491215
1120.0 73.7146672073275
1150.0 73.6947083380834
1180.0 73.83080393785667
1220.0 73.61504184572955
1250.0 73.64620973531518
1280.0 73.80573750458151
1320.0 74.178326244644
1360.0 74.73573091047746
1400.0 74.92477502941911
1450.0 75.29199968191307
1500.0 75.07620236300535
1550.0 75.47089066108167
1600.0 75.75759508804113
1650.0 74.88147034438101
1700.0 74.53320312358589
1750.0 74.85649922887177
1800.0 74.90426947025232
1850.0 74.76755692310108
1900.0 74.50567697611913
1950.0 75.14125326275669
2000.0 76.05571186302579
2060.0 76.54257200702338
2120.0 76.40549383883831
2180.0 76.0191389638571
2240.0 75.16436789324709
2300.0 75.60058408489061
2360.0 75.56744276838037
2400.0 75.08909881517897
2500.0 74.4509217182927
2580.0 74.39789684816171
2650.0 74.36492061605934
2720.0 74.312055239057
2800.0 74.64824920855997
2900.0 74.85466949054569
3000.0 74.78460469946094
3070.0 74.52120237443263
3150.0 75.03505486201269
3250.0 74.80090962607014
3350.0 75.38117222638506
3450.0 75.07928782536851
3550.0 74.09491566502729
3650.0 73.71086686733017
3750.0 73.78111754295375
3870.0 74.04658743745468
4000.0 74.4909362488167
4120.0 74.33305723617397
4250.0 73.18473935125002
4370.0 72.48345022997711
4500.0 71.67456940735502
4620.0 71.66704529280074
4750.0 72.73799920437052
4870.0 73.57745045115323
5000.0 72.60560799788934
5150.0 70.61606446336044
5300.0 70.34979217386956
5450.0 71.71529501724297
5600.0 71.8693331090574
5800.0 71.92715444047182
6000.0 72.8570310526477
6150.0 72.76177583143794
6300.0 72.62427824666636
6500.0 72.71393206684459
6700.0 72.72792387081779
6900.0 72.10133711190667
7100.0 72.24220874471845
7300.0 72.74480345930291
7500.0 72.58306239166461
7750.0 72.59998869763527
8000.0 72.80852242474955
8250.0 72.83394575416524
8500.0 72.61908608167901
8750.0 73.14434958071986
9000.0 73.83870309749281
9250.0 72.53471986367825
9500.0 71.03387764526265
9750.0 72.35084417738146
10000.0 72.34411793084094
10300.0 70.94271257875738
10600.0 72.05524051165756
10900.0 70.01037538003108
11200.0 67.16257439067637
11500.0 65.43514182200393
11800.0 70.79007005475792
12200.0 71.51373195082309
12500.0 72.30597442143002
12800.0 71.5871136750614
13200.0 70.99840404056754
13600.0 69.43199870867718
14000.0 68.76409143313487
14500.0 68.90702064032209
15000.0 66.06549048475276
15500.0 65.98797340274945
16000.0 66.48306297575213
16500.0 66.1863533212084
17000.0 65.6102207345093
17500.0 64.53023877853784
18000.0 60.01203589470137
18500.0 59.59837206829464
19000.0 63.481074139869975
19500.0 60.2614535964169
