Freq "Ceiling Bounce"
20.5078 93.18046303350141
21.9727 94.8392554087182
23.4375 95.80560659878795
24.9023 96.74125396570554
26.3672 97.2259945369701
27.832 97.7034681292734
29.2969 98.14848815902728
30.7617 98.36807215365704
32.2266 98.59705709309644
33.6914 98.81761701610964
35.1562 98.9982089255769
36.6211 99.16941235176876
38.0859 99.29181775473283
39.5508 99.39564234158729
41.0156 99.47895043224403
42.4805 99.57206403951993
43.9453 99.63571184688855
45.4102 99.71612436989093
46.875 99.80493560586838
48.3398 99.84533560586837
51.2695 99.9409688968926
52.7344 100.02008593499747
54.1992 100.07724017229577
55.6641 100.07989519348847
58.5938 100.13894361876373
60.0586 100.15768713537385
62.9883 100.11389088333837
64.4531 100.0986830799577
67.3828 100.04864836381478
68.8477 100.0426902290738
71.7773 100.00565407393803
74.707 100.04559873413818
77.6367 100.12158955505734
79.1016 100.17755271388269
82.0312 100.28578955505733
84.9609 100.35039784125661
87.8906 100.53239147058336
90.8203 100.71648931559065
95.2148 100.77266930634913
98.1445 100.79105759685667
101.074 100.82316264134975
105.469 100.86806537735548
108.398 100.9021061032258
112.793 100.88941498315826
117.188 100.89006381965135
120.117 100.88655534133831
124.512 100.87589323926979
128.906 100.85138521994986
133.301 100.85779896309596
139.16 100.79996422524255
143.555 100.7077621110772
147.949 100.67293197598286
153.809 100.64371101241143
159.668 100.46263479853118
165.527 100.20839610076041
171.387 100.02556267484076
177.246 99.82662393103627
183.105 99.44857846861034
188.965 99.44461406332131
196.289 100.08093319760712
203.613 99.60097562195855
210.938 99.49562925693147
218.262 99.39102067535723
225.586 99.10071376636736
232.91 98.93945347568007
241.699 99.18185784734646
250.488 98.83186453397067
259.277 99.19504690192456
268.066 98.82564506986594
276.855 98.59893984592748
287.109 98.81935182906284
297.363 99.22942594461949
307.617 98.78774743457494
319.336 98.39646977071766
329.59 97.84060431772816
341.309 98.13814763799208
353.027 97.61930524837787
366.211 97.01210786612668
379.395 97.9237582367312
392.578 97.95182141153911
405.762 97.54512466851986
420.41 97.21944188466736
435.059 96.97197449682622
451.172 97.03603359305495
465.82 97.2263829030645
483.398 97.91331117792431
499.512 97.71304000573132
517.09 97.04945228037995
536.133 96.780273487279
555.176 97.29996062832501
574.219 96.54254520330119
594.727 96.51944812483713
615.234 96.443014827078
637.207 96.20874887147747
659.18 96.61287634499836
682.617 96.89756597717556
707.52 96.35398152655176
732.422 96.10596216861165
757.324 96.35730664043389
785.156 96.36269137978289
811.523 96.65334132659198
840.82 96.63978146107078
870.117 96.56558747988747
900.879 96.61195639207327
933.105 96.63878163382371
965.332 96.78731018425492
1000.49 96.9333581734586
1035.64 96.34461580798474
1072.27 96.35733735884847
1108.89 96.12268274813337
1148.44 96.45795054283738
1189.45 96.83994436101449
1230.47 96.87695269231632
1274.41 97.11559643813825
1319.82 97.09928994839615
1366.7 96.32606081938854
1413.57 95.80770497220891
1463.38 96.13265049533936
1516.11 96.65665077477988
1568.85 96.03139861712413
1624.51 95.8855582428577
1681.64 95.62006900192043
1741.7 96.23507517592535
1803.22 96.42063588948453
1866.21 96.11836248620502
1932.13 96.20901599027557
1999.51 95.3968656420006
2069.82 96.06760288301523
2143.07 96.73130148673914
2219.24 96.65868657171204
2296.88 96.27264950527325
2378.91 96.53260752211112
2462.4 96.14429004722913
2548.83 95.63697273997545
2639.65 95.46880052608626
2731.93 95.78835026041699
2828.61 95.72550682620496
2928.22 95.3244371901318
3030.76 95.03357397624377
3137.7 94.95059452273922
3249.02 94.94711350547033
3363.28 94.67987968441757
3481.93 94.69180492860285
3604.98 94.53161366801974
3732.42 94.59118644333056
3864.26 94.48431341781273
4000.49 94.65116389832434
4141.11 94.45480243778192
4287.6 94.37699452951871
4438.48 94.0867620323728
4595.21 93.70048658963053
4756.35 93.62471412358121
4924.8 93.15561073727815
5097.66 93.02014876169032
5277.83 92.99443207623807
5463.87 92.99429937435613
5657.23 92.81854121991998
5856.45 92.59347052148698
6062.99 92.47395700305528
6276.86 92.12057181430984
6498.05 91.80244325324423
6726.56 91.6412799675458
6963.87 91.55416539155442
7209.96 91.4949315859743
7464.84 91.4292849632584
7727.05 91.07212597864817
7999.51 90.56592135030229
8282.23 90.10922486099481
8573.73 89.86310249051392
8876.95 90.08267869808668
9188.96 90.04903232811951
9514.16 89.93342051207578
9849.61 89.88120625843673
10196.8 89.58448055848115
10555.7 89.43097938917789
10927.7 89.34814093460126
11313.0 89.0680633037843
11712.9 88.80125254759484
12126.0 88.64478031301509
12553.7 88.57088190433687
12996.1 88.28934592991789
13454.6 88.2446615124592
13929.2 87.73374067255776
14419.9 86.61375732265107
14928.2 85.8483700970279
15455.6 85.79246885387316
16000.5 86.9222325579174
16564.5 87.02697747004419
17148.9 87.09818568864776
17752.4 87.97470480985677
18379.4 88.60652527864652
19026.9 89.17764736730341
19697.8 89.48614517982091
19999.5 89.47719999017727
