Freq "Front Wall Bounce"
20.5078 92.86781411678336
21.9727 94.55428244323423
23.4375 95.54104533919232
24.9023 96.50716946169392
26.3672 97.00451882946972
27.832 97.48735906494626
29.2969 97.93719415840353
30.7617 98.15723076515775
32.2266 98.3926722751457
33.6914 98.6162302909812
35.1562 98.8007223434534
36.6211 98.972831699643
38.0859 99.09368593888568
39.5508 99.20127672876818
41.0156 99.28239810700097
42.4805 99.37066389174029
43.9453 99.43080259545533
45.4102 99.50703910780975
46.875 99.5913736589427
48.3398 99.63117337666442
51.2695 99.72353696891233
52.7344 99.79683914747763
54.1992 99.84738246821064
55.6641 99.8488755210748
58.5938 99.89453751637491
60.0586 99.90974104704645
62.9883 99.8814149065299
64.4531 99.87002181057828
67.3828 99.821473241558
68.8477 99.80943784024159
71.7773 99.77517826869503
74.707 99.80043754676925
77.6367 99.8916721374035
79.1016 99.94838754705742
82.0312 100.05385196534417
84.9609 100.1085030771877
87.8906 100.28736477834721
90.8203 100.46747374785106
95.2148 100.53645190168105
98.1445 100.54944674937562
101.074 100.59146686079411
105.469 100.64310165063979
108.398 100.68422898602346
112.793 100.66606999008864
117.188 100.66547540240538
120.117 100.67078676748824
124.512 100.67924876280256
128.906 100.6742355019879
133.301 100.68147876532456
139.16 100.68432088115644
143.555 100.62631543247281
147.949 100.55128211513329
153.809 100.47555737514972
159.668 100.34515209693245
165.527 100.11550584517934
171.387 99.85387567478557
177.246 99.62088797805784
183.105 99.29499383843103
188.965 98.9299405851289
196.289 99.63276167887992
203.613 99.27359941799722
210.938 99.13169234364226
218.262 99.44382169290779
225.586 99.20766326280467
232.91 98.84739485388599
241.699 99.34802975164783
250.488 99.01278551386312
259.277 99.18193753618485
268.066 98.82536736564529
276.855 98.6460540332319
287.109 98.89374116003079
297.363 99.05533257070232
307.617 99.52243694223442
319.336 99.17238887921451
329.59 98.2972780974482
341.309 97.98861926589645
353.027 97.93609788045134
366.211 97.1922577908941
379.395 98.09684368963855
392.578 98.59852529630963
405.762 98.03248028590934
420.41 97.82767730674436
435.059 97.00830482787062
451.172 97.41739286113062
465.82 97.64990700389917
483.398 98.21459378037986
499.512 98.71850802858691
517.09 98.31953269634631
536.133 97.74416986051658
555.176 98.30626125569722
574.219 98.03440628389284
594.727 98.05165277209362
615.234 97.74582340632358
637.207 98.50209105931995
659.18 98.9162332792555
682.617 98.69603574512959
707.52 98.93125896829343
732.422 98.75660108297407
757.324 99.36856463597864
785.156 99.26301448970037
811.523 98.51013632959543
840.82 98.62941919322952
870.117 98.61651718892375
900.879 98.15712785477334
933.105 98.31416615077728
965.332 98.6241945693568
1000.49 98.76582880003264
1035.64 98.85894196738394
1072.27 98.37760653671852
1108.89 98.31438695454315
1148.44 97.39658345194296
1189.45 98.0109940336211
1230.47 98.25513432780596
1274.41 99.01831651044414
1319.82 98.76903293854404
1366.7 98.57173933477449
1413.57 98.29873843840215
1463.38 97.34926400307624
1516.11 98.05574084879014
1568.85 97.79429588984189
1624.51 98.41198282266876
1681.64 97.44607817070356
1741.7 97.04119394254971
1803.22 97.01304570347361
1866.21 98.46943408665192
1932.13 98.59241268346645
1999.51 98.08000569953147
2069.82 96.62516576520427
2143.07 97.04696247632029
2219.24 98.79514890771057
2296.88 97.81004642263593
2378.91 97.03256357543917
2462.4 97.62910772264271
2548.83 97.39862669310978
2639.65 96.09310412563481
2731.93 98.16133819715533
2828.61 97.19118552195759
2928.22 97.64759829931108
3030.76 97.29080226690976
3137.7 97.56404973726912
3249.02 97.8556019150187
3363.28 97.1963428097898
3481.93 97.49463824850986
3604.98 97.4732982543147
3732.42 97.87701219686957
3864.26 97.5697022059268
4000.49 97.7836954360657
4141.11 97.86776741688237
4287.6 97.92372275277955
4438.48 97.78856185074508
4595.21 98.06681004597488
4756.35 97.90431068561071
4924.8 97.86074539368538
5097.66 97.74450959725442
5277.83 97.90084301702277
5463.87 97.86023977407986
5657.23 98.00699990452252
5856.45 97.79917303199859
6062.99 97.85123642957615
6276.86 97.50515979722002
6498.05 97.75847403859105
6726.56 97.30939936962268
6963.87 97.65573580515105
7209.96 97.21360367023203
7464.84 97.0776585560163
7727.05 96.80412579958119
7999.51 96.30255681545849
8282.23 96.41719528217315
8573.73 95.95181740073487
8876.95 95.54777571301452
9188.96 95.68014494562772
9514.16 95.58156468355998
9849.61 95.4974875377005
10196.8 95.63038391376004
10555.7 95.9255160233463
10927.7 96.01437819067495
11313.0 95.99638196640046
11712.9 95.87580142587603
12126.0 95.87602944470112
12553.7 95.90000128043899
12996.1 96.41291017063983
13454.6 96.71784700310721
13929.2 97.03655848458052
14419.9 97.13117116106048
14928.2 96.70580700226604
15455.6 95.83615741159988
16000.5 95.14812327532674
16564.5 94.64384068419426
17148.9 94.74708402066898
17752.4 95.57263767561568
18379.4 96.84023423093329
19026.9 97.06889834451243
19697.8 96.89215732977242
19999.5 96.76918148126894
