Freq "Side Wall Bounce"
20.5078 93.20211482950343
21.9727 94.88648031732097
23.4375 95.86720065018253
24.9023 96.82554778738404
26.3672 97.32326179920399
27.832 97.803177050749
29.2969 98.25059816031835
30.7617 98.46571355011137
32.2266 98.70016584619773
33.6914 98.92396093268721
35.1562 99.10789356738393
36.6211 99.28042427986074
38.0859 99.40139012914018
39.5508 99.50719864890225
41.0156 99.58775355631153
42.4805 99.67579030779113
43.9453 99.73649187996867
45.4102 99.81290654146889
46.875 99.89640916689925
48.3398 99.93529069302193
51.2695 100.02073817681811
52.7344 100.09281838718414
54.1992 100.1419261352988
55.6641 100.13900429401497
58.5938 100.17470374760578
60.0586 100.18854805374576
62.9883 100.1605518544168
64.4531 100.14701595310319
67.3828 100.09574148445651
68.8477 100.08115186754264
71.7773 100.04385175974986
74.707 100.06040004116684
77.6367 100.1434217654986
79.1016 100.19546610708517
82.0312 100.29716461035164
84.9609 100.34294219462177
87.8906 100.51574718935149
90.8203 100.69012390517112
95.2148 100.74158925308872
98.1445 100.74715983321526
101.074 100.78326629897703
105.469 100.81176056399758
108.398 100.83449609148167
112.793 100.79086012497449
117.188 100.76967575159142
120.117 100.77769306114216
124.512 100.7609897031744
128.906 100.71842938433501
133.301 100.71712369825512
139.16 100.68876501674539
143.555 100.61377062487486
147.949 100.52979089541671
153.809 100.44048843912014
159.668 100.30074267992816
165.527 100.04981987208873
171.387 99.78115839340461
177.246 99.51253103601198
183.105 99.0940516860898
188.965 98.69475065319375
196.289 99.31270174955047
203.613 98.92526828101943
210.938 98.66472037954838
218.262 98.88912700687273
225.586 98.66475664411104
232.91 98.3746314868643
241.699 99.02414262796623
250.488 98.61724600934056
259.277 98.80364034107419
268.066 98.17238477137842
276.855 97.933307630533
287.109 98.37714070110381
297.363 98.23470227281683
307.617 98.7815434064944
319.336 98.39903439027248
329.59 97.58817097522231
341.309 97.39706173895587
353.027 97.72920650615842
366.211 97.25682112605358
379.395 98.61577718568455
392.578 99.02521056092051
405.762 98.60341861194763
420.41 98.23876368623897
435.059 97.45955598222301
451.172 97.60664725462559
465.82 97.82525662206602
483.398 98.5939609339629
499.512 98.48626054392535
517.09 98.32211883636134
536.133 98.00821872035888
555.176 98.17548049897243
574.219 97.6355501381959
594.727 97.33462075847763
615.234 97.4454764557559
637.207 97.31409047550528
659.18 97.31818199153173
682.617 97.10195417247871
707.52 97.12029693533395
732.422 97.18248074279381
757.324 96.82489065460322
785.156 97.653058072196
811.523 96.93035747594685
840.82 96.64626224717937
870.117 96.58589702760978
900.879 96.63399584992985
933.105 96.55756087364014
965.332 96.46775680278232
1000.49 96.95577824044659
1035.64 96.89920449229122
1072.27 96.49064349377716
1108.89 96.15867830395511
1148.44 95.65205812644871
1189.45 95.3026253952332
1230.47 95.60356410685833
1274.41 96.24654995932751
1319.82 96.2140136202402
1366.7 96.33745336804125
1413.57 95.69801461455594
1463.38 94.8889648026424
1516.11 94.95054241629785
1568.85 94.56771831422638
1624.51 95.18976038703784
1681.64 94.51041332510891
1741.7 94.35214876192641
1803.22 93.88718346728838
1866.21 94.78581379800399
1932.13 94.33408257851167
1999.51 94.32152014978831
2069.82 93.03864150871756
2143.07 93.06079945291765
2219.24 94.30672176647943
2296.88 93.57172618605279
2378.91 93.24795859902126
2462.4 93.27209871444839
2548.83 93.14502492439908
2639.65 92.96783784808378
2731.93 93.16985716106795
2828.61 93.33738063536009
2928.22 93.89099369800294
3030.76 93.05634414863746
3137.7 93.31501234708139
3249.02 93.73188606359962
3363.28 93.43806262218779
3481.93 93.15118460481908
3604.98 93.03046523663258
3732.42 92.92133870281049
3864.26 92.8256698826455
4000.49 92.08278036754173
4141.11 92.37096845093497
4287.6 92.00357108900016
4438.48 92.34680479387058
4595.21 92.25648185927122
4756.35 92.60242205285117
4924.8 91.98494027695624
5097.66 92.43689610043941
5277.83 92.18766776165359
5463.87 92.35483404100138
5657.23 92.61418411781267
5856.45 92.26838227465839
6062.99 92.66112114024699
6276.86 92.50105759260062
6498.05 92.57961977358036
6726.56 92.37171709451427
6963.87 92.61924488477997
7209.96 92.05249385958123
7464.84 92.04737433409952
7727.05 91.45184380514405
7999.51 91.19922773493926
8282.23 91.17472355893995
8573.73 91.07206427915375
8876.95 91.62071734455232
9188.96 91.80727896924071
9514.16 91.46650491288815
9849.61 91.21650877071096
10196.8 90.8777416439918
10555.7 90.60173015226421
10927.7 90.46728688732564
11313.0 90.33733683296424
11712.9 90.00504082561729
12126.0 89.55195382506164
12553.7 89.43216938491248
12996.1 89.55456019141758
13454.6 89.64087819550019
13929.2 89.86817414181533
14419.9 89.83755697170213
14928.2 90.02591146863699
15455.6 89.90020958155233
16000.5 89.9842161216454
16564.5 90.11795413634626
17148.9 90.40050829356382
17752.4 90.78425419265069
18379.4 91.24198932553807
19026.9 91.35562605796414
19697.8 91.31044771017534
19999.5 91.26257326962786
