Freq "Side Wall Bounce"
20.5078 64.17463822219014
21.9727 64.87741909218141
23.4375 66.47731637715307
24.9023 66.9135440515553
26.3672 67.94640719784907
27.832 68.93797039172813
29.2969 69.71232597953174
30.7617 70.68506836775006
32.2266 71.30502897217221
33.6914 72.02757902831715
35.1562 72.663109304079
36.6211 73.46813451727667
38.0859 74.11115174518955
39.5508 74.79557631273583
41.0156 75.24908087397799
42.4805 76.08422809597332
43.9453 76.51176622125871
45.4102 77.1884399008052
46.875 77.73716979461774
48.3398 78.3810058239499
51.2695 79.55451649200705
52.7344 80.08334694578615
54.1992 80.49061580908334
55.6641 81.0147568355738
58.5938 82.03938706250028
60.0586 82.54107868876196
62.9883 83.42314704187447
64.4531 83.84002731253364
67.3828 84.62072579865725
68.8477 84.99938832282402
71.7773 85.68284783536419
74.707 86.41055301209971
77.6367 87.0099676822316
79.1016 87.28363790293649
82.0312 87.77633741525717
84.9609 88.19426116764012
87.8906 88.44468963356312
90.8203 88.81021880023823
95.2148 89.05644856168648
98.1445 89.13324061416199
101.074 89.06628135173
105.469 88.98870324391144
108.398 89.3144789227141
112.793 89.42482958420076
117.188 89.32448401196044
120.117 89.32765347922304
124.512 89.16917142280032
128.906 88.89085287960745
133.301 88.70279453000296
139.16 88.45892484785095
143.555 88.195579007258
147.949 87.89762433073446
153.809 87.61635841872204
159.668 87.7948646480331
165.527 87.6198185909613
171.387 87.35030446928764
177.246 87.00369935570755
183.105 86.66972567744293
188.965 86.55187313335895
196.289 86.36891018625901
203.613 86.16000095213252
210.938 85.85458399907877
218.262 85.30190723350465
225.586 85.39115038339185
232.91 85.58440601397278
241.699 85.13075820945159
250.488 85.25050372909416
259.277 85.09580971788662
268.066 83.96100813555127
276.855 84.06288788020274
287.109 82.87795417803233
297.363 83.46921752932309
307.617 84.11750645736484
319.336 82.43231321721916
329.59 82.26663725548754
341.309 81.9865435854178
353.027 82.99395696004716
366.211 82.69357033280397
379.395 82.45101628904457
392.578 80.44068757153326
405.762 79.25251827197731
420.41 79.42293633542944
435.059 77.57202981386284
451.172 78.83750515036238
465.82 77.66638040722093
483.398 76.98622894420362
499.512 77.02621176305274
517.09 77.25960628197298
536.133 78.31351580726711
555.176 79.50245775192681
574.219 79.65850521850065
594.727 79.85498049583919
615.234 80.85928878491116
637.207 81.18017180374883
659.18 81.48836325192683
682.617 82.18535162128245
707.52 82.94556616258032
732.422 83.79264569179529
757.324 85.19216250105094
785.156 85.26360371979568
811.523 85.61580610171188
840.82 84.87094580417855
870.117 84.54889135058787
900.879 84.4790444514954
933.105 84.1161154362227
965.332 83.72687489450323
1000.49 83.16130722035003
1035.64 84.27743466509715
1072.27 83.97181906390358
1108.89 85.32322598224394
1148.44 84.93659851621848
1189.45 86.12634547723151
1230.47 86.60496012510964
1274.41 87.83384963841867
1319.82 88.0462136904577
1366.7 87.85923647455229
1413.57 87.7076118303075
1463.38 86.97389102588647
1516.11 86.05786439400791
1568.85 85.16534366841407
1624.51 85.30321625814301
1681.64 85.17371265853804
1741.7 85.63330903452106
1803.22 85.7407049467047
1866.21 84.96337215915422
1932.13 84.10857733532735
1999.51 83.77490166858924
2069.82 83.35961055201572
2143.07 82.51462622603164
2219.24 81.53430633193919
2296.88 80.35358169449665
2378.91 80.04214837487969
2462.4 80.59161010090817
2548.83 80.46238750501698
2639.65 78.58324896049344
2731.93 76.70656528402543
2828.61 76.69746388341358
2928.22 78.32996319962177
3030.76 79.67313265352377
3137.7 80.21677865856437
3249.02 79.99680085762121
3363.28 79.2278547771516
3481.93 78.52180032048783
3604.98 78.6725089355942
3732.42 79.91029294163586
3864.26 79.39243090399144
4000.49 79.8820694087419
4141.11 80.8738570888355
4287.6 80.98664972693804
4438.48 80.53694831020714
4595.21 80.10197232767982
4756.35 80.39727224871133
4924.8 81.31311767827214
5097.66 81.03022119751934
5277.83 80.60861142667441
5463.87 80.97667329972782
5657.23 80.17387063475074
5856.45 79.28120601853061
6062.99 78.45780053210132
6276.86 76.84214505427597
6498.05 73.92257145073143
6726.56 69.02074138783446
6963.87 70.83733365710418
7209.96 73.96776387501957
7464.84 76.1241161336784
7727.05 77.6714210854412
7999.51 78.19611419869474
8282.23 78.42334618257594
8573.73 80.1704574035414
8876.95 81.7328493747326
9188.96 80.9999666858981
9514.16 80.78665019153696
9849.61 80.79898041413401
10196.8 81.13219515173823
10555.7 81.80102661987496
10927.7 81.93910090807415
11313.0 82.4382151785766
11712.9 82.54318818718758
12126.0 82.8891546413061
12553.7 83.32957864827675
12996.1 82.40909397845448
13454.6 83.22396727555285
13929.2 83.32250825612945
14419.9 83.23083090830454
14928.2 83.18390785389465
15455.6 82.26003519392526
16000.5 81.5003690954193
16564.5 82.26889370473344
17148.9 82.28514327404727
17752.4 81.64364502752069
18379.4 80.72034244329402
19026.9 79.62470742097933
19697.8 78.90114745050946
19999.5 78.56996400028015
