Freq "Estimated In-Room Response"
20.0 41.29897975831716
20.2909 41.87208384618796
20.586 42.65235522481635
20.8855 43.38873973464402
21.1893 44.060052433783085
21.4975 44.61563373889146
21.8102 44.99978849198442
22.1274 45.47878905384226
22.4492 45.94089562325044
22.7758 46.515614322069865
23.1071 47.0813581993192
23.4432 47.74329169593756
23.7841 48.21983138762627
24.1301 48.706751674274074
24.4811 49.173165837722735
24.8372 49.542374535971334
25.1984 50.017992260070315
25.5649 50.69365276835393
25.9368 51.47044218498257
26.3141 52.55289775760838
26.6968 53.727586135545096
27.0851 54.8050935345878
27.4791 55.5777321418154
27.8788 56.46402739140029
28.2843 57.05150382638226
28.6957 57.73231885250135
29.1131 58.40724558426311
29.5365 59.28590944584829
29.9661 59.99285676797797
30.402 60.66121160283279
30.8442 61.3335056790136
31.2929 61.91823417620368
31.748 62.40631068176907
32.2098 63.0876174370278
32.6783 63.66890295884075
33.1536 64.45893287158677
33.6359 64.94101885405917
34.1251 65.52903857351524
34.6215 66.01669084854413
35.125 66.61433621157808
35.6359 67.28418649914033
36.1543 68.05995951511646
36.6802 68.75156555395587
37.2137 69.33344427912299
37.755 69.91524550958746
38.3041 70.59790543271569
38.8613 71.26934702836513
39.4265 71.8462023050695
40.0 72.33311835578702
40.5818 72.90032099852971
41.1721 73.28598168402388
41.771 73.75911375957254
42.3785 74.32629338823335
42.9949 74.89940832673311
43.6203 75.26523187123124
44.2548 75.72404430693553
44.8985 76.10292455931435
45.5515 76.59840637313106
46.2141 77.01957358188525
46.8863 77.38400079347382
47.5683 77.63694500410192
48.2602 77.9932845292684
48.9621 78.23615855946264
49.6743 78.54372072520738
50.3968 78.73426058913614
51.1299 78.92640244734037
51.8736 79.10143557953029
52.6281 79.31028112126972
53.3936 79.4648941739914
54.1702 79.68262181782646
54.9581 79.91146710169255
55.7575 79.84558618387322
56.5685 80.08279954865239
57.3914 80.14977610241755
58.2261 80.24655382991136
59.073 80.34304554925677
59.9323 80.3399306592623
60.804 80.4228429495194
61.6884 80.5460579522537
62.5857 80.56797372795397
63.496 80.65263518223034
64.4196 80.61796628013053
65.3566 80.72415449482604
66.3073 80.74323184941343
67.2717 80.84485826534512
68.2502 80.84942904461126
69.2429 80.85195474496834
70.2501 80.85388144322235
71.2719 81.05667528134057
72.3086 81.15313815581449
73.3603 81.22934431487546
74.4274 81.39091653251992
75.5099 81.37794921089352
76.6083 81.37963744192167
77.7226 81.45131954433207
78.8531 81.49770028548116
80.0 81.58600414275307
81.1636 81.57980861116354
82.3442 81.60262849609853
83.5419 81.73695579641166
84.757 81.69953479076273
85.9899 81.83659798271256
87.2406 81.95943255351699
88.5096 81.90512634192785
89.797 82.02504156674365
91.1031 82.06014119737148
92.4282 82.16910008869652
93.7726 82.18570555040931
95.1366 82.18570555040931
96.5204 82.27891548125213
97.9243 82.26832840693034
99.3486 82.35024122255136
100.794 82.426647765555
102.26 82.40671896160714
103.747 82.56842121435969
105.256 82.52984201753362
106.787 82.58996765366442
108.34 82.63533855767737
109.916 82.62036879091883
111.515 82.7168807182245
113.137 82.75250489291797
114.783 82.78163852965766
116.452 82.91021492561362
118.146 82.94125612240867
119.865 82.85841141412934
121.608 82.87618350323427
123.377 82.891494710293
125.171 82.89375697817505
126.992 83.04387694898739
128.839 83.04238627515775
130.713 82.99127087060035
132.615 83.02989403386131
134.543 82.97248002335496
136.5 83.04902067474605
138.486 83.12180245065701
140.5 83.04675794957177
142.544 83.0215749036764
144.617 83.09865810142877
146.721 83.02722728684034
148.855 83.10699394899838
151.02 83.07016381680128
153.217 83.02180833132829
155.445 83.00471786794364
157.706 83.08316846387446
160.0 83.05826095277791
162.327 82.9428196304855
164.688 83.03700266630176
167.084 83.03099940072048
169.514 83.12210775735011
171.98 83.13795354499285
174.481 83.14481846260333
177.019 83.15531814801102
179.594 83.1461278709085
182.206 83.17029772344324
184.856 83.18134599908423
187.545 83.29006556425026
190.273 83.28885282914399
193.041 83.41632414482748
195.849 83.38998432697734
198.697 83.3758385139698
201.587 83.38872422413179
204.52 83.37765451386962
207.494 83.46402129189816
210.512 83.44201009466326
213.574 83.42498736547057
216.681 83.44477528213523
219.833 83.30717215007039
223.03 83.38332404817986
226.274 83.35826219350764
229.565 83.28070570786917
232.905 83.23821154612294
236.292 83.20209703033456
239.729 83.23090781646431
243.216 83.19325618712818
246.754 83.03826834840402
250.343 83.19092356491265
253.984 83.12521204528932
257.678 83.12391403911424
261.426 82.988817352287
265.229 83.05880974855401
269.087 82.99648142150642
273.001 82.90512067286096
276.972 82.91769085163938
281.0 82.95659083474072
285.088 82.95700921237272
289.234 82.90582732116901
293.441 82.91937417028305
297.709 82.95317335173661
302.04 82.9547607934306
306.433 82.93936887211258
310.89 82.9240733317943
315.412 82.8805372633055
320.0 82.89528677694675
324.655 82.8625668622592
329.377 82.82041837498852
334.168 82.63140412559491
339.028 82.55780094022225
343.959 82.51754470942336
348.962 82.51785976444235
354.038 82.52618363736923
359.188 82.505428778518
364.412 82.39034056998304
369.713 82.39632708132622
375.09 82.41198610162134
380.546 82.4648395919903
386.081 82.40709198399847
391.697 82.4018186788368
397.394 82.37718424533409
403.175 82.35505063512039
409.039 82.233202273442
414.989 82.25569623552167
421.025 82.2373443211371
427.149 82.11246415306971
433.362 82.10281050772295
439.665 82.01589269625575
446.06 82.06492574271783
452.548 82.0105282215499
459.131 82.02717837731751
465.809 81.9539792717651
472.584 81.98248467492505
479.458 81.96431428593418
486.432 82.04890153904037
493.507 82.005904936437
500.686 81.9752052433922
507.968 82.04860614376472
515.357 82.03652781271396
522.853 82.0571276309094
530.458 82.10560206676507
538.174 81.98458977517183
546.002 81.86441609505968
553.943 81.73292336845033
562.001 81.58785756892934
570.175 81.52525061110244
578.469 81.37375963327935
586.883 81.22271651452297
595.419 81.0998014850685
604.08 80.98507063563459
612.866 80.9951982998201
621.78 80.92636164682513
630.824 80.89705788484656
640.0 80.90759278497599
649.309 80.94661640003957
658.753 81.00588166302148
668.335 81.15260890174483
678.056 81.16252109116412
687.919 81.11947787944648
697.925 81.13236642464183
708.077 81.03523184116102
718.376 80.96261011919265
728.825 80.96930117677587
739.426 80.91414647535528
750.181 81.0161320891491
761.093 80.96972424539354
772.163 80.98405879855703
783.394 80.90509565936283
794.789 80.89171202141405
806.349 80.85823791011208
818.078 80.78277216557026
829.977 80.83796975874331
842.05 80.88409157182865
854.298 80.89128089786075
866.724 80.8303347091444
879.33 80.61883112581927
892.12 80.46640189042903
905.097 80.27496891477125
918.262 80.14652829984254
931.618 80.10023419443061
945.169 80.10723389740757
958.917 80.24639640558154
972.864 80.28591468872207
987.015 80.30225052764206
1001.37 80.28720115969047
1015.94 80.26952207140744
1030.71 80.27889499584954
1045.71 80.38381098977135
1060.92 80.38457398851631
1076.35 80.35056688614421
1092.0 80.37618715368487
1107.89 80.28153857800659
1124.0 80.17096083069744
1140.35 80.14411361098288
1156.94 80.04134905639245
1173.77 80.14239700843643
1190.84 80.29690065883341
1208.16 80.31717334169723
1225.73 80.31774850025468
1243.56 80.20930305287908
1261.65 80.30031491937663
1280.0 80.37387735174013
1298.62 80.25275547770448
1317.51 80.13633094953629
1336.67 80.070863051656
1356.11 80.02179222235034
1375.84 80.12712802337566
1395.85 80.22756377969148
1416.15 80.24475375971187
1436.75 80.33746578819347
1457.65 80.31114556269725
1478.85 80.1515866268915
1500.36 80.1993761791814
1522.19 80.30696637377416
1544.33 80.27849469709818
1566.79 80.29483891122965
1589.58 80.26251709768019
1612.7 80.08503618719624
1636.16 79.99715458986162
1659.95 80.10829930531193
1684.1 80.07778532131698
1708.6 80.06436215484851
1733.45 79.96476173377937
1758.66 80.01688816826668
1784.24 79.90196156059031
1810.19 79.80373041473739
1836.52 79.62896857700156
1863.24 79.63752866871427
1890.34 79.52094358365065
1917.83 79.58227213407878
1945.73 79.6529162284171
1974.03 79.65578246265797
2002.74 79.69130906696572
2031.87 79.87554638828091
2061.43 79.75560707915872
2091.41 79.50921742575166
2121.83 79.33256544816453
2152.69 79.33525450687624
2184.01 79.46906730852437
2215.77 79.52269553862996
2248.0 79.52304190003218
2280.7 79.50239962286412
2313.87 79.35166804992623
2347.53 79.29940309213688
2381.68 79.32848038929667
2416.32 79.43923863240427
2451.46 79.56002795408492
2487.12 79.53614776322914
2523.3 79.56103213720448
2560.0 79.41242242009328
2597.24 79.29965439575217
2635.01 79.34858153517135
2673.34 79.57555292554187
2712.23 79.74221712679115
2751.68 79.8799675799572
2791.7 79.66876779308105
2832.31 79.67857651759823
2873.5 79.75853253169848
2915.3 80.02354845320241
2957.7 80.07304030082472
3000.72 80.13561050749934
3044.37 79.85035954917697
3088.65 79.83550575089353
3133.58 79.9145222250549
3179.16 80.05871779658445
3225.4 79.91937270877133
3272.31 79.81702511490714
3319.91 79.84157972536705
3368.2 79.96038397974753
3417.19 80.12605300765982
3466.89 80.18148871272658
3517.32 80.12264530014502
3568.48 80.12270035411457
3620.39 80.30508172832744
3673.05 80.34867205635123
3726.47 80.31038900068677
3780.67 80.26034735608326
3835.67 80.26503785619798
3891.46 80.36293545763569
3948.06 80.31612623184789
4005.49 80.2690610751923
4063.75 80.30605196539018
4122.86 80.37747960445434
4182.82 80.35706960020296
4243.66 80.43531646097972
4305.39 80.491923311672
4368.01 80.61620965528432
4431.55 80.58879243027474
4496.01 80.64160871841457
4561.4 80.59110570187178
4627.75 80.53310601797452
4695.06 80.46944642451015
4763.35 80.25485710321972
4832.64 80.19936168577016
4902.93 80.15082608995218
4974.24 80.04678199477459
5046.6 80.027683712259
5120.0 80.19315641562929
5194.47 80.03150816077164
5270.03 80.02021655934766
5346.68 80.10976167904309
5424.45 79.92870105982608
5503.35 79.98082402299626
5583.4 80.05336872452797
5664.61 79.98989269200668
5747.01 80.08531035659144
5830.6 80.15681897405568
5915.41 80.10830725953468
6001.45 80.20852386398997
6088.74 80.22326925492179
6177.3 80.13116213026876
6267.15 80.16200506774855
6358.31 79.98997085643859
6450.8 79.78199018843502
6544.62 79.6634928782378
6639.82 79.56150402645392
6736.4 79.54254377362682
6834.38 79.48578809163558
6933.79 79.32774923807354
7034.64 79.24476056148188
7136.96 79.06944147319678
7240.77 78.99492982744347
7346.09 78.91356517810804
7452.94 78.89077451390119
7561.35 78.94934991800218
7671.33 78.95820449738804
7782.91 78.9042550263398
7896.12 78.70872024966904
8010.97 78.68266170802849
8127.49 78.73114872503548
8245.71 78.91639709061818
8365.65 78.86960036389803
8487.33 78.87283076768313
8610.78 78.73730881209246
8736.03 78.54006316587406
8863.09 78.47459835904144
8992.01 78.56569302258531
9122.8 78.69556718706798
9255.5 78.73678008305149
9390.12 78.72731010135305
9526.7 78.75111088402774
9665.27 78.6794388079069
9805.86 78.79377069923034
9948.49 78.9279412832286
10093.2 78.85018069009263
10240.0 78.79268369171288
10388.9 78.72881583018395
10540.1 78.73437021249953
10693.4 78.66775021913695
10848.9 78.60461340797477
11006.7 78.38410605119788
11166.8 78.08385373686305
11329.2 77.97361607513692
11494.0 77.95313592533162
11661.2 77.93263324931036
11830.8 77.81554801920316
12002.9 77.7972629118715
12177.5 77.82212728399682
12354.6 77.61353286100854
12534.3 77.30127248500199
12716.6 76.9001065349659
12901.6 76.58441489420954
13089.2 76.23910843760953
13279.6 75.98784689089555
13472.8 75.80830680240072
13668.8 75.86633663841891
13867.6 76.0900646483157
14069.3 76.19355370416349
14273.9 76.44471530274286
14481.5 76.84781616035127
14692.2 77.34681014343187
14905.9 77.79776102907496
15122.7 78.04911952367021
15342.7 78.30247512387749
15565.8 78.34688420075165
15792.2 78.14350002696739
16021.9 77.83623085805179
16255.0 77.57714374463842
16491.4 77.22020987448937
16731.3 77.05424668301748
16974.7 77.01161669429179
17221.6 76.97218848070945
17472.1 76.79105987134693
17726.2 76.66979362694101
17984.0 76.55575764560244
18245.6 76.46508435477301
18511.0 76.52075059618718
18780.2 76.61303839067713
19053.4 76.62631587631233
19330.5 76.6053328009041
19611.7 76.63921100778764
19897.0 76.72942001481084
