Freq "Estimated In-Room Response"
20.5078 57.655660685840985
21.9727 57.61036780353459
23.4375 57.45833650717398
24.9023 59.00467262748563
26.3672 59.821403548087886
27.832 60.43984779101217
29.2969 61.27965180099868
30.7617 62.14294629766211
32.2266 62.784731016938395
33.6914 63.427104098519834
35.1562 64.1888915009242
36.6211 64.69654808020812
38.0859 65.57557827282044
39.5508 66.110652978523
41.0156 66.69635560805987
42.4805 67.3136023120237
43.9453 67.88741522005091
45.4102 68.3844530224201
46.875 68.94306386125282
48.3398 69.35339088267622
51.2695 70.62072499329166
52.7344 71.12154699947445
54.1992 71.57541587265048
55.6641 71.99462979094073
58.5938 72.89570913385195
60.0586 73.3267571356399
62.9883 74.10937845822531
64.4531 74.47568622557938
67.3828 75.32380441371198
68.8477 75.70482283695301
71.7773 76.38693684183143
74.707 76.98212197970588
77.6367 77.52673574167324
79.1016 77.80363925922325
82.0312 78.27382671670077
84.9609 78.66804024996637
87.8906 79.02718893505055
90.8203 79.38261009121109
95.2148 79.76770921192221
98.1445 79.99507549990741
101.074 80.1538963562063
105.469 80.322220050961
108.398 80.37870861968926
112.793 80.42673238070593
117.188 80.42969633543439
120.117 80.52322760766017
124.512 80.60881089388143
128.906 80.58780165315204
133.301 80.52386087352986
139.16 80.38619013005219
143.555 80.31795780226967
147.949 80.33546755417662
153.809 80.26813814639883
159.668 80.11286584433216
165.527 79.79574914262068
171.387 79.88166983390076
177.246 79.70746194342682
183.105 79.72511921735433
188.965 79.74272951203163
196.289 79.56458240272363
203.613 79.50814265373754
210.938 79.39927796514618
218.262 79.4345991539647
225.586 79.35456033397713
232.91 79.26950747570676
241.699 79.00340460495532
250.488 79.08809952921222
259.277 79.33063346655464
268.066 79.38292849762892
276.855 78.98000963480675
287.109 79.18498969487652
297.363 79.2471403043641
307.617 79.17900708127715
319.336 78.52503686684949
329.59 78.67340823671755
341.309 79.03960288755277
353.027 78.84700450839381
366.211 79.07585660040615
379.395 79.54805667684295
392.578 79.7268978710959
405.762 79.63320680243459
420.41 79.78228793296142
435.059 79.79628447555498
451.172 79.52578570371571
465.82 79.82456321396475
483.398 79.940671695344
499.512 79.87825751224183
517.09 79.88264685439134
536.133 79.93427474454536
555.176 79.84257374443973
574.219 79.97161894838413
594.727 80.06831684916449
615.234 79.54163972250437
637.207 79.7070832737526
659.18 79.68626048368117
682.617 79.90704043210458
707.52 80.28649818497138
732.422 79.93252654234747
757.324 80.12918132042964
785.156 80.24349697466907
811.523 80.07131692087701
840.82 80.17894588224934
870.117 80.55811054378182
900.879 81.85860054374103
933.105 81.87852634678681
965.332 81.7656280308955
1000.49 81.25178034287305
1035.64 81.27353780524219
1072.27 81.35519839073272
1108.89 81.4477151533598
1148.44 81.23246843821983
1189.45 81.02279343650824
1230.47 80.55367511906957
1274.41 80.1880661644939
1319.82 79.83621271271352
1366.7 79.72004262983124
1413.57 79.81241472328198
1463.38 79.50823879641703
1516.11 79.24428012608726
1568.85 79.01999848739851
1624.51 79.2044217058592
1681.64 79.25908572406304
1741.7 78.59306301637531
1803.22 78.46158249825184
1866.21 79.04613609062243
1932.13 79.18373390256245
1999.51 78.0668842594138
2069.82 78.68842945334133
2143.07 79.68927399942186
2219.24 78.64833038628149
2296.88 78.34087580255479
2378.91 78.7292516195636
2462.4 78.63513728923641
2548.83 78.36286207774538
2639.65 78.78536019076802
2731.93 78.99276484556198
2828.61 78.91571837557706
2928.22 78.74414315035354
3030.76 79.21104898105034
3137.7 79.00226010048527
3249.02 79.11678465403558
3363.28 79.12835826010459
3481.93 79.33113510320942
3604.98 79.20505817786383
3732.42 79.62891822677516
3864.26 79.3884983477209
4000.49 79.64314829893185
4141.11 79.67875136035143
4287.6 79.72390444767737
4438.48 79.81611544174541
4595.21 79.75133169267939
4756.35 79.84486395833794
4924.8 79.71151207021623
5097.66 79.71786272563597
5277.83 79.58594553341528
5463.87 79.26478695939916
5657.23 79.02995015258293
5856.45 78.91940405185858
6062.99 79.22371933347638
6276.86 79.10501765887433
6498.05 78.84607881864258
6726.56 78.42934597639096
6963.87 78.37710894894357
7209.96 78.42508833138552
7464.84 78.38764699279625
7727.05 78.20117656727486
7999.51 77.847468873953
8282.23 77.57267558769111
8573.73 77.63644622108808
8876.95 77.9425277436781
9188.96 78.18386650052129
9514.16 78.42008001053884
9849.61 78.71402284211808
10196.8 78.98199261469998
10555.7 79.02045343250546
10927.7 79.03531446943879
11313.0 79.01861535556395
11712.9 79.09613195864307
12126.0 79.21328897592151
12553.7 79.39039020218931
12996.1 79.49142513847657
13454.6 79.31819124596662
13929.2 78.97078795558562
14419.9 78.07333759569721
14928.2 76.88023565617695
15455.6 80.18879769475178
16000.5 79.31515991684573
16564.5 78.30151691559878
17148.9 77.36271721016617
17752.4 76.29458027906071
18379.4 74.92520304112877
19026.9 73.57363593959582
19697.8 72.5682881820425
19999.5 72.09075085429862
