Freq "Estimated In-Room Response"
20.5078 60.07451536828668
23.4375 63.327906738838976
26.3672 66.30912851840162
29.2969 69.61024197233466
32.2266 72.6994406443566
35.1563 75.78433654283216
38.0859 78.56807329459538
41.0156 80.96395024594914
43.9453 82.59489803520154
46.875 83.64261898619941
49.8047 84.11142641448141
52.7344 84.26444501660183
55.6641 84.28263575856566
58.5938 84.30150531280775
61.5234 84.20311762589398
64.4531 84.17348226845928
67.3828 84.18823892368427
70.3125 84.22845236192549
73.2422 84.31297090347667
76.1719 84.4396682354399
79.1016 84.4928271895044
82.0313 84.67822528451515
84.9609 84.83505489765864
87.8906 84.8153148594677
90.8203 84.82118594748657
93.75 85.14464436954555
96.6797 85.17107522688643
102.539 85.4255540463981
105.469 85.54667679039237
108.398 85.68832579177725
111.328 85.81203473882924
117.188 86.04604540610421
120.117 86.2288017078115
125.977 86.35737330741321
128.906 86.30422122283653
134.766 86.29714471620946
137.695 86.36464837307858
143.555 86.46846282340124
149.414 86.57681923117283
155.273 86.7078411273657
158.203 86.74896062419876
164.063 86.77464182522418
169.922 86.68026087668301
175.781 86.5747011551854
181.641 86.50736377658784
190.43 86.5134509172073
196.289 86.44605317774041
202.148 86.38830816067328
210.938 86.25012948443421
216.797 86.09778280273697
225.586 86.0688157328293
234.375 86.02780863107046
240.234 85.87288641937054
249.023 85.72927958112729
257.813 85.85093926205968
266.602 85.41502501636768
278.32 85.23826297736241
287.109 85.22158721915092
295.898 85.19781619285571
307.617 85.11315018981853
319.336 84.89300942291452
331.055 84.63609548329853
342.773 84.15839139013764
354.492 84.20495811072993
366.211 84.26287174958703
377.93 84.43876575138997
392.578 84.00571448627136
407.227 83.91171906840313
421.875 84.15737949623609
436.523 83.97543449101543
451.172 84.01425764145537
465.82 83.69336781715762
483.398 83.39770808171086
500.977 83.40724925889447
518.555 83.6253021579881
536.133 83.79907660651631
553.711 83.40021875161052
574.219 83.22423028695462
594.727 82.93496602789395
615.234 82.737953609788
638.672 83.32081436648068
659.18 83.044826598697
682.617 83.38438019162852
706.055 84.04584563940651
732.422 83.56165271621053
758.789 83.20820992629334
785.156 83.01629581607017
811.523 82.9817082742318
840.82 83.37051022252243
870.117 83.44354592163437
902.344 83.80771119823555
931.641 83.57127439515787
966.797 83.33055983822976
999.023 83.23241713610523
1034.18 83.19093886804694
1072.27 83.10074983352123
1110.35 82.9329180340287
1148.44 82.76747854338193
1189.45 82.78000802936536
1230.47 82.63354839106282
1274.41 82.32484853490054
1318.36 81.9508983675056
1365.23 81.30673776725936
1415.04 80.72271483045009
1464.84 80.70018024555065
1514.65 80.79805638234977
1570.31 80.45934559339761
1623.05 80.03868169369636
1681.64 79.76908266874187
1740.23 80.02684776603681
1801.76 80.10784803419025
1866.21 79.98424465082864
1930.66 79.39047750597427
2000.98 80.11643531461121
2071.29 80.78849073702057
2144.53 80.49388793977528
2217.77 79.97980656777489
2296.88 80.85803275141662
2378.91 81.24580205990294
2460.94 81.00208359527946
2548.83 80.94657231594611
2639.65 81.56809736244357
2733.4 81.64294501244777
2827.15 81.95096187238096
2926.76 82.26799763783029
3032.23 82.27317366095733
3137.7 82.44263768427449
3249.02 82.49261943750957
3363.28 82.42913884736926
3483.4 82.62553123187601
3606.45 82.57165296965672
3732.42 82.47662803241572
3864.26 82.5500426444358
3999.02 82.44675506888217
4139.65 82.76192736581075
4286.13 83.34436783561553
4438.48 83.58429313391568
4593.75 83.7555211158958
4757.81 83.91258505766915
4924.8 83.60589474585194
5097.66 83.25438758067813
5279.3 82.87447822315792
5463.87 82.6275589129209
5657.23 82.430423028393
5856.45 82.50215457586992
6061.52 82.52575016288824
6275.39 82.65815016658092
6498.05 82.94668180956552
6726.56 83.05043275577836
6963.87 83.00679348148464
7209.96 82.71836099755333
7464.84 82.44613978382009
7728.52 82.35264771762692
8000.98 82.53777320818898
8282.23 82.67373808054766
8575.2 82.58140184615978
8876.95 82.24733167078296
9190.43 81.84579842834472
9512.7 81.6154549503493
9849.61 81.60142342017964
10195.3 81.66871416734513
10555.7 81.61965546860588
10927.7 81.46684533488258
11314.5 81.25632915251964
11712.9 80.93016161437475
12126.0 80.91005368570141
12553.7 80.95331430569247
12996.1 80.91148651573656
13453.1 80.7236343315917
13927.7 80.43657664763649
14419.9 80.19611526623176
14929.7 80.19899735024306
15454.1 80.30242623086207
15999.0 80.38872947976608
16564.5 80.89988905094866
17147.5 80.80651869555506
17753.9 81.07373597961791
18377.9 81.38539430924251
19028.3 81.99173514207641
19699.2 82.72069798475543
19998.0 82.94269341898557
