Freq "Estimated In-Room Response"
22.4 76.75233609222019
23.0 77.90494343384493
23.6 79.03914868006751
24.0 80.1392805157205
25.0 81.22511858345553
25.8 82.3021002279227
26.5 83.37130622347854
27.2 84.41832140312701
28.0 85.43237863799955
29.0 86.43669170269565
30.0 87.39028765155096
30.7 88.33779522044986
31.5 89.27032295298996
32.5 90.14932338349777
33.5 91.01275537232287
34.5 91.82389131816156
35.5 92.60441031354972
36.5 93.35813147689649
37.5 94.06148505485686
38.7 94.71080694616055
40.0 95.32053099384004
41.2 95.86858130719263
42.5 96.37288700572493
43.7 96.81275065847657
45.0 97.19196620932262
46.2 97.5340212919385
47.5 97.78685178254344
48.7 97.99310927277119
50.0 98.12329552604797
51.5 98.22317603276842
53.0 98.26798411700969
54.5 98.27902319960752
56.0 98.27202491264907
58.0 98.27095031615305
60.0 98.29024681998885
61.5 98.33703817524332
63.0 98.39028091507379
65.0 98.4720647976878
67.0 98.5028380573039
69.0 98.52199790229999
71.0 98.45143267380215
73.0 98.2963564730817
75.0 98.07171138129755
77.5 97.79712473581212
80.0 97.54290172068258
82.5 97.37819036685303
85.0 97.35907150743013
87.5 97.45362646557837
90.0 97.5950451323105
92.5 97.66860386717363
95.0 97.57619099569521
97.5 97.25776034048505
100.0 96.73352565833468
103.0 96.0984455797709
106.0 95.50848755902996
109.0 95.11095378732298
112.0 94.99242939157004
115.0 95.09008615274885
118.0 95.3461190364807
122.0 95.65774001822514
125.0 95.8360162963244
128.0 95.89801654607584
132.0 95.88354081189762
136.0 95.82897444692338
140.0 95.77743615149444
145.0 95.59062057798324
150.0 95.30162500546429
155.0 94.93796323005614
160.0 94.6086031968179
165.0 94.32918400880004
170.0 94.03787086967772
175.0 93.49225795745832
180.0 92.44028822293198
185.0 90.61556493157613
190.0 88.34611430388567
195.0 87.08606722730227
200.0 87.65379838919333
206.0 88.40256618885294
212.0 88.8842460507665
218.0 89.32937133944988
224.0 89.95844090745943
230.0 91.18815409939833
236.0 92.59001232145766
240.0 93.59519286409541
250.0 94.78351259327562
258.0 96.23899809628936
265.0 97.02883251816066
272.0 97.01734654567619
280.0 96.57911309511651
290.0 95.78741197154781
300.0 95.23172537850314
307.0 95.1497715174048
315.0 95.02375416967169
325.0 93.66866563906689
335.0 91.61993508414375
345.0 91.30043558683927
355.0 91.43715416858649
365.0 92.65667963673114
375.0 95.4382899475097
387.0 97.5762252481931
400.0 98.55019368377441
412.0 99.78245834379246
425.0 99.74492423796382
437.0 98.51796672902572
450.0 97.46913716345935
462.0 96.92440061945035
475.0 95.77210905175397
487.0 94.8945605049515
500.0 94.43299904879589
515.0 91.86033803582995
530.0 90.5613438858219
545.0 89.19406004634216
560.0 85.92432151432484
580.0 85.14628175159045
600.0 87.48430180810445
615.0 91.1339774524316
630.0 91.07733837769305
650.0 88.91464003709362
670.0 85.81265630427643
690.0 82.67525854365641
710.0 82.96134678966126
730.0 90.53751707248097
750.0 93.30595071233608
775.0 92.76334826268307
800.0 91.75966544017518
825.0 92.51525699558503
850.0 92.14865988006437
875.0 93.97480523088616
900.0 94.88231079683797
925.0 93.92983263187871
950.0 93.00286193695817
975.0 92.49147092957168
1000.0 91.93437611434148
1030.0 89.64926707158577
1060.0 87.97254718669184
1090.0 93.85083234229464
1120.0 89.57119433732073
1150.0 90.41006288044338
1180.0 92.38917922187818
1220.0 90.59851426519694
1250.0 87.67338745977652
1280.0 89.42289740516159
1320.0 89.06646668543846
1360.0 86.35964146265745
1400.0 84.56071500967127
1450.0 86.74282951507578
1500.0 86.28700229522386
1550.0 87.20226362974958
1600.0 87.63737102330619
1650.0 86.8511521390054
1700.0 88.54834854256612
1750.0 89.6414825425586
1800.0 89.09845489078474
1850.0 89.40183115850785
1900.0 91.27715032347155
1950.0 91.30796154941048
2000.0 91.63976426079846
2060.0 91.73892574432324
2120.0 93.43963318994665
2180.0 92.51988046517316
2240.0 94.54683091251016
2300.0 93.27761166673949
2360.0 94.99618164041178
2400.0 91.89007575611387
2500.0 92.09204303319169
2580.0 91.53609265657086
2650.0 90.72733728849931
2720.0 91.18629003665787
2800.0 90.61765505669214
2900.0 88.79182317817506
3000.0 88.61626912311988
3070.0 89.63557499166156
3150.0 88.84323537040056
3250.0 88.80342016613557
3350.0 89.50169956306158
3450.0 90.98477186055254
3550.0 92.5790007792339
3650.0 94.19783516687076
3750.0 95.01202775481377
3870.0 95.19711387161433
4000.0 94.6750613577799
4120.0 96.31450674104268
4250.0 95.98352482652888
4370.0 98.54459963790515
4500.0 98.41763245342595
4620.0 98.58068840318157
4750.0 96.61633526307693
4870.0 95.42670654424998
5000.0 94.38961135004871
5150.0 95.68134918499918
5300.0 96.76405901286172
5450.0 97.49738433877722
5600.0 93.22225589962918
5800.0 92.95639612305084
6000.0 92.66061542613568
6150.0 93.30448614527583
6300.0 93.78996978476303
6500.0 92.58698707218679
6700.0 93.45136126570233
6900.0 94.73212153167337
7100.0 93.18274695324499
7300.0 92.07136093582103
7500.0 89.23854716566177
7750.0 88.86747207703209
8000.0 90.02397448628781
8250.0 85.50476555191277
8500.0 87.81265395945705
8750.0 88.21811816660922
9000.0 88.24967831822646
9250.0 88.40795842046063
9500.0 89.10794809658398
9750.0 91.07928851581349
10000.0 87.68569286958254
10300.0 86.48698990654854
10600.0 85.02177094699977
10900.0 87.51273041094619
11200.0 90.99065110435173
11500.0 86.1933689257491
11800.0 84.29901442902502
12200.0 82.38784515973924
12500.0 83.44795008117478
12800.0 82.24639260743207
13200.0 82.85627639221241
13600.0 77.12080565380231
14000.0 78.63060423299014
14500.0 79.9072673227837
15000.0 78.07673167071248
15500.0 84.14681813323762
16000.0 83.13930873496756
16500.0 82.26331323182174
17000.0 77.59305819938953
17500.0 76.31811343500229
18000.0 76.35873375367022
18500.0 77.4287606426278
19000.0 77.00573307311444
19500.0 74.77649618442541
