Freq,Floor Bounce,Ceiling Bounce,Front Wall Bounce,Side Wall Bounce,Rear Wall Bounce,Total Early Reflection
20.5078,51.85175457984059,53.52069465241149,52.51328858400203,52.653997995417626,52.981613049087855,52.73887464757553
21.9727,54.365953967839516,55.67359983531347,54.89752451708537,54.897941333463564,54.80940660826886,54.9497292893856
23.4375,56.280326447740094,57.74606561086682,56.913618492567196,56.88750317562571,56.73397147364875,56.93880073558577
24.9023,58.66197480969828,59.79256103953446,59.154768858010954,59.09807213755428,58.8887195330596,59.13607823599963
26.3672,60.717645670611006,61.685949420305036,61.15379128464059,61.05930893072653,60.754220135573775,61.088497292877534
27.832,63.13863135406308,63.804013642236214,63.43991092237151,63.352067054402696,63.096355739983636,63.37369976373168
29.2969,65.08856066101862,65.66699340759959,65.36667364415993,65.25188145099766,64.90488794662168,65.26349384295702
30.7617,67.10184444973983,67.51190243353565,67.31197548315804,67.195126166554,66.87795850313387,67.20489529026395
32.2266,68.69931535783117,68.97011483786784,68.86080049203184,68.71912439732591,68.34243726759239,68.72348620247624
33.6914,70.10359900439113,70.25847949560023,70.22011684931684,70.06959704055049,69.67283473019069,70.06983021988553
35.1563,71.18320622954106,71.23701570067927,71.25903245278334,71.10910723276525,70.71990705049132,71.10606981932598
36.6211,71.83363435264329,71.81196623707113,71.88300779516858,71.72234554562425,71.31544778065631,71.71804978846285
38.0859,72.39002532821466,72.28728986355733,72.4086959950444,72.24300401712213,71.82573105547624,72.23601639482504
39.5508,72.74583052074965,72.57557075034148,72.73781164249297,72.57080849508782,72.16041439440293,72.56320521715763
41.0156,72.97822180748483,72.76016467508501,72.95514563024808,72.77806854847722,72.35291801138519,72.77060283184704
42.4805,73.30710777114517,73.0244919449897,73.2589627923943,73.07928901158498,72.64651745109573,73.06947429487938
43.9453,73.46113707032771,73.1387723392045,73.39882257919147,73.2145982799974,72.78209832320739,73.20559469312403
45.4102,73.62007012601194,73.27026278167556,73.55113531704825,73.35759066136217,72.90741172949834,73.34846258381383
46.875,73.8705016727392,73.4691697289914,73.78340076727349,73.58199144684532,73.10884017104425,73.5709383602923
48.3398,74.0622701706813,73.62305777040943,73.95768988312615,73.75977568635469,73.29475960642979,73.74779858649737
51.2695,74.46647968974102,73.98035294813255,74.34091325748771,74.15134643652435,73.73238325723952,74.14204712368961
52.7344,74.66791958020428,74.1532911316306,74.53184542985218,74.34218164267362,73.92928220876206,74.33285373087448
54.1992,74.80662536675685,74.28101827686817,74.66435413657742,74.479432060945,74.0881261533325,74.4715458776158
55.6641,75.00958918908375,74.4616992987509,74.86457943719219,74.66639919403191,74.26859056791486,74.662357733256
58.5938,75.61016013283464,74.99142941682838,75.44622708504598,75.2144970239019,74.71830089904783,75.20767870761183
60.0586,75.8306658116841,75.19245786733563,75.65962820102733,75.42860267795041,74.94108815678963,75.42210901535505
62.9883,76.30164874801875,75.61975988393449,76.11408468730743,75.88238203171642,75.39139242569846,75.8741893540779
64.4531,76.51366081876606,75.81699240014619,76.318125404351,76.09093182121427,75.62673198621974,76.08522744881904
67.3828,77.0060795633919,76.27407172492059,76.79636983336039,76.56913664796983,76.12693659976227,76.5665889222735
68.8477,77.24368819062923,76.48642787171948,77.02561787537388,76.79329300902971,76.35292439458615,76.79292838356682
71.7773,77.72741755498356,76.94018937448097,77.50401175462319,77.25419856399651,76.79279858738018,77.25748519601301
74.707,78.283048170125,77.48741766140843,78.05794045223392,77.80187541165564,77.32279139466108,77.80500571358593
77.6367,78.75275930614909,77.92315798333252,78.51642939407532,78.25449460870358,77.78005239200272,78.2603924978898
79.1016,78.93356176354813,78.09205615611792,78.69372203900528,78.42805192607949,77.95495761336134,78.43574619753957
82.0313,79.357970966374,78.50861877278489,79.11301483385101,78.84651199353533,78.38307856429378,78.85709838275586
84.9609,79.79949997185076,78.91792215032095,79.53960749655364,79.28020720530608,78.87953071000979,79.29788782761939
87.8906,80.18225685106327,79.27932345500446,79.92989554469146,79.63633474533147,79.18500233144336,79.6590800004837
90.8203,80.59257603775097,79.66729801456658,80.34024146397176,80.0265343799637,79.53424509498551,80.0504101477366
95.2148,81.12910816623045,80.19055657994517,80.8728859873114,80.54803734498117,80.00515350103359,80.56909744474947
98.1445,81.48380490226313,80.52983657132756,81.2227150916606,80.88644089055265,80.36791371556895,80.91810683967427
101.074,81.79249503272807,80.81910031479251,81.52995115240037,81.17538914066355,80.62873229907822,81.21061035092009
105.469,82.28506385601955,81.27744656762403,82.01462190303826,81.64137599652092,81.07840393587314,81.68247737498316
108.398,82.64341743114144,81.65386224283134,82.38243686843147,82.01428664943286,81.43422383421607,82.04861450304338
112.793,83.0333747220217,81.98866262456353,82.74858120804768,82.37477606718824,81.86439593491983,82.42459809473154
117.188,83.34698305811632,82.26993482977532,83.06269346111878,82.64432906359542,82.0908780680601,82.70855579889047
120.117,83.57064287287892,82.47474014583571,83.2853353710507,82.84984415224362,82.28735224386993,82.92030739947162
124.512,83.92360910675717,82.80477229301387,83.63371050516724,83.1833436284932,82.60695092732502,83.25855339245075
128.906,84.0602395679933,82.89810462584083,83.76208129628108,83.28233607182364,82.6493195326108,83.36207965519884
133.301,84.19572153949068,83.00827476620927,83.88281525576558,83.40685875356263,82.80444572769103,83.49098423379314
139.16,84.35241763694307,83.09603002257603,84.02586241170596,83.51766210156126,82.9172218822289,83.61592447277835
143.555,84.4031065792961,83.10426440787246,84.07198133227615,83.52480144790043,82.8705021049316,83.63310982399268
147.949,84.43720946909748,83.06177415876675,84.08668681581928,83.49878047259588,82.78858797452783,83.6183563201357
153.809,84.41963994645072,82.99837968698169,84.06590833708769,83.46018591923897,82.66565397902758,83.57066841917137
159.668,84.51412004299861,83.06082705539788,84.14887747502414,83.5477358188482,82.80605029316885,83.66312147412248
165.527,84.52659591436276,83.08325122988524,84.17527864175169,83.54956417703825,82.87615808520113,83.68788758156052
171.387,84.42569004914512,82.94055054427824,84.07426993795956,83.3902067135229,82.69647474411516,83.55540683216994
177.246,84.28512559679726,82.77958255710557,83.93631603622006,83.2176334727044,82.47714645681012,83.39289220594873
183.105,84.1174301161353,82.4384225384532,83.73051957658359,82.92522630607898,82.13744087035556,83.13521017195718
188.965,84.02883414650267,82.28988980558908,83.64300439479635,82.76961564135237,81.65753477656203,82.96378682519
196.289,83.76442917658471,82.08527652662586,83.37270845003832,82.56732554835867,81.60277923251354,82.75176319139503
203.613,83.44072521546954,81.76453479616592,83.07405486713016,82.17991818727552,81.2790459025924,82.42223418583322
210.938,83.36871635389275,81.42164798070216,82.93336510139545,81.94324588443786,80.84091186043045,82.20222319071755
218.262,83.01415446442631,81.0634238357527,82.5763622761152,81.56434433316235,80.43255268560522,81.83406171189412
225.586,82.79225569912653,80.62228162259343,82.2994460674935,81.20656608658928,80.04949845947483,81.51422952752803
232.91,82.8135330774824,80.47155491844296,82.25227633842223,81.09844674706574,79.53488602774343,81.39376099399901
241.699,82.32496407990615,79.41669656165595,81.49252746538971,80.35275872968488,78.4928481809641,80.63247607071548
250.488,82.47331288959666,77.69932309221862,81.20105868912161,79.82392180529723,77.97038215239482,80.2215210960064
259.277,84.52340876629918,80.42578185611141,83.57284781299249,82.23202967753699,80.108924136197,82.50931165824605
268.066,85.19505820068625,81.90175353583533,84.52961939618038,83.21447079683759,81.31415034729422,83.48082498084077
276.855,85.00600914579469,82.59957386024826,84.70903791469026,83.41832536588291,81.38475558454495,83.62335261069492
287.109,84.24201419031574,82.30210872148538,84.11491979373244,82.7432635456795,80.72128198320829,83.00836494329168
297.363,83.8019380709584,81.89961941208742,83.663149397395,82.17923776995197,80.12519936931545,82.53043497141894
307.617,83.55506801285608,81.56328253873465,83.36255330054465,82.00474627908982,79.9555986202258,82.27680703242872
319.336,83.05977053817661,81.08966205928566,82.8874483502597,81.4694095754563,79.45664114488179,81.78247904690744
329.59,83.08093999929926,80.91067418214487,82.86023449519423,81.3818948088504,78.86310454225108,81.66873234932315
341.309,82.72800619253734,80.39831959180425,82.38660051064825,81.03884027255924,78.7165056050055,81.28205548220521
353.027,82.43749330822452,79.85501461721364,82.13091336538054,80.49557886831383,78.0222462375826,80.86964954266476
366.211,82.30293214658579,79.67859777098522,81.99345348399525,80.44734153537438,77.120472392223,80.67022012450863
379.395,82.65019887579933,80.07860671225359,82.39920401106977,80.94106026415326,77.91113498114206,81.11043073210503
392.578,82.59472439590617,79.93430771092949,82.26299942453444,80.89338982777925,78.30723766778637,81.06661613082363
405.762,82.02391052155355,79.6020388131316,81.92857001059473,80.08145999962989,78.66001372927244,80.6584635424432
420.41,82.93584666996215,80.1036158118829,82.90684202564893,80.35967951878084,78.29834712823433,81.27444360203222
435.059,82.42716254695934,80.30424976345873,82.51965885893259,80.5608889595938,77.50711706296052,81.00972845190611
451.172,82.47288955729387,80.08501765960388,82.53735887528987,80.53989449003522,77.2912220875419,80.9683669457676
465.82,82.4953281738415,80.52926817629756,82.68094811467685,80.80413378194694,76.96102557373283,81.11264416505585
483.398,82.40907940789616,80.64357055947693,82.72318755300967,80.96466222314737,77.29998822475882,81.17866133184322
499.512,82.18147062320244,80.67472976033679,82.45171324290408,80.9036456987613,77.20262916665015,81.0282095300222
517.09,82.641968337256,80.8509409307336,82.80767592630644,81.1010736964556,77.15634051610837,81.31668571490015
536.133,81.92608546182412,79.8781978245113,82.11683181930206,80.4301536703776,76.89807019971921,80.6086985402958
555.176,82.53774350870073,79.88842250894697,82.89131361381484,81.17858525908608,76.22134251331593,81.10258379870017
574.219,82.61706170033779,80.32422441076992,83.00727117143808,81.51074199828057,76.63206058193464,81.32227210972842
594.727,81.3872253613628,80.01241024403866,82.07747090531564,81.12676723697578,76.41462627342406,80.58942975513014
615.234,82.058923068086,79.8128612579047,82.63263236221944,80.96928067685594,76.00239984665846,80.82510513892709
637.207,82.64792706012564,79.48668599709724,82.79903700612486,81.40127129103081,76.56296540503698,81.1176307649636
659.18,82.93107237053418,79.97574970342225,83.32587413356899,81.25189380377176,76.36417566282536,81.38368853232546
682.617,83.14136862697593,80.29496550582742,83.56421040109191,81.65423078525059,76.89463591983537,81.67695350759259
707.52,84.00808377293656,80.67837665254002,84.47707018801242,82.37923418841739,77.58779310045317,82.45142692510518
732.422,84.53027587532091,81.58203325612794,85.3959633556532,82.67018668343117,78.06427270166886,83.10966395667057
757.324,84.97903243653722,82.58040457301672,85.91599215850599,82.68554893196583,78.24894511467512,83.5745620050605
785.156,85.73849848662802,83.30701232110584,86.50944538733381,83.14545332598385,77.5941083753866,84.15116672746036
811.523,84.579492246702,83.5084725206522,86.31657979472804,82.95773357453548,77.73137967857167,83.78931857150077
840.82,83.86029052189404,83.75902308677419,85.50493831282489,82.17374746826387,77.83942921556223,83.27092488259314
870.117,83.93763732167625,82.95285510024696,85.13329023827771,81.55963084746536,76.62926359361761,82.83431303131783
900.879,84.1538745088074,82.72499961635302,85.6672038415874,81.54923059366624,76.3329936091597,83.01949369634096
933.105,83.24896788133017,82.43982712262681,85.38030642016649,81.6516805729072,76.0009170569318,82.63844894827717
965.332,83.20365049279323,82.6590048180842,85.04350949010978,80.95060946417652,75.03077452467714,82.40196152630577
1000.49,82.25205298349343,81.39825807071313,84.593019943191,80.38935089943476,74.32346486389775,81.64545152099367
1035.64,81.05490927952033,80.84670973425023,84.02946263127198,79.70780307365442,73.47558558766778,80.91789541754673
1072.27,80.17736322044773,80.09837938026848,83.11797521868488,78.92792269458842,72.4033860626975,80.0603553553837
1108.89,79.4948604873696,80.18773311508787,82.36524720521103,78.12186955806408,71.79785681805907,79.50220449628219
1148.44,79.51453603423478,80.26945733890669,81.89593806640501,77.80695810166675,70.65149461723018,79.26890458864077
1189.45,79.5438979531441,79.61993247961836,81.7334027963651,77.50565677843737,70.59825972539967,79.01445639220606
1230.47,80.3228392188569,79.74650469865642,82.1183084763243,78.25416162164734,70.71747908836635,79.48029401252624
1274.41,81.26427658287643,78.73317411924494,82.39693444227824,78.21519584746972,70.92250123769962,79.64557228861003
1319.82,81.26909317391761,76.92520539478507,83.26113603724505,78.62803075438362,70.10522401297386,79.8068690373572
1366.7,80.32304565791496,77.97547327353965,83.55447324323436,78.33303144837137,69.3568534046121,79.76724275648971
1413.57,80.07894840099954,79.19888330820979,83.75861149306394,78.5287108369362,69.80090069173065,80.02954916022802
1463.38,79.79790854876947,79.20724214653546,84.09662085219878,78.28691415781164,69.75597659617036,80.1069559102798
1516.11,80.0529850528735,78.75704313420937,84.21328537137701,78.64606734538629,70.23543582155814,80.20315263755496
1568.85,80.14349625860253,77.51097376329216,83.91747351579144,78.64259941193191,70.29344168443863,79.91272996888078
1624.51,79.86547468990656,77.19923958942817,83.12678235164407,77.8342837223212,70.00624169975404,79.30037910030788
1681.64,78.71630324690716,75.59716155983018,83.04240786063619,77.93544233713061,69.51264398318733,78.84547591862147
1741.7,78.53980216867268,74.53498307186356,83.96326499302148,79.19445162439065,70.07723872195895,79.4662976224997
1803.22,78.80471823897341,72.78871946438923,83.73098427845866,79.47278096677853,70.58968530929818,79.35577066280024
1866.21,78.00544061634255,71.68695260717419,83.92892559374195,78.78673790168708,69.15714271387016,79.12642049426259
1932.13,77.97284828399123,69.59047372133111,84.4104937031741,78.83839007898396,69.24182643748935,79.37338527555298
1999.51,77.73910111519356,68.40180385628673,84.40525999360418,79.16268496099616,70.31872800372842,79.39839645545374
2069.82,77.24638211621864,69.38765243163566,84.08725387172659,79.27029671904558,70.7118200432046,79.18376479769933
2143.07,76.77993479023493,69.74890253268003,83.74705174041722,79.11784625673286,70.23745394529334,78.8788362471501
2219.24,75.18773670161491,71.9416563834455,83.77191427166818,79.69957230620957,70.00778429214995,78.9246007823431
2296.88,76.14699072715594,73.96118475503447,83.18171624851765,78.8777823919228,69.38973417173273,78.57388139933562
2378.91,75.38425707332874,75.53781367856448,83.49746545465496,78.943940282348,69.11703043620588,78.81562289021268
2462.4,76.79368047619758,76.61026196327117,83.57476982827839,79.23690485000824,68.40846161650691,79.16125459257796
2548.83,76.13738516461471,76.75865897944746,82.14608910189267,78.62558502571702,68.19215027919782,78.22008099005443
2639.65,75.2993437416152,77.56821594107889,82.82127136776904,79.46353365685962,68.67329172386707,78.78789243236741
2731.93,75.20465345328162,78.28795115917542,82.78854247470751,78.6562191349977,68.10150699105645,78.6977118916861
2828.61,76.04052629297725,79.23679803464253,82.73255734416706,77.71480492508005,66.78680699595706,78.75680644607351
2928.22,76.41872375120684,78.31347058137082,83.20882129143176,78.73750498037799,67.13700374877253,79.04130401177508
3030.76,76.75021537671657,78.23837993622466,83.37699570412693,78.84377049380299,67.49086901231829,79.17853460236213
3137.7,76.70440446297422,79.17519462368466,83.57334264077568,78.55118406165083,67.54322067737276,79.3904184003292
3249.02,77.38113688857764,79.3124603310509,83.80540886530136,78.19019902450016,67.96054764678041,79.56580848397397
3363.28,79.7089397702407,79.44400868310267,84.04932705152987,78.49123577390164,68.26582695455923,80.11078577104071
3481.93,79.98559774603719,78.82325795628645,84.34849084820904,79.3170996687144,68.3225251540068,80.33709270341583
3604.98,79.64635924725668,79.27839599524594,84.76474454481536,80.1453636756057,68.96073775655388,80.7018597692186
3732.42,80.28468077521546,79.6358294517133,84.57102309717918,80.07030024120385,69.03255914787707,80.75438534536227
3864.26,81.29185428642934,79.12775569539112,84.75385236428998,80.60924938210688,69.81885416102517,81.07143820067604
4000.49,81.62499057868936,78.71245806379315,83.77200674523394,79.76179793257876,68.30830336221234,80.48830723809593
4141.11,81.74698976554606,79.44079400292904,83.5678685951727,80.21690844853339,68.2888428298302,80.61980808531506
4287.6,82.11403316155331,79.04408462976481,82.87190480109871,79.99477602251388,68.16394611969989,80.35916508390815
4438.48,82.40006710469785,80.25618904764093,82.8066242988358,80.11062759679012,68.24140127268443,80.6441782933984
4595.21,82.97660126366048,79.49914684998895,82.53009462687228,79.58188161455053,66.60287615749434,80.50782926158016
4756.35,83.22088079706847,80.16798243679425,82.65029200384919,79.78563277705966,67.02193315423067,80.77869838345589
4924.8,83.22948235072019,80.0105719036176,82.49771484246043,79.69578184552758,67.37481668417186,80.69689814990701
5097.66,83.13197359924132,80.13900378736722,82.76064781949381,79.29856492710238,66.85110204173722,80.70178959431301
5277.83,83.35957223592484,80.78302566958152,83.28661578403978,79.61021022166699,67.16393458133884,81.11440819977979
5463.87,83.35942983892238,80.48696894643697,83.07309646144293,79.44138402386817,68.0038715930332,80.97441962110507
5657.23,82.98387815171593,80.65356760406698,83.32596246856092,79.6584075846765,68.27704119728811,80.99864582603998
5856.45,83.45290382078339,80.9112224080938,83.39503956368307,79.9203693829964,67.69391920760845,81.25411288843668
6062.99,82.7938821184125,80.59489836087683,83.52254309721886,80.17025217401088,68.06328036358622,81.0747849923083
6276.86,82.61009289063,80.7846842037734,83.46625958970066,80.3247887923402,67.0379468682199,81.05276726113566
6498.05,82.07503778691297,81.10380737581667,83.73152445851926,80.36691585298539,66.57046489323017,81.06989884326849
6726.56,82.05252657680033,81.02892305675101,83.52986082600708,80.29124003501984,65.28939131649736,80.9543750719102
6963.87,81.77963539077457,81.42457561179488,83.5829661846414,80.0367650464178,64.94870511431424,80.94565535255563
7209.96,81.87267991780635,81.19676070113633,83.67808779284721,79.92816860441957,65.02240391959123,80.93715181015786
7464.84,82.21830959476618,81.0235978680869,83.56988446888352,79.67397440834019,65.04748615698418,80.91108780441093
7727.05,82.85098591296976,80.918065166015,83.7741614407542,79.41265918431561,65.60065044204299,81.11113381262834
7999.51,82.92876213090273,80.61024263022559,83.95652177508977,79.44726067724446,65.13706512455036,81.14855099966327
8282.23,83.46422631780034,80.73090726215824,84.05064514293102,79.32513965943397,64.54849254945569,81.35423645502317
8573.73,83.44210536985024,80.57147570855632,84.01749305198794,79.19580985507928,63.365905155544425,81.28683884497804
8876.95,83.39731568693642,80.49393477260188,83.92740232313976,79.24995655932149,62.51211858185226,81.2295782246017
9188.96,83.23920146691088,80.57142348419302,84.0024120090279,79.31774479635534,62.19695665705699,81.22763104905619
9514.16,82.99773673941155,80.36056294863235,83.81871397058629,79.54612416759866,62.37755902735006,81.07754972357893
