Freq "Ceiling Bounce"
20.5078 53.26615374332059
21.9727 55.41905892622256
23.4375 57.491524701775944
24.9023 59.538020130443556
26.3672 61.431408511214144
27.832 63.54947273314531
29.2969 65.41245249850869
30.7617 67.25736152444475
32.2266 68.71557392877696
33.6914 70.00393858650932
35.1563 70.98247479158836
36.6211 71.55742532798023
38.0859 72.03274895446646
39.5508 72.32102984125058
41.0156 72.50562376599412
42.4805 72.76995103589883
43.9453 72.88423143011362
45.4102 73.01572187258465
46.875 73.2146288199005
48.3398 73.36851686131855
51.2695 73.72581203904166
52.7344 73.89875022253972
54.1992 74.02647736777729
55.6641 74.20715838966001
58.5938 74.73688850773748
60.0586 74.93791695824474
62.9883 75.3652189748436
64.4531 75.56245149105528
67.3828 76.01953081582968
68.8477 76.23188696262861
71.7773 76.68564846539006
74.707 77.23287675231754
77.6367 77.66861707424161
79.1016 77.83751524702701
82.0313 78.25407786369401
84.9609 78.66338124123004
87.8906 79.02478254591358
90.8203 79.4127571054757
95.2148 79.93601567085426
98.1445 80.27529566223667
101.074 80.5645594057016
105.469 81.02290565853315
108.398 81.39932133374045
112.793 81.73412171547263
117.188 82.01539392068445
120.117 82.2201992367448
124.512 82.55023138392296
128.906 82.64356371674995
133.301 82.75373385711836
139.16 82.84148911348515
143.555 82.84972349878157
147.949 82.80723324967587
153.809 82.7438387778908
159.668 82.806286146307
165.527 82.82871032079433
171.387 82.68600963518735
177.246 82.52504164801468
183.105 82.18388162936229
188.965 82.03534889649819
196.289 81.83073561753496
203.613 81.50999388707504
210.938 81.16710707161127
218.262 80.8088829266618
225.586 80.36774071350256
232.91 80.21701400935206
241.699 79.16215565256508
250.488 77.44478218312771
259.277 80.17124094702054
268.066 81.64721262674442
276.855 82.34503295115736
287.109 82.04756781239448
297.363 81.64507850299654
307.617 81.30874162964375
319.336 80.83512115019477
329.59 80.65613327305398
341.309 80.14377868271336
353.027 79.60047370812275
366.211 79.42405686189431
379.395 79.82406580316271
392.578 79.67976680183858
405.762 79.3474979040407
420.41 79.84907490279201
435.059 80.04970885436782
451.172 79.83047675051299
465.82 80.27472726720667
483.398 80.38902965038605
499.512 80.4201888512459
517.09 80.59640002164271
536.133 79.62365691542041
555.176 79.63388159985607
574.219 80.06968350167901
594.727 79.75786933494777
615.234 79.55832034881381
637.207 79.23214508800635
659.18 79.72120879433135
682.617 80.04042459673653
707.52 80.42383574344915
732.422 81.32749234703707
757.324 82.32586366392584
785.156 83.05247141201497
811.523 83.25393161156133
840.82 83.5044821776833
870.117 82.69831419115607
900.879 82.47045870726214
933.105 82.1852862135359
965.332 82.4044639089933
1000.49 81.14371716162225
1035.64 80.59216882515932
1072.27 79.84383847117759
1108.89 79.93319220599696
1148.44 80.0149164298158
1189.45 79.36539157052748
1230.47 79.49196378956552
1274.41 78.47863321015403
1319.82 76.67066448569419
1366.7 77.72093236444874
1413.57 78.94434239911891
1463.38 78.95270123744459
1516.11 78.50250222511846
1568.85 77.25643285420125
1624.51 76.94469868033728
1681.64 75.34262065073929
1741.7 74.28044216277266
1803.22 72.53417855529833
1866.21 71.43241169808329
1932.13 69.3359328122402
1999.51 68.14726294719583
2069.82 69.13311152254477
2143.07 69.49436162358913
2219.24 71.68711547435461
2296.88 73.70664384594356
2378.91 75.28327276947358
2462.4 76.35572105418026
2548.83 76.50411807035657
2639.65 77.31367503198801
2731.93 78.03341025008454
2828.61 78.98225712555164
2928.22 78.05892967227993
3030.76 77.98383902713377
3137.7 78.92065371459378
3249.02 79.05791942196001
3363.28 79.18946777401177
3481.93 78.56871704719556
3604.98 79.02385508615504
3732.42 79.3812885426224
3864.26 78.87321478630022
4000.49 78.45791715470226
4141.11 79.18625309383816
4287.6 78.78954372067392
4438.48 80.00164813855002
4595.21 79.24460594089807
4756.35 79.91344152770337
4924.8 79.7560309945267
5097.66 79.88446287827632
5277.83 80.52848476049063
5463.87 80.23242803734608
5657.23 80.3990266949761
5856.45 80.65668149900293
6062.99 80.34035745178592
6276.86 80.53014329468249
6498.05 80.84926646672577
6726.56 80.77438214766012
6963.87 81.17003470270397
7209.96 80.94221979204545
7464.84 80.769056958996
7727.05 80.66352425692412
7999.51 80.3557017211347
8282.23 80.47636635306735
8573.73 80.31693479946543
8876.95 80.23939386351097
9188.96 80.31688257510211
9514.16 80.10602203954144
9849.61 79.97587335821143
10196.8 79.68443466577315
10555.7 79.4552306811119
10927.7 79.18318751031738
11313.0 79.0033400722222
11712.9 78.76614981606897
12126.0 78.61893250442945
12553.7 78.72206039911762
12996.1 78.65840760933136
13454.6 78.37475643367601
13929.2 78.13417841074069
14419.9 77.97852660050499
14928.2 77.92217793585725
15455.6 77.79850565837056
16000.5 77.49895771993874
16564.5 77.1993857994242
17148.9 76.85450883467612
17752.4 76.42198967098118
18379.4 76.3132611592455
19026.9 76.27108606512968
19697.8 75.88714978175446
19999.5 75.68197733407362
