Freq "Floor Bounce"
20.5078 51.85175457984057
21.9727 54.365953967839474
23.4375 56.28032644774008
24.9023 58.661974809698265
26.3672 60.71764567061102
27.832 63.138631354063094
29.2969 65.08856066101863
30.7617 67.10184444973984
32.2266 68.69931535783118
33.6914 70.10359900439114
35.1563 71.18320622954104
36.6211 71.83363435264329
38.0859 72.39002532821466
39.5508 72.74583052074964
41.0156 72.97822180748483
42.4805 73.30710777114518
43.9453 73.46113707032771
45.4102 73.62007012601192
46.875 73.8705016727392
48.3398 74.06227017068129
51.2695 74.466479689741
52.7344 74.66791958020427
54.1992 74.80662536675685
55.6641 75.00958918908375
58.5938 75.61016013283464
60.0586 75.8306658116841
62.9883 76.30164874801874
64.4531 76.51366081876606
67.3828 77.0060795633919
68.8477 77.24368819062921
71.7773 77.72741755498355
74.707 78.28304817012501
77.6367 78.75275930614907
79.1016 78.93356176354814
82.0313 79.357970966374
84.9609 79.79949997185076
87.8906 80.18225685106326
90.8203 80.59257603775096
95.2148 81.12910816623044
98.1445 81.48380490226315
101.074 81.79249503272808
105.469 82.28506385601955
108.398 82.64341743114144
112.793 83.03337472202169
117.188 83.34698305811631
120.117 83.57064287287893
124.512 83.92360910675716
128.906 84.06023956799332
133.301 84.19572153949066
139.16 84.35241763694307
143.555 84.4031065792961
147.949 84.4372094690975
153.809 84.41963994645072
159.668 84.51412004299863
165.527 84.52659591436274
171.387 84.42569004914512
177.246 84.28512559679727
183.105 84.11743011613528
188.965 84.02883414650266
196.289 83.7644291765847
203.613 83.44072521546956
210.938 83.36871635389274
218.262 83.01415446442633
225.586 82.79225569912653
232.91 82.81353307748242
241.699 82.32496407990614
250.488 82.47331288959667
259.277 84.52340876629918
268.066 85.19505820068626
276.855 85.00600914579469
287.109 84.24201419031576
297.363 83.8019380709584
307.617 83.5550680128561
319.336 83.0597705381766
329.59 83.08093999929925
341.309 82.72800619253732
353.027 82.43749330822452
366.211 82.30293214658577
379.395 82.65019887579935
392.578 82.59472439590617
405.762 82.02391052155353
420.41 82.93584666996213
435.059 82.42716254695934
451.172 82.47288955729388
465.82 82.49532817384151
483.398 82.40907940789616
499.512 82.18147062320243
517.09 82.641968337256
536.133 81.92608546182412
555.176 82.53774350870074
574.219 82.61706170033777
594.727 81.3872253613628
615.234 82.058923068086
637.207 82.64792706012565
659.18 82.93107237053418
682.617 83.14136862697595
707.52 84.00808377293656
732.422 84.53027587532092
757.324 84.97903243653722
785.156 85.73849848662802
811.523 84.579492246702
840.82 83.86029052189403
870.117 83.93763732167623
900.879 84.15387450880739
933.105 83.24896788133019
965.332 83.20365049279324
1000.49 82.25205298349341
1035.64 81.05490927952033
1072.27 80.17736322044773
1108.89 79.4948604873696
1148.44 79.51453603423477
1189.45 79.54389795314408
1230.47 80.32283921885688
1274.41 81.26427658287643
1319.82 81.26909317391762
1366.7 80.32304565791496
1413.57 80.07894840099952
1463.38 79.79790854876947
1516.11 80.05298505287351
1568.85 80.14349625860253
1624.51 79.86547468990658
1681.64 78.71630324690715
1741.7 78.5398021686727
1803.22 78.80471823897341
1866.21 78.00544061634257
1932.13 77.97284828399124
1999.51 77.73910111519358
2069.82 77.24638211621865
2143.07 76.77993479023493
2219.24 75.18773670161492
2296.88 76.14699072715594
2378.91 75.38425707332873
2462.4 76.7936804761976
2548.83 76.1373851646147
2639.65 75.2993437416152
2731.93 75.20465345328162
2828.61 76.04052629297726
2928.22 76.41872375120685
3030.76 76.75021537671657
3137.7 76.70440446297422
3249.02 77.38113688857766
3363.28 79.7089397702407
3481.93 79.98559774603719
3604.98 79.64635924725668
3732.42 80.28468077521546
3864.26 81.29185428642936
4000.49 81.62499057868936
4141.11 81.74698976554608
4287.6 82.1140331615533
4438.48 82.40006710469785
4595.21 82.97660126366048
4756.35 83.22088079706846
4924.8 83.22948235072019
5097.66 83.13197359924132
5277.83 83.35957223592483
5463.87 83.3594298389224
5657.23 82.98387815171593
5856.45 83.4529038207834
6062.99 82.7938821184125
6276.86 82.61009289063
6498.05 82.07503778691299
6726.56 82.05252657680035
6963.87 81.77963539077456
7209.96 81.87267991780634
7464.84 82.2183095947662
7727.05 82.85098591296975
7999.51 82.92876213090271
8282.23 83.46422631780032
8573.73 83.44210536985024
8876.95 83.39731568693644
9188.96 83.2392014669109
9514.16 82.99773673941156
9849.61 82.23698994653357
10196.8 81.93519916179767
10555.7 81.73335039571704
10927.7 81.57197485698357
11313.0 81.24340195685235
11712.9 81.02648561430782
12126.0 81.02493340942014
12553.7 80.79592286082094
12996.1 80.68366925714159
13454.6 80.74551977840243
13929.2 80.76000630004602
14419.9 80.84541944296419
14928.2 80.56685865485095
15455.6 80.00314394450498
16000.5 79.48032255461085
16564.5 78.89469879803067
17148.9 78.6977165538002
17752.4 78.74464497375531
18379.4 78.43791734963058
19026.9 78.31601224429677
19697.8 77.93028415822612
19999.5 77.82729426254865
