Freq "Side Wall Bounce"
20.5078 52.653997995417626
21.9727 54.897941333463564
23.4375 56.88750317562571
24.9023 59.09807213755428
26.3672 61.05930893072653
27.832 63.352067054402696
29.2969 65.25188145099766
30.7617 67.195126166554
32.2266 68.71912439732591
33.6914 70.06959704055049
35.1563 71.10910723276525
36.6211 71.72234554562425
38.0859 72.24300401712213
39.5508 72.57080849508782
41.0156 72.77806854847722
42.4805 73.07928901158498
43.9453 73.2145982799974
45.4102 73.35759066136217
46.875 73.58199144684532
48.3398 73.75977568635469
51.2695 74.15134643652435
52.7344 74.34218164267362
54.1992 74.479432060945
55.6641 74.66639919403191
58.5938 75.2144970239019
60.0586 75.42860267795041
62.9883 75.88238203171642
64.4531 76.09093182121427
67.3828 76.56913664796983
68.8477 76.79329300902971
71.7773 77.25419856399651
74.707 77.80187541165564
77.6367 78.25449460870358
79.1016 78.42805192607949
82.0313 78.84651199353533
84.9609 79.28020720530608
87.8906 79.63633474533147
90.8203 80.0265343799637
95.2148 80.54803734498117
98.1445 80.88644089055265
101.074 81.17538914066355
105.469 81.64137599652092
108.398 82.01428664943286
112.793 82.37477606718824
117.188 82.64432906359542
120.117 82.84984415224362
124.512 83.1833436284932
128.906 83.28233607182364
133.301 83.40685875356263
139.16 83.51766210156126
143.555 83.52480144790043
147.949 83.49878047259588
153.809 83.46018591923897
159.668 83.5477358188482
165.527 83.54956417703825
171.387 83.3902067135229
177.246 83.2176334727044
183.105 82.92522630607898
188.965 82.76961564135237
196.289 82.56732554835867
203.613 82.17991818727552
210.938 81.94324588443786
218.262 81.56434433316235
225.586 81.20656608658928
232.91 81.09844674706574
241.699 80.35275872968488
250.488 79.82392180529723
259.277 82.23202967753699
268.066 83.21447079683759
276.855 83.41832536588291
287.109 82.7432635456795
297.363 82.17923776995197
307.617 82.00474627908982
319.336 81.4694095754563
329.59 81.3818948088504
341.309 81.03884027255924
353.027 80.49557886831383
366.211 80.44734153537438
379.395 80.94106026415326
392.578 80.89338982777925
405.762 80.08145999962989
420.41 80.35967951878084
435.059 80.5608889595938
451.172 80.53989449003522
465.82 80.80413378194694
483.398 80.96466222314737
499.512 80.9036456987613
517.09 81.1010736964556
536.133 80.4301536703776
555.176 81.17858525908608
574.219 81.51074199828057
594.727 81.12676723697578
615.234 80.96928067685594
637.207 81.40127129103081
659.18 81.25189380377176
682.617 81.65423078525059
707.52 82.37923418841739
732.422 82.67018668343117
757.324 82.68554893196583
785.156 83.14545332598385
811.523 82.95773357453548
840.82 82.17374746826387
870.117 81.55963084746536
900.879 81.54923059366624
933.105 81.6516805729072
965.332 80.95060946417652
1000.49 80.38935089943476
1035.64 79.70780307365442
1072.27 78.92792269458842
1108.89 78.12186955806408
1148.44 77.80695810166675
1189.45 77.50565677843737
1230.47 78.25416162164734
1274.41 78.21519584746972
1319.82 78.62803075438362
1366.7 78.33303144837137
1413.57 78.5287108369362
1463.38 78.28691415781164
1516.11 78.64606734538629
1568.85 78.64259941193191
1624.51 77.8342837223212
1681.64 77.93544233713061
1741.7 79.19445162439065
1803.22 79.47278096677853
1866.21 78.78673790168708
1932.13 78.83839007898396
1999.51 79.16268496099616
2069.82 79.27029671904558
2143.07 79.11784625673286
2219.24 79.69957230620957
2296.88 78.8777823919228
2378.91 78.943940282348
2462.4 79.23690485000824
2548.83 78.62558502571702
2639.65 79.46353365685962
2731.93 78.6562191349977
2828.61 77.71480492508005
2928.22 78.73750498037799
3030.76 78.84377049380299
3137.7 78.55118406165083
3249.02 78.19019902450016
3363.28 78.49123577390164
3481.93 79.3170996687144
3604.98 80.1453636756057
3732.42 80.07030024120385
3864.26 80.60924938210688
4000.49 79.76179793257876
4141.11 80.21690844853339
4287.6 79.99477602251388
4438.48 80.11062759679012
4595.21 79.58188161455053
4756.35 79.78563277705966
4924.8 79.69578184552758
5097.66 79.29856492710238
5277.83 79.61021022166699
5463.87 79.44138402386817
5657.23 79.6584075846765
5856.45 79.9203693829964
6062.99 80.17025217401088
6276.86 80.3247887923402
6498.05 80.36691585298539
6726.56 80.29124003501984
6963.87 80.0367650464178
7209.96 79.92816860441957
7464.84 79.67397440834019
7727.05 79.41265918431561
7999.51 79.44726067724446
8282.23 79.32513965943397
8573.73 79.19580985507928
8876.95 79.24995655932149
9188.96 79.31774479635534
9514.16 79.54612416759866
9849.61 79.76311808024339
10196.8 79.77106473317966
10555.7 79.63642894479528
10927.7 79.30318056605988
11313.0 78.64051920768763
11712.9 78.39991097742944
12126.0 78.21645966566909
12553.7 78.19869741751813
12996.1 78.11682240010768
13454.6 77.89241975899911
13929.2 78.0069148056846
14419.9 77.85899984048186
14928.2 77.42678886159005
15455.6 77.36552224616307
16000.5 77.44015704666825
16564.5 77.22680026410131
17148.9 76.43870682024526
17752.4 75.96245983361257
18379.4 76.0974600109814
19026.9 75.99012575038945
19697.8 75.62822566498416
19999.5 75.53998382773678
