Freq "Listening Window"
22.4 58.761646906775134
23.0 58.95048619338011
23.6 59.139296724721795
24.0 59.29450599224332
25.0 59.450486193380094
25.8 59.605554295813356
26.5 59.72807835224314
27.2 59.839296724721784
28.0 59.96164690677512
29.0 60.061646906775145
30.0 60.16164690677514
30.7 60.228078352243124
31.5 60.31683092623282
32.5 60.39450599224332
33.5 60.43929672472178
34.5 60.49450599224331
35.5 60.5504861933801
36.5 60.605554295813356
37.5 60.62807835224313
38.7 60.68290679424812
40.0 60.705554295813364
41.2 60.73929672472179
42.5 60.78290679424811
43.7 60.79450599224332
45.0 60.80555429581337
46.2 60.81683092623282
47.5 60.8392967247218
48.7 60.8504861933801
50.0 60.88290679424811
51.5 60.8945059922433
53.0 60.8945059922433
54.5 60.90555429581335
56.0 60.9168309262328
58.0 60.928078352243126
60.0 60.928078352243126
61.5 60.93929672472179
63.0 60.93929672472179
65.0 60.950486193380094
67.0 60.950486193380094
69.0 60.96164690677512
71.0 60.96164690677512
73.0 60.96164690677512
75.0 60.9829067942481
77.5 60.9829067942481
80.0 60.9829067942481
82.5 60.994505992243326
85.0 60.994505992243326
87.5 60.994505992243326
90.0 61.0058113091931
92.5 61.0058113091931
95.0 61.0058113091931
97.5 60.994505992243326
100.0 60.994505992243326
103.0 60.97180065179773
106.0 60.93831079143744
109.0 60.904554683462074
112.0 60.88242479208527
115.0 60.86068914491103
118.0 60.827095422038674
122.0 60.78268892539109
125.0 60.760689144911034
128.0 60.74926560067666
132.0 60.72810692646281
136.0 60.717115919778685
140.0 60.705577031861246
145.0 60.694271104242524
150.0 60.68293566722216
155.0 60.671570566352976
160.0 60.65052054567381
165.0 60.62758956036618
170.0 60.57257176622968
175.0 60.56194079375326
180.0 60.55052054567381
185.0 60.52883953958507
190.0 60.48469760608811
195.0 60.51886404887302
200.0 60.51886404887302
206.0 60.562921377737176
212.0 60.596028451231156
218.0 60.640316867329894
224.0 60.69576485794314
230.0 60.74031686732989
236.0 60.795764857943134
240.0 60.82935675680455
250.0 60.84031686732988
258.0 60.87456797470711
265.0 60.87456797470711
272.0 60.87456797470711
280.0 60.82935675680455
290.0 60.81886404887303
300.0 60.808819870019455
307.0 60.808819870019455
315.0 60.81886404887303
325.0 60.863180926460906
335.0 60.90881987001945
345.0 60.94083271955797
355.0 60.995009446948764
365.0 61.06194079375327
375.0 61.116859574550126
387.0 61.150017559688145
400.0 61.19453478820615
412.0 61.20533184253848
425.0 61.20533184253848
437.0 61.17183563215679
450.0 61.16095487566016
462.0 61.14979238142016
475.0 61.10637210447222
487.0 61.083710824255554
500.0 61.083710824255554
515.0 61.09553070860819
530.0 61.07333108978715
545.0 61.09752239227077
560.0 61.143852872144116
580.0 61.15529064398036
600.0 61.19173045035155
615.0 61.21575865569907
630.0 61.2515473325058
650.0 61.262964884401875
670.0 61.262964884401875
690.0 61.26492744752783
710.0 61.26546455746793
730.0 61.27872974563477
750.0 61.30301574640573
775.0 61.33565546122927
800.0 61.34821879407854
825.0 61.39621110558256
850.0 61.419081977967885
875.0 61.48993124413452
900.0 61.54399539232373
925.0 61.57958404367039
950.0 61.612835124414154
975.0 61.616443388132545
1000.0 61.607278808699554
1030.0 61.58629053052778
1060.0 61.54374677942672
1090.0 61.47946704800871
1120.0 61.405191973715255
1150.0 61.273571074589775
1180.0 61.1522168908563
1220.0 60.96473247463283
1250.0 60.824753165881724
1280.0 60.61432316951727
1320.0 60.41730509333738
1360.0 60.21586607711841
1400.0 60.00701916563826
1450.0 59.85710003496815
1500.0 59.690812417461125
1550.0 59.62935606844582
1600.0 59.53079062248572
1650.0 59.59218429816078
1700.0 59.64420475091594
1750.0 59.71455694124749
1800.0 59.85732697031474
1850.0 59.98407292133587
1900.0 60.11163183713203
1950.0 60.25281388318904
2000.0 60.371375401571136
2060.0 60.44908979909818
2120.0 60.50250087407134
2180.0 60.5247554607979
2240.0 60.49614789482829
2300.0 60.460789539452186
2360.0 60.401995123793974
2400.0 60.28678753915657
2500.0 60.15097845819526
2580.0 60.01899788564983
2650.0 59.8367888533328
2720.0 59.66633745838579
2800.0 59.52590441521878
2900.0 59.3797915470199
3000.0 59.25463288155775
3070.0 59.17507774090456
3150.0 59.119573251327914
3250.0 59.11166842998998
3350.0 59.1390188966272
3450.0 59.202784337005674
3550.0 59.30589207013907
3650.0 59.394877856120935
3750.0 59.4952026114556
3870.0 59.63349435266469
4000.0 59.76712467284839
4120.0 59.92693655290004
4250.0 60.06329716463046
4370.0 60.20182539185824
4500.0 60.29973277571346
4620.0 60.428882459048914
4750.0 60.52420287656545
4870.0 60.62597594628773
5000.0 60.671378870523334
5150.0 60.75011542726295
5300.0 60.776852907092724
5450.0 60.805501611975906
5600.0 60.805501611975906
5800.0 60.782035755140946
6000.0 60.782035755140946
6150.0 60.766567915279644
6300.0 60.74429694614299
6500.0 60.75338382237022
6700.0 60.74821673799469
6900.0 60.76689586964549
7100.0 60.7689607529861
7300.0 60.77956293907415
7500.0 60.803274698580545
7750.0 60.81695669717681
8000.0 60.81214034494989
8250.0 60.814618884227066
8500.0 60.80733943792283
8750.0 60.80257912666389
9000.0 60.75955202608241
9250.0 60.75205888639733
9500.0 60.72103739976804
9750.0 60.70337851900526
10000.0 60.65761190177552
10300.0 60.61440430280884
10600.0 60.589133174688236
10900.0 60.55832299292275
11200.0 60.51440430280885
11500.0 60.457611901775515
11800.0 60.40019513757793
12200.0 60.323345818590646
12500.0 60.28913317468824
12800.0 60.20019513757794
13200.0 60.12334581859064
13600.0 60.0333564971905
14000.0 59.93335649719051
14500.0 59.833356497190515
15000.0 59.71440430280885
15500.0 59.57668781272526
16000.0 59.44536151176039
16500.0 59.28913317468825
17000.0 59.11440430280884
17500.0 58.957611901775515
18000.0 58.75761190177551
18500.0 58.55761190177552
19000.0 58.323345818590646
19500.0 58.10337851900527
