Freq "Side Wall Bounce"
22.4 30.528373389940967
23.0 31.12009661305852
23.6 31.941913729071942
24.0 33.81966014174368
25.0 36.09927409402833
25.8 39.0218583846699
26.5 42.417862492599696
27.2 42.491587189925795
28.0 42.43566525085275
29.0 43.007959670815964
30.0 44.24706112736773
30.7 46.86408058563124
31.5 49.4379037387006
32.5 51.795787515558246
33.5 53.21848390121441
34.5 54.39897794560811
35.5 55.47037258880694
36.5 56.33981751392956
37.5 56.99044188420247
38.7 57.43367766672597
40.0 57.91322125687424
41.2 58.68193577527215
42.5 59.70889276123708
43.7 60.94659619674749
45.0 62.2058818811354
46.2 64.30339290965871
47.5 66.89029709278357
48.7 67.734169611899
50.0 68.16400622795139
51.5 68.26907072278756
53.0 68.90023321896909
54.5 69.75523916007256
56.0 70.43567354129338
58.0 71.05004794331293
60.0 71.74729126401563
61.5 72.43760555277554
63.0 73.01840832391775
65.0 73.46722831658947
67.0 73.86722831658948
69.0 74.2857802352682
71.0 74.69774350573489
73.0 75.11668377286283
75.0 75.5476375237907
77.5 75.74302444611574
80.0 75.90046051294918
82.5 75.88018335884988
85.0 75.8806459777859
87.5 75.80185248161241
90.0 75.4201850554159
92.5 75.14260029820791
95.0 74.88249620606594
97.5 74.74530504353963
100.0 74.80412263968752
103.0 74.70412263968753
106.0 74.78338957194298
109.0 74.74486977614957
112.0 74.76489011537075
115.0 74.80685289384958
118.0 74.81140111290817
122.0 74.77348189285662
125.0 74.84849756031409
128.0 74.80920611180409
132.0 74.58706756873532
136.0 74.3252366727071
140.0 73.9676451375008
145.0 73.6544429425558
150.0 73.4568801862013
155.0 73.33820413572708
160.0 73.42247325414756
165.0 73.57974710888207
170.0 73.66088319410892
175.0 73.75821281202575
180.0 73.73820413572707
185.0 73.64564756679633
190.0 73.1704047639605
195.0 72.66587151961978
200.0 71.9285446679608
206.0 71.22181886425663
212.0 70.68790541229974
218.0 70.50859161467405
224.0 70.75333858054476
230.0 71.27854525354414
236.0 72.06709652191365
240.0 72.98684818641992
250.0 73.25062691308233
258.0 73.54641992803148
265.0 73.62290201231029
272.0 73.48748430179782
280.0 73.1023143244842
290.0 72.90805424837286
300.0 73.01213391200983
307.0 73.0220138557881
315.0 72.8363148970151
325.0 73.09441306229309
335.0 73.84255550372751
345.0 73.4334035549047
355.0 72.98463808338924
365.0 73.1469105164529
375.0 73.12831022912995
387.0 73.44414367440864
400.0 73.51666364196662
412.0 73.69538412326003
425.0 74.04846834388563
437.0 74.09821769546396
450.0 74.35763929358153
462.0 74.83178000878898
475.0 74.54561850576127
487.0 74.26511069598524
500.0 73.24222240319075
515.0 72.48111162072722
530.0 71.94662430167763
545.0 71.85807991467419
560.0 72.03755459888049
580.0 72.27786290999953
600.0 72.71609980067622
615.0 72.90218402213247
630.0 72.61470355804714
650.0 72.11926393277537
670.0 71.70554245224778
690.0 71.15535937584356
710.0 70.68953108135297
730.0 70.50452181673214
750.0 70.48773361088004
775.0 70.61572002913515
800.0 70.42884013936899
825.0 70.40647838068998
850.0 70.12080847095241
875.0 69.23056219554852
900.0 69.05856307462423
925.0 68.60620988640615
950.0 67.95312895283558
975.0 68.14553404250366
1000.0 68.30995929515878
1030.0 68.88402346928368
1060.0 68.7910637835484
1090.0 67.80309057016159
1120.0 67.39396402264343
1150.0 66.83934418774531
1180.0 66.4487301915738
1220.0 66.77202733639652
1250.0 67.15425468953703
1280.0 65.54348098850994
1320.0 65.12474646721076
1360.0 64.9943366214245
1400.0 65.15825097016939
1450.0 65.90736128400768
1500.0 65.48912619321449
1550.0 66.650478793836
1600.0 65.23595084674744
1650.0 63.233665197852446
1700.0 62.189146017710755
1750.0 62.7033975768053
1800.0 64.47850821522768
1850.0 64.52546828627429
1900.0 65.61561298975916
1950.0 66.43901508205283
2000.0 67.55282895808713
2060.0 68.07363921707284
2120.0 69.03666066936309
2180.0 69.11377645785214
2240.0 68.31400493266206
2300.0 67.79405061823185
2360.0 67.27244106319644
2400.0 67.46011718857906
2500.0 68.57134026246675
2580.0 69.02853123862107
2650.0 68.92969817049115
2720.0 68.0161894665411
2800.0 67.5862438403107
2900.0 67.15998729976154
3000.0 66.11451376773209
3070.0 64.98179962653359
3150.0 64.40998102444681
3250.0 64.1231972753645
3350.0 64.43688350307734
3450.0 64.51710303571552
3550.0 65.08433996036835
3650.0 65.11812675692376
3750.0 64.51290984530388
3870.0 63.49753188920451
4000.0 63.23687855288698
4120.0 63.131223783286075
4250.0 63.60834649385653
4370.0 63.51624395524418
4500.0 63.868827641055546
4620.0 63.980353475791674
4750.0 64.38301094453173
4870.0 64.42317185493195
5000.0 65.43522005102852
5150.0 65.85730725849373
5300.0 65.0146913067654
5450.0 64.28438620786218
5600.0 63.720574508041295
5800.0 64.43649654961044
6000.0 64.65127677667722
6150.0 64.29534728044702
6300.0 63.81724844338228
6500.0 63.70435888305279
6700.0 63.341894319022785
6900.0 63.616596228931215
7100.0 63.82839018931081
7300.0 63.34219736130187
7500.0 63.24939449923208
7750.0 62.31534537890359
8000.0 61.757038500811476
8250.0 61.31436127701727
8500.0 60.65007591160945
8750.0 60.444045913615554
9000.0 60.258909001190005
9250.0 61.50297041508203
9500.0 61.245474327769415
9750.0 63.78701285841649
10000.0 64.65282879147365
10300.0 64.50931195040381
10600.0 62.36863113653804
10900.0 61.66678597620822
11200.0 61.19194304642751
11500.0 60.79686327843386
11800.0 59.94894535543209
12200.0 59.649525379499565
12500.0 57.99451241710965
12800.0 56.464048054410725
13200.0 56.33456055023932
13600.0 54.031877310853474
14000.0 58.997950369226686
14500.0 59.705885732750104
15000.0 58.08760385456016
15500.0 63.51487109578693
16000.0 66.23683114629962
16500.0 64.84067527516642
17000.0 65.88769791881708
17500.0 58.128611912600704
18000.0 56.7036470103009
18500.0 57.313946726762964
19000.0 48.75714690193921
19500.0 52.68043987635967
