Freq "Floor Bounce"
22.4 28.63533866324535
23.0 30.112816012934715
23.6 31.227513157528776
24.0 31.43531358687953
25.0 31.465183672240627
25.8 31.271707458692745
26.5 30.571791331962046
27.2 31.68021043702585
28.0 33.5796012143346
29.0 35.76966078457043
30.0 38.47641629732151
30.7 40.30982855556756
31.5 41.81753803239933
32.5 43.03897757455802
33.5 42.04588560685649
34.5 40.76234633244239
35.5 39.411124946592835
36.5 38.32204102687582
37.5 37.874233834991074
38.7 37.956915257407545
40.0 39.211859050361326
41.2 40.94171952330977
42.5 43.56775093645088
43.7 45.91018697874405
45.0 47.84749797870258
46.2 49.4479735503357
47.5 50.6017460112477
48.7 50.64511556931758
50.0 51.26096514237183
51.5 51.799654392771785
53.0 50.67883038042292
54.5 47.402550840734804
56.0 47.91554761008253
58.0 53.37033939633069
60.0 56.019129304583615
61.5 56.429925522383144
63.0 56.500767494455616
65.0 56.834524153934765
67.0 57.768450838054335
69.0 59.30076749445561
71.0 60.77314211136084
73.0 60.970717324954094
75.0 61.86845083805433
77.5 63.10000000000001
80.0 64.30076749445563
82.5 65.3
85.0 66.3
87.5 67.50076749445562
90.0 68.83513059177984
92.5 70.00076749445562
95.0 70.83358982687999
97.5 71.6669218511605
100.0 72.53358982687998
103.0 73.43358982687998
106.0 74.36692185116051
109.0 74.96692185116049
112.0 75.60076749445561
115.0 75.9669218511605
118.0 76.3669218511605
122.0 76.6669218511605
125.0 76.9
128.0 76.9669218511605
132.0 77.13358982687997
136.0 77.13358982687997
140.0 77.13358982687997
145.0 77.23358982687998
150.0 77.30076749445561
155.0 77.3669218511605
160.0 77.40076749445562
165.0 77.40076749445562
170.0 77.26769521305295
175.0 77.13435140868502
180.0 77.13513059177983
185.0 77.03513059177983
190.0 77.10306957104252
195.0 77.03663575667186
200.0 76.94044167945492
206.0 77.0122717831562
212.0 77.1760917544922
218.0 77.27609175449221
224.0 77.20690501035459
230.0 77.07609175449221
236.0 76.91227178315619
240.0 76.88219967332304
250.0 76.94576719438469
258.0 77.30690501035458
265.0 77.57150800786938
272.0 77.73663575667186
280.0 77.73513059177982
290.0 77.80076749445563
300.0 77.76845083805433
307.0 77.56845083805433
315.0 77.36845083805433
325.0 77.27150800786939
335.0 77.40306957104252
345.0 77.37150800786937
355.0 77.24283030471975
365.0 77.21227178315618
375.0 77.11916705502753
387.0 77.08219967332305
400.0 76.91916705502753
412.0 76.82349685065981
425.0 76.69897445130924
437.0 76.6096325668162
450.0 76.63257218046557
462.0 76.6948570588317
475.0 76.91592692226708
487.0 77.34576719438469
500.0 77.6053180676647
515.0 77.37150800786937
530.0 76.80306957104251
545.0 76.07150800786938
560.0 75.3489851487955
580.0 74.06588846059687
600.0 71.63546263134681
615.0 69.66136837622763
630.0 73.6708338338135
650.0 77.80962251076207
670.0 79.73392832814568
690.0 80.29257011413608
710.0 79.9429397936019
730.0 79.36878033996791
750.0 79.0094224842602
775.0 78.55062128010364
800.0 78.0429397936019
825.0 77.80261155895364
850.0 77.2429397936019
875.0 76.6252645392885
900.0 76.2145789575331
925.0 75.33610707977348
950.0 74.90473949550548
975.0 74.6834346102955
1000.0 74.2625132206552
1030.0 74.40921140720404
1060.0 73.86893616304387
1090.0 73.19727311966744
1120.0 73.09037884047719
1150.0 73.61923785438672
1180.0 75.37301209244411
1220.0 75.51664590330462
1250.0 74.97625435142638
1280.0 74.7392575253357
1320.0 74.97450358348686
1360.0 74.59070778066616
1400.0 74.17168531355223
1450.0 73.93509895460996
1500.0 71.12038092209299
1550.0 66.80038315445829
1600.0 66.90261155895365
1650.0 67.97552676199359
1700.0 71.46839968904114
1750.0 73.50920925226939
1800.0 74.6891593929224
1850.0 75.00722706905572
1900.0 75.59533257014981
1950.0 76.80432912249857
2000.0 77.42643297742508
2060.0 77.48888863538652
2120.0 78.12585044351924
2180.0 78.36194729184086
2240.0 77.73897757455802
2300.0 77.15858760124324
2360.0 77.43212822852756
2400.0 77.48523216659156
2500.0 76.91442050468812
2580.0 74.95444581805985
2650.0 74.39215864748755
2720.0 72.69904601920817
2800.0 72.25410086606007
2900.0 72.42081413224277
3000.0 71.45648687916908
3070.0 71.39825001362087
3150.0 71.1754843483801
3250.0 71.83726217437669
3350.0 72.28760046288922
3450.0 73.0179278976485
3550.0 74.16283617001535
3650.0 74.66876939891169
3750.0 75.07877114785884
3870.0 73.92747332942243
4000.0 73.09825847564169
4120.0 73.05452704753107
4250.0 71.86887463636015
4370.0 70.49547568728546
4500.0 70.13131741555753
4620.0 70.88692145185186
4750.0 71.14645349087023
4870.0 72.3116927353324
5000.0 71.97882682230878
5150.0 71.93012065974808
5300.0 72.58715219471243
5450.0 72.82179599023938
5600.0 71.88155742752328
5800.0 70.80488360217561
6000.0 70.552262630775
6150.0 70.45356791445052
6300.0 70.97233236865053
6500.0 70.18362512126278
6700.0 70.45294610827885
6900.0 71.57769284155934
7100.0 70.7939394339505
7300.0 69.18633240679166
7500.0 70.2471635747372
7750.0 70.52774631127798
8000.0 71.2685904593392
8250.0 73.01741276893574
8500.0 74.95581300941367
8750.0 75.65744034337983
9000.0 75.26342139135166
9250.0 73.99257377748326
9500.0 74.5765534603207
9750.0 75.07256170539051
10000.0 75.61772155339538
10300.0 74.60755530844838
10600.0 70.90269920325944
10900.0 70.84558383151337
11200.0 70.0710687614826
11500.0 66.81832676913884
11800.0 67.62269060187876
12200.0 68.73652759863698
12500.0 68.78222532658201
12800.0 70.7670749612743
13200.0 67.27089600007291
13600.0 66.60072921332075
14000.0 66.63322485091791
14500.0 61.86454245772005
15000.0 63.42102614963504
15500.0 66.25316928043698
16000.0 68.50853968442111
16500.0 67.18098748185237
17000.0 64.56311948242671
17500.0 59.121748206629974
18000.0 55.6693733457101
18500.0 56.56746466663843
19000.0 55.080763050600154
19500.0 53.368106857791176
