Freq "Ceiling Bounce"
22.4 24.766921851160504
23.0 25.0
23.6 25.69999999999999
24.0 26.80000000000001
25.0 28.099999999999994
25.8 29.599999999999994
26.5 31.099999999999994
27.2 32.5
28.0 33.80000000000001
29.0 35.0
30.0 36.099999999999994
30.7 37.16692185116051
31.5 38.099999999999994
32.5 38.900000000000006
33.5 39.66692185116051
34.5 40.36692185116053
35.5 40.96692185116049
36.5 41.80000000000001
37.5 42.19999999999999
38.7 42.66692185116051
40.0 43.16692185116051
41.2 43.5
42.5 43.86692185116051
43.7 44.099999999999994
45.0 44.3669218511605
46.2 44.5669218511605
47.5 44.76692185116049
48.7 45.0
50.0 45.266921851160504
51.5 45.633589826879984
53.0 45.96692185116051
54.5 46.43358982687998
56.0 46.8669218511605
58.0 47.50076749445563
60.0 47.96692185116049
61.5 48.5669218511605
63.0 49.16692185116051
65.0 49.80076749445561
67.0 50.3669218511605
69.0 50.93358982687998
71.0 51.53358982687996
73.0 52.10076749445561
75.0 52.5669218511605
77.5 53.16692185116051
80.0 53.600767494455624
82.5 54.20076749445562
85.0 54.80076749445561
87.5 55.30076749445561
90.0 56.000767494455616
92.5 56.5007674944556
95.0 57.10076749445561
97.5 57.70076749445562
100.0 58.30076749445563
103.0 58.90076749445561
106.0 59.500767494455616
109.0 60.30076749445561
112.0 60.96845083805432
115.0 61.70076749445562
118.0 62.435130591779824
122.0 63.10076749445561
125.0 63.70076749445562
128.0 64.20076749445562
132.0 64.70076749445562
136.0 65.10076749445562
140.0 65.50076749445562
145.0 65.83358982687997
150.0 66.03358982687998
155.0 66.1669218511605
160.0 66.23358982687998
165.0 66.13358982687997
170.0 65.83358982687997
175.0 65.53358982687996
180.0 65.23358982687998
185.0 65.20076749445562
190.0 65.40076749445561
195.0 65.90076749445562
200.0 66.46845083805431
206.0 66.96845083805432
212.0 67.16845083805433
218.0 67.10076749445561
224.0 66.76845083805432
230.0 66.36845083805434
236.0 65.93513059177982
240.0 65.50076749445562
250.0 65.20076749445562
258.0 64.90076749445562
265.0 64.50076749445562
272.0 64.20076749445562
280.0 63.80076749445561
290.0 63.30076749445563
300.0 62.63513059177981
307.0 62.003069571042516
315.0 61.8030695710425
325.0 61.8069050103546
335.0 61.742830304719746
345.0 61.819167055027535
355.0 62.027587192835924
365.0 62.00963256681621
375.0 61.921797386888954
387.0 61.83546263134683
400.0 61.72526453928849
412.0 61.567265588596115
425.0 61.26136837622764
437.0 60.86136837622763
450.0 60.737767342855406
462.0 60.66136837622763
475.0 60.31832544184974
487.0 59.74258273663014
500.0 59.35062128010364
515.0 59.195064580358306
530.0 59.15521969308381
545.0 59.1096325668162
560.0 59.09897445130926
580.0 59.17082970284298
600.0 58.943148261094336
615.0 58.895064580358294
630.0 59.10034112939826
650.0 59.03610707977349
670.0 59.06493035341096
690.0 59.195332570149844
710.0 58.88397949702585
730.0 58.65640835343413
750.0 58.642356939332046
775.0 58.5051695767262
800.0 58.432326679491155
825.0 57.82837438612694
850.0 57.541166093158395
875.0 56.70978247641736
900.0 55.971713099192925
925.0 54.874008154483946
950.0 53.674773252041035
975.0 52.24634382359075
1000.0 50.76757370216225
1030.0 49.40107517071523
1060.0 48.20869986544025
1090.0 47.1648012258366
1120.0 46.52990957385143
1150.0 46.12273719685484
1180.0 46.10919780954386
1220.0 46.19333798464396
1250.0 46.347208122534425
1280.0 46.49781600712909
1320.0 46.525972883828956
1360.0 46.57569704166767
1400.0 46.82475978154034
1450.0 47.15179837866498
1500.0 47.66021101193607
1550.0 48.08788684692405
1600.0 48.75445848526064
1650.0 49.95380974359446
1700.0 50.882196718458005
1750.0 51.978257457041025
1800.0 52.89389642518191
1850.0 54.455570108650264
1900.0 55.868954459588764
1950.0 56.64653166230674
2000.0 57.085314678189334
2060.0 57.2934233808092
2120.0 57.863453502281516
2180.0 58.38783902957336
2240.0 58.55688508093071
2300.0 59.11837626972829
2360.0 59.679536437795576
2400.0 59.8503860982826
2500.0 60.2444965941971
2580.0 60.64197022557484
2650.0 60.725850443519235
2720.0 60.759620342001114
2800.0 60.994309256104046
2900.0 60.67245431186858
3000.0 59.97383513626848
3070.0 59.83322893798042
3150.0 59.52057279337221
3250.0 59.007853195253404
3350.0 58.90704003632972
3450.0 58.610660977433284
3550.0 58.37020661250203
3650.0 58.08313924277924
3750.0 57.758200213381244
3870.0 57.72263352392356
4000.0 57.4576179369833
4120.0 57.38193000134089
4250.0 57.118061627276376
4370.0 56.965738255990075
4500.0 56.81398956374129
4620.0 56.57432484332773
4750.0 56.386070260640196
4870.0 56.247869657297386
5000.0 56.135502609090366
5150.0 55.711777449497546
5300.0 55.36739147265057
5450.0 55.17871447131493
5600.0 54.595617159334424
5800.0 54.08795498774302
6000.0 53.717210499219874
6150.0 53.36908806114944
6300.0 53.084184296077126
6500.0 52.87332403595603
6700.0 52.68683778763631
6900.0 52.2504031344514
7100.0 52.01749764446495
7300.0 52.080989747637844
7500.0 52.050339812834196
7750.0 52.40654363985347
8000.0 52.528211572027175
8250.0 52.89723682439924
8500.0 53.089828566734724
8750.0 53.47150800786939
9000.0 53.9122717831562
9250.0 53.93647412390416
9500.0 54.44142122357897
9750.0 55.14464246181274
10000.0 55.87819637937426
10300.0 56.61719468318569
10600.0 57.31719468318569
10900.0 57.42324058002983
11200.0 57.432128228527546
11500.0 57.151769211042264
11800.0 56.921797386888954
12200.0 56.79188145404552
12500.0 56.612271783156174
12800.0 56.392385622161044
13200.0 56.19506458035829
13600.0 56.02102614963505
14000.0 55.94827552839257
14500.0 55.90162083231603
15000.0 55.79764339402713
15500.0 55.67940843630548
16000.0 55.48456243414705
16500.0 55.022943627159975
17000.0 53.77979693268614
17500.0 52.639139689589484
18000.0 51.643215263483825
18500.0 48.81861981293832
19000.0 44.73509895460995
19500.0 42.79417633457007
