Freq "Front Wall Bounce"
22.4 24.62880715674528
23.0 24.885854489102357
23.6 25.585854489102374
24.0 26.67166275391891
25.0 28.000000000000014
25.8 29.47166275391892
26.5 30.94313939533781
27.2 32.3716627539189
28.0 33.67166275391891
29.0 34.88585448910236
30.0 36.000000000000014
30.7 37.01442746339747
31.5 37.98585448910238
32.5 38.8
33.5 39.585854489102374
34.5 40.25742449135815
35.5 40.857424491358145
36.5 41.68585448910237
37.5 42.18585448910238
38.7 42.60000000000001
40.0 43.10000000000001
41.2 43.39999999999999
42.5 43.8
43.7 43.999999999999986
45.0 44.2716627539189
46.2 44.471662753918906
47.5 44.67166275391891
48.7 44.94313939533781
50.0 45.17166275391891
51.5 45.54313939533782
53.0 45.8716627539189
54.5 46.343139395337815
56.0 46.7716627539189
58.0 47.41442746339746
60.0 47.8716627539189
61.5 48.471662753918906
63.0 49.0861845050195
65.0 49.74313939533779
67.0 50.343139395337815
69.0 50.8716627539189
71.0 51.485854489102366
73.0 52.071662753918915
75.0 52.585854489102374
77.5 53.2
80.0 53.7
82.5 54.357424491358145
85.0 55.000000000000014
87.5 55.60000000000001
90.0 56.328807156745285
92.5 56.928807156745265
95.0 57.585854489102374
97.5 58.2
100.0 58.857424491358145
103.0 59.60000000000001
106.0 60.2
109.0 61.0
112.0 61.7
115.0 62.500000000000014
118.0 63.2
122.0 63.8
125.0 64.4
128.0 64.9
132.0 65.3
136.0 65.65742449135816
140.0 65.98585448910238
145.0 66.2
150.0 66.40000000000002
155.0 66.49999999999999
160.0 66.48585448910238
165.0 66.3
170.0 66.0
175.0 65.7
180.0 65.39999999999999
185.0 65.38585448910237
190.0 65.6
195.0 66.07166275391891
200.0 66.68585448910238
206.0 67.2
212.0 67.45742449135815
218.0 67.38585448910239
224.0 67.08585448910237
230.0 66.64313939533781
236.0 66.21442746339746
240.0 65.7716627539189
250.0 65.40032894280355
258.0 65.07166275391889
265.0 64.72913392494287
272.0 64.37166275391891
280.0 63.98618450501948
290.0 63.54346508697898
300.0 62.92913392494289
307.0 62.34346508697898
315.0 62.229133924942886
325.0 62.443465086978975
335.0 62.571662753918915
345.0 62.8861845050195
355.0 63.343465086978966
365.0 63.64346508697898
375.0 63.80065786069426
387.0 64.02913392494287
400.0 64.24346508697899
412.0 64.40065786069427
425.0 64.34346508697898
437.0 64.21508314243884
450.0 64.31508314243884
462.0 64.41508314243883
475.0 64.2013081360778
487.0 63.701308136077785
500.0 63.38683695097147
515.0 63.287166892243604
530.0 63.21606664920141
545.0 63.173302913643525
560.0 63.21606664920141
580.0 63.25971162455998
600.0 63.14510093472826
615.0 63.2307751786751
630.0 63.53173283446661
650.0 63.65971162455999
670.0 63.8746119297344
690.0 64.25971162456
710.0 64.11801062006425
730.0 64.10359507493895
750.0 64.34770564348939
775.0 64.43271257836936
800.0 64.73271257836937
825.0 64.5477056434894
850.0 64.76264712636356
875.0 64.66264712636357
900.0 64.83338849099712
925.0 64.83338849099712
950.0 64.84770564348939
975.0 64.76264712636356
1000.0 64.7477056434894
1030.0 64.6477056434894
1060.0 64.5477056434894
1090.0 64.34770564348939
1120.0 64.24770564348938
1150.0 64.10359507493895
1180.0 64.14770564348939
1220.0 64.13271257836936
1250.0 64.10359507493895
1280.0 64.10359507493895
1320.0 64.03271257836937
1360.0 64.05971162456
1400.0 64.31801062006426
1450.0 64.67461192973443
1500.0 65.11801062006425
1550.0 65.44607766783811
1600.0 65.77461192973442
1650.0 66.38946128786867
1700.0 66.53271257836937
1750.0 66.61834583164507
1800.0 66.41834583164507
1850.0 66.81834583164506
1900.0 67.07592055139091
1950.0 66.84770564348939
2000.0 66.43338849099712
2060.0 65.86264712636356
2120.0 65.77753738070312
2180.0 65.77753738070312
2240.0 65.49272180649571
2300.0 65.72192748204644
2360.0 65.92192748204643
2400.0 65.87949971036132
2500.0 66.03924275721991
2580.0 66.2677916354448
2650.0 66.23924275721991
2720.0 66.2677916354448
2800.0 66.55509270389172
2900.0 66.3576642435428
3000.0 65.8136394060688
3070.0 65.88847217927515
3150.0 65.77327286201215
3250.0 65.48847217927515
3350.0 65.60397066192776
3450.0 65.57932296839601
3550.0 65.53729388132857
3650.0 65.46896449293784
3750.0 65.36896449293783
3870.0 65.44496105209592
4000.0 65.37272810211282
4120.0 65.41928263776025
4250.0 65.34009881540752
4370.0 65.32437029532612
4500.0 65.38494234073427
4620.0 65.33136682517852
4750.0 65.34819098525855
4870.0 65.47392776096335
5000.0 65.6495136562825
5150.0 65.57392776096334
5300.0 65.64356135338143
5450.0 65.86960745991179
5600.0 65.78063298838138
5800.0 65.71889100581468
6000.0 65.8168547303183
6150.0 65.91213490929849
6300.0 66.03662347839054
6500.0 66.250604855501
6700.0 66.3040831837052
6900.0 66.14717882678171
7100.0 66.06246958106236
7300.0 66.14975505527012
7500.0 66.06575563704814
7750.0 66.22925016323347
8000.0 66.04975440316913
8250.0 66.02817273205854
8500.0 65.71254481422378
8750.0 65.56573363004047
9000.0 65.42280684974749
9250.0 64.82654482167764
9500.0 64.75834929720979
9750.0 64.92468939213951
10000.0 65.2402299234009
10300.0 65.56844417831202
10600.0 66.01926649538376
10900.0 66.039625409004
11200.0 65.98847549525385
11500.0 65.85071910142457
11800.0 65.74304153706797
12200.0 65.7923398877301
12500.0 65.75622748012158
12800.0 65.71118455029942
13200.0 65.66193926650831
13600.0 65.56193926650832
14000.0 65.58307454614419
14500.0 65.43253047557418
15000.0 65.25338359957716
15500.0 64.97757610412806
16000.0 64.56368834572815
16500.0 63.84048803572182
17000.0 62.40454219537527
17500.0 60.94844791823117
18000.0 59.715739534226586
18500.0 56.668022578438396
19000.0 52.32041662284122
19500.0 50.26070208169355
