Freq "Listening Window"
20.5078 53.89456420007747
21.9727 53.2730021006426
23.4375 56.44215292370774
24.9023 58.25681498619903
26.3672 59.74846884012132
27.832 61.37656143611942
29.2969 62.978311320866254
30.7617 65.24417961177441
32.2266 66.87060154975507
33.6914 68.22086691271402
35.1562 69.71903893680555
36.6211 71.03136224983483
38.0859 72.38614450444085
39.5508 73.45024697634814
41.0156 74.50492034186469
42.4805 75.70681928203382
43.9453 76.6977213171301
45.4102 77.57816494834024
46.875 78.32697355664472
48.3398 79.14122615121452
51.2695 80.4912362086905
52.7344 81.06625417510266
54.1992 81.60340201465844
55.6641 82.20513546371393
58.5938 82.99049367405824
60.0586 83.34504947473019
62.9883 83.935313409544
64.4531 84.18938837904395
67.3828 84.60857703560782
68.8477 84.78642718302348
71.7773 85.11105533716426
74.707 85.39716637495187
77.6367 85.60370454288503
79.1016 85.67260836988623
82.0312 85.8204425883519
84.9609 85.91617671024174
87.8906 85.96168015201081
90.8203 86.09016475398636
95.2148 86.19317063698992
98.1445 86.18718397442557
101.074 86.16835265587973
105.469 86.13432633840566
108.398 86.10378039956437
112.793 86.0246018699167
117.188 85.91623000175426
120.117 85.96113711238489
124.512 85.97399734741892
128.906 85.83396136745742
133.301 85.65393398534366
139.16 85.54954151334871
143.555 85.63121081876034
147.949 85.80046281537474
153.809 85.73173294757518
159.668 85.48067904322339
165.527 85.4675312313205
171.387 85.41856068665996
177.246 85.23102812352273
183.105 85.127700981856
188.965 85.09548263633624
196.289 84.97928433297162
203.613 84.86175803542544
210.938 84.76899928437936
218.262 84.44497278337093
225.586 84.15074604083189
232.91 84.03566010602198
241.699 84.08321536611886
250.488 85.10822509592418
259.277 85.24644881781595
268.066 84.70213013735147
276.855 84.53224562904506
287.109 84.6941883391761
297.363 84.30375749475114
307.617 84.26942467584684
319.336 84.19118415630987
329.59 84.06690220920612
341.309 83.88820690265607
353.027 83.68868768742622
366.211 84.11690053223292
379.395 84.48807119303328
392.578 84.82166813316431
405.762 84.92315108559947
420.41 84.29819606113684
435.059 83.75843794425535
451.172 83.04373855201928
465.82 83.9060932485365
483.398 84.35765435609684
499.512 83.15201763531297
517.09 82.90733187056738
536.133 83.93643812490981
555.176 83.33674695075308
574.219 82.5028644871766
594.727 81.65680297230217
615.234 84.14340352883366
637.207 85.065495867348
659.18 84.81812678104718
682.617 84.15640931989998
707.52 83.68846332620433
732.422 83.8605896596961
757.324 85.17288091973222
785.156 85.32171411506377
811.523 84.69648213498135
840.82 85.22557734006222
870.117 84.53036453777034
900.879 83.5721326216372
933.105 83.73032962528387
965.332 83.33842516969385
1000.49 83.68664834566896
1035.64 83.28100742059198
1072.27 83.2598341677946
1108.89 82.85894634665084
1148.44 84.52979111893806
1189.45 84.11900112897258
1230.47 84.95265318975066
1274.41 83.60486029635013
1319.82 83.60130344084925
1366.7 83.64198266442283
1413.57 83.30374980165823
1463.38 84.44567616368812
1516.11 84.21649121163566
1568.85 84.65172745369861
1624.51 83.93815717150974
1681.64 83.83115146192429
1741.7 83.80626171340913
1803.22 83.37988906170135
1866.21 84.4674063370849
1932.13 83.78626277256639
1999.51 83.96824914917198
2069.82 83.79386928086781
2143.07 83.79748386450797
2219.24 83.60160900867899
2296.88 84.1839981033922
2378.91 83.69834658399512
2462.4 82.86415868002106
2548.83 84.00319737936258
2639.65 83.78115280880056
2731.93 82.60765389199884
2828.61 83.59189106214822
2928.22 83.39586331563645
3030.76 83.57919281554227
3137.7 83.12630331763964
3249.02 83.32844752867041
3363.28 82.97608480276608
3481.93 82.50161691941652
3604.98 82.70968652792692
3732.42 82.45543543203773
3864.26 82.43104780029209
4000.49 82.32334815114999
4141.11 82.67455284591867
4287.6 82.45475162528328
4438.48 83.05586722151136
4595.21 83.00333381236968
4756.35 83.46339629015272
4924.8 83.23228962368512
5097.66 83.35486497682302
5277.83 83.66483235530404
5463.87 83.54149320849902
5657.23 83.89916769207133
5856.45 84.12066880120445
6062.99 84.11512545704348
6276.86 84.25541868683302
6498.05 83.98711754437578
6726.56 83.90760019503539
6963.87 83.7015090313167
7209.96 83.67223105905506
7464.84 83.93630092230545
7727.05 83.91836372339564
7999.51 83.59812488434426
8282.23 83.47854578067432
8573.73 83.59709309619386
8876.95 83.66959711507123
9188.96 83.67014010224383
9514.16 83.79458113816432
9849.61 83.95850397156092
10196.8 84.24798320271678
10555.7 84.83670513382935
10927.7 85.159061480042
11313.0 85.26452723725095
11712.9 85.13040869339358
12126.0 84.75684887891343
12553.7 84.56386530022675
12996.1 84.69724822513392
13454.6 85.08282518603107
13929.2 85.36704422784204
14419.9 85.22553909947577
14928.2 85.33097497443129
15455.6 85.13869502660741
16000.5 84.79924497905515
16564.5 84.12818636265791
17148.9 83.65982229333784
17752.4 83.06616840135705
18379.4 82.24205130246452
19026.9 81.47793436840297
19697.8 80.34574660636366
19999.5 80.14257109976292
