Freq "Front Wall Bounce"
22.4 58.82564539849975
23.0 59.0115009607157
23.6 59.197310305670364
24.0 59.35445799175519
25.0 59.5115009607157
25.8 59.65445799175519
26.5 59.78307313034153
27.2 59.897310305670366
28.0 60.02564539849977
29.0 60.12564539849976
30.0 60.22564539849976
30.7 60.28307313034151
31.5 60.36878912871699
32.5 60.454457991755184
33.5 60.497310305670375
34.5 60.55445799175518
35.5 60.61150096071571
36.5 60.65445799175519
37.5 60.68307313034152
38.7 60.73974391909368
40.0 60.754457991755196
41.2 60.79731030567036
42.5 60.83974391909367
43.7 60.85445799175519
45.0 60.85445799175519
46.2 60.86878912871699
47.5 60.897310305670366
48.7 60.911500960715706
50.0 60.93974391909365
51.5 60.95445799175517
53.0 60.95445799175517
54.5 60.95445799175517
56.0 60.96878912871697
58.0 60.9830731303415
60.0 60.9830731303415
61.5 60.99731030567036
63.0 60.99731030567036
65.0 61.0115009607157
67.0 61.0115009607157
69.0 61.02564539849977
71.0 61.02564539849977
73.0 61.02564539849977
75.0 61.039743919093674
77.5 61.039743919093674
80.0 61.039743919093674
82.5 61.05445799175519
85.0 61.05445799175519
87.5 61.05445799175519
90.0 61.06878912871699
92.5 61.06878912871699
95.0 61.06878912871699
97.5 61.05445799175519
100.0 61.05445799175519
103.0 61.02564539849977
106.0 60.9830731303415
109.0 60.940071770988304
112.0 60.91183095155716
115.0 60.88405440897353
118.0 60.8410477173444
122.0 60.798619369339725
125.0 60.77041739042446
128.0 60.755757380818956
132.0 60.72857517853263
136.0 60.714440295004
140.0 60.69958978104879
145.0 60.68502808025621
150.0 60.68502808025621
155.0 60.67041739042447
160.0 60.64332707576046
165.0 60.613773001964994
170.0 60.57170494680694
175.0 60.55802903406558
180.0 60.54332707576045
185.0 60.515385171862
190.0 60.47302209918559
195.0 60.48796358205977
200.0 60.48796358205977
206.0 60.5449283139771
212.0 60.5730220991856
218.0 60.6157225470164
224.0 60.65802903406557
230.0 60.71572254701639
236.0 60.75802903406555
240.0 60.80154570191059
250.0 60.8157225470164
258.0 60.830518091691125
265.0 60.830518091691125
272.0 60.830518091691125
280.0 60.80154570191059
290.0 60.78796358205977
300.0 60.774952985541525
307.0 60.774952985541525
315.0 60.78796358205977
325.0 60.830518091691125
335.0 60.87495298554152
345.0 60.9015457019106
355.0 60.97170494680696
365.0 61.02891153063516
375.0 61.0850280802562
387.0 61.12792519516952
400.0 61.17041739042447
412.0 61.184371546171356
425.0 61.184371546171356
437.0 61.1550964065245
450.0 61.141047717344414
462.0 61.126624591774
475.0 61.08437154617136
487.0 61.07041739042446
500.0 61.07041739042446
515.0 61.07170494680695
530.0 61.05802903406556
545.0 61.07495298554151
560.0 61.120294112689045
580.0 61.120294112689045
600.0 61.16746594229438
615.0 61.16898665119161
630.0 61.21544172454691
650.0 61.21544172454691
670.0 61.21544172454691
690.0 61.202808024572754
710.0 61.202808024572754
730.0 61.218706929392404
750.0 61.234187901499205
775.0 61.276774753142895
800.0 61.290708529934626
825.0 61.33661352084487
850.0 61.36640148034551
875.0 61.42842605231284
900.0 61.482069691131265
925.0 61.52842605231283
950.0 61.5582700293721
975.0 61.56296729145013
1000.0 61.55103447460659
1030.0 61.523677766251346
1060.0 61.48174545271079
1090.0 61.39772150990408
1120.0 61.314009084410806
1150.0 61.172443536733134
1180.0 61.03023580293006
1220.0 60.84677796413414
1250.0 60.67930144286216
1280.0 60.468460801559196
1320.0 60.25708017883688
1360.0 60.05708017883689
1400.0 59.84643219281721
1450.0 59.68009464629069
1500.0 59.52479652526292
1550.0 59.47506102194186
1600.0 59.37506102194187
1650.0 59.45405828969411
1700.0 59.50514336675872
1750.0 59.594612714078785
1800.0 59.76475143195105
1850.0 59.899846180333874
1900.0 60.04906527630143
1950.0 60.21533881518412
2000.0 60.36848198489347
2060.0 60.46821310831091
2120.0 60.536465778287415
2180.0 60.56483591562421
2240.0 60.55557993738817
2300.0 60.55246293694652
2360.0 60.52193256022651
2400.0 60.43024702225322
2500.0 60.325567034444994
2580.0 60.22119486150091
2650.0 60.06151192283932
2720.0 59.92000296957101
2800.0 59.8079990200611
2900.0 59.68289469557812
3000.0 59.57731575137927
3070.0 59.51576129131272
3150.0 59.47455840391056
3250.0 59.49236781786801
3350.0 59.53705336973949
3450.0 59.62855264517476
3550.0 59.752199404645246
3650.0 59.86359280778226
3750.0 59.97192116558069
3870.0 60.11228167456664
4000.0 60.23936671831317
4120.0 60.380369619506816
4250.0 60.49278001352631
4370.0 60.58864810200502
4500.0 60.63236167428051
4620.0 60.72854068626555
4750.0 60.75973584621011
4870.0 60.81544172454692
5000.0 60.81544172454692
5150.0 60.870335322983145
5300.0 60.884289741997215
5450.0 60.89989366489383
5600.0 60.89989366489383
5800.0 60.87507151096633
6000.0 60.87507151096633
6150.0 60.85973584621011
6300.0 60.83525433457134
6500.0 60.83525433457134
6700.0 60.81941600257978
6900.0 60.80525122871533
7100.0 60.78102566416141
7300.0 60.7664014803455
7500.0 60.7664014803455
7750.0 60.75238937258535
8000.0 60.71256275302813
8250.0 60.71256275302813
8500.0 60.685070655571174
8750.0 60.67433251768691
9000.0 60.631066658278336
9250.0 60.621140562944554
9500.0 60.59359429932062
9750.0 60.5835262116475
10000.0 60.5419532665664
10300.0 60.498092940572384
10600.0 60.48352621164751
10900.0 60.45599903148517
11200.0 60.39809294057236
11500.0 60.341953266566414
11800.0 60.29809294057238
12200.0 60.2098973306496
12500.0 60.1835262116475
12800.0 60.098092940572364
13200.0 60.009897330649586
13600.0 59.90989733064959
14000.0 59.8098973306496
14500.0 59.7098973306496
15000.0 59.59809294057238
15500.0 59.46712369655322
16000.0 59.32577035102768
16500.0 59.1835262116475
17000.0 58.99809294057237
17500.0 58.8419532665664
18000.0 58.64195326656641
18500.0 58.44195326656641
19000.0 58.2098973306496
19500.0 57.98352621164751
