Freq "Side Wall Bounce"
22.4 57.875558969815536
23.0 58.0637944708789
23.6 58.241967078200766
24.0 58.39276021391995
25.0 58.5637944708789
25.8 58.69276021391995
26.5 58.83090344940971
27.2 58.95352199062034
28.0 59.07555896981555
29.0 59.181309366315624
30.0 59.27555896981554
30.7 59.35352199062036
31.5 59.408166491315235
32.5 59.481309366315635
33.5 59.55352199062035
34.5 59.59276021391995
35.5 59.66379447087889
36.5 59.69276021391995
37.5 59.753521990620335
38.7 59.78130936631562
40.0 59.79823026884075
41.2 59.84196707820076
42.5 59.87555896981555
43.7 59.88130936631563
45.0 59.89276021391995
46.2 59.941967078200754
47.5 59.95352199062034
48.7 59.9637944708789
50.0 59.98130936631562
51.5 59.992760213919944
53.0 59.992760213919944
54.5 60.00270894488404
56.0 60.03090344940971
58.0 60.03090344940971
60.0 60.03090344940971
61.5 60.05226689355802
63.0 60.04196707820078
65.0 60.05352199062035
67.0 60.01928811997703
69.0 60.03671323858209
71.0 60.03671323858209
73.0 60.03671323858209
75.0 60.04828211930188
77.5 60.08130936631563
80.0 60.07555896981555
82.5 60.07555896981555
85.0 60.11978224172409
87.5 60.12482842755336
90.0 60.182280892333814
92.5 60.20367569607712
95.0 60.182280892333814
97.5 60.11978224172409
100.0 60.08130936631563
103.0 59.98189506717308
106.0 59.88703119174074
109.0 59.785414773501294
112.0 59.6582451549505
115.0 59.52350581219262
118.0 59.393061384286405
122.0 59.302144472407285
125.0 59.2276529803647
128.0 59.182089084476765
132.0 59.12711239555524
136.0 59.07805052688517
140.0 59.08123948140129
145.0 59.04661706745559
150.0 59.04962447741142
155.0 59.04078502333591
160.0 59.01773114612232
165.0 58.980060451741586
170.0 58.95255355154436
175.0 58.947535109944546
180.0 58.921992815127744
185.0 58.923225530530125
190.0 58.90239338704989
195.0 58.9184715351548
200.0 58.95025098135819
206.0 59.01301181659223
212.0 59.04536986099976
218.0 59.13679093089659
224.0 59.16690126517148
230.0 59.236790930896596
236.0 59.28048701146057
240.0 59.31538860773595
250.0 59.27655342550123
258.0 59.23975062454553
265.0 59.16265188657898
272.0 59.06843547587244
280.0 58.98997906307597
290.0 58.891635491907586
300.0 58.81566567717824
307.0 58.78449355538533
315.0 58.7648804550199
325.0 58.82297702082182
335.0 58.885605921626144
345.0 59.00305946455044
355.0 59.11673847084163
365.0 59.28699689838111
375.0 59.40830685178131
387.0 59.54009080370998
400.0 59.66376118344312
412.0 59.75753156791959
425.0 59.84044898645232
437.0 59.87254643413866
450.0 59.911612104037125
462.0 59.911272698094
475.0 59.87381718336446
487.0 59.78358980822194
500.0 59.70542891946061
515.0 59.53273496209504
530.0 59.353526624233574
545.0 59.17421281257946
560.0 58.96709121385138
580.0 58.762460576091435
600.0 58.58478634391472
615.0 58.396425944990035
630.0 58.270105589341746
650.0 58.137041066327306
670.0 58.02146053480761
690.0 57.954497005946386
710.0 57.86590236387212
730.0 57.82822133427985
750.0 57.75334858595327
775.0 57.70529820249474
800.0 57.6607133573306
825.0 57.61940519223112
850.0 57.547626768717386
875.0 57.49512891690963
900.0 57.41687867813726
925.0 57.32056055317117
950.0 57.232682296472454
975.0 57.101706425344965
1000.0 56.97182302393215
1030.0 56.83210086157951
1060.0 56.64521979073553
1090.0 56.4373883836929
1120.0 56.24212745235955
1150.0 56.0372870578914
1180.0 55.81313648573602
1220.0 55.58619268161258
1250.0 55.31907443279105
1280.0 55.04404456938973
1320.0 54.75240659245197
1360.0 54.44582712832264
1400.0 54.199020378189125
1450.0 53.93634452826141
1500.0 53.71273389577528
1550.0 53.52854062698504
1600.0 53.39461720774096
1650.0 53.304576209005965
1700.0 53.27171520528176
1750.0 53.27117419375566
1800.0 53.26489447877612
1850.0 53.281952761605446
1900.0 53.26567032898297
1950.0 53.26793327893248
2000.0 53.18515554278846
2060.0 53.09463349989199
2120.0 52.956570417306146
2180.0 52.79059962773999
2240.0 52.61519475982612
2300.0 52.45282107864343
2360.0 52.29758489240894
2400.0 52.212375446226936
2500.0 52.092520256099085
2580.0 52.06067527238638
2650.0 52.11925711101366
2720.0 52.121994197361325
2800.0 52.235961568992174
2900.0 52.338410262157545
3000.0 52.47434273230552
3070.0 52.63798046764894
3150.0 52.80575919986854
3250.0 52.93386314367978
3350.0 53.116594744637844
3450.0 53.280198162581605
3550.0 53.47045951540915
3650.0 53.640631469426914
3750.0 53.78495490120431
3870.0 53.99144029643006
4000.0 54.183875044454375
4120.0 54.34708945641996
4250.0 54.542793626606006
4370.0 54.734247941779905
4500.0 54.87572715116479
4620.0 55.03882396593058
4750.0 55.17634063410363
4870.0 55.30516795908151
5000.0 55.39681548039332
5150.0 55.48097660674805
5300.0 55.50518961233721
5450.0 55.54800645714729
5600.0 55.54595130798989
5800.0 55.53620664480356
6000.0 55.510509307782065
6150.0 55.4559243574464
6300.0 55.42676235848251
6500.0 55.3614379289941
6700.0 55.335696301745806
6900.0 55.30489361861272
7100.0 55.26421984148089
7300.0 55.21023562624669
7500.0 55.157708889398485
7750.0 55.10188391269842
8000.0 55.02898749705508
8250.0 55.01925917752063
8500.0 54.933268109835886
8750.0 54.865490360848746
9000.0 54.82682585352969
9250.0 54.77352090964069
9500.0 54.695557746484916
9750.0 54.676611451373496
10000.0 54.60850313241905
10300.0 54.54307122392897
10600.0 54.523846600250245
10900.0 54.48463139842816
11200.0 54.431516206051846
11500.0 54.40850313241905
11800.0 54.332976084250724
12200.0 54.30513910817725
12500.0 54.22530905842576
12800.0 54.13297608425072
13200.0 54.10513910817726
13600.0 54.005139108177254
14000.0 53.90850313241905
14500.0 53.805139108177265
15000.0 53.660182390076464
15500.0 53.52530905842574
16000.0 53.40513910817727
16500.0 53.22530905842576
17000.0 53.06711946046095
17500.0 52.90850313241905
18000.0 52.70850313241906
18500.0 52.50850313241906
19000.0 52.305139108177265
19500.0 52.03297608425073
