Freq "On Axis"
20.5078 53.31309999999999
21.9727 54.33500000000001
23.4375 54.251000000000005
24.9023 54.990700000000004
26.3672 56.491600000000005
27.832 57.7166
29.2969 59.06
30.7617 60.70349999999999
32.2266 61.668800000000005
33.6914 63.21639999999999
35.1563 64.736
36.6211 66.1888
38.0859 67.4191
39.5508 68.8542
41.0156 70.3278
42.4805 71.468
43.9453 72.7133
45.4102 74.3375
46.875 75.36019999999999
48.3398 76.0757
51.2695 77.6729
52.7344 78.2979
54.1992 78.86619999999999
55.6641 79.3675
58.5938 80.18019999999999
60.0586 80.52610000000001
62.9883 81.18870000000001
64.4531 81.4194
67.3828 81.808
68.8477 81.94580000000002
71.7773 82.51679999999999
74.707 82.9208
77.6367 83.1408
79.1016 83.24280000000002
82.0313 83.6631
84.9609 83.9626
87.8906 84.005
90.8203 83.8287
95.2148 84.7764
98.1445 84.75
101.074 84.8534
105.469 85.059
108.398 85.26079999999999
112.793 85.65190000000001
117.188 85.8684
120.117 86.2387
124.512 86.3835
128.906 86.4034
133.301 86.4591
139.16 86.5128
143.555 86.642
147.949 86.7384
153.809 87.0159
159.668 87.2425
165.527 87.3913
171.387 87.3237
177.246 87.2834
183.105 87.1912
188.965 87.3224
196.289 87.5446
203.613 87.4717
210.938 87.396
218.262 87.416
225.586 87.3261
232.91 87.352
241.699 87.3414
250.488 87.2881
259.277 87.4246
268.066 86.9779
276.855 87.19290000000001
287.109 87.37560000000002
297.363 87.1114
307.617 86.8702
319.336 86.743
329.59 86.6652
341.309 86.3236
353.027 85.89519999999999
366.211 85.9185
379.395 87.828
392.578 87.1939
405.762 86.798
420.41 87.0498
435.059 86.6782
451.172 86.7396
465.82 86.7598
483.398 86.1174
499.512 86.0387
517.09 85.7457
536.133 85.2673
555.176 85.4593
574.219 84.9657
594.727 84.5679
615.234 84.037
637.207 83.3862
659.18 85.2417
682.617 87.429
707.52 88.0083
732.422 87.6017
757.324 86.9597
785.156 87.1471
811.523 86.8192
840.82 87.2319
870.117 86.9302
900.879 87.5937
933.105 87.529
965.332 87.81
1000.49 88.1274
1035.64 87.93120000000002
1072.27 87.4632
1108.89 86.60929999999999
1148.44 86.2989
1189.45 87.0529
1230.47 87.5254
1274.41 88.637
1319.82 89.0391
1366.7 88.629
1413.57 88.0565
1463.38 87.6157
1516.11 87.1041
1568.85 86.6823
1624.51 86.3815
1681.64 85.6126
1741.7 85.6784
1803.22 85.5178
1866.21 85.53820000000002
1932.13 85.4917
1999.51 85.2668
2069.82 86.27169999999998
2143.07 85.9907
2219.24 84.7761
2296.88 85.314
2378.91 86.3484
2462.4 85.90530000000001
2548.83 84.95009999999999
2639.65 84.8628
2731.93 84.54669999999999
2828.61 83.931
2928.22 84.455
3030.76 84.8957
3137.7 85.7099
3249.02 85.9127
3363.28 85.9725
3481.93 85.86249999999998
3604.98 86.0937
3732.42 85.6496
3864.26 85.5837
4000.49 85.8429
4141.11 86.2383
4287.6 86.3694
4438.48 87.2331
4595.21 87.4682
4756.35 88.5735
4924.8 88.6485
5097.66 88.67750000000001
5277.83 88.413
5463.87 87.8034
5657.23 87.8425
5856.45 87.82330000000002
6062.99 87.7304
6276.86 87.4722
6498.05 87.91240000000002
6726.56 87.7609
6963.87 87.0524
7209.96 86.2897
7464.84 86.2236
7727.05 85.9331
7999.51 86.553
8282.23 86.9325
8573.73 87.5886
8876.95 87.576
9188.96 87.5939
9514.16 87.5821
9849.61 87.6452
10196.8 87.898
10555.7 88.15119999999999
10927.7 88.16220000000001
11313.0 88.0062
11712.9 87.7842
12126.0 87.8881
12553.7 88.0359
12996.1 87.9065
13454.6 87.6671
13929.2 87.5982
14419.9 87.6098
14928.2 87.5205
15455.6 87.41900000000001
16000.5 87.2353
16564.5 86.9736
17148.9 86.46869999999998
17752.4 85.6738
18379.4 85.2423
19026.9 84.6458
19697.8 84.5766
19999.5 84.4284
