Freq,On Axis,Listening Window,Sound Power,Early Reflections,Early Reflections DI,Sound Power DI,DI offset
22.4,33.7759493670886,33.38811651204375,31.34887113726208,32.424144488173965,40.963972023869786,42.03924537478167,40
23.0,35.2759493670886,34.9653425955004,32.87905380570635,33.96466462695315,41.00067796854725,42.086288789794054,40
23.6,40.2759493670886,39.987308999881094,37.86355239136782,38.96408062181743,41.02322837806366,42.123756608513276,40
24.0,43.87594936708862,43.61786657967022,41.47221351681378,42.58335536774129,41.03451121192893,42.14565306285644,40
25.0,46.57594936708861,46.38430010997476,44.20250172484748,45.320061562451116,41.064238547523644,42.18179838512728,40
25.8,48.37594936708862,48.26199707778423,46.03166964663373,47.17122122568253,41.0907758521017,42.2303274311505,40
26.5,49.57594936708861,49.45070622528655,47.2106387058036,48.35803161185038,41.092674613436174,42.24006751948295,40
27.2,50.175949367088606,50.118154724332214,47.838644173438496,49.007846525264114,41.1103081990681,42.27951055089372,40
28.0,50.175949367088606,50.132066464142696,47.81236284585239,48.98476352620983,41.147302937932864,42.319703618290305,40
29.0,50.57594936708861,50.51867566050373,48.18137804226819,49.369509957382064,41.14916570312167,42.33729761823554,40
30.0,51.47594936708862,51.4333645476616,49.08711485102407,50.26917871044694,41.16418583721466,42.34624969663753,40
30.7,52.97594936708862,52.98710837149761,50.65155647146159,51.82649107728204,41.16061729421557,42.33555190003602,40
31.5,55.175949367088606,55.202125739643776,52.877640289837274,54.04907323466179,41.153052504981986,42.3244854498065,40
32.5,57.675949367088606,57.723412749331345,55.416496227471896,56.57402778451504,41.149384964816306,42.30691652185945,40
33.5,60.175949367088606,60.17602051503255,57.90945825363539,59.03762177498922,41.13839874004333,42.266562261397155,40
34.5,62.37594936708862,62.376020515032536,60.161105028722886,61.25780231651967,41.118218198512864,42.21491548630965,40
35.5,64.2759493670886,64.2855766456156,62.118749192830364,63.19171281707082,41.093863828544784,42.16682745278524,40
36.5,66.07594936708861,66.06147543512651,63.94963335516937,64.98069108286074,41.080784352265766,42.11184207995714,40
37.5,67.57594936708861,67.55844860552511,65.50764155743212,66.50780320232414,41.050645403200974,42.05080704809299,40
38.7,69.07594936708861,68.99070060353985,66.99562384016193,67.97521427281475,41.015486330725096,41.995076763377924,40
40.0,70.47594936708862,70.37797256525856,68.43308911229023,69.39273567951923,40.985236885739326,41.94488345296833,40
41.2,71.7759493670886,71.6996381303608,69.79488867211948,70.72201119169807,40.97762693866272,41.90474945824131,40
42.5,73.1759493670886,73.07722262693414,71.15226853354497,72.08477362744387,40.99244899949028,41.924954093389175,40
43.7,74.87594936708861,74.78794038034464,72.88222964519038,73.81727880194558,40.97066157839906,41.90571073515426,40
45.0,76.07594936708861,75.9659771773117,74.02510829103035,74.96700324576395,40.99897393154775,41.94086888628135,40
46.2,76.97594936708862,76.7999102308093,74.8865585085155,75.83229278249128,40.96761744831802,41.9133517222938,40
47.5,78.27594936708861,78.11107404727053,76.13501883300879,77.1029084878807,41.00816555938984,41.97605521426175,40
48.7,79.47594936708862,79.31107404727055,77.27815204125204,78.2804548681188,41.030619179151756,42.03292200601851,40
50.0,80.57594936708861,80.41107404727055,78.36109136733862,79.3718639877608,41.03921005950974,42.04998267993193,40
51.5,81.67594936708863,81.54516742946416,79.44141151036621,80.49349089951748,41.051676529946675,42.10375591909795,40
53.0,82.77594936708863,82.68972632415895,80.50396914356098,81.58179676678171,41.10792955737725,42.185757180597975,40
54.5,83.77594936708861,83.68972632415897,81.443761941844,82.56351672463161,41.12620959952736,42.245964382314966,40
56.0,84.77594936708861,84.63409703785432,82.34562834046139,83.50113833703917,41.13295870081515,42.28846869739293,40
58.0,85.57594936708861,85.50144297329265,83.14435760898746,84.32126036939272,41.18018260389994,42.35708536430519,40
60.0,86.67594936708863,86.54645656132091,84.1362665780747,85.34856468641485,41.19789187490606,42.41018998324621,40
61.5,87.47594936708862,87.38999337953116,84.9829913888029,86.19875346139493,41.19123991813623,42.40700199072826,40
63.0,88.1759493670886,88.04645656132092,85.64715642686724,86.85669368485111,41.189762876469814,42.39930013445368,40
65.0,88.77594936708861,88.71183576675034,86.34610949036272,87.53617753789457,41.17565822885577,42.36572627638762,40
67.0,89.47594936708862,89.35671252193707,87.08928598214581,88.23562418782969,41.121088334107384,42.26742653979126,40
69.0,90.17594936708862,89.9907118185777,87.77046416693112,88.87488501361804,41.11582680495965,42.220247651646574,40
71.0,90.6759493670886,90.52296297635822,88.3922452106364,89.44538159346807,41.077581382890145,42.13071776572181,40
73.0,91.27594936708861,91.07923386111415,88.968675636172,90.01496474932355,41.064269111790594,42.11055822494215,40
75.0,91.7759493670886,91.61157005117431,89.51787193004824,90.54950150361279,41.06206854756152,42.09369812112607,40
77.5,92.27594936708861,92.11157005117431,90.03404193543616,91.06108976157545,41.050480289598866,42.07752811573815,40
80.0,92.67594936708862,92.51157005117432,90.37861001836396,91.42934145413011,41.08222859704421,42.13296003281036,40
82.5,92.8759493670886,92.7115700511743,90.5545487580535,91.62043015096855,41.09113990020576,42.157021293120806,40
85.0,93.07594936708861,92.86876266229709,90.68339523278726,91.77067953349494,41.098083128802145,42.185367429509824,40
87.5,93.07594936708861,92.91157005117432,90.66525298221723,91.78446505490156,41.12710499627276,42.2463170689571,40
90.0,92.97594936708862,92.8115700511743,90.51832103706172,91.68133575387458,41.13023429729972,42.293249014112575,40
92.5,92.77594936708863,92.56876266229709,90.22310555995904,91.40609780366196,41.162664858635125,42.34565710233805,40
95.0,92.37594936708861,92.15722647132105,89.78784426578909,91.00054784051403,41.15667863080702,42.36938220553196,40
97.5,91.97594936708862,91.84565955505624,89.44988858372108,90.65756688008275,41.18809267497349,42.39577097133517,40
100.0,91.87594936708861,91.65722647132105,89.26305895039991,90.46950376716313,41.18772270415792,42.394167520921144,40
103.0,91.67594936708863,91.54565955505625,89.17188292663704,90.36914879297335,41.1765107620829,42.37377662841921,40
106.0,91.7759493670886,91.57923386111415,89.22832311873083,90.4075203733676,41.171713487746544,42.35091074238332,40
109.0,91.87594936708861,91.7115700511743,89.35139476139861,90.53182289364852,41.17974715752578,42.3601752897757,40
112.0,91.97594936708862,91.83432609245843,89.45971576026912,90.65283785184596,41.18148824061247,42.374610332189306,40
115.0,92.07594936708861,91.87923386111414,89.47157246878916,90.68686145059324,41.1923724105209,42.40766139232498,40
118.0,92.07594936708861,91.94565955505624,89.45394709087788,90.70100729125875,41.24465226379749,42.49171246417836,40
122.0,92.17594936708862,91.97923386111414,89.45437151629156,90.7489058368655,41.230328024248635,42.52486234482258,40
125.0,92.17594936708862,92.04565955505623,89.43159646026041,90.75322196379074,41.2924375912655,42.614063094795824,40
128.0,92.17594936708862,91.97923386111414,89.34062775984015,90.67819597956566,41.30103788154848,42.63860610127399,40
132.0,92.07594936708861,91.94565955505624,89.27161653871067,90.62290498761422,41.32275456744202,42.674043016345564,40
136.0,91.97594936708862,91.84565955505624,89.16980060501231,90.5164825872997,41.32917696775654,42.67585895004393,40
140.0,91.87594936708861,91.71357712722632,89.02200065275167,90.3699457946613,41.34363133256501,42.691576474474644,40
145.0,91.7759493670886,91.61357712722632,88.88610624800778,90.25385883194983,41.359718295276494,42.727470879218544,40
150.0,91.7759493670886,91.56876266229709,88.78692182393937,90.18843045381129,41.3803322084858,42.781840838357724,40
155.0,91.67594936708863,91.51357712722634,88.65342394731842,90.09570190569778,41.41787522152856,42.860153179907925,40
160.0,91.67594936708863,91.4907118185777,88.55635921203364,90.02628586383642,41.46442595474127,42.93435260654405,40
165.0,91.87594936708861,91.63685107669738,88.65951608349982,90.16222298267178,41.474628094025604,42.97733499319756,40
170.0,92.07594936708861,91.91357712722633,88.87041603740174,90.3873644646957,41.52621266253064,43.04316108982459,40
175.0,92.17594936708862,92.01357712722633,88.97461035677787,90.49856187443137,41.51501525279495,43.038966770448454,40
180.0,92.17594936708862,91.9368510766974,88.85003937895658,90.38575154158804,41.55109953510936,43.08681169774081,40
185.0,91.67594936708863,91.4368510766974,88.29159973834373,89.84999024136742,41.58686083532997,43.14525133835366,40
190.0,90.87594936708861,90.69373183475219,87.48380279766513,89.07988831646793,41.613843518284256,43.20992903708705,40
195.0,90.47594936708862,90.21658733211876,86.94308325560938,88.58228324982606,41.6343040822927,43.27350407650938,40
200.0,90.47594936708862,90.2516970111266,86.92056307913273,88.59326052398573,41.65843648714086,43.33113393199386,40
206.0,91.07594936708861,90.76351656836998,87.3577659849486,89.07077403251748,41.6927425358525,43.40575058342138,40
212.0,91.7759493670886,91.50543769711194,87.98218195093853,89.72875960679661,41.77667809031533,43.52325574617342,40
218.0,92.17594936708862,91.91738365053291,88.34283253861473,90.12937709144182,41.78800655909109,43.57455111191818,40
224.0,92.27594936708861,92.0173836505329,88.33653348976296,90.17492878477945,41.84245486575345,43.68085016076995,40
230.0,92.17594936708862,91.91738365053291,88.11974465787856,90.00475305759815,41.91263059293476,43.797638992654356,40
236.0,91.97594936708862,91.65248691839707,87.7662015591016,89.71494069892714,41.93754621946994,43.88628535929547,40
240.0,91.7759493670886,91.46351656836998,87.43710467950216,89.44935376005476,42.01416280831522,44.02641188886783,40
250.0,91.57594936708861,91.25248691839707,87.06794438800728,89.1665454570066,42.08594146139046,44.18454253038979,40
258.0,91.37594936708862,91.05248691839707,86.71981345136972,88.8948356230484,42.15765129534867,44.33267346702735,40
265.0,91.27594936708861,90.90946085057404,86.43163051545493,88.70066900818757,42.20879184238646,44.47783033511911,40
272.0,91.07594936708861,90.73275681064523,86.14112655419218,88.46931482314326,42.26344198750196,44.591630256453044,40
280.0,90.97594936708862,90.64490408484737,85.96911828422421,88.3469145409205,42.297989543926874,44.67578580062316,40
290.0,90.87594936708861,90.52190183193146,85.77093479891572,88.19610533833426,42.325796493597196,44.75096703301574,40
300.0,90.6759493670886,90.35380357649359,85.54714358601916,88.00214490519025,42.35165867130334,44.80665999047443,40
307.0,90.47594936708862,90.16617338642118,85.3005250325553,87.78905281629675,42.37712057012443,44.86564835386588,40
315.0,90.3759493670886,90.0340794630477,85.08837313108437,87.60099690869197,42.433082554355735,44.945706331963336,40
325.0,90.27594936708863,89.93407946304771,84.92122104745147,87.47015144011439,42.46392802293332,45.01285841559624,40
335.0,90.17594936708862,89.84650549955043,84.80996909292784,87.39197660549435,42.45452889405608,45.03653640662259,40
345.0,90.17594936708862,89.80543380801068,84.69558481480355,87.32495619572538,42.4804776122853,45.10984899320712,40
355.0,90.07594936708861,89.73804063460523,84.54556358028145,87.2247220690316,42.51331856557363,45.192477054323774,40
365.0,90.07594936708861,89.65017315948005,84.32471746674912,87.07655482181701,42.573618337663035,45.32545569273093,40
375.0,89.97594936708862,89.47839882244695,84.06516090273583,86.84059068717627,42.637808135270674,45.41323791971112,40
387.0,89.67594936708862,89.27731488178118,83.88434226966271,86.6450293839813,42.632285497799884,45.39297261211847,40
400.0,89.87594936708861,89.40821744289009,83.9855560130373,86.800158055016,42.60805938787409,45.422661429852795,40
412.0,90.07594936708861,89.64449315985294,84.15356583663024,86.98856222901006,42.655930930842885,45.49092732322271,40
425.0,90.3759493670886,89.90217171943439,84.36584711858444,87.17909018493967,42.723081534494725,45.53632460084995,40
437.0,90.6759493670886,90.22604875719225,84.58561455835137,87.42526601688505,42.8007827403072,45.64043419884088,40
450.0,90.77594936708861,90.26173114585048,84.48486631687545,87.34685645605606,42.914874689794416,45.77686482897502,40
462.0,90.6759493670886,90.17465947290192,84.28122693660652,87.14721813778327,43.02744133511865,45.89343253629541,40
475.0,90.6759493670886,90.11366645189366,84.00000740821068,86.92716485094435,43.18650160094931,46.113659043682986,40
487.0,90.57594936708861,89.98547392806586,83.65733291049311,86.63368776766454,43.35178616040132,46.32814101757275,40
500.0,90.3759493670886,89.80249379537925,83.27476544606405,86.31676836741052,43.48572542796873,46.5277283493152,40
515.0,90.47594936708862,89.89252572834721,83.25179531939804,86.31420818090629,43.57831754744092,46.64073040894917,40
530.0,90.6759493670886,90.09686764342264,83.41206366567091,86.46502561506688,43.63184202835576,46.68480397775173,40
545.0,90.87594936708861,90.2535059733877,83.70919142761792,86.66490446101145,43.58860151237626,46.54431454576978,40
560.0,91.27594936708861,90.6353098157087,84.10378228362858,87.02282396453322,43.61248585117548,46.53152753208012,40
580.0,91.47594936708862,90.85671139071945,84.3800952994979,87.22540970216212,43.63130168855733,46.47661609122156,40
600.0,91.47594936708862,90.81697971977451,84.3288702072146,87.12692427950883,43.69005544026568,46.4881095125599,40
615.0,91.37594936708862,90.69982728957447,84.2302141017104,86.95788218440292,43.74194510517155,46.46961318786407,40
630.0,91.07594936708861,90.35180500648748,83.94227948017357,86.58741509624326,43.76438991024422,46.409525526313914,40
650.0,90.47594936708862,89.71882492601586,83.43381256615253,85.98877643637226,43.73004848964359,46.28501235986333,40
670.0,89.67594936708862,89.04250848852634,82.90973664993041,85.42956250618785,43.61294598233849,46.13277183859593,40
690.0,89.37594936708861,88.79668942335108,82.83403916066975,85.36784294643196,43.42884647691912,45.962650262681336,40
710.0,89.17594936708863,88.63985461586678,82.84176512951186,85.43317161842266,43.20668299744412,45.798089486354925,40
730.0,89.17594936708863,88.64731544329798,82.85491089126687,85.4680937111682,43.17922173212979,45.792404552031115,40
750.0,89.47594936708862,88.95918897235191,83.1246500736386,85.72997736366341,43.2292116086885,45.834538898713305,40
775.0,89.37594936708861,88.88045752511566,83.04214038236282,85.58014715137021,43.30031037374545,45.83831714275284,40
800.0,89.37594936708861,88.7875302580884,82.88283716978918,85.38564588955492,43.40188436853347,45.90469308829921,40
825.0,89.37594936708861,88.72765939413866,82.90703790536813,85.43699120307473,43.29066819106393,45.82062148877053,40
850.0,89.2759493670886,88.58412196525799,82.92532230666508,85.55867100655317,43.02545095870482,45.65879965859291,40
875.0,88.87594936708862,88.21903818996523,82.9414794910791,85.78613553951031,42.43290265045492,45.27755869888614,40
900.0,88.57594936708861,87.87067804441085,83.01288999312847,86.09531900700468,41.775359037406176,44.857788051282384,40
925.0,88.1759493670886,87.57250525747814,82.8982981483942,86.18794355755438,41.384561699923765,44.67420710908394,40
950.0,87.8759493670886,87.28751509979105,82.52893887876455,85.96858512516768,41.31892997462337,44.7585762210265,40
975.0,87.97594936708862,87.25937781718426,82.13232149424512,85.62650432866087,41.63287348852339,45.12705632293914,40
1000.0,88.1759493670886,87.41735519275497,81.85705590883386,85.37419232906691,42.04316286368805,45.56029928392111,40
1030.0,88.27594936708861,87.57376774033798,81.80150199438367,85.31554309468217,42.258224645655815,45.772265745954314,40
1060.0,88.67594936708862,87.84753798073206,82.13073551563751,85.68320831338197,42.16432966735009,45.716802465094545,40
1090.0,88.87594936708862,88.03234598419708,82.22822857121741,85.86345575582084,42.16889022837624,45.804117412979664,40
1120.0,89.07594936708861,88.25460153669295,82.1092304712171,85.80233408432116,42.452267452371785,46.14537106547584,40
1150.0,89.2759493670886,88.49629337140544,81.98574904000863,85.72858559413913,42.76770777726631,46.510544331396815,40
1180.0,89.37594936708861,88.59837839269231,81.86710893819009,85.657670290584,42.94070810210832,46.731269454502225,40
1220.0,89.37594936708861,88.61451147235783,81.95332105560794,85.71409167548588,42.90041979687196,46.66119041674989,40
1250.0,89.17594936708863,88.44202928109803,81.87222875570463,85.50647926381566,42.93555001728237,46.569800525393404,40
1280.0,88.67594936708862,87.86912851594421,81.29763525246443,84.81523776772457,43.053890748219644,46.57149326347978,40
1320.0,88.07594936708861,87.23674537747698,80.7941924181995,84.2239926326279,43.01275274484908,46.44255295927748,40
1360.0,88.1759493670886,87.30567842288312,80.8983496253144,84.43544731332146,42.87023110956166,46.407328797568724,40
1400.0,88.27594936708861,87.39681953170908,80.6433254623853,84.44107090963692,42.955748622072164,46.75349406932378,40
1450.0,88.67594936708862,87.60561819809959,80.65717382516573,84.4976428398,43.1079753582996,46.948444372933864,40
1500.0,89.07594936708861,87.93780273018717,80.78135813246988,84.54453888595353,43.393263844233644,47.1564445977173,40
1550.0,89.07594936708861,87.97008417163859,80.56490148204719,84.30583226717589,43.6642519044627,47.4051826895914,40
1600.0,89.17594936708863,88.00095967418201,80.43810201808438,84.20517687242346,43.79578280175855,47.562857656097634,40
1650.0,88.97594936708862,87.65586812891081,80.04920089294323,83.9030550469161,43.75281308199472,47.60666723596758,40
1700.0,88.77594936708861,86.86238278816363,79.20035461457944,83.17104090923628,43.691341878927346,47.66202817358419,40
1750.0,88.57594936708861,86.35683404041863,78.37562836053993,82.40236855316721,43.954465487251426,47.9812056798787,40
1800.0,88.37594936708861,86.2447541903198,78.35352414399269,82.33568223186616,43.90907195845364,47.89123004632711,40
1850.0,88.37594936708861,86.58534244047479,78.35542177010338,82.30557754176552,44.279764898709274,48.22992067037141,40
1900.0,88.57594936708861,87.01569756155428,78.65686532267975,82.5655503899855,44.45014717156877,48.35883223887453,40
1950.0,88.87594936708862,87.40679388096966,78.94084122538935,82.87317987366826,44.533614007301395,48.46595265558031,40
2000.0,89.37594936708861,87.70394388118791,79.21185371416729,83.07570548677413,44.628238394413785,48.49209016702062,40
2060.0,89.67594936708862,87.96354923228316,79.62916720859471,83.38993010485959,44.57361912742357,48.33438202368845,40
2120.0,89.87594936708861,88.23825023573293,79.45960380821748,83.5139154512494,44.72433478448353,48.778646427515454,40
2180.0,89.87594936708861,88.34262662936291,79.59528506448902,83.58773056441547,44.754896064947445,48.74734156487389,40
2240.0,89.67594936708862,88.0534214831481,79.38774956290928,83.1858381556249,44.86758332752321,48.66567192023882,40
2300.0,89.37594936708861,87.5756741368719,78.7359619347902,82.3702146193991,45.20545951747279,48.8397122020817,40
2360.0,89.17594936708863,87.49265988259138,78.5950903757552,82.35627124486379,45.13638863772759,48.89756950683618,40
2400.0,88.87594936708862,87.33638791191012,78.51730609449037,82.32274734333849,45.01364056857163,48.81908181741976,40
2500.0,89.07594936708861,87.58120131007699,78.60654748658588,82.18862018493249,45.3925811251445,48.97465382349111,40
2580.0,89.77594936708861,88.05397231168342,78.7013363222139,82.47372485271357,45.58024745896985,49.35263598946952,40
2650.0,90.27594936708863,88.83009339580796,80.06003895714986,83.65125716192159,45.17883623388637,48.77005443865811,40
2720.0,90.17594936708862,88.97589909921524,80.43283331128521,84.04107856395316,44.93482053526208,48.54306578793003,40
2800.0,89.2759493670886,88.22872832992397,79.37206610157804,83.13224907482899,45.09647925509498,48.856662228345925,40
2900.0,88.37594936708861,87.00874363172652,78.67722907018447,82.48993994663388,44.518803685092635,48.33151456154205,40
