Freq "Early Reflections"
22.4 31.148195121085365
23.0 32.68871525986455
23.6 37.6881312547288
24.0 41.30740600065269
25.0 44.04411219536249
25.8 45.8952718585939
26.5 47.08208224476178
27.2 47.731897158175485
28.0 47.708814159121204
29.0 48.093560590293436
30.0 48.99322934335834
30.7 50.55054171019344
31.5 52.77312386757319
32.5 55.29807841742644
33.5 57.76167240790059
34.5 59.98185294943107
35.5 61.915763449982194
36.5 63.704741715772144
37.5 65.23185383523551
38.7 66.69926490572614
40.0 68.11678631243062
41.2 69.44606182460947
42.5 70.80882426035527
43.7 72.54132943485695
45.0 73.69105387867533
46.2 74.55634341540267
47.5 75.82695912079208
48.7 77.00450550103017
50.0 78.0959146206722
51.5 79.21754153242887
53.0 80.3058473996931
54.5 81.28756735754301
56.0 82.22518896995055
58.0 83.04531100230409
60.0 84.07261531932625
61.5 84.92280409430631
63.0 85.5807443177625
65.0 86.26022817080596
67.0 86.95967482074107
69.0 87.59893564652943
71.0 88.16943222637946
73.0 88.73901538223494
75.0 89.27355213652419
77.5 89.78514039448683
80.0 90.1533920870415
82.5 90.34448078387993
85.0 90.49473016640633
87.5 90.50851568781296
90.0 90.40538638678596
92.5 90.13014843657334
95.0 89.72459847342542
97.5 89.38161751299413
100.0 89.19355440007452
103.0 89.09319942588473
106.0 89.13157100627899
109.0 89.25587352655992
112.0 89.37688848475733
115.0 89.41091208350463
118.0 89.42505792417012
122.0 89.47295646977686
125.0 89.47727259670211
128.0 89.40224661247704
132.0 89.3469556205256
136.0 89.2405332202111
140.0 89.0939964275727
145.0 88.9779094648612
150.0 88.91248108672266
155.0 88.81975253860917
160.0 88.75033649674782
165.0 88.88627361558315
170.0 89.11141509760708
175.0 89.22261250734275
180.0 89.1098021744994
185.0 88.57404087427881
190.0 87.80393894937933
195.0 87.30633388273745
200.0 87.31731115689712
206.0 87.79482466542886
212.0 88.45281023970801
218.0 88.85342772435321
224.0 88.89897941769084
230.0 88.72880369050954
236.0 88.43899133183852
240.0 88.17340439296615
250.0 87.89059608991799
258.0 87.61888625595978
265.0 87.42471964109896
272.0 87.19336545605465
280.0 87.07096517383187
290.0 86.92015597124565
300.0 86.72619553810163
307.0 86.51310344920813
315.0 86.32504754160335
325.0 86.19420207302576
335.0 86.11602723840575
345.0 86.04900682863675
355.0 85.94877270194297
365.0 85.8006054547284
375.0 85.56464132008765
387.0 85.36908001689268
400.0 85.52420868792738
412.0 85.71261286192143
425.0 85.90314081785104
437.0 86.14931664979643
450.0 86.07090708896743
462.0 85.87126877069467
475.0 85.65121548385574
487.0 85.35773840057593
500.0 85.0408190003219
515.0 85.03825881381766
530.0 85.18907624797826
545.0 85.38895509392285
560.0 85.7468745974446
580.0 85.94946033507352
600.0 85.85097491242021
615.0 85.6819328173143
630.0 85.31146572915463
650.0 84.71282706928365
670.0 84.15361313909924
690.0 84.09189357934336
710.0 84.15722225133405
730.0 84.19214434407957
750.0 84.4540279965748
775.0 84.3041977842816
800.0 84.1096965224663
825.0 84.16104183598611
850.0 84.28272163946454
875.0 84.5101861724217
900.0 84.81936963991606
925.0 84.91199419046578
950.0 84.69263575807906
975.0 84.35055496157226
1000.0 84.09824296197831
1030.0 84.03959372759354
1060.0 84.40725894629335
1090.0 84.58750638873224
1120.0 84.52638471723255
1150.0 84.45263622705053
1180.0 84.38172092349538
1220.0 84.43814230839727
1250.0 84.23052989672705
1280.0 83.53928840063595
1320.0 82.94804326553928
1360.0 83.15949794623286
1400.0 83.16512154254832
1450.0 83.2216934727114
1500.0 83.26858951886493
1550.0 83.02988290008727
1600.0 82.92922750533485
1650.0 82.62710567982748
1700.0 81.89509154214768
1750.0 81.12641918607858
1800.0 81.05973286477754
1850.0 81.0296281746769
1900.0 81.2896010228969
1950.0 81.59723050657965
2000.0 81.79975611968551
2060.0 82.11398073777097
2120.0 82.23796608416079
2180.0 82.31178119732684
2240.0 81.90988878853628
2300.0 81.09426525231049
2360.0 81.08032187777518
2400.0 81.04679797624988
2500.0 80.91267081784387
2580.0 81.19777548562496
2650.0 82.37530779483296
2720.0 82.76512919686455
2800.0 81.85629970774038
2900.0 81.21399057954525
3000.0 81.93475762385748
3070.0 82.49508662550195
3150.0 82.37140804630555
3250.0 82.17648804120996
3350.0 82.40872588716634
3450.0 82.0979730259229
3550.0 82.34653073208591
3650.0 82.79876636790567
3750.0 82.36871946817693
3870.0 82.4698225807928
4000.0 82.92964233701639
4120.0 82.52707156342396
4250.0 82.25607431527476
4370.0 82.31640483893032
4500.0 82.91652399178675
4620.0 83.58788699645224
4750.0 83.59604777616802
4870.0 83.67424845779206
5000.0 83.97040786295919
5150.0 83.50761952753858
5300.0 83.22650151359372
5450.0 83.80061822333694
5600.0 84.48061444381179
5800.0 83.9221910740507
6000.0 83.88523758795473
6150.0 83.92844815450879
6300.0 83.86998227768899
6500.0 83.9092698516992
6700.0 84.72396549326072
6900.0 84.04576659432364
7100.0 83.82898937265165
7300.0 84.3586149665862
7500.0 83.5623291350974
7750.0 83.40313042429402
8000.0 82.25695386109697
8250.0 81.39984923708737
8500.0 82.17540474567787
8750.0 81.33389707039288
9000.0 81.03625555626863
9250.0 82.48817993927743
9500.0 84.1546329873496
9750.0 85.12375285994378
10000.0 82.96833522749326
10300.0 81.24988098736878
10600.0 82.74882491514037
10900.0 84.7153468512538
11200.0 86.67933475103658
11500.0 89.22328518430383
11800.0 88.78539922467886
12200.0 88.81145925636837
12500.0 84.1227366200768
12800.0 81.37834507693732
13200.0 83.6903549999191
13600.0 83.47791534901648
14000.0 82.37363750938377
14500.0 83.12856002142395
15000.0 81.92050509493698
15500.0 80.96166936025078
16000.0 79.27439994121188
16500.0 78.182481773311
17000.0 78.1140787558845
17500.0 74.71660826179352
18000.0 74.49188166461838
18500.0 72.64784241204303
19000.0 70.90304210857356
19500.0 68.75626716868976
