Freq "On Axis"
22.4 32.5
23.0 33.99999999999997
23.6 39.0
24.0 42.599999999999994
25.0 45.29999999999998
25.8 47.099999999999994
26.5 48.29999999999998
27.2 48.900000000000006
28.0 48.900000000000006
29.0 49.29999999999998
30.0 50.20000000000002
30.7 51.70000000000002
31.5 53.900000000000006
32.5 56.400000000000006
33.5 58.900000000000006
34.5 61.099999999999994
35.5 63.0
36.5 64.79999999999998
37.5 66.29999999999998
38.7 67.8
40.0 69.2
41.2 70.5
42.5 71.9
43.7 73.6
45.0 74.80000000000001
46.2 75.7
47.5 77.0
48.7 78.2
50.0 79.3
51.5 80.4
53.0 81.5
54.5 82.5
56.0 83.5
58.0 84.3
60.0 85.4
61.5 86.20000000000002
63.0 86.9
65.0 87.5
67.0 88.2
69.0 88.9
71.0 89.4
73.0 90.0
75.0 90.5
77.5 91.0
80.0 91.4
82.5 91.6
85.0 91.8
87.5 91.8
90.0 91.7
92.5 91.5
95.0 91.1
97.5 90.7
100.0 90.6
103.0 90.4
106.0 90.5
109.0 90.6
112.0 90.7
115.0 90.8
118.0 90.8
122.0 90.9
125.0 90.9
128.0 90.9
132.0 90.8
136.0 90.7
140.0 90.6
145.0 90.5
150.0 90.5
155.0 90.4
160.0 90.4
165.0 90.6
170.0 90.8
175.0 90.9
180.0 90.9
185.0 90.4
190.0 89.6
195.0 89.2
200.0 89.2
206.0 89.80000000000001
212.0 90.5
218.0 90.9
224.0 91.0
230.0 90.9
236.0 90.7
240.0 90.5
250.0 90.3
258.0 90.1
265.0 90.0
272.0 89.80000000000001
280.0 89.7
290.0 89.6
300.0 89.4
307.0 89.2
315.0 89.1
325.0 89.0
335.0 88.9
345.0 88.9
355.0 88.79999999999998
365.0 88.79999999999998
375.0 88.70000000000002
387.0 88.4
400.0 88.6
412.0 88.79999999999998
425.0 89.1
437.0 89.4
450.0 89.5
462.0 89.4
475.0 89.4
487.0 89.3
500.0 89.1
515.0 89.2
530.0 89.4
545.0 89.6
560.0 90.0
580.0 90.19999999999999
600.0 90.19999999999999
615.0 90.1
630.0 89.80000000000001
650.0 89.2
670.0 88.4
690.0 88.1
710.0 87.9
730.0 87.9
750.0 88.2
775.0 88.1
800.0 88.1
825.0 88.1
850.0 88.0
875.0 87.6
900.0 87.30000000000001
925.0 86.9
950.0 86.6
975.0 86.7
1000.0 86.9
1030.0 87.0
1060.0 87.4
1090.0 87.6
1120.0 87.8
1150.0 88.0
1180.0 88.1
1220.0 88.1
1250.0 87.9
1280.0 87.4
1320.0 86.8
1360.0 86.9
1400.0 87.0
1450.0 87.4
1500.0 87.8
1550.0 87.8
1600.0 87.9
1650.0 87.69999999999999
1700.0 87.5
1750.0 87.30000000000001
1800.0 87.1
1850.0 87.1
1900.0 87.30000000000001
1950.0 87.6
2000.0 88.1
2060.0 88.4
2120.0 88.6
2180.0 88.6
2240.0 88.4
2300.0 88.1
2360.0 87.9
2400.0 87.6
2500.0 87.8
2580.0 88.5
2650.0 89.0
2720.0 88.9
2800.0 88.0
2900.0 87.1
3000.0 87.30000000000001
3070.0 87.9
3150.0 88.3
3250.0 88.6
3350.0 88.79999999999998
3450.0 88.79999999999998
3550.0 89.0
3650.0 89.2
3750.0 89.2
3870.0 89.1
4000.0 89.0
4120.0 88.4
4250.0 87.9
4370.0 87.69999999999999
4500.0 87.9
4620.0 89.2
4750.0 90.5
4870.0 91.0
5000.0 90.9
5150.0 89.6
5300.0 88.1
5450.0 88.0
5600.0 88.3
5800.0 88.70000000000002
6000.0 89.2
6150.0 89.2
6300.0 88.6
6500.0 88.5
6700.0 89.2
6900.0 89.2
7100.0 89.2
7300.0 89.3
7500.0 88.9
7750.0 88.9
8000.0 88.70000000000002
8250.0 87.69999999999999
8500.0 88.0
8750.0 87.5
9000.0 87.2
9250.0 88.79999999999998
9500.0 89.4
9750.0 89.0
10000.0 89.1
10300.0 88.70000000000002
10600.0 89.3
10900.0 90.19999999999999
11200.0 90.7
11500.0 91.1
11800.0 90.5
12200.0 90.0
12500.0 89.80000000000001
12800.0 88.9
13200.0 90.8
13600.0 90.0
14000.0 90.1
14500.0 91.1
15000.0 90.19999999999999
15500.0 89.2
16000.0 88.4
16500.0 87.2
17000.0 86.29999999999998
17500.0 84.3
18000.0 82.69999999999999
18500.0 80.8
19000.0 79.2
19500.0 77.4
