Freq "Sound Power"
22.4 30.07292177017345
23.0 31.60310443861772
23.6 36.58760302427922
24.0 40.19626414972518
25.0 42.92655235775885
25.8 44.7557202795451
26.5 45.934689338715
27.2 46.56269480634987
28.0 46.53641347876376
29.0 46.90542867517959
30.0 47.81116548393547
30.7 49.37560710437296
31.5 51.60169092274867
32.5 54.140546860383296
33.5 56.63350888654679
34.5 58.885155661634286
35.5 60.842799825741764
36.5 62.67368398808077
37.5 64.23169219034352
38.7 65.71967447307333
40.0 67.15713974520162
41.2 68.51893930503087
42.5 69.87631916645634
43.7 71.60628027810178
45.0 72.74915892394174
46.2 73.61060914142689
47.5 74.85906946592017
48.7 76.00220267416341
50.0 77.08514200025002
51.5 78.1654621432776
53.0 79.22801977647237
54.5 80.16781257475537
56.0 81.06967897337277
58.0 81.86840824189886
60.0 82.8603172109861
61.5 83.70704202171427
63.0 84.37120705977863
65.0 85.0701601232741
67.0 85.81333661505718
69.0 86.4945147998425
71.0 87.11629584354779
73.0 87.6927262690834
75.0 88.24192256295962
77.5 88.75809256834756
80.0 89.10266065127533
82.5 89.27859939096487
85.0 89.40744586569865
87.5 89.38930361512861
90.0 89.2423716699731
92.5 88.94715619287044
95.0 88.51189489870046
97.5 88.17393921663246
100.0 87.9871095833113
103.0 87.89593355954842
106.0 87.95237375164221
109.0 88.07544539431
112.0 88.18376639318049
115.0 88.19562310170055
118.0 88.17799772378928
122.0 88.17842214920293
125.0 88.1556470931718
128.0 88.06467839275152
132.0 87.99566717162206
136.0 87.8938512379237
140.0 87.74605128566306
145.0 87.61015688091916
150.0 87.51097245685075
155.0 87.3774745802298
160.0 87.28040984494501
165.0 87.38356671641121
170.0 87.59446667031312
175.0 87.69866098968926
180.0 87.57409001186795
185.0 87.01565037125512
190.0 86.2078534305765
195.0 85.66713388852077
200.0 85.6446137120441
206.0 86.08181661786
212.0 86.70623258384991
218.0 87.06688317152611
224.0 87.06058412267433
230.0 86.84379529078994
236.0 86.49025219201299
240.0 86.16115531241354
250.0 85.79199502091868
258.0 85.4438640842811
265.0 85.15568114836631
272.0 84.86517718710357
280.0 84.6931689171356
290.0 84.4949854318271
300.0 84.27119421893055
307.0 84.02457566546667
315.0 83.81242376399575
325.0 83.64527168036287
335.0 83.53401972583923
345.0 83.41963544771494
355.0 83.26961421319284
365.0 83.04876809966049
375.0 82.78921153564721
387.0 82.6083929025741
400.0 82.70960664594868
412.0 82.8776164695416
425.0 83.08989775149583
437.0 83.30966519126275
450.0 83.20891694978684
462.0 83.00527756951789
475.0 82.72405804112205
487.0 82.3813835434045
500.0 81.99881607897544
515.0 81.97584595230943
530.0 82.1361142985823
545.0 82.43324206052931
560.0 82.82783291653996
580.0 83.1041459324093
600.0 83.05292084012599
615.0 82.95426473462179
630.0 82.66633011308494
650.0 82.15786319906391
670.0 81.6337872828418
690.0 81.55808979358113
710.0 81.56581576242324
730.0 81.57896152417825
750.0 81.84870070654998
775.0 81.76619101527422
800.0 81.60688780270058
825.0 81.63108853827953
850.0 81.64937293957648
875.0 81.6655301239905
900.0 81.73694062603985
925.0 81.62234878130559
950.0 81.25298951167593
975.0 80.8563721271565
1000.0 80.58110654174524
1030.0 80.52555262729506
1060.0 80.8547861485489
1090.0 80.9522792041288
1120.0 80.83328110412849
1150.0 80.70979967292001
1180.0 80.59115957110146
1220.0 80.67737168851933
1250.0 80.59627938861601
1280.0 80.0216858853758
1320.0 79.51824305111089
1360.0 79.62240025822578
1400.0 79.36737609529669
1450.0 79.3812244580771
1500.0 79.50540876538126
1550.0 79.28895211495858
1600.0 79.16215265099575
1650.0 78.77325152585462
1700.0 77.92440524749084
1750.0 77.09967899345132
1800.0 77.07757477690407
1850.0 77.07947240301478
1900.0 77.38091595559114
1950.0 77.66489185830073
2000.0 77.93590434707869
2060.0 78.3532178415061
2120.0 78.18365444112887
2180.0 78.31933569740039
2240.0 78.11180019582066
2300.0 77.46001256770158
2360.0 77.31914100866659
2400.0 77.24135672740177
2500.0 77.33059811949727
2580.0 77.42538695512529
2650.0 78.78408959006124
2720.0 79.1568839441966
2800.0 78.09611673448943
2900.0 77.40127970309585
3000.0 78.1245361757862
3070.0 78.23010286831781
3150.0 78.08186531971687
3250.0 77.81668158874454
3350.0 77.6535872765248
3450.0 76.95401062174466
3550.0 77.6383420992351
3650.0 77.82796425189372
3750.0 77.4254901298586
3870.0 77.70450390382733
4000.0 77.9582873198018
4120.0 77.60840784823853
4250.0 77.56494221543791
4370.0 77.56062047775637
4500.0 78.42269600194564
4620.0 78.87044976616446
4750.0 78.86726598846545
4870.0 78.92272623798888
5000.0 79.2694814511924
5150.0 78.89461329637386
5300.0 78.43879199030071
5450.0 79.03473441665315
5600.0 79.84944956772522
5800.0 79.43042781964216
6000.0 79.25700899839717
6150.0 79.35567236028858
6300.0 79.381220359418
6500.0 79.5167823988256
6700.0 80.35146150437406
6900.0 79.65991882988682
7100.0 79.38980682770145
7300.0 79.98220877558987
7500.0 78.97881917149569
7750.0 78.77358372526152
8000.0 77.40517104268585
8250.0 76.6916075221261
8500.0 77.6517155860702
8750.0 76.50690478991122
9000.0 76.30279195643229
9250.0 77.83807846657237
9500.0 79.98476779147268
9750.0 81.12951422088511
10000.0 78.88150969000087
10300.0 76.70517461097006
10600.0 78.10536014033916
10900.0 79.83474930003499
11200.0 82.33050245376619
11500.0 85.36608795670367
11800.0 85.30416351888525
12200.0 84.52086774097155
12500.0 79.60082175607978
12800.0 77.26542660018261
13200.0 79.931933695009
13600.0 79.82253037646825
14000.0 77.25357689165511
14500.0 77.73345516785922
15000.0 78.19129144590407
15500.0 76.67450057805522
16000.0 74.46753147464045
16500.0 73.40772101404893
17000.0 73.04571959332529
17500.0 70.27076548252482
18000.0 69.04968851491624
18500.0 67.72386730153502
19000.0 65.43374523716449
19500.0 63.8621639190051
