Freq,On Axis,Listening Window,Sound Power,Early Reflections,Early Reflections DI,Sound Power DI,DI offset
20.5078,58.12907424242427,57.76496433937909,55.57097123213744,56.48558006673527,51.279384272643824,52.19399310724165,50
21.9727,56.974874242424264,56.445683990848764,58.50197931101981,57.18159735207938,49.264086638769385,47.943704679828954,50
23.4375,58.843374242424275,58.39705145146577,59.678379952192515,58.724272911160554,49.67277854030522,48.718671499273256,50
24.9023,60.93967424242426,60.545069659883595,60.64510219592968,60.2668592228781,50.2782104370055,49.899967463953914,50
26.3672,61.72707424242428,61.32691618899308,61.71277046131341,61.18832592227987,50.13859026671321,49.61414572767967,50
27.832,62.80147424242425,62.419550556799535,63.14828808428068,62.48236655785813,49.93718399894141,49.271262472518856,50
29.2969,64.49777424242426,64.16196702731922,64.45970966146477,64.03257623616607,50.129390791153156,49.70225736585445,50
30.7617,65.13637424242425,64.79731342575234,65.61359236659486,64.94359358764756,49.85371983810478,49.18372105915748,50
32.2266,66.35467424242425,66.04163009993785,67.03011882073137,66.3046766725583,49.73695342737955,49.01151127920647,50
33.6914,67.32607424242427,67.03327908150034,68.34256408680643,67.49222880420719,49.54105027729315,48.690714994693906,50
35.1562,68.37687424242425,68.10540819742013,69.64122965762192,68.70897464999992,49.396433547420216,48.46417853979821,50
36.6211,69.82087424242427,69.58976024601357,71.18048707414975,70.25587289453351,49.33388735148006,48.409273171863816,50
38.0859,71.14647424242426,70.94365982219519,72.63783653209013,71.69093495587624,49.25272486631894,48.30582329010505,50
39.5508,72.28347424242426,72.09722148434467,73.77690440742212,72.84757604716509,49.24964543717958,48.32031707692255,50
41.0156,73.51547424242428,73.34816654541547,74.93843585322979,74.06044661577351,49.28771992964195,48.409730692185676,50
42.4805,74.51077424242426,74.36981261433378,76.22573398184119,75.2518688427079,49.117943771625875,48.144078632492594,50
43.9453,75.88027424242428,75.75766278312447,77.52470422472156,76.60149141866589,49.15617136445859,48.23295855840291,50
45.4102,77.06877424242427,76.9707613634731,78.91654736428644,77.93430972692123,49.036451636551874,48.05421399918666,50
46.875,78.35297424242428,78.27568045651834,80.19577618236971,79.23803759094035,49.03764286557799,48.07990427414863,50
48.3398,79.67787424242427,79.61821564190008,81.49339407766729,80.56636797880753,49.051847663092545,48.12482156423279,50
51.2695,82.17547424242427,82.14608678483796,83.98705105042693,83.09434901726719,49.05173776757077,48.159035734411034,50
52.7344,83.41147424242426,83.39445130071762,85.15142541396293,84.30340018179159,49.09105111892603,48.243025886754694,50
54.1992,84.59767424242426,84.5883488365087,86.23468917024486,85.4396062312461,49.1487426052626,48.35365966626384,50
55.6641,85.70697424242427,85.70087677190371,87.2288878839209,86.48688303813394,49.21399373376977,48.4719888879828,50
58.5938,87.37437424242427,87.38564984362664,88.91723706286906,88.18614492836916,49.19950491525748,48.468412780757575,50
60.0586,87.98797424242427,88.00771551240486,89.53956871555857,88.81463240163363,49.19308311077123,48.468146796846284,50
62.9883,88.94667424242427,88.97792284478035,90.3981695094409,89.7305520612726,49.24737078350775,48.57975333533945,50
64.4531,89.22207424242427,89.25716065176194,90.62192340587691,89.9817083101985,49.27545234156344,48.63523724588502,50
67.3828,89.48417424242426,89.52783853703828,90.82303461449615,90.21954231399205,49.30829622304623,48.704803922542126,50
68.8477,89.55387424242427,89.6005577824239,90.84819838953335,90.268490872341,49.3320669100829,48.752359392890554,50
71.7773,89.65027424242426,89.70108032743322,90.84749475571331,90.31834189525905,49.382738432174165,48.853585571719904,50
74.707,89.68157424242426,89.7364980591094,90.81226400618466,90.32044600865993,49.416052050449466,48.92423405292473,50
77.6367,89.67367424242427,89.73241921659125,90.75159053162496,90.2894387610932,49.44298045549806,48.9808286849663,50
79.1016,89.66587424242427,89.7261560653961,90.71802777869071,90.26990193534243,49.456254130053665,49.008128286705386,50
82.0312,89.69717424242425,89.7594314165069,90.68803234592357,90.27124819921671,49.488183217290185,49.071399070583325,50
84.9609,89.77397424242427,89.8363572202865,90.6781600720535,90.30316309187425,49.53319412841225,49.158197148233,50
87.8906,89.76347424242427,89.82971792293445,90.68536647453085,90.3051073854751,49.52461053745935,49.1443514484036,50
90.8203,89.87567424242427,89.94059257883029,90.69520259120597,90.36441741864311,49.57617516018718,49.24538998762432,50
95.2148,90.13427424242427,90.19596352134207,90.83311926745968,90.55849148398976,49.63747203735231,49.362844253882386,50
98.1445,90.20717424242427,90.26986486323769,90.90186470279579,90.63102405604373,49.63884080719396,49.368000160441895,50
101.074,90.17117424242427,90.23508663791182,90.8519134677201,90.59097161265576,49.644115025256056,49.383173170191725,50
105.469,90.53347424242425,90.58860459346526,91.01910591250578,90.848856225179,49.73974836828626,49.569498680959484,50
108.398,90.88007424242427,90.93179851496923,91.30177735618712,91.15648115947413,49.775317355495105,49.630021158782114,50
112.793,91.16757424242427,91.21578428775078,91.52655940914008,91.40876559629658,49.8070186914542,49.6892248786107,50
117.188,91.45887424242427,91.50083658189719,91.70370454782027,91.63935926974055,49.86147731215664,49.797132034076924,50
120.117,91.65357424242427,91.69384478410537,91.86502666319078,91.81572892054055,49.878115863564815,49.82881812091459,50
124.512,91.90197424242426,91.94197475627105,92.10661870950936,92.05573646962011,49.886238286650936,49.83535604676169,50
128.906,92.03687424242425,92.07469882568965,92.2327329720731,92.18211098815092,49.89258783753873,49.84196585361656,50
133.301,92.13907424242427,92.17151152302252,92.2552827269357,92.23739544253624,49.93411608048628,49.91622879608681,50
139.16,92.22827424242426,92.2537426564338,92.24130253337958,92.26711712240153,49.98662553403227,50.01244012305422,50
143.555,92.26407424242427,92.2844527325935,92.2290758709242,92.27116663282578,50.01328609976771,50.05537686166929,50
147.949,92.29127424242427,92.30019533307443,92.15231449435991,92.23326490102012,50.066930432054306,50.147880838714514,50
153.809,92.46227424242427,92.45980981457191,92.09729736277235,92.28534167481111,50.174468139760805,50.36251245179956,50
159.668,92.57247424242426,92.56819583317979,92.21529851038731,92.39745718377426,50.17073864940552,50.35289732279247,50
165.527,92.60397424242429,92.5939829081764,92.19471823564514,92.40577501425157,50.188207893924826,50.39926467253126,50
171.387,92.47947424242427,92.46023007223356,91.94829805798831,92.20667873073877,50.253551341494784,50.51193201424525,50
177.246,92.30587424242427,92.28145311205591,91.67584559559421,91.97886382604042,50.30258928601549,50.6056075164617,50
183.105,91.97357424242428,91.93913268855944,91.35877132309335,91.63787529866005,50.30125738989939,50.58036136546609,50
188.965,92.09447424242428,92.03686182543954,91.12247474057403,91.57164968670321,50.465212138736334,50.91438708486551,50
196.289,92.16427424242427,92.1037077662402,91.03186674667887,91.57539714008622,50.52831062615398,51.07184101956133,50
203.613,92.05187424242426,91.97825010627962,90.67626247176752,91.34345486631179,50.63479523996783,51.3019876345121,50
210.938,92.01977424242426,91.95143166343026,90.57354908425332,91.293143673539,50.65828798989125,51.37788257917694,50
218.262,91.53697424242426,91.4643274321141,90.31568880150671,90.89258003818617,50.571747393927936,51.148638630607394,50
225.586,91.64267424242426,91.54638738344534,89.98705138562524,90.77937059773771,50.767016785707625,51.5593359978201,50
232.91,91.54947424242427,91.45259188573337,89.71857689844221,90.62284046612027,50.8297514196131,51.73401498729116,50
241.699,91.40937424242426,91.31244602526245,89.57094110269783,90.47513117771227,50.837314847550175,51.741504922564616,50
250.488,91.69817424242427,91.57823480981772,89.51001939082485,90.57753084407726,51.000703965740456,52.068215418992864,50
259.277,91.46957424242427,91.37503567075366,89.47976168586781,90.48693870891539,50.88809696183827,51.89527398488585,50
268.066,90.97307424242426,90.86089818493683,88.92984613319594,89.92009691739172,50.94080126754511,51.93105205174089,50
276.855,90.78137424242426,90.694470850087,88.78005175963597,89.78097088646386,50.91349996362314,51.914419090451034,50
287.109,90.56527424242425,90.43247085298127,88.5171656048588,89.481818322602,50.95065253037927,51.915305248122465,50
297.363,91.21217424242427,91.06757916426612,88.49070681695768,89.86906903833405,51.198510125932074,52.57687234730844,50
307.617,90.62637424242426,90.52077678690286,88.43411099100892,89.5722989267394,50.94847786016345,52.086665795893936,50
319.336,90.76247424242426,90.61251621069333,88.04868355702347,89.43120920527606,51.18130700541727,52.56383265366986,50
329.59,90.14497424242427,90.02993259176849,88.04556865595727,89.1029031119095,50.92702947985899,51.98436393581122,50
341.309,89.90707424242427,89.6864468927937,87.58792849694328,88.5497370156527,51.136709877141,52.09851839585042,50
353.027,90.75667424242427,90.375433957681,87.52919134728286,88.57290573672027,51.802528220960724,52.846242610398136,50
366.211,92.17237424242428,91.90433260673711,87.96273726370758,89.99915027904342,51.905182327693694,53.94159534302953,50
379.395,91.03087424242425,90.88978698458985,87.92997384847455,89.53650795754615,51.3532790270437,52.9598131361153,50
392.578,90.71957424242429,90.52019364989636,87.52311873791483,89.08847171893686,51.4317219309595,52.99707491198153,50
405.762,90.66547424242427,90.43415438092079,87.01754215605047,88.82345170431752,51.61070267660327,53.41661222487032,50
420.41,90.81327424242427,90.66269175732266,87.38978177668459,89.22233550925243,51.44035624807023,53.272909980638076,50
435.059,90.58067424242427,90.348493393947,87.11853961012572,88.77496569934036,51.57352769460664,53.22995378382127,50
451.172,91.04017424242427,90.79225653964804,87.1679041637016,89.0883346314883,51.70392190815974,53.62435237594643,50
465.82,90.59777424242428,90.33996922243928,86.77854329757088,88.68844253346028,51.651526688979004,53.5614259248684,50
483.398,90.30487424242426,90.00608265280975,86.51970168926441,88.29880435229643,51.70727830051332,53.48638096354534,50
499.512,90.59837424242427,90.22569526933403,86.65010612627972,88.47780855513382,51.747886714200206,53.5755891430543,50
517.09,91.02867424242426,90.53539506966308,86.68509467792897,88.42424076476685,52.11115430489623,53.85030039173411,50
536.133,91.50677424242427,90.9911626611225,86.22520338746087,88.42733932653722,52.56382333458528,54.765959273661636,50
555.176,91.28057424242427,90.7521610002119,85.6037661588298,88.18991752091652,52.562243479295375,55.1483948413821,50
574.219,92.20217424242426,91.78624044258771,86.52078249339657,89.33866953691205,52.44757090567566,55.265457949191145,50
594.727,93.14607424242426,92.84458007216166,87.99414317963686,90.54765837039494,52.29692170176672,54.8504368925248,50
615.234,93.33957424242426,93.02453217907828,88.01568221489002,90.6583286195687,52.36620355950957,55.00884996418826,50
637.207,93.93697424242426,93.54314967629632,88.25949404179708,90.99032408958645,52.55282558670987,55.28365563449924,50
659.18,93.21377424242426,92.87497275941013,87.5429191733747,90.38111095762746,52.49386180178267,55.33205358603543,50
682.617,92.53767424242427,92.15265337346746,87.01494606079993,89.73125739924168,52.421395974225774,55.13770731266753,50
707.52,92.57227424242427,92.21258219212369,86.79368205266591,89.6902951506151,52.52228704150859,55.418900139457776,50
732.422,91.96967424242426,91.53955931666562,86.12817183221388,88.97646217011219,52.56309714655343,55.41138748445174,50
757.324,91.36947424242426,91.00156291593639,85.42484022087821,88.48697109319626,52.51459182274013,55.57672269505818,50
785.156,91.01837424242426,90.55706562292688,84.9788670743677,87.78985993409147,52.76720568883542,55.578198548559186,50
811.523,90.79997424242427,90.35631640519809,84.312877577736,87.40318820676782,52.953128198430264,56.04343882746208,50
840.82,90.39067424242425,89.85182156337854,83.82343195096435,86.93438668338172,52.91743487999682,56.02838961241419,50
870.117,90.40077424242428,89.81201993412859,83.59486327349215,86.75029099871526,53.06172893541333,56.217156660636434,50
900.879,90.34967424242427,89.78923855364947,83.54637750632725,86.83993780284031,52.94930075080916,56.24286104732222,50
933.105,91.10557424242427,90.45771200516582,83.67069293232693,87.08020484766865,53.37750715749716,56.78701907283889,50
965.332,91.63767424242427,90.91982635022966,84.25411922008112,87.8007956703109,53.11903067991875,56.66570713014853,50
1000.49,92.08757424242427,91.51497784514216,85.09100482905413,88.5046059089138,53.01037193622835,56.42397301608803,50
1035.64,92.69567424242426,92.03196815479811,85.47446353570949,88.77018407176527,53.261784083032836,56.55750461908862,50
1072.27,94.64867424242426,93.93792418615932,87.48237179537632,90.94926453852223,52.98865964763709,56.455552390783,50
1108.89,95.08367424242427,94.41061780439296,87.74727319080905,91.32723548333443,53.08338232105852,56.6633446135839,50
1148.44,94.29637424242426,93.73279281585266,87.29625461403067,90.84304147833124,52.88975133752142,56.43653820182199,50
1189.45,94.22887424242425,93.37599096938183,86.54234426190926,90.28804268310299,53.087948286278845,56.83364670747257,50
1230.47,95.04827424242427,94.02634019349476,86.6233770505367,90.49979735815154,53.52654283534322,57.40296314295806,50
1274.41,95.78717424242429,95.0066224827858,87.84813556093677,91.67731691649695,53.32930556628885,57.15848692184903,50
1319.82,94.97617424242426,94.13429468152853,87.32228081864405,91.12429018102296,53.01000450050557,56.812013862884484,50
1366.7,92.68527424242427,91.80494140110743,85.33476780761818,88.91963719965808,52.885304201449344,56.47017359348925,50
1413.57,90.40877424242427,89.67435040181346,83.52592028816059,86.90901957009712,52.76533083171634,56.148430113652864,50
1463.38,87.53607424242425,87.02426265077916,81.84369810828686,85.16895885444303,51.85530379633613,55.180564542492306,50
1516.11,86.98347424242426,85.96735744974791,80.67957693131956,84.21791735568723,51.749440094060674,55.28778051842835,50
1568.85,86.23227424242427,85.41757889693645,79.99022253902103,83.41638475050385,52.001194146432596,55.427356357915414,50
1624.51,84.40817424242427,84.13728305779942,79.15693588632847,82.63962780300648,51.497655254792946,54.98034717147095,50
1681.64,83.51437424242427,83.4442738745973,78.93360200938918,82.56986396678393,50.87440990781337,54.510671865208124,50
1741.7,83.90617424242427,83.84404242053448,79.2010125909376,82.65325478979014,51.19078763074434,54.643029829596884,50
1803.22,84.45997424242427,84.28145558651278,79.35251731848926,82.74147385184398,51.5399817346688,54.928938268023515,50
1866.21,83.88967424242426,84.39335299852144,79.87483315756077,83.11222344984151,51.28112954867993,54.518519840960664,50
1932.13,84.32527424242427,84.50518809008973,80.1821009466627,83.36282858908865,51.14235950100108,54.32308714342703,50
1999.51,85.30377424242427,85.51834836871326,80.73485667130215,84.01487907052373,51.50346929818953,54.78349169741111,50
2069.82,86.35607424242427,86.59986303920721,81.4798348227066,84.65978064574264,51.940082393464564,55.120028216500614,50
2143.07,86.44447424242426,86.7525877742501,81.68795225366829,84.88889503586778,51.863692738382326,55.06463552058182,50
2219.24,86.61537424242427,86.78402235998645,81.799884834952,85.01663280351482,51.76738955647163,54.984137525034456,50
2296.88,88.03197424242428,87.9542898625878,82.13088380551125,85.48502215401558,52.46926770857222,55.823406057076554,50
2378.91,88.36247424242427,88.25899829820138,82.23417665313939,85.54262729849899,52.71637099970239,56.02482164506199,50
2462.4,87.90707424242429,87.55483481165871,81.95481331221178,85.43482976495287,52.12000504670584,55.600021499446925,50
2548.83,89.05507424242427,88.74395819483486,82.46144675581782,86.19894990429181,52.54500829054305,56.28251143901704,50
2639.65,90.15657424242427,90.02687261480112,83.36506660092961,87.1367135507741,52.89015906402702,56.66180601387151,50
2731.93,89.17507424242426,89.39710332593633,83.13635061297353,86.82111115081942,52.57599217511691,56.2607527129628,50
2828.61,89.81457424242427,89.64550142270755,83.15784767142286,86.88386544378191,52.76163597892564,56.4876537512847,50
2928.22,89.89747424242427,90.05366920593222,83.23263906765929,86.95919130347689,53.09447790245534,56.82103013827293,50
3030.76,89.63597424242427,89.80445897399554,83.03658107515935,86.787871006543,53.01658796745254,56.76787789883619,50
3137.7,89.32627424242428,89.71194703508377,82.86249069022615,86.6312750238305,53.08067201125327,56.849456344857614,50
3249.02,90.15817424242427,90.41598797711764,83.10448458644233,87.02711873678514,53.3888692403325,57.31150339067531,50
3363.28,90.43437424242428,90.61130545331064,83.12279321916772,87.1621124656652,53.44919298764543,57.48851223414292,50
3481.93,91.04217424242427,90.70563676694574,82.93096554189306,87.02469886683123,53.680937900114515,57.774671225052685,50
3604.98,91.16617424242426,90.69799830370896,82.62980494668905,86.79923215381797,53.89876614989099,58.06819335701991,50
3732.42,91.73667424242427,90.88820954329326,82.6459961604266,86.78085919428295,54.107350349010304,58.24221338286665,50
3864.26,91.49397424242427,90.39054683520878,82.17299745241068,86.33714954497113,54.053397290237655,58.2175493827981,50
4000.49,92.99927424242428,91.3842082913372,82.66088754026673,87.04707413953473,54.33713415180247,58.723320751070474,50
4141.11,93.93667424242426,92.22117642069416,82.80193783994484,87.41873013289471,54.802446287799455,59.41923858074932,50
4287.6,94.41547424242427,92.33529646352994,82.6937724967364,87.4456331330102,54.88966333051974,59.64152396679354,50
4438.48,94.58057424242428,92.30913753708897,82.64285361982805,87.26146903466127,55.0476685024277,59.66628391726093,50
4595.21,95.18507424242426,92.62568042919376,82.94251522401613,87.5818237991248,55.04385663006896,59.68316520517763,50
4756.35,94.59547424242426,92.66622603113449,83.37020104406764,87.76480058682733,54.90142544430715,59.29602498706684,50
4924.8,93.90807424242426,92.31337208010011,83.08143373521963,87.48254544168765,54.83082663841246,59.231938344880476,50
5097.66,93.37837424242427,91.51295247781881,81.86541450146738,86.69080972028543,54.822142757533385,59.64753797635143,50
5277.83,92.80477424242427,91.0349014510398,81.05831582281729,86.03274564218925,55.002155808850546,59.97658562822251,50
5463.87,93.69147424242426,91.5470415483827,81.10273271165032,86.24917567672684,55.29786587165586,60.444308836732375,50
5657.23,93.49007424242427,91.3507367006524,80.84432974057877,85.96794149748033,55.38279520317208,60.50640696007363,50
5856.45,93.65207424242426,91.18761872466378,80.6971408426902,85.88733723499746,55.30028148966632,60.490477881973575,50
6062.99,93.39117424242427,90.81676525233283,80.38105232796478,85.62268434073128,55.194080911601546,60.43571292436805,50
6276.86,94.20837424242427,91.36725911197775,80.73677720100147,86.10330415628435,55.26395495569339,60.63048191097627,50
6498.05,94.55417424242428,91.5959503120659,81.11270424793871,86.42709078569071,55.168859526375186,60.48324606412719,50
6726.56,95.23087424242426,92.44995056115985,81.96671898411705,87.14021138741265,55.309739173747204,60.4832315770428,50
6963.87,96.19377424242427,93.52422688222876,82.82864924975591,88.01416459770456,55.510062284524196,60.69557763247285,50
7209.96,96.58337424242426,93.70529842220424,82.86388377237354,88.07114766499274,55.6341507572115,60.841414649830696,50
7464.84,95.99497424242426,92.91977278476968,82.15885191179842,87.37993037638977,55.53984240837991,60.760920872971255,50
7727.05,94.74597424242425,91.77605604378523,81.49825650538307,86.5659199028628,55.21013614092243,60.277799538402164,50
7999.51,92.87887424242426,90.87207970071799,81.51192612173732,86.28600758178476,54.58607211893323,59.36015357898067,50
