Freq "On Axis"
20.5078 56.9174
21.9727 55.7632
23.4375 57.63170000000001
24.9023 59.727999999999994
26.3672 60.515399999999985
27.832 61.58980000000001
29.2969 63.28609999999999
30.7617 63.924700000000016
32.2266 65.14300000000001
33.6914 66.1144
35.1562 67.16520000000001
36.6211 68.6092
38.0859 69.93479999999998
39.5508 71.07180000000001
41.0156 72.3038
42.4805 73.2991
43.9453 74.6686
45.4102 75.85709999999999
46.875 77.1413
48.3398 78.4662
51.2695 80.9638
52.7344 82.1998
54.1992 83.38600000000001
55.6641 84.4953
58.5938 86.16270000000002
60.0586 86.7763
62.9883 87.735
64.4531 88.01040000000002
67.3828 88.2725
68.8477 88.3422
71.7773 88.4386
74.707 88.46989999999998
77.6367 88.462
79.1016 88.4542
82.0312 88.4855
84.9609 88.5623
87.8906 88.5518
90.8203 88.664
95.2148 88.9226
98.1445 88.9955
101.074 88.9595
105.469 89.3218
108.398 89.6684
112.793 89.9559
117.188 90.2472
120.117 90.44190000000002
124.512 90.6903
128.906 90.8252
133.301 90.92739999999999
139.16 91.0166
143.555 91.0524
147.949 91.07959999999999
153.809 91.2506
159.668 91.3608
165.527 91.3923
171.387 91.2678
177.246 91.09420000000001
183.105 90.7619
188.965 90.8828
196.289 90.9526
203.613 90.8402
210.938 90.80810000000001
218.262 90.3253
225.586 90.431
232.91 90.3378
241.699 90.1977
250.488 90.4865
259.277 90.25790000000002
268.066 89.7614
276.855 89.5697
287.109 89.3536
297.363 90.0005
307.617 89.4147
319.336 89.5508
329.59 88.93329999999999
341.309 88.69540000000002
353.027 89.545
366.211 90.9607
379.395 89.8192
392.578 89.5079
405.762 89.45380000000002
420.41 89.6016
435.059 89.369
451.172 89.8285
465.82 89.3861
483.398 89.0932
499.512 89.3867
517.09 89.817
536.133 90.2951
555.176 90.0689
574.219 90.99049999999998
594.727 91.9344
615.234 92.1279
637.207 92.7253
659.18 92.0021
682.617 91.326
707.52 91.36060000000002
732.422 90.758
757.324 90.1578
785.156 89.8067
811.523 89.58829999999999
840.82 89.179
870.117 89.1891
900.879 89.138
933.105 89.89390000000002
965.332 90.426
1000.49 90.87589999999999
1035.64 91.484
1072.27 93.437
1108.89 93.872
1148.44 93.08470000000001
1189.45 93.0172
1230.47 93.83659999999999
1274.41 94.5755
1319.82 93.76449999999998
1366.7 91.47359999999999
1413.57 89.1971
1463.38 86.3244
1516.11 85.7718
1568.85 85.02060000000002
1624.51 83.1965
1681.64 82.3027
1741.7 82.69449999999999
1803.22 83.24829999999999
1866.21 82.678
1932.13 83.1136
1999.51 84.0921
2069.82 85.1444
2143.07 85.23280000000001
2219.24 85.4037
2296.88 86.8203
2378.91 87.15080000000002
2462.4 86.6954
2548.83 87.84340000000002
2639.65 88.9449
2731.93 87.9634
2828.61 88.60289999999999
2928.22 88.6858
3030.76 88.4243
3137.7 88.1146
3249.02 88.9465
3363.28 89.2227
3481.93 89.83049999999999
3604.98 89.95449999999998
3732.42 90.525
3864.26 90.2823
4000.49 91.7876
4141.11 92.725
4287.6 93.20380000000002
4438.48 93.3689
4595.21 93.97340000000001
4756.35 93.3838
4924.8 92.6964
5097.66 92.1667
5277.83 91.5931
5463.87 92.4798
5657.23 92.27840000000002
5856.45 92.4404
6062.99 92.1795
6276.86 92.99669999999999
6498.05 93.3425
6726.56 94.0192
6963.87 94.98210000000002
7209.96 95.3717
7464.84 94.78330000000001
7727.05 93.5343
7999.51 91.6672
8282.23 89.5279
8573.73 87.88699999999999
8876.95 88.1076
9188.96 89.0612
9514.16 89.4968
9849.61 91.6196
10196.8 93.86389999999999
10555.7 95.0386
10927.7 94.56499999999998
11313.0 93.9783
11712.9 94.3302
12126.0 95.1212
12553.7 95.17460000000001
12996.1 95.25359999999999
13454.6 94.0165
13929.2 92.1871
14419.9 90.6787
14928.2 90.02659999999999
15455.6 88.9966
16000.5 89.1327
16564.5 89.1127
17148.9 89.4057
17752.4 89.6107
18379.4 88.9114
19026.9 85.0836
19697.8 84.2109
19999.5 85.3459
