Freq "Total Early Reflection"
20.5078 52.330244524830974
23.4375 56.5268278294496
26.3672 62.649104229288255
29.2969 66.13715905811479
32.2266 71.39833015823166
35.1563 75.66249083047154
38.0859 80.0979137763685
41.0156 84.10657501436039
43.9453 87.66893319545157
46.875 90.35769268411508
49.8047 92.10831334643176
55.6641 93.40575303873702
58.5938 93.52709277389958
61.5234 93.43026658870427
67.3828 93.29690901505084
73.2422 93.27087161323279
76.1719 93.21955173642694
82.0313 93.23715560329376
87.8906 93.32166132302264
93.75 93.28423812476353
102.539 93.4697238375449
108.398 93.5632021404282
117.188 93.84542157524656
125.977 93.90554936549299
134.766 93.94159966777995
143.555 94.03373727316834
155.273 94.08305722280636
164.063 94.18906104829001
175.781 93.8260889671101
190.43 93.62746583460684
202.148 93.35303437545629
216.797 92.99645972792642
234.375 92.47515907201334
249.023 92.2177799649934
266.602 92.10016596046627
287.109 92.16323527676643
307.617 91.84184716197346
331.055 91.6546512711175
354.492 91.44428745822562
377.93 91.49684025086954
407.227 91.01510153610248
436.523 91.0201160587799
465.82 90.93855022717307
500.977 90.52731092090788
536.133 90.10051882985674
574.219 90.55873117729263
615.234 90.21720909393106
659.18 89.92290000639352
706.055 90.1875835566908
758.789 91.1976862315931
811.523 91.29862363923968
870.117 90.84838312326967
931.641 90.48308966590133
999.023 90.31344827713706
1072.27 89.99576399889334
1148.44 89.3999673374087
1230.47 89.88855271882932
1318.36 89.7625847345811
1415.04 89.55290344713744
1514.65 89.85396674973465
1623.05 90.46339850491691
1740.23 91.98384807608343
1866.21 90.46148138716187
2000.98 89.85630093312058
2144.53 89.96163606246816
2296.88 89.89686716981686
2460.94 90.58435433469369
2639.65 90.71154334671253
2827.15 90.90700129232862
3032.23 91.4268466171272
3249.02 92.21986708826242
3483.4 92.03212540840984
3732.42 91.50064893908493
3999.02 91.15100875896857
4286.13 91.10092136105548
4593.75 91.33321787693832
4924.8 91.58735785827879
5279.3 91.51428002917187
5657.23 90.75505242602267
6061.52 90.4532235729934
6498.05 90.72471719068608
6963.87 90.8199550047896
7464.84 89.9566345954599
8000.98 88.98515787695037
8575.2 90.51087561367216
9190.43 90.22255694600807
9849.61 89.49169791386461
10555.7 90.33520194228596
11314.5 90.23680243392953
12126.0 89.74683294010654
12996.1 90.15933488461646
13927.7 90.45938378330356
14929.7 91.20787223492802
15999.0 91.72930833532433
17147.5 91.01769811775144
18377.9 89.23591230031256
19699.2 87.01311049672206
19998.0 86.50249943324611
