Freq "Early Reflections"
20.5078 45.617805128883475
21.9727 48.50058964834733
23.4375 48.89554998910978
24.9023 50.68376301747551
26.3672 52.26553122554233
27.832 53.428510415435
29.2969 54.53911835374893
30.7617 56.12173345264276
32.2266 57.297338312258546
33.6914 58.69711047973226
35.1562 59.91759132959041
36.6211 61.143702189803804
38.0859 62.554198407113006
39.5508 63.75748320059948
41.0156 65.04947573197668
42.4805 66.53612776710237
43.9453 67.62371080350573
45.4102 68.8178863782651
46.875 69.89151490478163
48.3398 70.84871007702209
51.2695 72.816463624943
52.7344 73.80572317903042
54.1992 74.72987106232374
55.6641 75.54732083133072
58.5938 77.07124348490652
60.0586 77.77800625871713
62.9883 78.98456054812567
64.4531 79.59269442711482
67.3828 80.48130867413356
68.8477 80.80696651706403
71.7773 81.4791046077053
74.707 82.00301607642027
77.6367 82.30009949340351
79.1016 82.43225773329215
82.0312 82.75965263235226
84.9609 83.0080969237557
87.8906 83.07204304591782
90.8203 83.29504386777313
95.2148 83.53014080833417
98.1445 83.62857584309289
101.074 83.74056479904104
105.469 83.87225434280545
108.398 84.0480480292216
112.793 84.29846501818017
117.188 84.39203826073191
120.117 84.49812657793504
124.512 84.72655174748641
128.906 84.91612057348333
133.301 85.00735788478656
139.16 85.2214534261764
143.555 85.29944829887256
147.949 85.4338316055017
153.809 85.57687586222781
159.668 85.65254149186194
165.527 85.83691094459681
171.387 86.00257477975636
177.246 85.91024945045389
183.105 85.959622507495
188.965 86.2749637083547
196.289 86.26731313569456
203.613 86.3207110610183
210.938 86.26087319022392
218.262 86.25689379666721
225.586 86.29123196212142
232.91 86.21437809327341
241.699 86.13493933415275
250.488 86.3926144270963
259.277 86.16794908602705
268.066 86.16695142185709
276.855 86.1900890260535
287.109 86.07948094687228
297.363 86.1767850339276
307.617 86.02867505775035
319.336 86.01308830161447
329.59 85.83194358741136
341.309 85.74936650251618
353.027 85.7471819200077
366.211 85.98031333733975
379.395 85.85172900764617
392.578 85.55837498379849
405.762 85.511168651466
420.41 85.53848491463658
435.059 85.29924282205447
451.172 85.36238647318794
465.82 84.51582051559461
483.398 86.26840844630861
499.512 86.64714993872768
517.09 85.67630539542525
536.133 85.43423544819096
555.176 85.41071878315213
574.219 85.03385215450116
594.727 85.04953456497559
615.234 84.72263021385449
637.207 84.69777344518442
659.18 84.25686478702985
682.617 84.25097740447517
707.52 84.25330865536228
732.422 84.279511030471
757.324 84.62418375662475
785.156 84.29727076641392
811.523 85.56427594349258
840.82 85.83780631380982
870.117 86.03063273968367
900.879 85.68868430981149
933.105 85.25531332602864
965.332 85.07421905841913
1000.49 84.40625663682692
1035.64 83.90214058588523
1072.27 83.63133418387456
1108.89 83.3037111642587
1148.44 83.29608632210933
1189.45 83.17733480404355
1230.47 82.85249656119731
1274.41 82.30918041286618
1319.82 81.53212664558856
1366.7 81.0476504617727
1413.57 80.28447244985216
1463.38 80.58118538888344
1516.11 80.30381559894661
1568.85 80.41954595131911
1624.51 79.4938301085125
1681.64 78.46991746362865
1741.7 78.37244419614788
1803.22 78.42033776799339
1866.21 78.00385355659344
1932.13 77.73987133413625
1999.51 78.23362620002922
2069.82 78.71151585976165
2143.07 78.83152271749509
2219.24 79.28801851665396
2296.88 80.31984481813386
2378.91 80.3712232407296
2462.4 79.80237259848933
2548.83 80.95311871354721
2639.65 81.45013264452855
2731.93 80.62811056283444
2828.61 81.0297698288768
2928.22 81.44804863776464
3030.76 80.97003430834852
3137.7 80.74728921025282
3249.02 80.89877427252853
3363.28 80.88546021427257
3481.93 81.15988735298107
3604.98 81.30453961485215
3732.42 82.03322678742697
3864.26 82.31654918568273
4000.49 83.03018976854909
4141.11 83.22660402031521
4287.6 83.58725703950941
4438.48 83.62809516091585
4595.21 83.8916148887805
4756.35 84.25039532801043
4924.8 84.29745047460015
5097.66 84.73038790388003
5277.83 84.34151068165936
5463.87 84.4366448223611
5657.23 84.22446603593754
5856.45 84.20465787493438
6062.99 84.36438966892817
6276.86 84.82441521699043
6498.05 84.99513190381481
6726.56 84.67337789444235
6963.87 84.85567977520694
7209.96 84.32936609733778
7464.84 83.99129720259006
7727.05 83.61884894883693
7999.51 83.20152866757107
8282.23 83.74749649516137
8573.73 84.21465962447704
8876.95 84.27142172258067
9188.96 83.99078597454493
9514.16 83.53951709920887
9849.61 83.13605501950397
10196.8 82.7409583359308
10555.7 82.43796211377312
10927.7 82.21836424323408
11313.0 82.07520707619103
11712.9 81.81785363337212
12126.0 81.44030086448393
12553.7 81.19814831484622
12996.1 80.97779535571495
13454.6 80.77500419607048
13929.2 80.40569071673184
14419.9 79.92043556331848
14928.2 80.14465812826761
15455.6 80.39789219344979
16000.5 80.2018684752936
16564.5 79.53586984310097
17148.9 78.22047018378206
17752.4 76.4711118822212
18379.4 75.02843774628644
19026.9 73.45131103915787
19697.8 71.81267419142986
19999.5 71.53422965066156
