Freq "Sound Power"
23.6 57.63127497945884
24.3 57.65664512295575
25.0 57.68135013892015
25.8 57.708818490210845
26.5 57.732220456826056
27.2 57.75505541642595
28.0 57.78049772622937
29.0 57.81308568029404
30.0 57.85007551675427
30.7 57.8776067808537
31.5 57.90915221558046
32.5 57.947620497844966
33.5 57.98504704367572
34.5 58.022334441896234
35.5 58.06204972408362
36.5 58.104736499846254
37.5 58.14803367020147
38.7 58.19867370679283
40.0 58.25239685954082
41.2 58.30357441029055
42.5 58.362738424882664
43.7 58.41786493294747
45.0 58.47615053286212
46.2 58.52979735959808
47.5 58.5898466697212
48.7 58.646994711902025
50.0 58.70886230618562
51.5 58.77895683232653
53.0 58.849916239916894
54.5 58.92295206241792
56.0 58.99609038469265
58.0 59.09246034428344
60.0 59.190379900240956
61.5 59.26407637495153
63.0 59.33727964662674
65.0 59.434859276008126
67.0 59.53319173352641
69.0 59.630825814755426
71.0 59.72807745113518
73.0 59.82535683461637
75.0 59.922027752346054
77.5 60.041942041746324
80.0 60.16087007498216
82.5 60.278508636018145
85.0 60.3950947984719
87.5 60.5102429179765
90.0 60.623998453696075
92.5 60.73621994280775
95.0 60.846777672889814
97.5 60.95567124703358
100.0 61.06285910965251
103.0 61.18918602675595
106.0 61.31290190409993
109.0 61.43398701456586
112.0 61.55237941299703
115.0 61.668078001537694
118.0 61.78105405899076
122.0 61.92743792476338
125.0 62.03405577464146
128.0 62.13790680489646
132.0 62.272158433451196
136.0 62.401726593116464
140.0 62.5265582046453
145.0 62.6758700984673
150.0 62.81806025506869
155.0 62.95334811848629
160.0 63.08186845208533
165.0 63.203835016023675
170.0 63.31924850052779
175.0 63.428133550964574
180.0 63.53076520792678
185.0 63.62752179870206
190.0 63.71857768986419
195.0 63.80413978433948
200.0 63.88421590591632
206.0 63.97329378147437
212.0 64.05516006436535
218.0 64.130134143641
224.0 64.19851633903832
230.0 64.26064490836832
236.0 64.31677148618736
243.0 64.37523654686476
250.0 64.42681488317315
258.0 64.47802905480513
265.0 64.51651945231667
272.0 64.54963961145658
280.0 64.58187674348433
290.0 64.6152290407134
300.0 64.64251953326924
307.0 64.65866731069667
315.0 64.67467671339618
325.0 64.69228170524995
335.0 64.70813884604969
345.0 64.72286350294505
355.0 64.73684261004631
365.0 64.7501418505229
375.0 64.7624572748015
387.0 64.7751198186434
400.0 64.78485451407668
412.0 64.78830586267385
425.0 64.7839931129606
437.0 64.77059736545239
450.0 64.74413009599047
462.0 64.70727402925267
475.0 64.65298842279773
487.0 64.58944326440239
500.0 64.50638697038805
515.0 64.39519096032937
530.0 64.27145101577146
545.0 64.14022378933865
560.0 64.00805086112284
580.0 63.84160806800355
600.0 63.69803880221335
615.0 63.61103379535672
630.0 63.54463873267889
650.0 63.4842067098666
670.0 63.44861291322981
690.0 63.428656515832515
710.0 63.414519765593255
730.0 63.399024086718896
750.0 63.37839893572965
775.0 63.34618887160434
800.0 63.312340969471975
825.0 63.283065066729876
850.0 63.26146751973741
875.0 63.24500632868609
900.0 63.22701443309515
925.0 63.20036537439405
950.0 63.16150241714283
975.0 63.11260625369793
1000.0 63.061117217316664
1030.0 63.00820781540787
1060.0 62.97372095646652
1090.0 62.95434512689708
1120.0 62.933515115683136
1150.0 62.88944802541583
1180.0 62.80500148705772
1220.0 62.63448827995042
1250.0 62.48299603326423
1280.0 62.332556347826525
1320.0 62.1594549232303
1360.0 62.01522520118364
1400.0 61.870570460157694
1450.0 61.65991768442727
1500.0 61.43578774828522
1550.0 61.24410240600032
1600.0 61.090753330423766
1650.0 60.94189667145743
1700.0 60.79127508824854
1750.0 60.681807461907994
1800.0 60.646494350607
1850.0 60.660431601958834
1900.0 60.678455607883166
1950.0 60.69535385115162
2000.0 60.736294280348574
2060.0 60.81561821174235
2120.0 60.88433542515462
2180.0 60.93444385463381
2240.0 61.0026619702317
2300.0 61.09437537116713
2360.0 61.18814008362058
2430.0 61.311991312297195
2500.0 61.48372113598272
2580.0 61.713840636310834
2650.0 61.9018087623641
2720.0 62.062860686611785
2800.0 62.226635017728086
2900.0 62.42130814913641
3000.0 62.57048703700913
3070.0 62.65196059338605
3150.0 62.74765816642089
3250.0 62.872439094333416
3350.0 62.97778961486034
3450.0 63.05002863569844
3550.0 63.054973628592066
3650.0 63.042385335036826
3750.0 63.06706555008758
3870.0 63.17169299961216
4000.0 63.411950800585245
4120.0 63.68474455373364
4250.0 63.908734993632535
4370.0 63.990115529634465
4500.0 63.947184236859144
4620.0 63.83797092868579
4750.0 63.67260080996816
4870.0 63.45371638747564
5000.0 63.17304569933842
5150.0 62.83731020578766
5300.0 62.57755032045917
5450.0 62.487481109145236
5600.0 62.51889537343064
5800.0 62.40233101741977
6000.0 62.00795827445573
6150.0 61.75768267498037
6300.0 61.6243244072856
6500.0 61.506189609486
6700.0 61.367892169645046
6900.0 61.25141510871221
7100.0 61.119424560250096
7300.0 60.9478081561535
7500.0 60.74445943019501
7750.0 60.384286175931265
8000.0 60.01375461977783
8250.0 59.917590143170955
8500.0 59.845892456861975
8750.0 59.601199841755445
9000.0 59.469643494002796
9250.0 59.410506153730296
9500.0 59.18430620700455
9750.0 58.954826971963755
10000.0 58.81714110330263
10300.0 58.54515745825029
10600.0 58.19463447283874
10900.0 57.96292150565918
11200.0 57.72201504300648
11500.0 57.47075148237131
11800.0 57.348646206567494
12200.0 57.217196453562096
12500.0 57.11237156214007
12800.0 57.01587667870321
13200.0 56.88820210084032
13600.0 56.75531347678627
14000.0 56.64158110306896
14500.0 56.54113178996799
15000.0 56.613401865013515
15500.0 56.68166763787798
16000.0 56.418633806301116
16500.0 55.89516564734353
17000.0 55.91444361762558
17500.0 56.582347992625245
18000.0 56.71834892844514
18500.0 56.1815838309343
19000.0 55.65791536930706
19500.0 55.19957421805792
