Freq,On Axis,Listening Window,Sound Power,Early Reflections,Early Reflections DI,Sound Power DI,DI offset
20.5078,57.585697913736524,57.585697913736524,57.585697913736524,57.585697913736524,40.0,40.0,40
21.9727,59.58969791373654,59.58969791373654,59.58969791373654,59.58969791373654,40.0,40.0,40
23.4375,61.605697913736535,61.605697913736535,61.605697913736535,61.605697913736535,40.0,40.0,40
24.9023,62.87469791373654,62.87469791373654,62.87469791373654,62.87469791373654,40.0,40.0,40
26.3672,64.66369791373654,64.66369791373654,64.66369791373654,64.66369791373654,40.0,40.0,40
27.832,66.60669791373654,66.60669791373654,66.60669791373654,66.60669791373654,40.0,40.0,40
29.2969,68.46069791373654,68.46069791373654,68.46069791373654,68.46069791373654,40.0,40.0,40
30.7617,70.18769791373656,70.18769791373656,70.18769791373656,70.18769791373656,40.0,40.0,40
32.2266,71.90669791373654,71.90669791373654,71.90669791373654,71.90669791373654,40.0,40.0,40
33.6914,73.63869791373654,73.63869791373654,73.63869791373654,73.63869791373654,40.0,40.0,40
35.1562,75.25169791373655,75.25169791373655,75.25169791373655,75.25169791373655,40.0,40.0,40
36.6211,76.45969791373653,76.45969791373653,76.45969791373653,76.45969791373653,40.0,40.0,40
38.0859,77.75869791373654,77.75869791373654,77.75869791373654,77.75869791373654,40.0,40.0,40
39.5508,78.93069791373652,78.93069791373652,78.93069791373652,78.93069791373652,40.0,40.0,40
41.0156,80.00569791373654,80.00569791373654,80.00569791373654,80.00569791373654,40.0,40.0,40
42.4805,80.97869791373654,80.97869791373654,80.97869791373654,80.97869791373654,40.0,40.0,40
43.9453,81.81269791373654,81.81269791373654,81.81269791373654,81.81269791373654,40.0,40.0,40
45.4102,82.48069791373653,82.48069791373653,82.48069791373653,82.48069791373653,40.0,40.0,40
46.875,82.90669791373654,82.90669791373654,82.90669791373654,82.90669791373654,40.0,40.0,40
48.3398,83.27869791373654,83.27869791373654,83.27869791373654,83.27869791373654,40.0,40.0,40
51.2695,83.70169791373654,83.70169791373654,83.70169791373654,83.70169791373654,40.0,40.0,40
52.7344,83.81569791373654,83.81569791373654,83.81569791373654,83.81569791373654,40.0,40.0,40
54.1992,83.89869791373654,83.89869791373654,83.89869791373654,83.89869791373654,40.0,40.0,40
55.6641,83.97069791373653,83.97069791373653,83.97069791373653,83.97069791373653,40.0,40.0,40
58.5938,84.09669791373653,84.09669791373653,84.09669791373653,84.09669791373653,40.0,40.0,40
60.0586,84.16469791373653,84.16469791373653,84.16469791373653,84.16469791373653,40.0,40.0,40
62.9883,84.27569791373655,84.27569791373655,84.27569791373655,84.27569791373655,40.0,40.0,40
64.4531,84.32069791373654,84.32069791373654,84.32069791373654,84.32069791373654,40.0,40.0,40
67.3828,84.42169791373654,84.42169791373654,84.42169791373654,84.42169791373654,40.0,40.0,40
68.8477,84.49169791373653,84.49169791373653,84.49169791373653,84.49169791373653,40.0,40.0,40
71.7773,84.66469791373653,84.66469791373653,84.66469791373653,84.66469791373653,40.0,40.0,40
74.707,84.86269791373654,84.86269791373654,84.86269791373654,84.86269791373654,40.0,40.0,40
77.6367,85.05369791373654,85.05369791373654,85.05369791373654,85.05369791373654,40.0,40.0,40
79.1016,85.16069791373654,85.16069791373654,85.16069791373654,85.16069791373654,40.0,40.0,40
82.0312,85.37769791373653,85.37769791373653,85.37769791373653,85.37769791373653,40.0,40.0,40
84.9609,85.58969791373654,85.58969791373654,85.58969791373654,85.58969791373654,40.0,40.0,40
87.8906,85.77569791373652,85.77569791373652,85.77569791373652,85.77569791373652,40.0,40.0,40
90.8203,85.96569791373653,85.96569791373653,85.96569791373653,85.96569791373653,40.0,40.0,40
95.2148,86.21669791373652,86.21669791373652,86.21669791373652,86.21669791373652,40.0,40.0,40
98.1445,86.35169791373654,86.35169791373654,86.35169791373654,86.35169791373654,40.0,40.0,40
101.074,86.48269791373653,86.48269791373653,86.48269791373653,86.48269791373653,40.0,40.0,40
105.469,86.63769791373653,86.63769791373653,86.63769791373653,86.63769791373653,40.0,40.0,40
108.398,86.71069791373654,86.71069791373654,86.71069791373654,86.71069791373654,40.0,40.0,40
112.793,86.79769791373654,86.79769791373654,86.79769791373654,86.79769791373654,40.0,40.0,40
117.188,86.85169791373653,86.85169791373653,86.85169791373653,86.85169791373653,40.0,40.0,40
120.117,86.87569791373652,86.87569791373652,86.87569791373652,86.87569791373652,40.0,40.0,40
124.512,86.91069791373654,86.91069791373654,86.91069791373654,86.91069791373654,40.0,40.0,40
128.906,86.90769791373654,86.90769791373654,86.90769791373654,86.90769791373654,40.0,40.0,40
133.301,86.82969791373654,86.82969791373654,86.82969791373654,86.82969791373654,40.0,40.0,40
139.16,86.67269791373654,86.67269791373654,86.67269791373654,86.67269791373654,40.0,40.0,40
143.555,86.60169791373652,86.60169791373652,86.60169791373652,86.60169791373652,40.0,40.0,40
147.949,86.55769791373653,86.55769791373653,86.55769791373653,86.55769791373653,40.0,40.0,40
300.0,85.23701136782778,84.85876326536345,82.85211001348816,83.9445830619514,40.914180203412045,42.00665325187529,40
307.0,85.26344921435518,84.88924641954115,82.83673306092483,83.95646967124367,40.932776748297485,42.052513358616324,40
315.0,85.28950355947401,84.91991589481604,82.81475010545515,83.96582379336822,40.95409210144783,42.105165789360896,40
325.0,85.31780955998586,84.95394052050737,82.78349132302539,83.97349820741537,40.980442313092,42.170449197481986,40
335.0,85.34307238335988,84.98471601364253,82.7503392453714,83.97864606400559,41.00606994963694,42.23437676827112,40
345.0,85.366862776351,85.01371056764974,82.71733933093239,83.98300478053919,41.03070578711055,42.29637123671735,40
355.0,85.39054213633975,85.04213210507552,82.68637978137009,83.98812868960722,41.0540034154683,42.35575232370543,40
365.0,85.41533544897457,85.07101173550893,82.65883051536292,83.99517232282058,41.07583941268835,42.41218122014601,40
375.0,85.44210096116196,85.1011635281452,82.63575456195655,84.00503460122432,41.09612892692087,42.46540896618865,40
387.0,85.47744010467221,85.13952804311714,82.6145547143321,84.02107138285405,41.11845666026309,42.52497332878504,40
400.0,85.51985115320458,85.18382595666682,82.59919891894877,84.04334854535422,41.1404774113126,42.58462703771805,40
412.0,85.56219089040017,85.22688938071228,82.59110614931801,84.06766662435064,41.15922275636164,42.63578323139427,40
425.0,85.6104751919111,85.2749761824721,82.58714765816198,84.09656894369797,41.17840723877413,42.68782852431012,40
437.0,85.6558663499976,85.31956234679286,82.58589530473294,84.12394739487492,41.195614951917946,42.73366704205992,40
450.0,85.70444405277642,85.36691833256832,82.58493082340459,84.15247200323212,41.2144463293362,42.78198750916373,40
462.0,85.74736841291625,85.4085419563197,82.58235087299049,84.17602500501127,41.232516951308426,42.826191083329206,40
475.0,85.79095854603229,85.45059825891857,82.57600830768972,84.19709891858972,41.25349934032886,42.874589951228856,40
487.0,85.82795291036912,85.48594913022295,82.5656792860381,84.2114692189928,41.274479911230145,42.920269844184844,40
500.0,85.86469486141283,85.52032549916576,82.54895115435174,84.2210690423359,41.299256456829866,42.97137434481402,40
515.0,85.90380265504473,85.55557736685743,82.52292534610812,84.2250057924229,41.33057157443453,43.03265202074931,40
530.0,85.94092842439787,85.58711195772692,82.49083917733438,84.22260734792303,41.36450460980389,43.09627278039254,40
545.0,85.97805905309644,85.61655419316342,82.4545696577851,84.215906479314,41.40064771384942,43.16198453537832,40
560.0,86.01756891012876,85.64595563420471,82.41647237371633,84.20751139092629,41.438444243278425,43.22948326048838,40
580.0,86.07593701520376,85.68774927586973,82.36680298480313,84.19788759462529,41.48986168124445,43.320946291066605,40
600.0,86.14199939909473,85.73453337496971,82.32141387271757,84.19353032258981,41.54100305237991,43.413119502252144,40
615.0,86.1958617170332,85.7730505447107,82.29027606803137,84.19436533630505,41.578685208405645,43.482774476679324,40
630.0,86.25148272764733,85.81340140370602,82.26004482659613,84.19766941076591,41.61573199294011,43.553356577109895,40
650.0,86.32226252214592,85.8656113828184,82.21656293435667,84.20137262268751,41.664238760130885,43.64904844846173,40
670.0,86.38000061879093,85.90874286517048,82.16179673306901,84.19659319230108,41.7121496728694,43.74694613210147,40
690.0,86.41397688556911,85.93399062670993,82.08664935674618,84.17385639007442,41.76013423663551,43.84734126996375,40
710.0,86.41370849808685,85.93221044693509,81.98265483524538,84.12371551415443,41.80849493278066,43.9495556116897,40
730.0,86.37122207079302,85.89587701852876,81.84358564281551,84.03866967018169,41.857207348347075,44.05229137571325,40
750.0,86.27994576607007,85.81825817730356,81.66490757262922,83.91275460202056,41.90550357528301,44.153350604674344,40
775.0,86.09913482885753,85.66273559362584,81.38909630670543,83.69943524652852,41.96330034709732,44.273639286920414,40
800.0,85.85354477805124,85.44758383517599,81.06489565860899,83.43285738543305,42.01472644974294,44.382688176567,40
825.0,85.55934100442005,85.18371936671512,80.70662255870083,83.12789447784526,42.055824888869864,44.477096808014295,40
850.0,85.24237118201016,84.89015039021841,80.33383034876196,82.80626221365674,42.08388817656167,44.556320041456445,40
875.0,84.93186466168041,84.5897547195958,79.96622843058091,82.4906322559928,42.09912246360301,44.62352628901489,40
900.0,84.65407105898183,84.30456413700132,79.62040391930488,82.1998737945995,42.104690342401824,44.684160217696444,40
925.0,84.42546418723946,84.05197046666396,79.30827633215553,81.94628679175497,42.10568367490899,44.74369413450843,40
950.0,84.25065661760826,83.8422570982489,79.03701157298242,81.73511629044577,42.10714080780312,44.80524552526647,40
975.0,84.12466492252547,83.6789633286542,78.81006001961092,81.56653211547992,42.11243121317429,44.86890330904329,40
1000.0,84.04019247151844,83.56242893109346,78.62912209230059,81.4391159961486,42.12331293494486,44.93330683879287,40
1030.0,83.98600084310901,83.48070188941074,78.47019913257854,81.336476933489,42.14422495592174,45.010502756832196,40
1060.0,83.98380024073465,83.45948102783674,78.36927279948918,81.28508638327766,42.17439464455909,45.090208228347564,40
1090.0,84.0398644965126,83.49619527767807,78.31679052383578,81.28007113900223,42.21612413867584,45.17940475384229,40
1120.0,84.1541462902861,83.58183534858127,78.29685505620672,81.31021419839091,42.271621150190356,45.28498029237454,40
1150.0,84.3136153958763,83.70055608620773,78.29275274283886,81.35990369464942,42.34065239155831,45.40780334336887,40
1180.0,84.49411005241122,83.83232414991163,78.29197350268254,81.41336262186181,42.41896152804982,45.54035064722909,40
1220.0,84.72860403097597,84.00128797239782,78.2899701910386,81.47556310344108,42.52572486895674,45.71131778135921,40
1250.0,84.88167194498254,84.11256801400528,78.29025776170111,81.5115336515276,42.60103436247768,45.82231025230416,40
1280.0,85.01189576795262,84.21138466023508,78.29759816746325,81.53963402266842,42.67175063756666,45.913786492771834,40
1320.0,85.16234179832468,84.33748528013676,78.32747740327211,81.57247062284422,42.76501465729254,46.01000787686465,40
1360.0,85.30370919180181,84.47435274785443,78.38092557540269,81.60235156457611,42.872001183278314,46.09342717245174,40
1400.0,85.45400707376334,84.6379149255561,78.44726021450599,81.62367277483229,43.01424215072382,46.190654711050115,40
1450.0,85.6843603755771,84.89897893077132,78.53493159030789,81.64136422013136,43.257614710639956,46.36404734046343,40
1500.0,86.00726052566965,85.24699016457963,78.63266962090695,81.671193097364,43.57579706721563,46.614320543672676,40
1550.0,86.44077115280218,85.6816131991367,78.77007340943993,81.74944656106403,43.93216663807267,46.911539789696775,40
1600.0,86.92618773969231,86.14655398194643,78.9591625650472,81.89175632818127,44.25479765376515,47.18739141689923,40
1650.0,87.36316188289958,86.56027948875612,79.16451513138946,82.07234201808365,44.48793747067248,47.39576435736666,40
1700.0,87.68989060380149,86.87323976396651,79.34379868343409,82.25252129974183,44.62071846422468,47.52944108053242,40
1750.0,87.9188733723357,87.09314277391373,79.4930796307312,82.41672021453776,44.676422559375965,47.600063143182524,40
1800.0,88.09649716331201,87.2569621866025,79.62881128442955,82.56268358387494,44.69427860272755,47.62815090217295,40
1850.0,88.24301442327025,87.38553552273437,79.75089532945469,82.6754743163525,44.710061206381866,47.63464019327968,40
1900.0,88.34199577636183,87.47333480072089,79.8412028016238,82.73330427864367,44.74003052207722,47.6321319990971,40
1950.0,88.3852446324417,87.52018142371544,79.89042988049239,82.73348458046836,44.786696843247086,47.62975154322305,40
2000.0,88.40915335693306,87.5589163270665,79.92481496765231,82.71236174658242,44.84655458048408,47.63410135941419,40
2060.0,88.47362992057639,87.64609444664625,80.00928444041122,82.72633986266608,44.919754583980165,47.636810006235024,40
2120.0,88.57831447271062,87.777600125241,80.16666128521544,82.80678596473054,44.97081416051046,47.610938840025554,40
2180.0,88.67101603913359,87.90346396665123,80.36156261712033,82.93563003616157,44.96783393048966,47.5419013495309,40
2240.0,88.74620996389305,88.00473843008689,80.56240786099937,83.09672418885656,44.90801424123033,47.44233056908752,40
2300.0,88.84209452560562,88.10303317574494,80.76480854571555,83.284927489311,44.81810568643394,47.33822463002939,40
2360.0,88.94631053324606,88.19464702300806,80.96324605683293,83.47918315326851,44.71546386973955,47.23140096617513,40
2430.0,89.02311746046047,88.26298617684964,81.18673011133932,83.69420067128992,44.56878550555972,47.07625606551032,40
2500.0,89.06834578290797,88.3062657228328,81.40731698963893,83.9039117899493,44.4023539328835,46.898948733193876,40
2580.0,89.13299775710884,88.36475972719514,81.64588839019979,84.13332956194537,44.23143016524976,46.71887133699535,40
2650.0,89.15447177095824,88.40189770584973,81.82655393901132,84.2978447976031,44.10405290824663,46.575343766838415,40
2720.0,89.14130265608998,88.43681208069023,82.00707049190056,84.44934509240669,43.98746698828354,46.42974158878967,40
2800.0,89.11169407674188,88.48892268098595,82.20702448646281,84.6169616743926,43.87196100659335,46.28189819452314,40
2900.0,88.99427914076075,88.50916067084346,82.3687729496369,84.75804068056868,43.75111999027477,46.14038772120655,40
3000.0,88.84228346020777,88.51224023676347,82.49866532296254,84.87763162897573,43.63460860778774,46.01357491380094,40
3070.0,88.81706589387578,88.57036659609606,82.5824192335778,84.9681055660763,43.60226103001976,45.98794736251827,40
3150.0,88.8288924625197,88.65461672345195,82.63281262401222,85.04736025282493,43.60725647062702,46.021804099439734,40
3250.0,88.83445942395142,88.7329002618849,82.65673484571884,85.13303534702077,43.59986491486413,46.07616541616605,40
3350.0,88.8142165253943,88.78090126209788,82.678320864462,85.23101307265408,43.549888189443806,46.10258039763589,40
3450.0,88.70506438720994,88.74796435973617,82.65862924815886,85.29120227765505,43.45676208208113,46.08933511157731,40
3550.0,88.60885606846897,88.68153971218568,82.61255913556528,85.33049519488519,43.351044517300494,46.068980576620405,40
3650.0,88.54732695778584,88.59941933569728,82.53675993286808,85.34991526237984,43.24950407331744,46.0626594028292,40
3750.0,88.53068839243636,88.53758451535683,82.4626665646495,85.37583069405062,43.161753821306206,46.07491795070733,40
3870.0,88.58287420757307,88.52474395806054,82.41519825140357,85.4379708073743,43.08677315068624,46.109545706656974,40
4000.0,88.60429979019365,88.51009119932145,82.37584578064384,85.48456639884292,43.025524800478536,46.13424541867761,40
4120.0,88.57416932953076,88.49271103272642,82.32639409202245,85.48471326127965,43.00799777144677,46.166316940703965,40
4250.0,88.55745706033959,88.48614432965576,82.26198440130234,85.44945010077151,43.036694228884244,46.224159928353416,40
4370.0,88.61732072693691,88.47958735413526,82.18666603850367,85.38271458178708,43.09687277234818,46.29292131563159,40
4500.0,88.74146933353173,88.4426707306523,82.07174614336498,85.27307566441648,43.169595066235814,46.37092458728732,40
4620.0,88.92055269333189,88.4040411955735,81.94967893993775,85.18567946430501,43.21836173126849,46.45436225563574,40
4750.0,89.16061091378339,88.39828850455807,81.82791807313757,85.13991814445716,43.25837036010091,46.5703704314205,40
4870.0,89.40074907900376,88.454059980782,81.78403373614414,85.17348540482084,43.28057457596117,46.67002624463787,40
5000.0,89.63663054024175,88.53654293970455,81.78874047751628,85.25020918517654,43.286333754528,46.74780246218826,40
5150.0,89.80632173432737,88.58055641211436,81.80243069430072,85.32688497868727,43.25367143342709,46.77812571781364,40
5300.0,89.6929680809135,88.4395957068384,81.7280635330621,85.28771650479128,43.15187920204713,46.711532173776305,40
5450.0,89.29197925590836,88.11309153860809,81.57237077001558,85.13979952902648,42.97329200958161,46.54072076859251,40
5600.0,88.92764999857343,87.87182821909425,81.46129738639843,85.04489188724719,42.826936331847065,46.41053083269583,40
5800.0,88.98678762841796,88.04812778274953,81.55273407271697,85.23286617792839,42.815261604821146,46.49539371003256,40
6000.0,89.36616371325756,88.4213307972594,81.62530592345006,85.45987886772294,42.961451929536466,46.796024873809344,40
6150.0,89.51942700692436,88.53925045736945,81.5022819973939,85.42427087625377,43.114979581115676,47.036968459975554,40
6300.0,89.54377045574222,88.51400686028038,81.27953719902563,85.25154008153673,43.262466778743644,47.23446966125475,40
6500.0,89.5591768981993,88.43006216348016,81.02764426697252,85.05238853549785,43.377673627982304,47.40241789650764,40
6700.0,89.5932372433606,88.35787673265011,80.87002461848627,84.97632904860497,43.381547684045145,47.48785211416384,40
6900.0,89.54030036015426,88.23532006421415,80.65735439042824,84.8514168937062,43.38390317050795,47.57796567378591,40
7100.0,89.32418990701905,88.03243038374227,80.37381975076492,84.58532046237886,43.447109921363406,47.65861063297734,40
7300.0,89.00969377332699,87.78559502298017,80.10331289555997,84.26395088673476,43.52164413624541,47.68228212742021,40
7500.0,88.69369402961958,87.50964263057149,79.80803152524425,83.91614381177855,43.59349881879294,47.701611105327245,40
7750.0,88.4121745173015,87.23187491766168,79.46170436135473,83.54099998261215,43.690874935049536,47.77017055630695,40
8000.0,88.28851526876689,87.14099653722876,79.32390946445062,83.41437659357634,43.72661994365242,47.817087072778136,40
8250.0,88.1164787383514,86.98549555007993,79.16072341075336,83.30189041392623,43.6836051361537,47.82477213932657,40
8500.0,87.94076948591383,86.71753641682001,78.89337729743335,83.08927179208108,43.62826462473893,47.824159119386664,40
8750.0,87.95882823339439,86.58115749901314,78.75512777373973,82.99778630711188,43.583371191901264,47.826029725273415,40
9000.0,87.96867971433544,86.46957756928515,78.60046917759632,82.90535082795286,43.56422674133229,47.869108391688826,40
9250.0,87.80975986504944,86.26322710843614,78.24079493843796,82.62377019307795,43.639456915358195,48.02243216999818,40
9500.0,87.80381582265885,86.24715444063136,77.97526746186409,82.42898537378817,43.8181690668432,48.27188697876727,40
9750.0,88.00426671852618,86.44841977514666,77.9314148340383,82.42989373173118,44.01852604341548,48.517004941108354,40
10000.0,88.03565917495095,86.4942843113628,77.79580028961436,82.32757477561643,44.16670953574638,48.69848402174844,40
10300.0,87.83608785891126,86.30822959621956,77.46610738588144,82.05403792917305,44.25419166704651,48.84212221033812,40
10600.0,87.75914549904614,86.21810152808594,77.25659633618406,81.91780732008714,44.3002942079988,48.96150519190188,40
10900.0,87.72090596613869,86.15479535364588,77.01919688648228,81.7491360032261,44.40565935041978,49.135598467163604,40
11200.0,87.67303063197686,86.071575638057,76.69517848893783,81.48629651220492,44.58527912585208,49.37639714911917,40
11500.0,87.7564859848562,86.11378873359705,76.52274948779336,81.35668490107189,44.75710383252516,49.591039245803685,40
