Freq,On Axis,Listening Window,Sound Power,Early Reflections,Early Reflections DI,Sound Power DI,DI offset
20.5078,55.73110000000001,55.296297199295495,56.10932749190577,55.498903587522065,39.79739361177343,39.18696970738972,40
21.9727,58.3446,57.959347249337654,58.03111900316303,57.775672114726135,40.18367513461152,39.928228246174626,40
23.4375,59.04430000000001,58.65854362918945,59.84844323291627,59.08739195229985,39.5711516768896,38.810100396273185,40
24.9023,60.76359999999998,60.44397941720557,62.11965260855048,61.187993179979046,39.25598623722652,38.32432680865509,40
26.3672,62.1135,61.871012555432216,64.25015740415198,63.08219622319011,38.78881633224211,37.62085515128024,40
27.832,64.1236,63.978701571970305,66.53654015131329,65.33973266391276,38.63896890805755,37.442161420657015,40
29.2969,66.236,66.16295359820879,68.58726795687181,67.4660691991588,38.69688439904999,37.575685641336975,40
30.7617,68.3129,68.28498555674454,70.45880563514343,69.44476008045719,38.84022547628736,37.82617992160111,40
32.2266,70.0016,70.00143084208452,72.0311191880058,71.08310684885113,38.918323993233386,37.970311654078714,40
33.6914,71.6163,71.63324809976817,73.45124131104619,72.59323597662625,39.04001212314192,38.18200678872198,40
35.1562,72.9586,72.98584571898304,74.62702547494845,73.84434548549993,39.141500233483114,38.35882024403459,40
36.6211,74.158,74.1904365763453,75.66938047533408,74.96115916288075,39.22927741346456,38.521056101011226,40
38.0859,75.24419999999999,75.2775557628878,76.58071437419676,75.94923754822265,39.328318214665146,38.69684138869104,40
39.5508,75.9576,75.99351544036254,77.21255827310762,76.61920166868798,39.374313771674565,38.780957167254925,40
41.0156,76.6597,76.696856547624,77.83487635339931,77.27751445989033,39.41934208773367,38.861980194224685,40
42.4805,77.3028,77.3395363215126,78.37013225661373,77.85986014146309,39.47967618004951,38.96940406489887,40
43.9453,77.92369999999998,77.95909286568381,78.89631443749589,78.42728596650825,39.531806899175564,39.062778428187926,40
45.4102,78.4792,78.5147123981126,79.39453821907027,78.95179827961701,39.562914118495584,39.12017417904232,40
46.875,79.0279,79.06251334080739,79.88010243292037,79.46529341615428,39.5972199246531,39.18241090788702,40
48.3398,79.4738,79.50716314562278,80.25908332161754,79.87425616562906,39.63290697999372,39.248079824005245,40
51.2695,80.3466,80.37728103611789,81.01559650989809,80.68310313328293,39.694177902834966,39.361684526219804,40
52.7344,80.7934,80.82269538939921,81.41245178669026,81.1027400035081,39.71995538589111,39.41024360270896,40
54.1992,81.2029,81.23122499619221,81.78152059506921,81.49041457582088,39.74081042037133,39.449704401123,40
55.6641,81.5928,81.61968813075758,82.12395063242089,81.85436054849316,39.76532758226442,39.495737498336695,40
58.5938,82.2952,82.31935562868297,82.73929140405643,82.5089726008493,39.810383027833666,39.58006422462654,40
60.0586,82.6144,82.63569468518784,82.98941048538516,82.78925855424941,39.84643613093843,39.64628419980268,40
62.9883,83.2594,83.28070360424549,83.61733662886272,83.42513642925424,39.85556717499125,39.66336697538277,40
64.4531,83.5715,83.59185879493762,83.90709209757411,83.724271957266,39.867586837671624,39.684766697363514,40
67.3828,84.10879999999999,84.12625566206654,84.38193170490685,84.2260760455636,39.90017961650294,39.74432395715969,40
68.8477,84.325,84.34103967266786,84.56989531078247,84.42621350961193,39.914826163055935,39.77114436188539,40
71.7773,84.7903,84.80354661761207,84.97061290079704,84.85703954482695,39.946507072785124,39.832933716815035,40
74.707,85.1762,85.18753442387553,85.30514575079796,85.2163193148961,39.971215108979436,39.88238867307757,40
77.6367,85.4027,85.41206755753414,85.49077049373099,85.41999251537693,39.99207504215721,39.92129706380315,40
79.1016,85.4694,85.47769991661627,85.54100100945224,85.4771338243405,40.000566092275776,39.93669890716403,40
82.0312,85.6137,85.61998847169279,85.6470205073247,85.59999128376097,40.01999718793182,39.972967964368095,40
84.9609,85.7077,85.71243262787935,85.70359963892673,85.67380621481077,40.038626413068584,40.00883298895262,40
87.8906,85.74469999999998,85.7524336090758,85.8673500235663,85.77135381963504,39.981079789440756,39.88508358550949,40
90.8203,86.07090000000001,86.06559892561546,85.87585340584081,85.93447606820597,40.131122857409494,40.18974551977465,40
95.2148,85.8527,85.85162691143401,85.803807718544,85.78872019449615,40.06290671693786,40.04781919289002,40
98.1445,85.8232,85.82008492245897,85.74756066980952,85.74393924304088,40.07614567941809,40.07252425264946,40
101.074,85.82870000000001,85.82193988766223,85.71320295180918,85.72562507813292,40.096314809529304,40.108736935853045,40
105.469,85.9201,85.90654823095365,85.67198349218776,85.74696595362111,40.15958227733253,40.23456473876588,40
108.398,85.9731,85.95621655703606,85.66553074499024,85.76892538643062,40.187291170605434,40.29068581204582,40
112.793,86.0083,85.98739176956651,85.62630772696107,85.76485400768458,40.22253776188194,40.36108404260544,40
117.188,85.9579,85.93601854392016,85.57094734637693,85.70966135982532,40.22635718409484,40.36507119754323,40
120.117,85.9946,85.96996929848738,85.56426490841775,85.72279811602056,40.24717118246683,40.40570439006963,40
124.512,85.9823,85.95892385171814,85.57041664281876,85.71819737369309,40.24072647802505,40.388507208899384,40
128.906,85.8035,85.77819066249647,85.4293498064927,85.5522914186753,40.225899243821175,40.348840856003775,40
133.301,85.6744,85.64505365231436,85.26614493846293,85.40084659183056,40.2442070604838,40.37890871385143,40
139.16,85.5965,85.558716267215,85.04822460140288,85.24705555479278,40.311660712422224,40.510491665812125,40
143.555,85.465,85.4248370335187,84.89153861127208,85.09855180523509,40.32628522828361,40.53329842224662,40
147.949,85.3624,85.31832765595358,84.73136596198684,84.96196109711603,40.35636655883755,40.58696169396674,40
153.809,85.2617,85.21014136354704,84.50476880880386,84.79078174479442,40.41935961875262,40.70537255474318,40
159.668,85.26280000000001,85.2063973086077,84.46656412610882,84.7637741605823,40.442623148025405,40.739833182498884,40
165.527,85.2914,85.23383378508558,84.45980789878581,84.78667934588101,40.44715443920457,40.77402588629977,40
171.387,85.1392,85.07446897317341,84.22936404214154,84.59191469141889,40.48255428175452,40.84510493103187,40
177.246,84.9415,84.8726408420521,83.9559491857871,84.35128360071319,40.52135724133892,40.916691656265,40
183.105,84.7872,84.70996161427432,83.72768941716608,84.14977696663648,40.56018464763784,40.982272197108244,40
188.965,84.9101,84.82111913877216,83.54988312389561,84.12826004337752,40.69285909539464,41.27123601487655,40
196.289,85.0071,84.91924387452988,83.51811958978509,84.1814864471994,40.73775742733048,41.401124284744796,40
203.613,84.9374,84.85090245742808,83.32931093325469,84.06855121145794,40.78235124597013,41.52159152417339,40
210.938,84.9146,84.83281119302642,83.30321737097101,84.05107051165713,40.781740681369286,41.5295938220554,40
218.262,84.708,84.63386446498382,83.29574188932693,83.9428820111347,40.69098245384912,41.33812257565688,40
225.586,84.4415,84.35250890847112,83.0026490387071,83.64609291839749,40.70641599007364,41.34985986976402,40
232.91,84.5313,84.43767932166266,82.81447924094017,83.62948187159695,40.808197450065705,41.623200080722484,40
241.699,84.4052,84.31345707250371,82.70327355297384,83.51653535159525,40.79692172090846,41.61018351952987,40
250.488,84.4198,84.31670998516422,82.61727642464021,83.43479866272244,40.88191132244178,41.699433560524014,40
259.277,84.61050000000002,84.51850341896828,82.84689800638411,83.64638932648627,40.87211409248201,41.67160541258417,40
268.066,84.0193,83.91925294418938,82.35784668364424,83.06098420925836,40.858268734931016,41.56140626054514,40
276.855,83.84779999999999,83.76710796170143,82.12890390264133,82.86335029901103,40.903757662690396,41.6382040590601,40
287.109,84.3332,84.21727766607239,82.76180953364906,83.35548631897906,40.86179134709333,41.455468132423334,40
297.363,84.6476,84.45809392469117,82.50611611874648,83.33378402456405,41.124309900127116,41.95197780594469,40
307.617,85.088,84.9473065995598,82.45737086987877,83.73331938328504,41.21398721627476,42.48993572968102,40
319.336,84.6932,84.55716867515646,82.13523951709045,83.37493498643205,41.18223368872441,42.42192915806601,40
329.59,84.7344,84.6236920415716,82.13093869345539,83.45765455913201,41.16603748243959,42.49275334811621,40
341.309,84.3283,84.20644970740871,81.9431592850916,83.12415911990631,41.0822905875024,42.26329042231711,40
353.027,84.2548,84.1475685610766,81.7271927727724,82.99116440673447,41.15640415434213,42.4203757883042,40
366.211,84.6102,84.47184395980725,81.81591320789262,83.17238589447615,41.299458065331095,42.655930751914624,40
379.395,85.1259,85.00402371023984,82.42486880205301,83.7614298415669,41.24259386867294,42.57915490818682,40
392.578,84.9884,84.86735377653565,82.36830586324939,83.6553266914442,41.21202708509145,42.49904791328626,40
405.762,84.736,84.59098752428325,82.12120771650571,83.35661304853782,41.234374475745426,42.46977980777754,40
420.41,85.4515,85.3312045641832,82.27768680338984,83.90465745789759,41.42654710628561,43.053517760793355,40
435.059,85.1502,85.03296785508483,82.40192996956405,83.74495860548225,41.28800924960258,42.63103788552078,40
451.172,85.2125,85.107808500393,82.23918031654594,83.77198222220945,41.33582627818356,42.868628183847065,40
465.82,85.1662,85.03999740150381,82.13183589221491,83.65226083680176,41.38773656470205,42.9081615092889,40
483.398,84.56589999999998,84.43695320677004,81.74472991917118,83.16489221192366,41.272060994846385,42.692223287598864,40
499.512,84.8336,84.67251887169374,81.67862846584046,83.23340157343931,41.43911729825443,42.99389040585328,40
517.09,84.63960000000002,84.46745551507054,81.60868016081052,83.08428327983701,41.38317223523353,42.85877535426002,40
536.133,84.4852,84.25827091287586,81.0895117478138,82.59761714548402,41.660653767391835,43.168759165062056,40
555.176,84.6003,84.36039069686035,80.8618449954847,82.62172631432891,41.73866438253144,43.49854570137565,40
574.219,84.97670000000001,84.69951277537686,81.022486865179,82.8767124903413,41.822800285035555,43.677025910197855,40
594.727,84.50589999999998,84.21839065855733,80.63993215781136,82.43712963415713,41.781261024400195,43.57845850074597,40
615.234,84.9426,84.55973467523185,80.64544180822652,82.5636495318087,41.99608514342316,43.91429286700533,40
637.207,85.4668,85.0263108552857,80.59623042987876,82.74540296204697,42.280907893238734,44.43008042540694,40
659.18,86.51460000000002,86.13459724750864,80.95595802652417,83.54081280628314,42.593784441225495,45.178639220984465,40
682.617,86.232,85.85453842870263,81.02886694497823,83.3569385929663,42.497599835736324,44.82567148372439,40
707.52,86.3488,85.95275385367904,80.66422515955658,83.28935686959082,42.66339698408822,45.28852869412246,40
732.422,85.817,85.49960873891986,80.50209856042298,82.9986783509711,42.500930387948756,44.99751017849688,40
757.324,85.72679999999998,85.39204173381812,80.07373721205114,82.71145588278824,42.680585851029875,45.318304521766976,40
785.156,84.89210000000001,84.56245363050441,79.22703621483815,81.92530640666182,42.63714722384259,45.33541741566626,40
811.523,84.6916,84.3778962265187,79.04094940338015,81.69591798774941,42.68197823876929,45.33694682313855,40
840.82,84.8391,84.50524297554988,78.65328911338888,81.47331476141804,43.03192821413184,45.851953862161,40
870.117,84.3695,83.99726690623915,78.08506399209686,81.00343237677795,42.993834529461196,45.912202914142284,40
900.879,84.59660000000001,84.2873629398524,78.19919292327437,81.12367489649293,43.16368804335947,46.08817001657803,40
933.105,84.43770000000002,84.076402720578,77.74367869811596,80.82100385859118,43.25539886198682,46.332724022462045,40
965.332,84.6506,84.28065058004977,77.92569164612708,80.95480921406724,43.32584136598253,46.35495893392269,40
1000.49,84.7514,84.25175528776116,77.60159823365458,80.76310909212202,43.488646195639134,46.65015705410657,40
1035.64,84.4449,83.9881599564281,77.36025707169391,80.543815072021,43.4443448844071,46.6279028847342,40
1072.27,84.39309999999999,83.80207249522886,76.84833553236633,80.03827564726332,43.76379684796554,46.95373696286252,40
1108.89,83.8826,83.35645094462326,76.67010179736505,79.80535752389095,43.551093420732315,46.68634914725821,40
1148.44,84.3105,83.69845669178491,76.73171666855407,79.80486245118654,43.893594240598375,46.96674002323084,40
1189.45,84.4281,83.7828290009236,76.8375344884662,79.89564955677689,43.88717944414671,46.945294512457394,40
1230.47,85.38680000000001,84.70131620409747,77.65705556031672,80.55296112026898,44.14835508382849,47.044260643780746,40
1274.41,84.90569999999998,84.28606207622174,77.49166172966144,80.30111194076272,43.984950135459016,46.794400346560295,40
1319.82,84.8283,84.26399530173447,77.37713538181679,80.08640486868485,44.177590433049616,46.88685991991768,40
1366.7,84.28159999999998,83.68802781060882,76.96804135474497,79.64411203391575,44.04391577669307,46.71998645586385,40
1413.57,84.1425,83.48250053362545,76.72295613980896,79.46940399446018,44.013096539165275,46.7595443938165,40
1463.38,84.7979,83.98233907669017,77.26847838648386,79.99485315017556,43.98748592651461,46.7138606902063,40
1516.11,85.2289,84.43744967710599,77.47168550006377,80.29288248005896,44.144567197047024,46.96576417704222,40
1568.85,85.1931,84.46745667162855,77.2172352192732,80.14525991373046,44.3221967578981,47.25022145235535,40
1624.51,84.1946,83.54262589302387,76.84544910792272,79.63370919114185,43.90891670188202,46.69717678510115,40
1681.64,84.2482,83.44685763271028,76.86466436014403,79.79807120542571,43.64878642728456,46.58219327256624,40
1741.7,84.5206,83.53986289172445,76.61948542822014,79.81460253193545,43.725260359789004,46.92037746350431,40
1803.22,84.7229,83.80310472021398,76.73015701230945,79.7975658221745,44.005538898039475,47.07294770790453,40
1866.21,84.58739999999999,83.714471970394,76.7977927833569,79.68543132121891,44.02904064917509,46.916679187037104,40
1932.13,83.8081,82.91421257423953,76.41879793843313,79.32206580439404,43.592146769845485,46.4954146358064,40
1999.51,83.7131,83.05263611919595,76.1954858464564,79.48453044636658,43.568105672829375,46.857150272739545,40
2069.82,84.11909999999999,83.39658503136033,76.39721936736314,79.69554258142607,43.70104244993426,46.999365663997196,40
2143.07,83.7658,83.09877337446201,76.1527243571659,79.55687580932953,43.54189756513249,46.94604901729612,40
2219.24,83.2366,82.51677330854105,75.78753891331517,79.24243351686374,43.274339791677306,46.72923439522587,40
2296.88,83.85430000000001,83.08287758421284,76.00315789690048,79.45706842247236,43.62580916174048,47.07971968731236,40
2378.91,84.3003,83.5841541243803,76.21434912680068,79.72921018452891,43.854943939851395,47.36980499757962,40
2462.4,83.367,82.70277248499944,75.78628875751436,79.3324252809614,43.37034720403804,46.91648372748509,40
2548.83,83.497,82.64148799309054,75.63118929147673,79.31469050255974,43.326797490530794,47.010298701613806,40
2639.65,84.5603,83.68203792532225,76.27527943242832,79.97006280267594,43.71197512264631,47.40675849289393,40
2731.93,84.05819999999999,83.3272907976957,76.05274610684985,79.87416067098921,43.45313012670648,47.27454469084584,40
2828.61,83.7778,82.9368555111105,75.81551506049748,79.72027753224754,43.21657797886296,47.12134045061302,40
2928.22,84.04,83.3812550608281,75.90580800913192,79.86292501245156,43.51833004837654,47.47544705169618,40
3030.76,84.0105,83.46833207209117,76.03581844533274,79.83280145725497,43.6355306148362,47.432513626758436,40
3137.7,83.62349999999999,83.07586955648834,75.83488404683922,79.61144006895316,43.464429487535185,47.24098550964912,40
3249.02,83.771,83.14252083002329,75.78143978245282,79.53637330851112,43.60614752151217,47.361081047570465,40
3363.28,83.8938,83.29981628469507,75.68725361154105,79.48008391215805,43.81973237253702,47.61256267315402,40
3481.93,83.9889,83.20125404763515,75.58146513443558,79.44824450707105,43.75300954056409,47.61978891319957,40
3604.98,83.89659999999999,83.07738618309335,75.29063043809256,79.38432202447304,43.69306415862032,47.78675574500079,40
3732.42,84.325,83.3474590359216,75.38337225167616,79.49740590735927,43.85005312856234,47.96408678424544,40
3864.26,84.03430000000002,83.14609172404849,75.14699763932218,79.22028525701603,43.92580646703246,47.99909408472631,40
4000.49,83.9362,83.1125258800741,75.10725962608176,79.20846886003221,43.90405702004189,48.005266253992346,40
4141.11,84.1994,83.28238343588868,75.25009964759143,79.20869489990308,44.073688535985596,48.03228378829725,40
4287.6,83.9703,82.9106507289856,75.08283063710307,79.05641540787481,43.85423532111079,47.82782009188253,40
4438.48,83.76120000000002,82.8877873791451,75.08007673068134,78.97778703441865,43.91000034472644,47.807710648463754,40
4595.21,84.27380000000001,83.26641731222794,75.336746165088,79.32077482862083,43.945642483607116,47.92967114713994,40
4756.35,84.2898,83.23761851590741,75.3530928042446,79.3490440573875,43.88857445851991,47.88452571166282,40
4924.8,84.9037,83.54095656637158,75.40695092424765,79.52027808264208,44.0206784837295,48.134005642123924,40
5097.66,84.1556,83.02995341167806,75.01888340336625,79.16307921834827,43.86687419332979,48.01107000831182,40
5277.83,84.6433,83.3321064548975,75.10676424043992,79.33066744501464,44.00143900988286,48.225342214457584,40
5463.87,84.7761,83.4696422901636,75.15951522810441,79.55967502897674,43.909967261186864,48.310127062059195,40
5657.23,84.2144,83.14390162205665,75.00210319274626,79.23805147277288,43.905850149283765,48.141798429310384,40
5856.45,83.86640000000001,82.93537943158712,74.79652765158326,79.05664681801078,43.87873261357635,48.13885178000386,40
6062.99,83.66360000000002,82.82665567103395,74.66172449829385,78.90851456834899,43.918141102684956,48.1649311727401,40
6276.86,83.1054,82.37443273303806,74.41275631280381,78.67640365361315,43.69802907942491,47.961676420234255,40
6498.05,82.3593,81.90479314368362,74.185616985482,78.41647068496657,43.48832245871705,47.71917615820162,40
6726.56,82.5268,82.08749039234254,74.19691992516715,78.50191678839305,43.5855736039495,47.890570467175394,40
6963.87,82.1722,81.9106235231945,73.95203688939708,78.26384919828155,43.646774324912954,47.958586633797424,40
7209.96,82.1913,81.94955623257468,73.99148732771704,78.28789530862382,43.66166092395086,47.95806890485764,40
7464.84,82.1598,82.17488094311248,74.12324157651133,78.35414552369106,43.820735419421425,48.05163936660115,40
7727.05,82.1762,82.20154708760799,74.09677577410345,78.41870556863545,43.782841518972546,48.10477131350454,40
7999.51,82.0643,82.1403771696118,74.004584423082,78.36145771094102,43.77891945867077,48.1357927465298,40
8282.23,82.1697,82.33175872410473,74.15037829795814,78.54744501148132,43.784313712623415,48.18138042614659,40
8573.73,82.3196,82.5232126217522,74.34176977335244,78.76974330284587,43.753469318906326,48.181442848399755,40
8876.95,82.3158,82.51850827266007,74.4335947352811,78.85256238600508,43.665945886654995,48.08491353737897,40
9188.96,82.3346,82.5019271915596,74.39039578235891,78.84809629621502,43.65383089534458,48.111531409200694,40
9514.16,82.2615,82.38807142094215,74.34762987014372,78.7490851608713,43.63898626007085,48.040441550798434,40
9849.61,82.1204,82.26566300485983,74.27634137857619,78.60409004149622,43.66157296336361,47.98932162628364,40
10196.8,82.0536,82.11633602717272,74.18753399230958,78.436268869264,43.680067157908724,47.92880203486314,40
10555.7,82.0218,81.95015230192138,74.11067167835674,78.33017904067435,43.619973261247026,47.83948062356464,40
10927.7,82.0578,81.78428706122845,73.9732239327451,78.21749317561856,43.5667938856099,47.811063128483354,40
11313.0,82.3701,81.73952758441234,73.89550038703047,78.14813664178067,43.591390942631676,47.84402719738188,40
11712.9,82.48049999999999,81.80331758419258,73.96749374190894,78.15356739148743,43.649750192705156,47.835823842283645,40
12126.0,82.4603,81.7897275533396,73.99924841192298,78.17284283603914,43.616884717300465,47.790479141416625,40
