Freq "Sound Power"
20.5078 56.10932749190577
21.9727 58.03111900316303
23.4375 59.84844323291627
24.9023 62.11965260855048
26.3672 64.25015740415198
27.832 66.53654015131329
29.2969 68.58726795687181
30.7617 70.45880563514343
32.2266 72.0311191880058
33.6914 73.45124131104619
35.1562 74.62702547494845
36.6211 75.66938047533408
38.0859 76.58071437419676
39.5508 77.21255827310762
41.0156 77.83487635339931
42.4805 78.37013225661373
43.9453 78.89631443749589
45.4102 79.39453821907027
46.875 79.88010243292037
48.3398 80.25908332161755
51.2695 81.01559650989809
52.7344 81.41245178669026
54.1992 81.78152059506921
55.6641 82.12395063242089
58.5938 82.73929140405643
60.0586 82.98941048538519
62.9883 83.61733662886272
64.4531 83.90709209757411
67.3828 84.38193170490685
68.8477 84.56989531078247
71.7773 84.97061290079704
74.707 85.30514575079796
77.6367 85.49077049373099
79.1016 85.54100100945224
82.0312 85.6470205073247
84.9609 85.70359963892673
87.8906 85.8673500235663
90.8203 85.87585340584081
95.2148 85.803807718544
98.1445 85.74756066980952
101.074 85.71320295180918
105.469 85.67198349218776
108.398 85.66553074499024
112.793 85.62630772696107
117.188 85.57094734637693
120.117 85.56426490841775
124.512 85.57041664281876
128.906 85.4293498064927
133.301 85.26614493846293
139.16 85.04822460140288
143.555 84.89153861127208
147.949 84.73136596198684
153.809 84.50476880880386
159.668 84.4665641261088
165.527 84.45980789878581
171.387 84.22936404214154
177.246 83.9559491857871
183.105 83.72768941716608
188.965 83.54988312389561
196.289 83.51811958978509
203.613 83.32931093325469
210.938 83.303217370971
218.262 83.29574188932693
225.586 83.0026490387071
232.91 82.81447924094017
241.699 82.70327355297384
250.488 82.61727642464021
259.277 82.84689800638414
268.066 82.35784668364424
276.855 82.12890390264133
287.109 82.76180953364906
297.363 82.50611611874648
307.617 82.45737086987877
319.336 82.13523951709045
329.59 82.13093869345539
341.309 81.9431592850916
353.027 81.7271927727724
366.211 81.81591320789262
379.395 82.42486880205301
392.578 82.36830586324939
405.762 82.12120771650571
420.41 82.27768680338981
435.059 82.40192996956405
451.172 82.23918031654594
465.82 82.13183589221491
483.398 81.74472991917118
499.512 81.67862846584046
517.09 81.60868016081052
536.133 81.0895117478138
555.176 80.8618449954847
574.219 81.022486865179
594.727 80.63993215781136
615.234 80.64544180822652
637.207 80.59623042987876
659.18 80.95595802652417
682.617 81.02886694497823
707.52 80.66422515955658
732.422 80.50209856042298
757.324 80.07373721205114
785.156 79.22703621483815
811.523 79.04094940338015
840.82 78.65328911338888
870.117 78.08506399209686
900.879 78.19919292327437
933.105 77.74367869811594
965.332 77.92569164612708
1000.49 77.60159823365458
1035.64 77.36025707169391
1072.27 76.84833553236632
1108.89 76.67010179736505
1148.44 76.73171666855407
1189.45 76.8375344884662
1230.47 77.65705556031672
1274.41 77.49166172966144
1319.82 77.37713538181677
1366.7 76.96804135474497
1413.57 76.72295613980896
1463.38 77.26847838648386
1516.11 77.47168550006377
1568.85 77.2172352192732
1624.51 76.84544910792272
1681.64 76.86466436014403
1741.7 76.61948542822014
1803.22 76.73015701230945
1866.21 76.7977927833569
1932.13 76.41879793843313
1999.51 76.1954858464564
2069.82 76.39721936736314
2143.07 76.1527243571659
2219.24 75.78753891331517
2296.88 76.00315789690048
2378.91 76.21434912680068
2462.4 75.78628875751436
2548.83 75.63118929147673
2639.65 76.27527943242832
2731.93 76.05274610684985
2828.61 75.81551506049748
2928.22 75.90580800913192
3030.76 76.03581844533274
3137.7 75.83488404683922
3249.02 75.78143978245282
3363.28 75.68725361154105
3481.93 75.58146513443558
3604.98 75.29063043809256
3732.42 75.38337225167616
3864.26 75.14699763932218
4000.49 75.10725962608176
4141.11 75.25009964759143
4287.6 75.08283063710307
4438.48 75.08007673068134
4595.21 75.336746165088
4756.35 75.3530928042446
4924.8 75.40695092424765
5097.66 75.01888340336625
5277.83 75.10676424043992
5463.87 75.15951522810441
5657.23 75.00210319274626
5856.45 74.79652765158325
6062.99 74.66172449829385
6276.86 74.41275631280381
6498.05 74.185616985482
6726.56 74.19691992516715
6963.87 73.95203688939708
7209.96 73.99148732771704
7464.84 74.12324157651133
7727.05 74.09677577410345
7999.51 74.004584423082
8282.23 74.15037829795814
8573.73 74.34176977335244
8876.95 74.4335947352811
9188.96 74.39039578235891
9514.16 74.34762987014372
9849.61 74.27634137857619
10196.8 74.18753399230958
10555.7 74.11067167835674
10927.7 73.9732239327451
11313.0 73.89550038703047
11712.9 73.96749374190894
12126.0 73.99924841192298
12553.7 73.90415054110332
12996.1 73.75789288222228
13454.6 73.64573583295139
13929.2 73.52670041767821
14419.9 73.38292448954276
14928.2 73.22777884852732
15455.6 73.1739379224842
16000.5 73.06022697382205
16564.5 72.85806184440933
17148.9 72.58239808609153
17752.4 72.24017163963639
18379.4 71.73757115116933
19026.9 71.26680436749237
19697.8 70.7535693771082
19999.5 70.55649701930663
