Freq "Listening Window"
20.5078 45.16251778214412
21.9727 44.628755185653816
23.4375 45.97547894246394
24.9023 47.30174830804309
26.3672 48.02591396351953
27.832 49.194163829864934
29.2969 49.574642438476374
30.7617 50.53520584997763
32.2266 51.53486408298714
33.6914 52.91025612964226
35.1562 53.947236041366224
36.6211 55.15542817051788
38.0859 56.311437419015945
39.5508 57.35215531711201
41.0156 58.329394818401894
42.4805 59.36113928156145
43.9453 60.33286372304329
45.4102 61.304587335337274
46.875 62.279900534844316
48.3398 63.15998845237
51.2695 64.85209611632692
52.7344 65.58505387286046
54.1992 66.40021679448041
55.6641 67.2490454399681
58.5938 68.86202812641147
60.0586 69.49609285537593
62.9883 70.81649942539332
64.4531 71.46204354819298
67.3828 72.65769545300945
68.8477 73.26911067144142
71.7773 74.22528398172848
74.707 75.12953145848849
77.6367 75.94194130801286
79.1016 76.30950774024849
82.0312 76.90017397387902
84.9609 77.46004381308464
87.8906 77.91062373077028
90.8203 78.2845157158391
95.2148 78.72692247089013
98.1445 78.9877458972611
101.074 79.20238009609332
105.469 79.43638476263897
108.398 79.58018919582351
112.793 79.7331632772236
117.188 79.88317802769713
120.117 79.96201535248676
124.512 80.09364812826527
128.906 80.18274713591677
133.301 80.24966672279592
139.16 80.29801804311029
143.555 80.27747850790227
147.949 80.36161051006341
153.809 80.49350359888106
159.668 80.44329154208509
165.527 80.39453270466156
171.387 80.41123182751424
177.246 80.4732811385292
183.105 80.42853542382795
188.965 80.38344854444544
196.289 80.31437047528807
203.613 80.28529436079874
210.938 80.18402400259156
218.262 80.29021030509608
225.586 80.03304483753807
232.91 79.91414616668902
241.699 79.85039102349431
250.488 80.24177638898495
259.277 80.04856419615055
268.066 79.78036715920209
276.855 79.6254997906067
287.109 79.64298491298985
297.363 79.528363858817
307.617 79.51286729577222
319.336 79.40090592005336
329.59 79.6390012216112
341.309 79.35986387572879
353.027 79.08259956878659
366.211 79.16700036618705
379.395 79.24812581543362
392.578 79.58707802205122
405.762 79.39900189354215
420.41 79.40373017334959
435.059 79.09291396776192
451.172 79.08234923210215
465.82 79.38183726061519
483.398 79.85813739693187
499.512 79.59904748542394
517.09 79.73702665785063
536.133 79.71136813828237
555.176 79.17714825556912
574.219 79.41827647075745
594.727 80.08928156633881
615.234 80.23945970061067
637.207 79.7551830284497
659.18 79.42376728862706
682.617 79.4348612510751
707.52 78.54768114542817
732.422 78.20860005188482
757.324 78.55906791961547
785.156 78.27859578383192
811.523 78.66046839284729
840.82 78.81314171735347
870.117 78.5876041000397
900.879 78.99338158381939
933.105 79.08980235737855
965.332 79.42897300580486
1000.49 79.01664619378681
1035.64 79.17298662884153
1072.27 79.10061043031142
1108.89 79.47012414929212
1148.44 79.07734598554832
1189.45 78.32351600018201
1230.47 79.70421688049372
1274.41 80.68241045438442
1319.82 79.73037493398995
1366.7 77.90101074677024
1413.57 76.07532446171403
1463.38 76.06339578746822
1516.11 75.44251288888074
1568.85 76.93558010743017
1624.51 75.9453301140981
1681.64 77.73329556966398
1741.7 78.63958960361732
1803.22 79.08246162129801
1866.21 78.86561844020058
1932.13 80.0708178582981
1999.51 79.37805389808628
2069.82 82.2613033129443
2143.07 80.6644597206608
2219.24 79.46014183143086
2296.88 81.15912031360703
2378.91 80.81028429345938
2462.4 80.57236792855876
2548.83 80.76785030570942
2639.65 80.94223676786478
2731.93 80.90883811078591
2828.61 81.12198255043455
2928.22 81.45287831721492
3030.76 80.8360579993096
3137.7 80.46529809902817
3249.02 80.02185480912527
3363.28 80.39955831414333
3481.93 80.49232286011699
3604.98 80.07118219235973
3732.42 80.65859679430939
3864.26 80.59632230065581
4000.49 80.48042344259922
4141.11 80.49713816245878
4287.6 79.92806062696653
4438.48 79.62960779796406
4595.21 79.91344062313638
4756.35 80.32823348237999
4924.8 80.67421598007441
5097.66 81.05605755655748
5277.83 80.90481716781584
5463.87 80.86764444457702
5657.23 81.23263271346596
5856.45 80.96706544147985
6062.99 80.7449339602633
6276.86 80.70328801130546
6498.05 80.4192016576896
6726.56 80.39695136681102
6963.87 79.92336897852783
7209.96 79.5643792828485
7464.84 79.44516244471167
7727.05 79.62391732823026
7999.51 79.80984969602386
8282.23 79.94276902861894
8573.73 79.51382811549234
8876.95 78.07536170432174
9188.96 77.53545812862474
9514.16 79.08404359090633
9849.61 79.68800208596323
10196.8 79.93175717035659
10555.7 80.09438980126014
10927.7 80.20812158373226
11313.0 80.20584414038338
11712.9 79.86489480184808
12126.0 79.69614743172657
12553.7 79.8610514300982
12996.1 80.58292701023699
13454.6 81.0571262554365
13929.2 81.08513916393301
14419.9 81.03275234462721
14928.2 81.06050817174948
15455.6 80.71508267459652
16000.5 80.31539419912237
16564.5 80.3603867715914
17148.9 80.7358319448689
17752.4 80.9895297897037
18379.4 81.16289234833712
19026.9 80.73557940114996
19697.8 80.35306303694797
19999.5 80.48108012818953
