Freq "On Axis"
20.5078 45.025999999999996
21.9727 44.50439999999999
23.4375 45.8506
24.9023 47.17700000000001
26.3672 47.902399999999986
27.832 49.063599999999994
29.2969 49.453500000000005
30.7617 50.414
32.2266 51.4132
33.6914 52.78959999999999
35.1562 53.82809999999999
36.6211 55.03689999999999
38.0859 56.19250000000001
39.5508 57.2325
41.0156 58.21079999999999
42.4805 59.242900000000006
43.9453 60.2154
45.4102 61.187799999999996
46.875 62.1635
48.3398 63.04350000000001
51.2695 64.7318
52.7344 65.465
54.1992 66.2789
55.6641 67.1302
58.5938 68.7468
60.0586 69.378
62.9883 70.6969
64.4531 71.3422
67.3828 72.538
68.8477 73.1489
71.7773 74.1061
74.707 75.0107
77.6367 75.8235
79.1016 76.1913
82.0312 76.7823
84.9609 77.3433
87.8906 77.7944
90.8203 78.1689
95.2148 78.61219999999999
98.1445 78.87350000000002
101.074 79.0885
105.469 79.3235
108.398 79.4681
112.793 79.6222
117.188 79.7734
120.117 79.8533
124.512 79.9857
128.906 80.0754
133.301 80.1433
139.16 80.1929
143.555 80.1734
147.949 80.2597
153.809 80.3929
159.668 80.344
165.527 80.2975
171.387 80.3177
177.246 80.3805
183.105 80.3369
188.965 80.2943
196.289 80.2291
203.613 80.2035
210.938 80.10259999999998
218.262 80.2106
225.586 79.9549
232.91 79.843
241.699 79.7879
250.488 80.1829
259.277 79.9833
268.066 79.7202
276.855 79.5713
287.109 79.6005
297.363 79.488
307.617 79.48010000000001
319.336 79.3792
329.59 79.6068
341.309 79.3242
353.027 79.0583
366.211 79.164
379.395 79.2476
392.578 79.5839
405.762 79.3998
420.41 79.4023
435.059 79.1032
451.172 79.1033
465.82 79.418
483.398 79.8842
499.512 79.6273
517.09 79.77489999999999
536.133 79.73800000000001
555.176 79.22779999999999
574.219 79.51029999999999
594.727 80.1938
615.234 80.3183
637.207 79.80470000000001
659.18 79.5072
682.617 79.5008
707.52 78.59500000000001
732.422 78.27580000000002
757.324 78.6417
785.156 78.3352
811.523 78.7238
840.82 78.9027
870.117 78.6835
900.879 79.095
933.105 79.2635
965.332 79.58729999999998
1000.49 79.1843
1035.64 79.3865
1072.27 79.3316
1108.89 79.7115
1148.44 79.3969
1189.45 78.6561
1230.47 79.9984
1274.41 80.92909999999999
1319.82 80.01470000000002
1366.7 78.2041
1413.57 76.0994
1463.38 76.0896
1516.11 75.6724
1568.85 77.179
1624.51 76.34009999999999
1681.64 78.15329999999999
1741.7 79.1968
1803.22 79.6358
1866.21 79.53669999999998
1932.13 80.5859
1999.51 79.88350000000001
2069.82 82.9358
2143.07 81.5339
2219.24 80.23900000000002
2296.88 81.8869
2378.91 81.4841
2462.4 81.13530000000002
2548.83 81.2417
2639.65 81.4785
2731.93 81.6249
2828.61 81.6145
2928.22 81.9552
3030.76 81.24230000000001
3137.7 80.7358
3249.02 80.1627
3363.28 80.5661
3481.93 80.46820000000001
3604.98 79.7343
3732.42 80.32360000000001
3864.26 80.276
4000.49 80.2873
4141.11 80.3241
4287.6 79.89309999999999
4438.48 79.68489999999998
4595.21 80.0455
4756.35 80.4602
4924.8 80.7105
5097.66 81.0997
5277.83 80.7425
5463.87 80.5054
5657.23 80.8862
5856.45 80.6324
6062.99 80.0701
6276.86 80.07780000000001
6498.05 79.8066
6726.56 79.9131
6963.87 79.5702
7209.96 79.24569999999999
7464.84 79.1988
7727.05 79.4965
7999.51 79.7226
8282.23 79.9915
8573.73 79.6792
8876.95 78.38339999999998
9188.96 77.7653
9514.16 78.96570000000001
9849.61 79.7908
10196.8 80.4174
10555.7 80.9064
10927.7 81.4132
11313.0 81.6022
11712.9 80.9525
12126.0 80.44000000000001
12553.7 80.29199999999999
12996.1 80.91339999999998
13454.6 81.3827
13929.2 80.9199
14419.9 80.3167
14928.2 80.3861
15455.6 79.5413
16000.5 78.5514
16564.5 79.29
17148.9 81.3336
17752.4 81.95389999999999
18379.4 82.6497
19026.9 83.0742
19697.8 82.8307
19999.5 82.9951
