Freq "Front Wall Bounce"
20.5078 50.1260626071861
21.9727 52.078432898142324
23.4375 54.67099705823989
24.9023 56.55877183095228
26.3672 59.142917034877485
27.832 61.494256658101435
29.2969 64.07736823262546
30.7617 66.1164221035439
32.2266 68.50101526423089
33.6914 70.75021083905396
35.1563 72.67678419997644
36.6211 74.3445822034255
38.0859 75.71032430086603
39.5508 76.8268024137261
41.0156 77.82558233425534
42.4805 78.48900971735434
43.9453 79.01832787962329
45.4102 79.39927753310118
46.875 79.74643738099145
48.3398 79.9089331116157
51.2695 80.33696860492724
52.7344 80.39800890634126
54.1992 80.41896949928838
55.6641 80.63191380456215
58.5938 80.87917484344314
60.0586 80.9030540300492
62.9883 80.9675068177517
64.4531 81.03861258560441
67.3828 81.08579792404733
68.8477 81.08699894548658
71.7773 81.2049853882737
74.707 81.45689183244747
77.6367 81.45967264536493
79.1016 81.39752876780427
82.0313 81.35203662078906
84.9609 81.39100104466598
87.8906 81.46542861047345
90.8203 81.3171541108204
95.2148 81.38273312861932
98.1445 81.33873126017848
101.074 81.31016134091105
105.469 81.21244920025089
108.398 81.29727303507846
112.793 81.36026795680083
117.188 81.50075694064864
120.117 81.54020106178763
124.512 81.74232338848836
128.906 81.66098137288303
133.301 81.53218286714205
139.16 81.40471582236432
143.555 81.32413832222198
147.949 81.24804902776775
153.809 81.11255054019142
159.668 81.15182027586388
165.527 81.31605791152062
171.387 81.46382016509938
177.246 81.52962158718496
183.105 81.41558976799601
188.965 81.41092913666996
196.289 81.20396926873093
203.613 81.11088646630088
210.938 81.21823192998286
218.262 81.04052983263574
225.586 81.09124046229739
232.91 81.37634699093688
241.699 81.25337541268125
250.488 81.1424101308836
259.277 81.57215493404902
268.066 81.04332471748747
276.855 81.16536366895603
287.109 81.20831992124772
297.363 81.00152856170911
307.617 81.33217254874256
319.336 81.29772772255137
329.59 81.79701586283174
341.309 81.60678187644007
353.027 81.65584659675746
366.211 81.83279063862562
379.395 82.25393532442295
392.578 81.73352890118132
405.762 81.13223480714367
420.41 81.67685462194072
435.059 81.33660734436027
451.172 81.60068712163553
465.82 81.31065259181177
483.398 81.42428890723212
499.512 82.82053609081045
517.09 82.63179284941964
536.133 81.79757358888983
555.176 82.43095982245117
574.219 82.19643841505551
594.727 81.91774805538883
615.234 82.16147080507092
637.207 81.59443360832176
659.18 82.52161247411779
682.617 82.10590868108613
707.52 82.34637606090472
732.422 82.562520123539
757.324 82.81690219145435
785.156 82.85023051691992
811.523 82.41974273949653
840.82 82.42801787680735
870.117 81.96723592066702
900.879 82.03149753685004
933.105 81.8747331023596
965.332 81.97978016034982
1000.49 82.14393404193467
1035.64 81.99484401443479
1072.27 82.10510569951437
1108.89 81.84509348593713
1148.44 81.699917067798
1189.45 81.43583568820027
1230.47 81.71119069221953
1274.41 81.99765150260819
1319.82 81.95526673569992
1366.7 81.2877063645609
1413.57 80.88313272535532
1463.38 80.78763939235566
1516.11 80.67642384816702
1568.85 80.21946235236625
1624.51 79.10766058192301
1681.64 78.71664684582399
1741.7 79.1747622938428
1803.22 81.27680738060876
1866.21 81.92546411568067
1932.13 81.45596530838452
1999.51 81.88673913050394
2069.82 81.22481469940789
2143.07 80.71576518219537
2219.24 80.76860101589332
2296.88 80.05080943832495
2378.91 80.50649989922422
2462.4 80.73327313910362
2548.83 79.9946750977505
2639.65 80.67877581812036
2731.93 80.71832851722644
2828.61 80.40960946546372
2928.22 81.035706128383
3030.76 80.84887187511056
3137.7 81.05714802804984
3249.02 81.17537404564528
3363.28 81.06523095230317
3481.93 81.10279419021063
3604.98 81.48579095549182
3732.42 81.36824030303626
3864.26 81.51729078049563
4000.49 80.93050899347546
4141.11 80.57576506652279
4287.6 80.25532058934692
4438.48 79.79917732649382
4595.21 80.11955541754475
4756.35 80.0738004781378
4924.8 79.99000501133963
5097.66 80.27665921409024
5277.83 80.45317012003542
5463.87 80.51896297821101
5657.23 80.8079466678
5856.45 81.28370202998425
6062.99 81.47312679288972
6276.86 81.78887831914409
6498.05 82.1254641695768
6726.56 82.17141379616163
6963.87 82.0012958703739
7209.96 81.89551198713785
7464.84 81.68094061015508
7727.05 81.46016477664732
7999.51 81.3556305959092
8282.23 81.168901241538
8573.73 81.21101930625557
8876.95 81.18038819030767
9188.96 81.3886782059334
9514.16 81.56173516792336
9849.61 81.59382372356022
10196.8 81.28307165400494
10555.7 81.10276549667293
10927.7 81.17812020720916
11313.0 81.27481270072145
11712.9 81.37754355462322
12126.0 81.49747753778385
12553.7 81.64623976941792
12996.1 81.76560509233333
13454.6 81.71661241779873
13929.2 81.55732775183694
14419.9 81.33498909680227
14928.2 81.17951938441317
15455.6 81.03252472270752
16000.5 80.7952439724793
16564.5 80.49943424803843
17148.9 80.17952160542798
17752.4 80.18831698502665
18379.4 80.3774203572231
19026.9 80.55830900472716
19697.8 80.40854746668305
19999.5 80.1791083056019
