Freq "Floor Bounce"
20.5078 72.02368932439278
21.9727 74.91647699141595
23.4375 76.78970382776771
24.9023 78.30543813875782
26.3672 79.90776357299688
27.832 80.96668853231904
29.2969 82.09943177511552
30.7617 83.13256437896936
32.2266 84.01109548755795
33.6914 84.75452596812505
35.1562 85.43813096896304
36.6211 85.97406357282293
38.0859 86.47687559408408
39.5508 86.9284103990613
41.0156 87.30941948863723
42.4805 87.60925126573302
43.9453 87.88719675505452
45.4102 88.08292934190894
46.875 88.279033937312
48.3398 88.42571368080152
51.2695 88.67014780643098
52.7344 88.76168608085254
54.1992 88.81848152922507
55.6641 88.8802519696647
58.5938 88.95664935512104
60.0586 88.97949353524754
62.9883 89.02424493084652
64.4531 89.0363378225102
67.3828 89.02533508247376
68.8477 89.03656662327263
71.7773 89.08323918476013
74.707 89.10337261539186
77.6367 89.07818313148275
79.1016 89.03900098569825
82.0312 89.0050080681008
84.9609 89.01541282390988
87.8906 88.97506355146687
90.8203 88.88575803154943
95.2148 88.81747286691336
98.1445 88.8006301353667
101.074 88.66767820114788
105.469 88.56518282669133
108.398 88.60946625427147
112.793 88.72238740907511
117.188 88.75165484514307
120.117 88.7302198835664
124.512 88.75085386803404
128.906 88.68053621686411
133.301 88.66053638104552
139.16 88.61406408612145
143.555 88.53849488666415
147.949 88.48517730004623
153.809 88.45106347136321
159.668 88.52155903278285
165.527 88.66589355451211
171.387 88.56064418454966
177.246 88.44181621707993
183.105 88.22181133417664
188.965 88.1314079135264
196.289 88.08502493408433
203.613 87.8365327722904
210.938 87.97209319522128
218.262 87.72213695922059
225.586 87.46904563423118
232.91 87.42919369593264
241.699 87.25244798143002
250.488 87.20834401347437
259.277 87.33409599385976
268.066 86.99927597222454
276.855 86.79415649377596
287.109 86.7906321132881
297.363 86.45175042199857
307.617 86.26363295458003
319.336 86.04263077297026
329.59 85.81133730785871
341.309 85.6398554578495
353.027 85.5341313364222
366.211 85.46676652409383
379.395 85.76198854349926
392.578 85.21962431710865
405.762 85.50781979926325
420.41 85.23022940860639
435.059 84.81665625272694
451.172 85.09623183573328
465.82 85.34324461659989
483.398 85.01005130588965
499.512 85.21634376389589
517.09 85.73193652153452
536.133 85.87077941873018
555.176 86.0569413296588
574.219 86.31083717416675
594.727 86.65777336779993
615.234 86.898274187537
637.207 86.42783894860791
659.18 86.77257695461363
682.617 86.32353490722171
707.52 86.22199930394456
732.422 86.96691546656267
757.324 87.09087192495124
785.156 87.56755371953786
811.523 87.24527917772332
840.82 87.41580130960753
870.117 87.83546847998379
900.879 87.8435283911922
933.105 88.75820430327573
965.332 88.0384117073857
1000.49 88.11613995780704
1035.64 88.51621486446133
1072.27 88.56904235661776
1108.89 89.41844135171243
1148.44 89.47509872221607
1189.45 89.7067646763994
1230.47 90.0014245713705
1274.41 90.11147832555508
1319.82 90.57452073828216
1366.7 90.95994561468373
1413.57 91.72236530694161
1463.38 91.82745272041672
1516.11 91.54881357484459
1568.85 90.20661484799848
1624.51 89.4989875438413
1681.64 89.27026457236302
1741.7 87.47571764949119
1803.22 86.12828496996973
1866.21 85.29602896966742
1932.13 85.7258875257819
1999.51 87.25674358855265
2069.82 87.500094205372
2143.07 87.53304747790172
2219.24 87.67324692122371
2296.88 88.78471599560463
2378.91 88.96142588477306
2462.4 88.31458022281234
2548.83 87.85344483026742
2639.65 88.37245657466093
2731.93 87.91593929504452
2828.61 87.35536323515052
2928.22 87.06542987422793
3030.76 86.73238662726546
3137.7 86.2361128626397
3249.02 85.78061196844875
3363.28 84.25015929661723
3481.93 83.10598639342595
3604.98 81.67357862930774
3732.42 80.03152345630792
3864.26 81.08281930696192
4000.49 80.35570951218608
4141.11 80.05545624862016
4287.6 80.78657094014207
4438.48 80.87052530500327
4595.21 80.98135979516293
4756.35 81.65834717398745
4924.8 82.50017020271929
5097.66 82.78722865097656
5277.83 82.43271415720295
5463.87 82.94864227515275
5657.23 83.26154260684909
5856.45 83.19404444590971
6062.99 82.6546619588925
6276.86 82.79657292146416
6498.05 83.44998825441857
6726.56 83.87727200973421
6963.87 84.03603074374362
7209.96 83.46083510949671
7464.84 82.82645203660661
7727.05 83.09952532194549
7999.51 83.38146584721727
8282.23 83.48884011737752
8573.73 83.40653470551521
8876.95 83.8838888548016
9188.96 83.60062016696492
9514.16 83.61559649333881
9849.61 83.02768978608418
10196.8 82.48545271227007
10555.7 82.08080407005986
10927.7 82.33350753694953
11313.0 82.43323291087385
11712.9 82.03797894860305
12126.0 82.13010927947455
12553.7 81.9705526000285
12996.1 81.4053667764542
13454.6 81.45769405258159
13929.2 81.35392242308077
14419.9 81.37638935077256
14928.2 81.55651797050679
15455.6 81.16661831491663
16000.5 80.79424750108757
16564.5 80.48821083026176
17148.9 80.20067798039655
17752.4 79.97582936724676
18379.4 79.74573626192104
19026.9 79.26106029555008
19697.8 78.62240669689605
19999.5 77.78291339583569
