Freq "Front Wall Bounce"
22.4 45.11529842907012
23.0 46.30077667796951
23.6 47.500776677969526
24.0 48.657921080795916
25.0 49.81529842907011
25.8 50.9579210807959
26.5 52.10077667796952
27.2 53.21529842907009
28.0 54.31529842907011
29.0 55.415298429070134
30.0 56.51529842907013
30.7 57.60077667796952
31.5 58.68653841540876
32.5 59.75792108079591
33.5 60.857921080795904
34.5 61.9579210807959
35.5 63.10077667796952
36.5 64.21529842907009
37.5 65.35792108079588
38.7 66.50077667796953
40.0 67.61529842907011
41.2 68.75792108079591
42.5 69.90077667796952
43.7 71.01529842907011
45.0 72.11529842907011
46.2 73.21529842907012
47.5 74.28653841540877
48.7 75.32944286685418
50.0 76.3579210807959
51.5 77.3579210807959
53.0 78.31529842907011
54.5 79.2579210807959
56.0 80.15792108079589
58.0 81.01529842907011
60.0 81.81529842907011
61.5 82.58653841540877
63.0 83.30077667796954
65.0 83.9579210807959
67.0 84.55792108079591
69.0 85.14354138744808
71.0 85.64354138744807
73.0 86.11496841315301
75.0 86.54354138744809
77.5 86.94354138744808
80.0 87.28653841540876
82.5 87.58653841540877
85.0 87.88653841540876
87.5 88.12911392405061
90.0 88.32911392405063
92.5 88.52911392405062
95.0 88.70077667796951
97.5 88.82911392405062
100.0 88.94354138744808
103.0 89.04354138744809
106.0 89.12911392405061
109.0 89.17225331938843
112.0 89.24354138744806
115.0 89.27225331938843
118.0 89.314968413153
122.0 89.32944286685418
125.0 89.34354138744808
128.0 89.3579210807959
132.0 89.3579210807959
136.0 89.34386923934271
140.0 89.34419706648946
145.0 89.35890892160967
150.0 89.35890892160967
155.0 89.35890892160967
160.0 89.34518057325204
165.0 89.30308646297432
170.0 89.30308646297432
175.0 89.30308646297432
180.0 89.28949727260999
185.0 89.24783257555612
190.0 89.24783257555612
195.0 89.20605000368991
200.0 89.20605000368991
206.0 89.20605000368991
212.0 89.13602623626899
218.0 89.13602623626899
224.0 89.12089143079686
230.0 89.09440108404613
236.0 89.09440108404613
240.0 89.06648800534145
250.0 89.06648800534145
258.0 89.02515518269016
265.0 89.02515518269016
272.0 89.00962832617368
280.0 89.00962832617368
290.0 88.98139840598661
300.0 88.94027516245202
307.0 88.94027516245202
315.0 88.94027516245202
325.0 88.92515518269015
335.0 88.92515518269015
345.0 88.92515518269015
355.0 88.92515518269015
365.0 88.89440108404612
375.0 88.89440108404612
387.0 88.89440108404612
400.0 88.89440108404612
412.0 88.89440108404612
425.0 88.88139840598662
437.0 88.86835668127051
450.0 88.86835668127051
462.0 88.86835668127051
475.0 88.86835668127051
487.0 88.86835668127051
500.0 88.86835668127051
515.0 88.86835668127051
530.0 88.88403152790349
545.0 88.85852069096688
560.0 88.85852069096688
580.0 88.85852069096688
600.0 88.85852069096688
615.0 88.88917329262972
630.0 88.88917329262972
650.0 88.89275009879239
670.0 88.89275009879239
690.0 88.88032874716409
710.0 88.88032874716409
730.0 88.86815572028682
750.0 88.86815572028682
775.0 88.8724075317866
800.0 88.8724075317866
825.0 88.87619344358475
850.0 88.89184008160109
875.0 88.85196981213423
900.0 88.84026913845165
925.0 88.84026913845165
950.0 88.84026913845165
975.0 88.81704093064606
1000.0 88.81704093064606
1030.0 88.81704093064606
1060.0 88.79422079940989
1090.0 88.79422079940989
1120.0 88.7774621687943
1150.0 88.73880956377674
1180.0 88.71053571628151
1220.0 88.71053571628151
1250.0 88.65495814272046
1280.0 88.65495814272046
1320.0 88.643792459646
1360.0 88.63285313396995
1400.0 88.58820285766211
1450.0 88.54939978234292
1500.0 88.53285313396995
1550.0 88.53285313396995
1600.0 88.4944487134994
1650.0 88.4944487134994
1700.0 88.42777146602518
1750.0 88.42777146602518
1800.0 88.3944487134994
1850.0 88.34433745001725
1900.0 88.32777146602518
1950.0 88.32777146602518
2000.0 88.26122414244425
2060.0 88.24433745001724
2120.0 88.22777146602519
2180.0 88.1780454285048
2240.0 88.1780454285048
2300.0 88.12237991419116
2360.0 88.09519134978547
2400.0 88.09519134978547
2500.0 88.03974657542076
2580.0 88.02929044502608
2650.0 88.00160142323148
2720.0 87.99105293745373
2800.0 87.93644035321046
2900.0 87.93644035321046
3000.0 87.90895167535172
3070.0 87.88176749300447
3150.0 87.87141216497685
3250.0 87.87141216497685
3350.0 87.83580883911846
3450.0 87.83580883911846
3550.0 87.82558171991026
3650.0 87.82558171991026
3750.0 87.79826402000488
3870.0 87.79826402000488
4000.0 87.78818309245997
4120.0 87.78818309245997
4250.0 87.77807871041742
4370.0 87.79522450056083
4500.0 87.81230286584433
4620.0 87.80248349785802
4750.0 87.80248349785802
4870.0 87.81603217789092
5000.0 87.81975829030284
5150.0 87.81975829030284
5300.0 87.8449404455015
5450.0 87.8538835317762
5600.0 87.8538835317762
5800.0 87.8538835317762
6000.0 87.86790306093523
6150.0 87.87264971445816
6300.0 87.86318666649095
6500.0 87.88079116902502
6700.0 87.87709200618102
6900.0 87.89136122144484
7100.0 87.89989051079858
7300.0 87.89989051079858
7500.0 87.8731366841882
7750.0 87.85550106303823
8000.0 87.84663530135936
8250.0 87.84663530135936
8500.0 87.81976321010355
8750.0 87.81976321010355
9000.0 87.79354568426386
9250.0 87.77895089215232
9500.0 87.69354568426385
9750.0 87.69354568426385
10000.0 87.63754425464569
10300.0 87.59354568426386
10600.0 87.5375442546457
10900.0 87.49354568426385
11200.0 87.41976321010355
11500.0 87.33754425464568
11800.0 87.24663530135935
12200.0 87.17895089215232
12500.0 87.11976321010354
12800.0 87.01976321010355
13200.0 86.87895089215232
13600.0 86.76430688771802
14000.0 86.62889151484544
14500.0 86.50525640542236
15000.0 86.34663530135936
15500.0 86.20525640542238
16000.0 86.02889151484545
16500.0 85.82889151484544
17000.0 85.62889151484546
17500.0 85.42889151484545
18000.0 85.20525640542235
18500.0 84.94663530135936
19000.0 84.69070098099004
19500.0 84.41976321010355
20000.0 84.11976321010356
