Freq "Side Wall Bounce"
22.4 44.58315259620741
23.0 45.77298536741171
23.6 46.96431286138204
24.0 48.134166958463
25.0 49.293296078178486
25.8 50.43416695846298
26.5 51.564312861382035
27.2 52.67450038977006
28.0 53.7831525962074
29.0 54.89329607817845
30.0 55.98315259620742
30.7 57.064312861382035
31.5 58.14490823070042
32.5 59.24490823070042
33.5 60.33416695846299
34.5 61.444908230700435
35.5 62.564312861382035
36.5 63.69329607817846
37.5 64.83416695846299
38.7 65.96431286138204
40.0 67.09329607817847
41.2 68.23416695846299
42.5 69.36431286138205
43.7 70.4831525962074
45.0 71.5729853674117
46.2 72.6831525962074
47.5 73.74289981211888
48.7 74.79329607817846
50.0 75.83416695846299
51.5 76.80413878557769
53.0 77.79329607817847
54.5 78.7126043857748
56.0 79.61495449019745
58.0 80.47298536741171
60.0 81.2831525962074
61.5 82.0556230024081
63.0 82.76431286138202
65.0 83.44490823070042
67.0 84.05562300240808
69.0 84.61495449019745
71.0 85.13416695846298
73.0 85.6041387855777
75.0 86.0556230024081
77.5 86.45562300240809
80.0 86.76583091160977
82.5 87.07601488380203
85.0 87.36583091160979
87.5 87.63650542674867
90.0 87.8556230024081
92.5 88.05562300240808
95.0 88.1977594335909
97.5 88.35562300240808
100.0 88.45562300240809
103.0 88.5556230024081
106.0 88.63650542674867
109.0 88.66583091160979
112.0 88.74490823070042
115.0 88.75562300240807
118.0 88.79329607817847
122.0 88.8041387855777
125.0 88.8041387855777
128.0 88.8041387855777
132.0 88.79329607817847
136.0 88.79329607817847
140.0 88.77250561285877
145.0 88.75161514086504
150.0 88.74089046430348
155.0 88.73013923813402
160.0 88.70904908433317
165.0 88.66939747046669
170.0 88.6375205647992
175.0 88.60795112791575
180.0 88.54800953818268
185.0 88.52700619736201
190.0 88.46805207677542
195.0 88.42700619736202
200.0 88.3875189417038
206.0 88.32700619736201
212.0 88.27688818831146
218.0 88.21739473523915
224.0 88.15761145621057
230.0 88.10776195459903
236.0 88.04849756031408
240.0 88.00129987856562
250.0 87.91140111290818
258.0 87.86333742126686
265.0 87.81532151853638
272.0 87.74573329242675
280.0 87.67831689151303
290.0 87.63225314668749
300.0 87.56813431484034
307.0 87.47831289343091
315.0 87.43326375905616
325.0 87.34866574611684
335.0 87.31462491396857
345.0 87.241828299076
355.0 87.15280010352215
365.0 87.1020056794074
375.0 87.02924056031179
387.0 86.98547457521573
400.0 86.92775876216287
412.0 86.85633225921454
425.0 86.79227687241412
437.0 86.69831679039129
450.0 86.65103403427707
462.0 86.58784882528036
475.0 86.53158881153388
487.0 86.44851891926837
500.0 86.36962636803267
515.0 86.31156341483636
530.0 86.21704782804377
545.0 86.1532894231604
560.0 86.07966673803628
580.0 85.98789114961107
600.0 85.94127965709309
615.0 85.85995242590528
630.0 85.79325646341496
650.0 85.72312539176109
670.0 85.62312539176109
690.0 85.57240475589646
710.0 85.45234943482403
730.0 85.36780204294769
750.0 85.27227878525791
775.0 85.22154153859651
800.0 85.10927759840915
825.0 85.00397673210773
850.0 84.93074695686664
875.0 84.82465460269792
900.0 84.7604096329518
925.0 84.6503981340233
950.0 84.51815139420518
975.0 84.4514601146703
1000.0 84.32892311516233
1030.0 84.24446105034545
1060.0 84.11363868969471
1090.0 84.01363868969472
1120.0 83.9182527647282
1150.0 83.78844251590272
1180.0 83.67978031252278
1220.0 83.58662664645294
1250.0 83.45794971492735
1280.0 83.34980920556485
1320.0 83.2588615277358
1360.0 83.14451024681554
1400.0 83.02364710763152
1450.0 82.98435102900324
1500.0 82.86973583376958
1550.0 82.76274673417139
1600.0 82.66681748550678
1650.0 82.58664808931928
1700.0 82.48914797163636
1750.0 82.41246490296535
1800.0 82.34922131407562
1850.0 82.27767930582941
1900.0 82.2295148168573
1950.0 82.14998088459164
2000.0 82.1020317675125
2060.0 82.08061811028364
2120.0 82.05125966472167
2180.0 82.00853269704672
2240.0 81.96171394397216
2300.0 81.94521717789085
2360.0 81.93411102132356
2400.0 81.9215228032377
2500.0 81.90092186721617
2580.0 81.86626661378179
2650.0 81.86626661378179
2720.0 81.86149548139312
2800.0 81.84033954359282
2900.0 81.83744806350629
3000.0 81.83744806350629
3070.0 81.81692270973818
3150.0 81.77689180110477
3250.0 81.77213233360472
3350.0 81.75626163498403
3450.0 81.73994615084987
3550.0 81.69900402945795
3650.0 81.68253676478105
3750.0 81.61683952935323
3870.0 81.58612638949788
4000.0 81.5250007304024
4120.0 81.4805557937231
4250.0 81.3805557937231
4370.0 81.34432458043538
4500.0 81.27121451350446
4620.0 81.19108978611597
4750.0 81.12153576495633
4870.0 81.03065721031835
5000.0 80.92154353507918
5150.0 80.83923544050192
5300.0 80.75226892979505
5450.0 80.66247152445219
5600.0 80.5643704903927
5800.0 80.4643704903927
6000.0 80.40383778028158
6150.0 80.29210612752392
6300.0 80.20749968601376
6500.0 80.11934503090205
6700.0 80.02507893744053
6900.0 79.94487465146497
7100.0 79.8663398160816
7300.0 79.80190233165244
7500.0 79.71160064209809
7750.0 79.63357641817345
8000.0 79.58507399997112
8250.0 79.52295163509694
8500.0 79.46050176912094
8750.0 79.41405192448568
9000.0 79.36050176912096
9250.0 79.33817306210744
9500.0 79.2516787537015
9750.0 79.22280029183501
10000.0 79.18492133095035
10300.0 79.13638952782534
10600.0 79.08492133095035
10900.0 79.03817306210743
11200.0 78.99859338224398
11500.0 78.93817306210744
11800.0 78.86050176912096
12200.0 78.77606002154357
12500.0 78.71937978675544
12800.0 78.62295163509695
13200.0 78.54884413706611
13600.0 78.424782359165
14000.0 78.324782359165
14500.0 78.19874557141058
15000.0 78.08147084999743
15500.0 77.90058652561852
16000.0 77.72478235916499
16500.0 77.57090692130859
17000.0 77.324782359165
17500.0 77.12665492772047
18000.0 76.90058652561854
18500.0 76.68147084999742
19000.0 76.40058652561852
19500.0 76.12478235916501
20000.0 75.824782359165
