Freq,On Axis,Listening Window,Sound Power,Early Reflections,Early Reflections DI,Sound Power DI,DI offset
20.5078,55.776503595658085,55.76920114516625,55.6471346117917,55.645120849684744,30.124080295481505,30.12206653337455,30
21.2402,56.62260359565808,56.61557353947735,56.50087695482192,56.49189308954932,30.12368044992803,30.114696584655434,30
21.9727,57.17310359565808,57.167025088267096,57.0743624913206,57.05645399841998,30.110571089847113,30.092662596946496,30
22.7051,57.40810359565809,57.40064361464462,57.2826795000437,57.27628103213432,30.1243625825103,30.117964114600923,30
23.4375,58.15200359565809,58.14665133272152,58.07083650710945,58.044274207111144,30.102377125610374,30.07581482561207,30
24.1699,58.54940359565809,58.54430929272064,58.47553768770149,58.44520927921353,30.099100013507112,30.06877160501915,30
25.6348,59.219603595658086,59.213895425478725,59.13380134766551,59.1084421016313,30.105453323847428,30.080094077813214,30
26.3672,59.55540359565809,59.549540656171914,59.467714253502336,59.44286675094176,30.106673905230153,30.081826402669577,30
27.0996,59.90940359565808,59.90350638218648,59.82140244020455,59.796925367042675,30.106581015143803,30.082103941981927,30
27.832,60.246403595658094,60.23967934977037,60.141578324169004,60.12466062506975,30.11501872470062,30.098101025601366,30
29.2969,60.85290359565808,60.846085889636754,60.744593907578405,60.72934043571131,30.116745453925446,30.10149198205835,30
30.0293,61.28220359565809,61.276156159890164,61.19072409044665,61.16730120175298,30.108854958137186,30.085432069443513,30
31.4941,61.76420359565809,61.75939570587464,61.704427239370006,61.666238746441834,30.093156959432804,30.054968466504633,30
32.2266,61.99720359565809,61.99213840046458,61.93491001611632,61.89770060029673,30.094437800167853,30.057228384348264,30
33.6914,62.496703595658076,62.490426991669764,62.412003316079975,62.38407450049566,30.106352491174107,30.07842367558979,30
34.4238,62.81210359565809,62.80622825052319,62.73679921831028,62.7042013838567,30.102026866666492,30.06942903221291,30
35.8887,63.34610359565808,63.341364744501945,63.29787143015601,63.2524969779995,30.088867766502446,30.043493314345938,30
37.3535,63.76310359565808,63.758432615432824,63.72107520322234,63.671947457424395,30.08648515800843,30.037357412210483,30
38.8184,64.14990359565809,64.14597319172246,64.12640032275831,64.07035345971819,30.07561973200427,30.019572868964147,30
39.5508,64.2938035956581,64.28965166743512,64.27205397333967,64.21546167098272,30.074189996452404,30.017597694095457,30
41.0156,64.70570359565808,64.69933413164628,64.64132892495506,64.60130472434699,30.098029407299293,30.05800520669122,30
42.4805,65.17650359565809,65.16928196968213,65.08763450504405,65.05930430976507,30.109977659917064,30.08164746463808,30
43.9453,65.53540359565808,65.5276895494798,65.4384014864813,65.41404694576393,30.113642603715874,30.089288062998506,30
45.4102,65.95340359565809,65.94451584702988,65.82866267796746,65.81762234037014,30.12689350665974,30.11585316906242,30
47.6074,66.44700359565807,66.43991354403391,66.35979443588177,66.33174536663405,30.10816817739986,30.080119108152147,30
49.0723,66.72210359565808,66.71562425289397,66.65573539195147,66.61707101027389,30.098553242620085,30.059888860942507,30
50.5371,67.00290359565808,66.99576664306153,66.92812868526411,66.89212826489575,30.103638378165783,30.067637957797416,30
52.7344,67.48970359565807,67.48249708275935,67.4119897520669,67.37777733483698,30.104719747922374,30.07050733069245,30
54.1992,67.72720359565808,67.71977003996619,67.64867868200598,67.61558207471177,30.104187965254425,30.071091357960213,30
56.3965,68.13530359565807,68.12807242865493,68.06550930493067,68.02732353506097,30.10074889359396,30.06256312372426,30
58.5938,68.53740359565809,68.53098285177477,68.49234258372287,68.4416976286194,30.089285223155372,30.038640268051893,30
60.0586,68.6831035956581,68.67637027103375,68.6428577188246,68.58926993461681,30.08710033641694,30.033512552209146,30
62.2559,69.01410359565809,69.00531416749843,68.93188421592805,68.8976144716623,30.107699695836132,30.073429951570375,30
64.4531,69.33770359565808,69.3272900621965,69.22339600494509,69.20418434853562,30.123105713660877,30.10389405725141,30
66.6504,69.63390359565808,69.6217818119022,69.4757401727995,69.4781749278338,30.14360688406839,30.14604163910269,30
69.5801,69.94950359565809,69.93905460853739,69.82531188767803,69.810192586919,30.12886202161839,30.113742720859364,30
71.7773,70.14970359565808,70.14028863343482,70.05803567759656,70.02813177088585,30.11215686254897,30.082252955838257,30
73.9746,70.39460359565808,70.38526567806177,70.3162191878957,70.28049025279257,30.104775425269196,30.069046490166073,30
76.9043,70.61790359565809,70.60879793430094,70.55911069293452,70.51274329569831,30.096054638602624,30.049687241366414,30
79.834,70.95200359565808,70.94070379324712,70.86070790007595,70.82796394084686,30.112739852400267,30.079995893171173,30
82.7637,71.22530359565809,71.21110506286445,71.07445225461214,71.0711098507285,30.139995212135943,30.136652808252308,30
85.6934,71.29820359565808,71.28679290248031,71.20275111354292,71.1713149949503,30.11547790753002,30.084041788937398,30
88.623,71.47980359565808,71.4691351731311,71.41983683806558,71.37066689290042,30.098468280230676,30.049298335065515,30
91.5527,71.59840359565808,71.58589393086307,71.52793154702084,71.48234072998143,30.103553200881635,30.057962383842224,30
94.4824,71.7575035956581,71.74100796973707,71.64202222295428,71.61320748303463,30.12780048670244,30.098985746782787,30
98.1445,72.10110359565807,72.08325067322257,71.90893622037395,71.92094951073439,30.162301162488177,30.17431445284862,30
101.807,72.14170359565809,72.12438553249483,72.00250152984877,71.98651324347878,30.137872289016045,30.121884002646055,30
105.469,72.2267035956581,72.2077270325451,72.07534953945871,72.0638046176587,30.14392241488639,30.13237749308638,30
109.131,72.47290359565808,72.45061211829938,72.26231025624965,72.27668991706007,30.173922201239307,30.188301862049727,30
112.793,72.67200359565808,72.64998509320621,72.4730239029472,72.48154893900187,30.168436154204343,30.176961190259007,30
116.455,72.72210359565808,72.69906917230635,72.53829509029515,72.53685488830627,30.162214284000086,30.1607740820112,30
120.85,72.96550359565809,72.93731692196752,72.70349242871195,72.74162811777715,30.195688804190368,30.233824493255568,30
125.244,72.99740359565807,72.96682062605116,72.6687057052183,72.73567994285749,30.231140683193672,30.29811492083286,30
129.639,73.06860359565808,73.03922702931494,72.74301509843781,72.80950526528757,30.229721764027374,30.296211930877135,30
134.033,73.04400359565808,73.01732366247903,72.81035611288632,72.83105241997193,30.186271242507104,30.206967549592704,30
138.428,72.93820359565808,72.910128634005,72.7817588436809,72.75833258048407,30.15179605352094,30.1283697903241,30
143.555,73.01320359565808,72.9754194510094,72.70349601913354,72.74452601699966,30.230893434009744,30.271923431875862,30
148.682,73.1839035956581,73.14030817778193,72.7486640806868,72.84425126404645,30.296056913735484,30.39164409709514,30
153.809,73.38370359565809,73.33805670653534,72.8728275586629,73.00495097263568,30.333105733899657,30.465229147872435,30
159.668,73.47600359565807,73.43153215133053,73.01329425352391,73.11765698686602,30.313875164464505,30.41823789780662,30
164.795,73.55030359565806,73.50325210093125,73.03594205604242,73.1700226681248,30.333229432806448,30.467310044888833,30
170.654,73.54850359565809,73.49871894924755,73.05004957549123,73.17950615777325,30.3192127914743,30.448669373756317,30
176.514,73.48110359565808,73.42678923878914,72.9481806222653,73.0891144931904,30.337674745598747,30.478608616523843,30
183.105,73.47620359565809,73.41355028977222,72.81781063044981,73.00354072322622,30.410009566545995,30.595739659322405,30
189.697,73.64350359565809,73.57769392267555,72.86705498471025,73.11665856028904,30.46103536238651,30.7106389379653,30
196.289,73.74300359565808,73.67249125056526,72.96048422689749,73.21333286745222,30.459158383113035,30.712007023667766,30
202.881,73.77740359565809,73.70080482516641,72.86412893299494,73.17580618382026,30.52499864134616,30.83667589217147,30
210.205,73.74990359565808,73.6723469056253,72.77037903050847,73.10933617150145,30.56301073412385,30.90196787511684,30
217.529,73.64310359565809,73.56697380743084,72.76154627082592,73.052924973001,30.514048834429843,30.805427536604924,30
225.586,73.75690359565809,73.6648820315,72.73693395443145,73.07933614882315,30.585545882676854,30.92794807706855,30
232.91,74.0538035956581,73.95142773047094,72.72821947994812,73.23145077667954,30.719976953791402,31.223208250522816,30
241.699,73.90040359565809,73.8006379696158,72.56305354283228,73.06891231861066,30.73172565100515,31.237584426783528,30
249.756,74.17440359565809,74.06552572750272,72.64138995247183,73.22428651380774,30.841239213694976,31.42413577503089,30
258.545,74.43530359565808,74.33126983182436,72.83292678094847,73.47971008496906,30.8515597468553,31.49834305087589,30
268.066,73.98380359565809,73.87273153578096,72.42039267880973,73.0108950043583,30.861836531422654,31.452338856971224,30
277.588,74.34420359565809,74.24092245216053,72.61433457010908,73.29573440860382,30.945188043556712,31.626587882051453,30
287.109,74.03290359565808,73.93406030395728,72.40743136698799,73.07722675583612,30.85683354812116,31.52662893696929,30
297.363,74.3381035956581,74.22629682375234,72.42097683422271,73.2450588664157,30.98123795733663,31.80531998952962,30
307.617,74.30040359565808,74.1986893279467,72.58147032796974,73.32136136549092,30.87732796245578,31.617218999976956,30
318.604,73.9741035956581,73.85920500725813,72.13593574405128,72.90075551459333,30.958449492664798,31.723269263206845,30
329.59,73.99310359565807,73.88489896431498,72.28237366537678,72.99737604344118,30.887522920873806,31.602525298938204,30
341.309,73.58510359565808,73.42745229041587,72.02365738830338,72.5930442449217,30.834408045494172,31.403794902112494,30
353.76,74.40860359565808,74.23606693452352,71.84712623287872,72.92420067619518,31.311866258328337,32.3889407016448,30
366.211,74.74030359565809,74.58235949579655,71.90313780773265,73.18013287937308,31.402226616423476,32.679221688063905,30
378.662,74.92250359565809,74.76992640139679,72.05649038744656,73.40194625570142,31.36798014569537,32.71343601395023,30
392.578,74.50030359565808,74.37729722315726,71.66143994630936,73.01970115108413,31.35759607207312,32.7158572768479,30
405.762,73.84980359565809,73.70964843453554,71.14766382033994,72.39382606211178,31.315822372423753,32.561984614195595,30
420.41,74.52640359565808,74.39687517797712,71.25035856851356,72.85772328775279,31.539151890224332,33.14651660946356,30
435.059,73.96790359565809,73.84342503449673,71.04782966999758,72.4318238460174,31.411601188479338,32.79559536449915,30
450.439,74.01520359565808,73.90929960763928,70.78251358597643,72.44295016147014,31.466349446169147,33.12678602166285,30
466.553,73.69840359565809,73.57835676550678,70.55363589324821,72.13785830783782,31.440498457668966,33.02472087225857,30
482.666,73.23390359565809,73.11233371765375,69.97227846839652,71.65691144400905,31.4554222736447,33.14005524925723,30
500.244,73.28200359565808,73.15739093649366,70.02766635852605,71.71382143087375,31.443569505619905,33.12972457796761,30
517.822,72.81220359565809,72.71997414496384,69.6970526660065,71.34140716640331,31.378566978560528,33.02292147895734,30
536.133,72.98400359565808,72.78127084651837,69.15074303508722,71.09092724821558,31.69034359830279,33.63052781143115,30
554.443,72.8947035956581,72.70418806300903,69.15667546362394,71.0918570622486,31.612331000760435,33.54751259938509,30
574.219,73.44950359565809,73.23052956833473,69.37132119467616,71.4766155550172,31.753914013317527,33.859208373658575,30
594.727,73.11710359565808,72.82347042179157,69.11496707999278,71.17946725483286,31.64400316695871,33.70850334179879,30
615.234,73.54690359565808,73.24398830342975,68.93050841091714,71.31583888196202,31.928149421467722,34.3134798925126,30
637.207,74.17630359565808,73.76818236316636,69.32320102930053,71.72322580899335,32.04495655417301,34.444981333865826,30
659.912,73.95860359565809,73.63964001840203,68.93322969253252,71.42466029604358,32.21497972235845,34.70641032586951,30
683.35,74.32470359565808,73.9247467591797,69.16903666957893,71.62579649648566,32.298950262694035,34.75571008960077,30
706.787,74.81950359565809,74.40518917485481,69.11526825285466,71.81146598522956,32.59372318962525,35.28992092200015,30
731.689,74.63470359565808,74.29674154611465,68.91000895784416,71.70605977443206,32.59068177168258,35.38673258827049,30
758.057,74.38160359565809,74.01441671283636,68.58217196120808,71.30406884871527,32.71034786412109,35.43224475162829,30
784.424,74.20760359565809,73.92836863353182,68.44933485314927,71.33566707243867,32.59270156109315,35.47903378038255,30
812.256,74.00570359565809,73.6673353763938,67.98097889045222,70.87531670895035,32.79201866744344,35.68635648594157,30
840.82,73.59780359565808,73.28291688030549,67.63835403150824,70.5492615623889,32.733655317916586,35.64456284879725,30
870.85,73.51690359565809,73.21071795167643,67.55842226364848,70.3904559085267,32.820262043149725,35.65229568802795,30
901.611,73.47400359565809,73.16438099117556,67.41954100134556,70.33437330038653,32.83000769078903,35.74483998983,30
933.105,73.67270359565809,73.29734020172936,67.5682752692964,70.41143846706946,32.885901734659896,35.72906493243296,30
966.064,73.57340359565809,73.22383824501362,67.68129332880854,70.38706097708136,32.83677726793226,35.54254491620509,30
999.756,73.80960359565809,73.36544331440402,67.99226651175061,70.63035967729569,32.73508363710833,35.373176802653404,30
1034.91,73.39200359565808,72.89327497374175,67.6969078380911,70.38975791732656,32.50351705641519,35.19636713565066,30
1071.53,72.79560359565808,72.3153617997175,67.53600839043415,70.16822671149596,32.14713508822153,34.779353409283345,30
1109.62,72.02220359565808,71.64432145243069,67.3607463485773,69.89461868301804,31.74970276941265,34.283575103853394,30
1148.44,71.46780359565808,71.22841559317914,67.57872664149146,70.05382088462532,31.174594708553812,33.64968895168768,30
1189.45,72.73010359565806,72.41591005781062,68.32498162226736,70.94657005684803,31.46934000096259,34.09092843554326,30
1231.2,73.97510359565808,73.44581348097849,68.91242987906399,71.43027728386119,32.0155361971173,34.533383601914494,30
1274.41,73.93000359565808,73.32203281297056,69.1282186035324,71.59400284726892,31.728029965701637,34.19381420943816,30
1319.82,74.07700359565808,73.54640793658348,69.54595008029148,71.84848841964626,31.69791951693722,34.000457856292,30
1365.97,73.53410359565808,73.0584063840509,69.36187834601975,71.79599116879099,31.262415215259907,33.69652803803115,30
1414.31,72.99880359565809,72.73475403676538,69.32415850284177,71.87131126672172,30.86344277004366,33.41059553392361,30
1464.11,73.09230359565807,72.89334906211458,69.36304940259136,71.60359430532593,31.289754756788653,33.53029965952322,30
1515.38,73.98420359565809,73.67615554072226,69.60129631194519,72.03975248278981,31.636403057932455,34.07485922877707,30
1568.85,73.7534035956581,73.61578301118833,69.74878902654808,72.33952514935147,31.276257861836854,33.866993984640246,30
1624.51,73.63820359565808,73.58552264343432,69.47209320559018,71.96356530863808,31.621957334796235,34.11342943784413,30
1681.64,72.68810359565809,72.82837969963622,69.5877926939167,72.06976643988983,30.758613259746383,33.24058700571952,30
1740.97,73.52350359565808,73.39938565229919,69.44638200116671,71.8431091768184,31.556276475480786,33.95300365113248,30
1802.49,73.86580359565808,73.85356617204168,69.72554146908398,72.28794897982453,31.565617192217147,34.1280247029577,30
1866.21,73.6943035956581,73.85623714693433,69.75134498835705,72.08582078654894,31.770416360385397,34.104892158577286,30
1932.13,72.99120359565809,73.17852436732149,69.29138501535641,71.62690749717152,31.55161687014997,33.887139351965075,30
2000.24,73.29850359565809,73.55837886859153,69.37379977027243,71.8228849703352,31.735493898256337,34.184579098319105,30
2070.56,74.16400359565809,74.40224530135121,69.63732436914682,72.25881889960365,32.14342640174756,34.76492093220439,30
2143.8,74.14490359565808,74.34568868986177,69.67199472142447,72.18150782056753,32.16418086929424,34.673693968437306,30
2219.24,73.23210359565809,73.45766335756905,69.33146788104706,71.60313588987601,31.854527467693032,34.126195476521985,30
2297.61,73.59200359565808,73.80037075614943,69.29941980204164,71.6119923693345,32.18837838681493,34.50095095410779,30
2378.17,74.40690359565808,74.61783911757408,69.54676880253311,72.03236486053574,32.58547425703834,35.07107031504097,30
2462.4,74.1326035956581,74.31383880121244,69.17273931199716,71.75209840476714,32.5617403964453,35.14109948921528,30
2548.83,73.79730359565808,74.00968940512949,68.84950495233865,71.51280717067823,32.49688223445126,35.160184452790844,30
2638.92,74.21250359565808,74.32806310388882,68.75680487224768,71.44510037838053,32.88296272550829,35.57125823164114,30
2731.93,74.25290359565808,74.40394471119365,68.65561163242299,71.36533394455476,33.03861076663888,35.748333078770656,30
2828.61,74.1308035956581,74.3749222562083,68.75045499789198,71.34177462469445,33.03314763151384,35.624467258316315,30
2928.22,74.36700359565809,74.63090526361597,68.86387077529534,71.50484724205151,33.12605802156446,35.76703448832063,30
3031.49,74.28860359565807,74.31327369308747,68.46869641598369,71.16901349529208,33.14426019779539,35.84457727710378,30
3138.43,73.91530359565809,73.97602230944314,68.1056425348404,70.71344775421811,33.26257455522503,35.87037977460274,30
3249.02,73.98600359565809,73.77560099190049,67.92651849893815,70.43073970650354,33.344861285396945,35.84908249296234,30
3363.28,73.24120359565809,73.10810609455032,67.57696365780411,69.84453462463941,33.263571469910914,35.53114243674621,30
3481.93,73.18040359565809,72.8100944331101,67.27269135556215,69.4517675940075,33.35832683910259,35.53740307754795,30
3604.98,73.71030359565809,73.03323797776501,67.13982762293554,69.51690715908427,33.51633081868074,35.89341035482947,30
3732.42,73.54090359565807,72.57226876026417,66.69729670981383,69.15972506930827,33.4125436909559,35.87497205045034,30
3863.53,73.80650359565809,72.60489479936022,66.54283025217991,69.20188820544168,33.40300659391855,36.06206454718031,30
3999.76,73.83410359565809,72.77094492526182,66.5032050335955,69.36668454849944,33.40426037676238,36.26773989166631,30
4141.11,74.00210359565808,72.86149700956445,66.49033768931231,69.43415852657024,33.4273384829942,36.37115932025213,30
4286.87,74.5190035956581,73.2165390289142,66.52337234520553,69.71380017967256,33.50273884924164,36.69316668370867,30
4438.48,74.96110359565809,73.75282687264412,66.86340002967924,70.14264823735984,33.610178635284285,36.88942684296488,30
4594.48,75.30110359565809,74.09215480491274,67.0747058894375,70.51883779891413,33.573317005998604,37.01744891547524,30
4757.08,75.30970359565809,74.43687546259542,67.44677495620026,70.90955698320104,33.52731847939438,36.990100506395166,30
4924.8,75.54930359565809,74.70914986246395,67.57459760774982,71.13914497774886,33.57000488471509,37.13455225471412,30
5098.39,75.57650359565808,74.76782531732854,67.72982221831484,71.2814901715121,33.48633514581644,37.03800309901371,30
5277.83,75.72450359565809,74.95097194103617,67.77047875564223,71.46208772508558,33.48888421595059,37.18049318539394,30
5463.87,75.15730359565809,74.45489875603455,67.32376930057927,71.09471849752207,33.360180258512486,37.13112945545528,30
5656.49,74.58350359565809,74.02862249731179,66.85990476992998,70.68119895052213,33.347423546789656,37.168717727381804,30
5856.45,74.67670359565808,73.90533270554545,66.48638724969418,70.43645340146443,33.468879304081014,37.41894545585127,30
6062.99,75.26770359565809,74.3463676081231,66.45328144929793,70.50589442060323,33.840473187519876,37.89308615882517,30
6276.86,75.70790359565808,74.82722305948877,66.71924345229043,70.72715573502734,34.100067324461435,38.107979607198345,30
