Freq "Listening Window"
20.5078 55.823997549508164
21.2402 56.67036994381925
21.9727 57.221821492609024
22.7051 57.45544001898652
23.4375 58.20144773706345
24.1699 58.59910569706257
25.6348 59.268691829820625
26.3672 59.60433706051384
27.0996 59.95830278652841
27.832 60.294475754112284
29.2969 60.900882293978654
30.0293 61.330952564232064
31.4941 61.81419211021657
32.2266 62.04693480480651
33.6914 62.54522339601168
34.4238 62.861024654865105
35.8887 63.39616114884387
37.3535 63.81322901977474
38.8184 64.20076959606438
39.5508 64.34444807177705
41.0156 64.75413053598821
42.4805 65.22407837402406
43.9453 65.58248595382172
45.4102 65.99931225137179
47.6074 66.49470994837581
49.0723 66.7704206572359
50.5371 67.05056304740346
52.7344 67.53729348710127
54.1992 67.77456644430809
56.3965 68.18286883299686
58.5938 68.58577925611668
60.0586 68.73116667537566
62.2559 69.06011057184034
64.4531 69.38208646653842
66.6504 69.67657821624412
69.5801 69.99385101287929
71.7773 70.19508503777672
73.9746 70.4400620824037
76.9043 70.66359433864285
79.834 70.99550019758904
82.7637 71.26590146720638
85.6934 71.34158930682221
88.623 71.523931577473
91.5527 71.64069033520498
94.4824 71.795804374079
98.1445 72.13804707756447
101.807 72.17918193683673
105.469 72.26252343688701
109.131 72.5054085226413
112.793 72.70478149754813
116.455 72.75386557664827
120.85 72.99211332630945
125.244 73.02161703039307
129.639 73.09402343365686
134.033 73.07212006682093
138.428 72.96492503834693
143.555 73.03021585535133
148.682 73.19510458212386
153.809 73.39285311087725
159.668 73.48632855567246
164.795 73.55804850527315
170.654 73.55351535358948
176.514 73.48158564313106
183.105 73.46834669411412
189.697 73.63249032701746
196.289 73.72728765490719
202.881 73.75560122950833
210.205 73.72714330996722
217.529 73.62177021177276
225.586 73.7196784358419
232.91 74.00622413481285
241.699 73.8554343739577
249.756 74.12032213184462
258.545 74.38606623616626
268.066 73.92752794012286
277.588 74.29571885650243
287.109 73.98885670829921
297.363 74.28109322809426
307.617 74.25348573228861
318.604 73.91400141160004
329.59 73.9396953686569
341.309 73.48224869475779
353.76 74.29086333886544
366.211 74.63715590013848
378.662 74.82472280573872
392.578 74.43209362749919
405.762 73.76444483887747
420.41 74.45167158231904
435.059 73.89822143883865
450.439 73.96409601198118
466.553 73.63315316984868
482.666 73.16713012199567
500.244 73.21218734083558
517.822 72.77477054930576
536.133 72.8360672508603
554.443 72.75898446735093
574.219 73.28532597267666
594.727 72.87826682613347
615.234 73.29878470777165
637.207 73.82297876750827
659.912 73.69443642274393
683.35 73.97954316352163
706.787 74.45998557919674
731.689 74.35153795045655
758.057 74.06921311717826
784.424 73.98316503787372
812.256 73.72213178073572
840.82 73.33771328464742
870.85 73.26551435601833
901.611 73.21917739551749
933.105 73.35213660607127
966.064 73.27863464935555
999.756 73.42023971874592
1034.91 72.94807137808367
1071.53 72.37015820405942
1109.62 71.6991178567726
1148.44 71.28321199752106
1189.45 72.47070646215253
1231.2 73.50060988532039
1274.41 73.37682921731248
1319.82 73.60120434092539
1365.97 73.11320278839283
1414.31 72.7895504411073
1464.11 72.9481454664565
1515.38 73.73095194506418
1568.85 73.67057941553024
1624.51 73.64031904777623
1681.64 72.88317610397812
1740.97 73.45418205664112
1802.49 73.90836257638358
1866.21 73.91103355127625
1932.13 73.2333207716634
2000.24 73.61317527293345
2070.56 74.45704170569313
2143.8 74.40048509420367
2219.24 73.51245976191096
2297.61 73.85516716049135
2378.17 74.67263552191599
2462.4 74.36863520555436
2548.83 74.06448580947142
2638.92 74.38285950823074
2731.93 74.45874111553555
2828.61 74.42971866055021
2928.22 74.68570166795789
3031.49 74.36807009742938
3138.43 74.03081871378505
3249.02 73.83039739624239
3363.28 73.16290249889224
3481.93 72.86489083745202
3604.98 73.08803438210693
3732.42 72.62706516460607
3863.53 72.65969120370215
3999.76 72.82574132960373
4141.11 72.91629341390635
4286.87 73.27133543325611
4438.48 73.80762327698605
4594.48 74.14695120925465
4757.08 74.49167186693732
4924.8 74.76394626680587
5098.39 74.82262172167047
5277.83 75.00576834537809
5463.87 74.50969516037647
5656.49 74.0834189016537
5856.45 73.96012910988738
6062.99 74.40116401246502
6276.86 74.8820194638307
6498.05 75.47054161583293
6727.29 76.15986712099328
6964.6 76.2160158607503
7209.96 76.2828982283712
7464.11 75.59346407698905
7727.78 74.57761255146163
8000.24 73.90492922651713
8282.23 74.61493874817623
8574.46 75.91213155731702
8876.22 76.08961419177415
9189.7 75.82775758531524
9513.43 76.17438855174503
9848.88 75.74581431269642
10196.8 76.04655824903311
10556.4 76.48495726917069
10928.5 76.59607222641863
11313.7 76.45274163376152
11712.9 75.46823515645579
12126.0 74.71986434387595
12553.7 74.73654878277155
12996.1 75.03060978237114
13454.6 75.12050297944009
13928.5 74.76112313235902
14419.9 74.5304616535898
14928.2 75.32604238862383
15454.8 76.38457971249085
15999.8 76.78320223640752
16564.5 76.4674816910337
17148.2 76.510049087781
17753.2 76.88280107197814
18379.4 76.32221221854822
19027.6 74.56620961472701
19698.5 74.1723463590766
19999.5 74.15214144621866
