Freq "Sound Power"
20.5078 55.70193101613363
21.2402 56.55567335916383
21.9727 57.12915889566251
22.7051 57.33747590438561
23.4375 58.125632911451376
24.1699 58.53033409204342
25.6348 59.188597752007425
26.3672 59.52251065784425
27.0996 59.876198844546465
27.832 60.196374728510904
29.2969 60.799390311920334
30.0293 61.24552049478858
31.4941 61.759223643711906
32.2266 61.98970642045823
33.6914 62.46679972042189
34.4238 62.79159562265221
35.8887 63.35266783449791
37.3535 63.77587160756427
38.8184 64.18119672710023
39.5508 64.3268503776816
41.0156 64.69612532929698
42.4805 65.14243090938595
43.9453 65.4931978908232
45.4102 65.88345908230937
47.6074 66.41459084022368
49.0723 66.71053179629338
50.5371 66.98292508960604
52.7344 67.46678615640883
54.1992 67.7034750863479
56.3965 68.12030570927257
58.5938 68.54713898806479
60.0586 68.69765412316652
62.2559 68.98668062026998
64.4531 69.27819240928699
66.6504 69.5305365771414
69.5801 69.88010829201995
71.7773 70.11283208193848
73.9746 70.3710155922376
76.9043 70.61390709727642
79.834 70.91550430441787
82.7637 71.12924865895404
85.6934 71.25754751788482
88.623 71.47463324240749
91.5527 71.58272795136277
94.4824 71.69681862729618
98.1445 71.96373262471586
101.807 72.05729793419069
105.469 72.13014594380063
109.131 72.31710666059158
112.793 72.5278203072891
116.455 72.59309149463705
120.85 72.75828883305388
125.244 72.7235021095602
129.639 72.79781150277972
134.033 72.86515251722825
138.428 72.8365552480228
143.555 72.75829242347545
148.682 72.80346048502871
153.809 72.92762396300483
159.668 73.06809065786581
164.795 73.09073846038433
170.654 73.10484597983313
176.514 73.00297702660723
183.105 72.87260703479173
189.697 72.92185138905215
196.289 73.01528063123939
202.881 72.91892533733687
210.205 72.82517543485037
217.529 72.81634267516783
225.586 72.79173035877336
232.91 72.78301588429004
241.699 72.61784994717418
249.756 72.69618635681373
258.545 72.8877231852904
268.066 72.47518908315166
277.588 72.669130974451
287.109 72.46222777132989
297.363 72.47577323856463
307.617 72.63626673231167
318.604 72.19073214839321
329.59 72.33717006971868
341.309 72.07845379264529
353.76 71.90192263722062
366.211 71.95793421207455
378.662 72.11128679178849
392.578 71.71623635065126
405.762 71.20246022468187
420.41 71.30515497285548
435.059 71.10262607433951
450.439 70.83730999031833
466.553 70.60843229759014
482.666 70.02707487273845
500.244 70.08246276286798
517.822 69.75184907034843
536.133 69.20553943942915
554.443 69.21147186796587
574.219 69.42611759901808
594.727 69.1697634843347
615.234 68.98530481525906
637.207 69.37799743364245
659.912 68.98802609687444
683.35 69.22383307392084
706.787 69.17006465719656
731.689 68.96480536218606
758.057 68.63696836554998
784.424 68.50413125749117
812.256 68.03577529479412
840.82 67.69315043585017
870.85 67.61321866799038
901.611 67.47433740568748
933.105 67.62307167363831
966.064 67.73608973315045
999.756 68.04706291609251
1034.91 67.751704242433
1071.53 67.59080479477605
1109.62 67.4155427529192
1148.44 67.63352304583336
1189.45 68.37977802660929
1231.2 68.96722628340592
1274.41 69.1830150078743
1319.82 69.60074648463338
1365.97 69.41667475036168
1414.31 69.3789549071837
1464.11 69.41784580693327
1515.38 69.65609271628709
1568.85 69.80358543088998
1624.51 69.5268896099321
1681.64 69.64258909825861
1740.97 69.50117840550863
1802.49 69.7803378734259
1866.21 69.80614139269896
1932.13 69.34618141969834
2000.24 69.42859617461436
2070.56 69.69212077348874
2143.8 69.72679112576638
2219.24 69.38626428538896
2297.61 69.35421620638354
2378.17 69.60156520687504
2462.4 69.22753571633906
2548.83 68.90430135668055
2638.92 68.8116012765896
2731.93 68.71040803676489
2828.61 68.80525140223388
2928.22 68.91866717963725
3031.49 68.52349282032559
3138.43 68.1604389391823
3249.02 67.98131490328005
3363.28 67.63176006214601
3481.93 67.32748775990405
3604.98 67.19462402727744
3732.42 66.75209311415573
3863.53 66.59762665652181
3999.76 66.55800143793742
4141.11 66.54513409365421
4286.87 66.57816874954746
4438.48 66.91819643402116
4594.48 67.12950229377941
4757.08 67.50157136054217
4924.8 67.62939401209175
5098.39 67.78461862265675
5277.83 67.82527515998414
5463.87 67.37856570492117
5656.49 66.9147011742719
5856.45 66.54118365403608
6062.99 66.50807785363985
6276.86 66.77403985663234
6498.05 67.09427545292223
6727.29 67.53219984842427
6964.6 67.64385088634756
7209.96 67.54993907270976
7464.11 67.03102863359167
7727.78 65.99604003899374
8000.24 65.0151941927072
8282.23 65.26371663470195
8574.46 66.25623219515064
8876.22 66.55776256194949
9189.7 66.40735857292535
9513.43 66.83724146952699
9848.88 66.07376544050177
10196.8 66.0775992883279
10556.4 66.44262304007758
10928.5 66.68609501566151
11313.7 66.72702743001744
11712.9 66.26005133780518
12126.0 65.6074701675675
12553.7 65.47429976534595
12996.1 65.85676558822878
13454.6 66.1334963567496
13928.5 65.97724114433042
14419.9 65.67038558518276
14928.2 66.09319407227689
15454.8 66.84711038658084
15999.8 67.2178465344
16564.5 66.90424322794274
17148.2 66.6696562873097
17753.2 66.7880670554028
18379.4 66.38894076383279
19027.6 64.91879585044056
19698.5 64.25783967456357
19999.5 64.21095805015163
