Freq "Ceiling Bounce"
22.4 35.59343237108634
23.0 36.06863143327742
23.6 38.329032161496016
24.0 44.16863143327738
25.0 47.029032161496005
25.8 48.829032161496016
26.5 50.16516157772024
27.2 51.36516157772023
28.0 54.926436657372605
29.0 57.701824013437644
30.0 59.426436657372605
30.7 60.726436657372616
31.5 62.263426069965845
32.5 65.28825666661696
33.5 67.22643665737262
34.5 68.58825666661696
35.5 69.78825666661696
36.5 71.21351952350467
37.5 72.45061864747261
38.7 73.41351952350466
40.0 73.95061864747264
41.2 73.8761007518737
42.5 73.80202254701196
43.7 74.10202254701194
45.0 76.02838893524422
46.2 77.55520478155574
47.5 78.75520478155575
48.7 80.01899209197484
50.0 81.14648983580979
51.5 82.07444900047356
53.0 83.0028742930677
54.5 83.8028742930677
56.0 84.73177036764652
58.0 85.59700619516371
60.0 86.06114182166083
61.5 85.86114182166084
63.0 85.62580533823915
65.0 85.49619310782073
67.0 85.42580533823917
69.0 85.79099319238652
71.0 86.19099319238651
73.0 85.86114182166084
75.0 85.49700619516372
77.5 85.89700619516373
80.0 85.99700619516372
82.5 85.13340190615048
85.0 85.2703322936978
87.5 86.00451672125753
90.0 86.0703322936978
92.5 86.24169250186971
95.0 86.44169250186971
97.5 85.44169250186971
100.0 84.44169250186972
103.0 83.84169250186972
106.0 83.74169250186971
109.0 84.34169250186972
112.0 84.64169250186971
115.0 84.3794076235036
118.0 84.24169250186971
122.0 84.97940762350358
125.0 84.84169250186973
128.0 85.14169250186971
132.0 83.80780058540982
136.0 84.40780058540983
140.0 85.90780058540984
145.0 87.00780058540984
150.0 87.50780058540983
155.0 85.70780058540983
160.0 84.87442263587393
165.0 84.20780058540984
170.0 84.23666400977272
175.0 86.10780058540983
180.0 86.77442263587393
185.0 85.70780058540983
190.0 85.80780058540982
195.0 86.77442263587393
200.0 84.37442263587394
206.0 80.90780058540984
212.0 82.27442263587393
218.0 84.54580989434726
224.0 81.77442263587393
230.0 83.41272390363487
236.0 85.41272390363488
240.0 85.51272390363488
250.0 85.28436321603829
258.0 85.8843632160383
265.0 86.48436321603828
272.0 85.22346342557705
280.0 84.59581903454642
290.0 85.32903357093858
300.0 83.86863282992695
307.0 81.96863282992696
315.0 82.2419000233963
325.0 82.51561578300591
335.0 82.81561578300591
345.0 83.1562579272982
355.0 83.59745672314165
365.0 84.07209998232649
375.0 84.51410103163411
387.0 84.81410103163412
400.0 84.91410103163412
412.0 84.95666399860556
425.0 85.03222254769699
437.0 84.97559154432115
450.0 84.75181212980608
462.0 84.47285996660491
475.0 84.0501392813273
487.0 83.7732684204631
500.0 83.47326842046309
515.0 83.0978236780502
530.0 82.67674501688946
545.0 82.50331857718628
560.0 82.28321632342944
580.0 81.9312830666681
600.0 81.45116456553656
615.0 81.05116456553658
630.0 80.51961218792486
650.0 79.77141537991699
670.0 79.06587994089143
690.0 78.409517351227
710.0 77.70910285707113
730.0 77.31187481894553
750.0 77.27495777978639
775.0 77.50331538965406
800.0 78.20350800233852
825.0 79.08966574775775
850.0 80.08347119970988
875.0 81.18196603481785
900.0 82.11685032561277
925.0 82.85225945036463
950.0 83.35618206200189
975.0 83.55691344084093
1000.0 83.32903511636106
1030.0 82.61103344599765
1060.0 81.60287280828359
1090.0 80.79677016905656
1120.0 80.4206705793065
1150.0 80.2688745421088
1180.0 79.9561303876526
1220.0 79.33565306263928
1250.0 78.43265506580217
1280.0 77.68773143326416
1320.0 77.0484479990723
1360.0 76.30356186381243
1400.0 75.37514065371259
1450.0 74.51542718876782
1500.0 74.36202055736887
1550.0 74.50764546759702
1600.0 74.04271418894076
1650.0 72.91862677500006
1700.0 72.2913320372351
1750.0 72.0692270173626
1800.0 70.92561166381559
1850.0 68.78968372649122
1900.0 67.33463878129133
1950.0 66.4039188967153
2000.0 65.31375555903348
2060.0 64.56018372404641
2120.0 64.17411823642409
2180.0 62.954359846264225
2240.0 64.43058898923691
2300.0 67.80878273487887
2360.0 70.16311327481547
2400.0 72.36179451814303
2500.0 73.4939990177752
2580.0 74.36487964763931
2650.0 75.44508545665887
2720.0 76.37228667712509
2800.0 76.22145504311412
2900.0 74.54560660016462
3000.0 74.2696037650221
3070.0 73.97088304092897
3150.0 74.6057183130339
3250.0 74.21605177114026
3350.0 73.56049439502844
3450.0 73.27123114252922
3550.0 73.44186001335022
3650.0 71.77951833288218
3750.0 69.40162478692831
3870.0 68.1244027168345
4000.0 67.85509093526069
4120.0 67.90747625454405
4250.0 69.08214001252422
4370.0 70.89552523850472
4500.0 72.37803514818968
4620.0 74.6843506748853
4750.0 74.16884459867461
4870.0 73.7830055640795
5000.0 74.53705419486391
5150.0 74.05770948475273
5300.0 72.37973353915983
5450.0 71.73027605137207
5600.0 74.22257082486769
5800.0 73.94582303885873
6000.0 74.33298219851687
6150.0 74.04836597529003
6300.0 71.76224048201489
6500.0 70.10170918624
6700.0 73.9315419130137
6900.0 75.52897822985828
7100.0 76.16834619617502
7300.0 74.8111723248674
7500.0 74.8726021865744
7750.0 74.93457615147936
8000.0 73.89709122772382
8250.0 76.31415242174789
8500.0 74.59410036807584
8750.0 72.81415242174789
9000.0 75.86952432355822
9250.0 74.6058206063998
9500.0 73.58445298253096
9750.0 72.80511388285457
10000.0 71.41028124828745
10300.0 73.04156763167823
10600.0 70.25527983954483
10900.0 68.34851456910953
11200.0 72.7678662811569
11500.0 69.64130441199485
11800.0 70.41979974009477
12200.0 72.6845345178225
12500.0 68.99204060403183
12800.0 69.55110788423265
13200.0 68.53410329065228
13600.0 78.50000472347499
14000.0 78.98909203852527
14500.0 78.95913333263624
15000.0 78.6350517602301
15500.0 74.76946896696158
16000.0 73.27817091582455
16500.0 71.77833368536336
17000.0 75.78915294243387
17500.0 71.2001963805149
18000.0 74.62490351741906
18500.0 72.61704205554004
19000.0 58.414942300829196
19500.0 64.48463365965024
