Freq "Side Wall Bounce"
22.4 32.776865618740416
23.0 33.352641543154206
23.6 35.65810082197471
24.0 41.64802324853365
25.0 44.59657624496138
25.8 46.49143472885645
26.5 47.94103194008356
27.2 49.19120478182383
28.0 52.88374772072466
29.0 55.7349174107848
30.0 57.58666224542186
30.7 58.886662245421846
31.5 60.47542764431235
32.5 63.53774818635813
33.5 65.55310073428666
34.5 66.92759206108443
35.5 68.14981759370562
36.5 69.64062840183078
37.5 70.86330229551425
38.7 71.88638243273495
40.0 72.47819615667055
41.2 72.44335575293798
42.5 72.4676315335686
43.7 72.7508890320904
45.0 74.73324832586725
46.2 76.29219472501363
47.5 77.54407067459785
48.7 78.87067701055557
50.0 80.01511661129067
51.5 80.99773539179434
53.0 82.04292377538961
54.5 82.88787921792213
56.0 83.87078735010948
58.0 84.78868307544204
60.0 85.31689569625252
61.5 85.15669829055477
63.0 84.91365688455046
65.0 84.83221053766646
67.0 84.80089093268593
69.0 85.15862791670521
71.0 85.5586279167052
73.0 85.27785434737254
75.0 84.87329308276287
77.5 85.30951905692437
80.0 85.39537812331915
82.5 84.55214788362962
85.0 84.6752872181827
87.5 85.38147697914256
90.0 85.43530426412168
92.5 85.6049949045843
95.0 85.8792012614189
97.5 84.8049949045843
100.0 83.77920126141889
103.0 83.17920126141888
106.0 83.04919777077845
109.0 83.64919777077844
112.0 83.91276218521003
115.0 83.6550225668497
118.0 83.53895226090582
122.0 84.26865392508039
125.0 84.13895226090582
128.0 84.43895226090584
132.0 83.09511053775853
136.0 83.68156209670347
140.0 85.1550225668497
145.0 86.31134358957163
150.0 86.73123172135307
155.0 84.94770484829813
160.0 84.04770484829812
165.0 83.38498598192241
170.0 83.36449724783266
175.0 85.22156766081126
180.0 85.84770484829812
185.0 84.74770484829813
190.0 84.82156766081125
195.0 85.72156766081125
200.0 83.27809894642432
206.0 79.73530426412168
212.0 81.03530426412168
218.0 83.2353042641217
224.0 80.41195033915182
230.0 81.95214458721084
236.0 83.88619809530287
240.0 83.94291372723752
250.0 83.64291372723754
258.0 84.28619809530288
265.0 84.92888128722288
272.0 83.71195033915181
280.0 83.21195033915181
290.0 84.0613591581793
300.0 82.70449825820657
307.0 80.92789218286569
315.0 81.23815056011367
325.0 81.5148119771013
335.0 81.73815056011367
345.0 81.99530378692363
355.0 82.30912358133594
365.0 82.59003538752135
375.0 82.8505746480888
387.0 82.91551105040843
400.0 82.84355048828354
412.0 82.59509064468023
425.0 82.36107891943384
437.0 82.0309228143524
450.0 81.57454912796283
462.0 80.90560298221413
475.0 80.242165037735
487.0 79.7232335959919
500.0 79.29388218839553
515.0 78.88901602075514
530.0 78.77361161608509
545.0 78.89096833688491
560.0 79.19500811899283
580.0 79.45256163773975
600.0 79.64953640672552
615.0 79.87210511089127
630.0 79.82924017456827
650.0 79.5818002681705
670.0 79.21291535152521
690.0 78.71148094865404
710.0 78.08960507158491
730.0 77.6078457746863
750.0 77.32780280270428
775.0 77.17609103192326
800.0 77.30485660050292
825.0 77.55870293938348
850.0 77.89697991238137
875.0 78.32698227732331
900.0 78.59620944874733
925.0 78.80982528371648
950.0 78.81498235790484
975.0 78.5724658834833
1000.0 78.0396291212998
1030.0 77.05763074431047
1060.0 75.97798336210916
1090.0 75.02321736006122
1120.0 74.5938016850164
1150.0 74.35922757459915
1180.0 73.98145625404557
1220.0 73.24120741613454
1250.0 72.24106300131457
1280.0 71.49756267043718
1320.0 71.03189400990557
1360.0 70.66619127277963
1400.0 70.29596990447827
1450.0 70.14048371785933
1500.0 70.76196359290032
1550.0 71.9012398420587
1600.0 72.39024111506212
1650.0 72.296281897013
1700.0 72.83670367469036
1750.0 73.89457105034607
1800.0 74.1661233872062
1850.0 73.57670855171945
1900.0 73.46265441750332
1950.0 73.62613627664656
2000.0 73.04463680585222
2060.0 72.35258100996404
2120.0 71.25773590429209
2180.0 68.5747196042476
2240.0 68.17623824089323
2300.0 69.52969564926414
2360.0 69.91935626471815
2400.0 70.4968899148516
2500.0 70.42756550977234
2580.0 70.71945832882865
2650.0 71.56634231933083
2720.0 72.53747916106597
2800.0 72.74511749438354
2900.0 71.52482328390491
3000.0 71.7963089126959
3070.0 72.12268247072907
3150.0 73.24933941380834
3250.0 73.37792711461464
3350.0 73.21852000013858
3450.0 73.51653279584468
3550.0 74.28543518591553
3650.0 73.14859571640274
3750.0 71.36843084826431
3870.0 70.554334950213
4000.0 70.50572773246022
4120.0 70.50011065250142
4250.0 71.2494421369271
4370.0 72.47968487290828
4500.0 73.43013352901268
4620.0 75.15228404411133
4750.0 74.19197024215124
4870.0 73.45652350488528
5000.0 73.96497524064432
5150.0 73.52258231768694
5300.0 71.85039644147771
5450.0 71.41173258712891
5600.0 74.1474775698099
5800.0 74.19276762220363
6000.0 74.98622321800532
6150.0 75.16826920784
6300.0 73.17949855108158
6500.0 71.82644038601315
6700.0 75.80743138137008
6900.0 77.46255196192709
7100.0 78.20792991319381
7300.0 76.87993672156814
7500.0 76.95959545277682
7750.0 77.17771246768841
8000.0 76.17988738467783
8250.0 78.71667552855124
8500.0 77.02817108390583
8750.0 75.37407666354598
9000.0 78.64890594238817
9250.0 77.56946751159582
9500.0 76.80930963802008
9750.0 76.44885556287267
10000.0 75.35359636861934
10300.0 77.397469733818
10600.0 74.9714155764265
10900.0 73.30710374030959
11200.0 77.99478219144079
11500.0 75.01161662696948
11800.0 75.90570475589035
12200.0 78.20840424354262
12500.0 74.40520091773857
12800.0 74.8182131054251
13200.0 73.5083623851563
13600.0 83.22122528014762
14000.0 83.46944032318981
14500.0 83.09688855354455
15000.0 82.48025198551248
15500.0 78.3874683782567
16000.0 76.75853211897017
16500.0 75.08428942546554
17000.0 79.1417645281568
17500.0 74.57117694241896
18000.0 78.16971920828094
18500.0 76.40533111725559
19000.0 62.59848809451344
19500.0 69.13916888006865
