Freq "Sound Power"
20.0 66.37333833734743
20.2909 66.52113262352648
20.586 66.66920381132672
20.8855 66.79489707908076
21.1893 66.92091759405903
21.4975 67.04727444154202
21.8102 67.17362161932051
22.1274 67.30025515732126
22.4492 67.42717553500498
22.7758 67.55412245169141
23.1071 67.6816183624402
23.4432 67.8101611414514
23.7841 67.99956890742558
24.1301 68.18918051588072
24.4811 68.37903744969742
24.8372 68.56912528237132
25.1984 68.75925528477198
25.5649 68.9497315414198
25.9368 69.1403591889264
26.3141 69.331266493012
26.6968 69.54406559883253
27.0851 69.76070922464183
27.4791 69.97741343632143
27.8788 70.19416018939738
28.2843 70.41113757428857
28.6957 70.6282313805107
29.1131 70.84546251972148
29.5365 71.0656448324996
29.9661 71.2878591854865
30.402 71.51024489057443
30.8442 71.7327613242888
31.2929 71.95526063068772
31.748 72.17786220819025
32.2098 72.40066244187656
32.6783 72.61958433169738
33.1536 72.83840140128474
33.6359 73.05737674798189
34.1251 73.27642405305077
34.6215 73.49548602917346
35.125 73.71459764403087
35.6359 73.92517694699151
36.1543 74.13516849035847
36.6802 74.34520453308558
37.2137 74.55525188290876
37.755 74.76543062976981
38.3041 74.97152175277978
38.8613 75.17087313568095
39.4265 75.37053436942966
40.0 75.57008647848053
40.5818 75.76964553380662
41.1721 75.96656787734827
41.771 76.15622899959534
42.3785 76.34588617237605
42.9949 76.53551206261533
43.6203 76.725225228871
44.2548 76.9113033063333
44.8985 77.09338740676628
45.5515 77.27543064899857
46.2141 77.45735315900487
46.8863 77.63947477487194
47.5683 77.81642350516347
48.2602 77.99329826056334
48.9621 78.17047144423
49.6743 78.3475501572961
50.3968 78.52235963869617
51.1299 78.69662093425231
51.8736 78.87107435152963
52.6281 79.04544104293848
53.3936 79.21874790012217
54.1702 79.39184833358318
54.9581 79.56490954451783
55.7575 79.73808747342184
56.5685 79.91047692888529
57.3914 80.0829470269416
58.2261 80.25539959691744
59.073 80.427509620214
59.9323 80.59940569988889
60.804 80.77124842135629
61.6884 80.94296709231719
62.5857 81.11383091842984
63.496 81.28465781194706
64.4196 81.4557012806566
65.3566 81.62519996120744
66.3073 81.79479543983373
67.2717 81.9644649419434
68.2502 82.13243536730513
69.2429 82.30029413061709
70.2501 82.46802589841835
71.2719 82.63373929996972
72.3086 82.79924776558423
73.3603 82.96458139511138
74.4274 83.12744588159399
75.5099 83.2903739372429
76.6083 83.45213323331095
77.7226 83.61222671118377
78.8531 83.77223732512124
80.0 83.93021592831745
81.1636 84.08764844610323
82.3442 84.24429577296301
83.5419 84.39942991576885
84.757 84.55445294525113
85.9899 84.70801652285056
87.2406 84.86138590671041
88.5096 85.01432341186535
89.797 85.16658642986572
91.1031 85.31878006990826
92.4282 85.47040678638696
93.7726 85.62217757888365
95.1366 85.77325847225829
96.5204 85.92439049937319
97.9243 86.07448383728888
99.3486 86.22453354901103
100.794 86.37021416355347
102.26 86.51514284192933
103.747 86.6632169541887
105.256 86.8122764115586
106.787 86.96088671809434
108.34 87.10943393866545
109.916 87.2571475377552
111.515 87.40465808350552
113.137 87.55103647808538
114.783 87.69687007326195
116.452 87.84167508566307
118.146 87.98510921369548
119.865 88.12780291644802
121.608 88.2676294671769
123.377 88.40655667174822
125.171 88.54200624959589
126.992 88.67493814887888
128.839 88.8059106248208
130.713 88.93178007612109
132.615 89.05524249438047
134.543 89.17580335345768
136.5 89.29154073655178
138.486 89.40506773048423
140.5 89.51553345892903
142.544 89.62181415094196
144.617 89.72572459321555
146.721 89.82765572649014
148.855 89.92669407255646
151.02 90.02436431458555
153.217 90.12117905526038
155.445 90.21764588749691
157.706 90.31444367530463
160.0 90.41228248236962
162.327 90.51116663939779
164.688 90.61146257515827
167.084 90.71263788701792
169.514 90.81425348337018
171.98 90.9152680601966
174.481 91.01482286217646
177.019 91.1125422202761
179.594 91.20664627520533
182.206 91.29630672177922
184.856 91.37954504649171
187.545 91.45483883231842
190.273 91.51944602794279
193.041 91.57347164326092
195.849 91.61806534085812
198.697 91.65615880449856
201.587 91.69218383917764
204.52 91.73128516500364
207.494 91.77813175236062
210.512 91.83515116249971
213.574 91.90145802698649
216.681 91.97412169437615
219.833 92.0482986915345
223.03 92.11974217328029
226.274 92.18645675505648
229.565 92.24822100057094
232.905 92.306802762837
236.292 92.36389655591441
239.729 92.42142575536238
243.216 92.4797153618295
246.754 92.53855910072146
250.343 92.59681267693983
253.984 92.65369382654482
257.678 92.70894282512097
261.426 92.76209490781818
265.229 92.81496257856189
269.087 92.8685954937209
273.001 92.92466868112697
276.972 92.98427724335424
281.0 93.04747174065902
285.088 93.11393682825425
289.234 93.1800032428089
293.441 93.23387462634898
297.709 93.25637634356201
302.04 93.26414366601915
306.433 93.3141279434259
310.89 93.37987954117936
315.412 93.46732304863558
320.0 93.5464978981087
324.655 93.60417000294042
329.377 93.64001142246451
334.168 93.6617221566412
339.028 93.67639992442741
343.959 93.69326836595583
348.962 93.71630182296363
354.038 93.74989123550012
359.188 93.79599493606395
364.412 93.85418851820334
369.713 93.92170934429419
375.09 93.99260156011363
380.546 94.05946513819856
386.081 94.11824369701144
391.697 94.17046998570528
397.394 94.21796344811348
403.175 94.26050984106854
409.039 94.29592412294812
414.989 94.32397842247242
421.025 94.34686732472798
427.149 94.36357257992435
433.362 94.36830025426042
439.665 94.35542738093324
446.06 94.3323982433826
452.548 94.32059994350712
459.131 94.34406674033072
465.809 94.4138859904332
472.584 94.52466854882879
479.458 94.65447828066566
486.432 94.78299211746159
493.507 94.89224842926369
500.686 94.96999969568549
507.968 95.00308034380551
515.357 94.99640526641505
522.853 94.96715151556268
530.458 94.91968429525454
538.174 94.85875366623335
546.002 94.7831391004439
553.943 94.686447756271
562.001 94.56428846221813
570.175 94.41940697373005
578.469 94.2556250115197
586.883 94.07200296216547
595.419 93.8564852713182
604.08 93.61277264171194
612.866 93.3636380761111
621.78 93.12432313254732
630.824 92.88856674212775
640.0 92.66401555846956
649.309 92.46179531402052
658.753 92.28942644394985
668.335 92.15077444052012
678.056 92.05321127957873
687.919 92.00637847734102
697.925 92.01133078842183
708.077 92.04915316045673
718.376 92.06531409519025
728.825 92.05412046271165
739.426 92.0126530490691
750.181 91.95749143600005
761.093 91.88661464413713
772.163 91.768808683982
783.394 91.56753487845367
794.789 91.2746664245407
806.349 90.91185128096512
818.078 90.50470250596278
829.977 90.06335005244514
842.05 89.59657702591868
854.298 89.13261047292941
866.724 88.71691577412071
879.33 88.39146912057886
892.12 88.17550186478103
905.097 88.06678039955499
918.262 88.0661678794477
931.618 88.14682027655151
945.169 88.29162940777017
958.917 88.45713492469227
972.864 88.60764429291811
987.015 88.72579621444103
1001.37 88.8127389864429
1015.94 88.87714078664155
1030.71 88.90526161602367
1045.71 88.86012293698144
1060.92 88.73857520483546
1076.35 88.59412203864623
1092.0 88.47224375184959
1107.89 88.36782941036708
1124.0 88.23271503272194
1140.35 88.06883352384256
1156.94 87.92844830007212
1173.77 87.83361811440753
1190.84 87.7596417266013
1208.16 87.68397581053406
1225.73 87.62320200514228
1243.56 87.5850011446717
1261.65 87.5366274845656
1280.0 87.48407453541888
1298.62 87.47058262786075
1317.51 87.44133882807446
1336.67 87.30068861427917
1356.11 87.02568298903981
1375.84 86.77704131506599
1395.85 86.62178612652997
1416.15 86.44119175578263
1436.75 86.18214662194617
1457.65 85.90017003690024
1478.85 85.66515101886674
1500.36 85.51468280480961
1522.19 85.39286881141827
1544.33 85.27764624640591
1566.79 85.17676363762304
1589.58 85.16364128584553
1612.7 85.17682707582097
1636.16 85.16899618306468
1659.95 85.2607142242799
1684.1 85.46065483454008
1708.6 85.65087106294908
1733.45 85.79738674376009
1758.66 85.86822433977042
1784.24 85.81107182461948
1810.19 85.55737608223758
1836.52 85.11904519703157
1863.24 84.61194336816966
1890.34 84.12922385834884
1917.83 83.84806400770428
1945.73 83.94745291049533
1974.03 84.30813652272091
2002.74 84.77664811636807
2031.87 85.17251425572682
2061.43 85.35665549229853
2091.41 85.21869171498786
2121.83 84.78241441261036
2152.69 84.22424680543402
2184.01 83.66466921150788
2215.77 83.31473928881465
2248.0 83.32825671132403
2280.7 83.7855074825882
2313.87 84.55054889399679
2347.53 85.37959804535367
2381.68 86.19298169885721
2416.32 86.99105457895
2451.46 87.68297945725479
2487.12 88.15424359387718
2523.3 88.33515768978077
2560.0 88.33651762262427
2597.24 88.31152266368593
2635.01 88.31539909521692
2673.34 88.33690845120158
2712.23 88.27997363579291
2751.68 88.08930056253656
2791.7 87.81532837054348
2832.31 87.50003429204602
2873.5 87.18874640932711
2915.3 86.91354957970452
2957.7 86.68124284620728
3000.72 86.43387830343272
3044.37 86.03267012575441
3088.65 85.48450218277463
3133.58 84.89930376079013
3179.16 84.41071208416213
3225.4 83.98158546927579
3272.31 83.55022362998542
3319.91 83.18183331915216
3368.2 82.93188147031367
3417.19 82.72981665579647
3466.89 82.49572655388414
3517.32 82.39911779396904
3568.48 82.46856038034142
3620.39 82.55982481065953
3673.05 82.64647082518728
3726.47 82.7079819507948
3780.67 82.70649754889826
3835.67 82.61075118334396
3891.46 82.49389184994008
3948.06 82.44610772552033
4005.49 82.5472727952862
4063.75 82.69128833985476
4122.86 82.73893009819136
4182.82 82.73275204511276
4243.66 82.72933890324117
4305.39 82.76195573783353
4368.01 82.85611930504618
4431.55 82.88765508984844
4496.01 82.80270674008568
4561.4 82.71225571509859
4627.75 82.77295831059477
4695.06 83.05114299947034
4763.35 83.33683804348938
4832.64 83.22873119334628
4902.93 82.83314139738472
4974.24 82.48634466411826
5046.6 82.2629543237409
5120.0 82.06468742794416
5194.47 81.97827750560361
5270.03 81.99663063856565
5346.68 81.93193252293149
5424.45 81.78354216843432
5503.35 81.73356068138975
5583.4 81.7028768059051
5664.61 81.50580753561064
5747.01 81.27260699776464
5830.6 81.1597933122321
5915.41 81.15119733478105
6001.45 81.16120757533872
6088.74 81.19951670372888
6177.3 81.30035263678599
6267.15 81.35672361483371
6358.31 81.25147404414244
6450.8 80.950759095271
6544.62 80.65056262383379
6639.82 80.62034091647236
6736.4 80.64667277676874
6834.38 80.88186803594091
6933.79 81.20480626832118
7034.64 81.19669065102967
7136.96 80.79330747743036
7240.77 80.17645907812329
7346.09 79.5706182867263
7452.94 78.96300962457224
7561.35 78.46390615974951
7671.33 78.40450762507267
7782.91 78.32962531485998
7896.12 78.1076075200614
8010.97 77.76722545701512
8127.49 77.33613744736104
8245.71 76.92884950976348
8365.65 76.38256752979338
8487.33 75.5550000602738
8610.78 75.06009218499361
8736.03 75.48047466693846
8863.09 76.32598272516744
8992.01 76.97936362726608
9122.8 77.41731091899774
9255.5 77.94187583285196
9390.12 78.48299009241947
9526.7 78.79277334716323
9665.27 78.97244777253877
9805.86 79.14216524603819
9948.49 79.08891963042444
10093.2 78.92883770425018
10240.0 79.10837808436652
10388.9 79.5546560296192
10540.1 80.10787530832813
10693.4 80.33707359549895
10848.9 79.94434470946146
11006.7 79.20041055996391
11166.8 78.47881857842165
11329.2 77.68852271650675
11494.0 76.4259982920326
11661.2 74.28844648503662
11830.8 71.35840411958608
12002.9 69.11073784317105
12177.5 67.7647394597669
12354.6 67.08710922397796
12534.3 67.77524108389365
12716.6 69.3675368486027
12901.6 70.27995954568976
13089.2 70.6094897525128
13279.6 71.04412839520009
13472.8 71.64733763318569
13668.8 71.97423468282375
13867.6 72.70991800623901
14069.3 74.49314337627857
14273.9 75.90164636829138
14481.5 75.16078801562426
14692.2 73.22508506880573
14905.9 72.39067451342203
15122.7 72.68230193145047
15342.7 72.83396661436235
15565.8 72.14421848934064
15792.2 70.8876041610027
16021.9 69.8983334983827
16255.0 68.62960954206261
16491.4 66.62996601263713
16731.3 66.01783456117657
16974.7 67.03815424702742
17221.6 67.19486405091011
17472.1 66.42442060274526
17726.2 64.47015308290176
17984.0 62.4038283929015
18245.6 61.62793692462972
18511.0 61.28586353258001
18780.2 61.12559044522612
19053.4 60.30925048704927
19330.5 59.15430267976811
19611.7 57.78230343368273
19897.0 57.63339675366939
