Freq "Rear Wall Bounce"
22.4 -16.55971710796102
23.0 -13.579732079729055
23.6 -10.252817911171107
24.0 -7.4058777524565045
25.0 -5.283151621727413
25.8 -3.5558886446169
26.5 -2.329535424318564
27.2 -0.9711893985026308
28.0 -0.270230085959426
29.0 -0.5429517961835728
30.0 -0.8751615430103499
30.7 2.092559167709524
31.5 5.3133750917235005
32.5 9.31459472159564
33.5 12.507524098757543
34.5 15.08691426753846
35.5 18.658245976495962
36.5 21.119048946583078
37.5 23.749854351312607
38.7 26.85141312471849
40.0 32.089524576103045
41.2 38.6687891792251
42.5 37.02234287904848
43.7 34.49799461170939
45.0 33.71767864987903
46.2 38.57346620392799
47.5 43.233575665722995
48.7 45.15210403441351
50.0 46.827945837632015
51.5 50.75273812366025
53.0 55.725000000424885
54.5 57.93343729788673
56.0 59.922443870085246
58.0 61.99004055733663
60.0 63.77198751109077
61.5 65.37733544591673
63.0 66.78321568155887
65.0 68.11001727033921
67.0 69.74883623615797
69.0 71.34525923358136
71.0 72.84248423365317
73.0 73.92758503838118
75.0 75.12701643956943
77.5 76.20987283511305
80.0 77.0256982080464
82.5 78.20889637604803
85.0 79.17876912880762
87.5 79.862687551138
90.0 80.51259396628191
92.5 81.25857333883339
95.0 81.92304105666078
97.5 82.67277794148218
100.0 83.21796097353314
103.0 83.59131413133527
106.0 83.5822402502014
109.0 83.49344259244532
112.0 83.11874074721217
115.0 83.00391711495674
118.0 82.73017683322753
122.0 82.4533714564052
125.0 82.23741510355704
128.0 82.04508716279015
132.0 82.06779211117926
136.0 82.16354989234283
140.0 82.28199361611397
145.0 82.57913662121544
150.0 82.80105578906274
155.0 83.32294998592425
160.0 83.91018191889832
165.0 84.21636877994838
170.0 84.45449250375839
175.0 84.60279852173637
180.0 84.632159842114
185.0 84.42015157316456
190.0 84.02166984261238
195.0 83.61503330291028
200.0 83.24126331268694
206.0 82.8881288920797
212.0 82.50150420398029
218.0 81.98200538392187
224.0 81.08227460388524
230.0 80.54137265912905
236.0 80.45363092676084
240.0 80.48504303749452
250.0 80.39642466120391
258.0 80.04812056674648
265.0 79.84022192374438
272.0 79.83394202029663
280.0 79.71093198721974
290.0 79.47652211605747
300.0 79.10886685918588
307.0 78.50669805847397
315.0 77.79955394917339
325.0 77.0235470490264
335.0 76.30646799816213
345.0 75.81462572858362
355.0 75.79203852067839
365.0 75.83261263938108
375.0 75.73407461646289
387.0 75.77296472150125
400.0 76.10539103279199
412.0 76.36843429733224
425.0 76.89277588879273
437.0 77.35071797480364
450.0 77.33846123882869
462.0 77.07836260748095
475.0 76.88004570660642
487.0 76.95644090502364
500.0 77.01855996558767
515.0 76.70076272724883
530.0 76.17728709793253
545.0 75.89536057335911
560.0 75.91011585217984
580.0 76.30409933984643
600.0 76.84933709557944
615.0 77.26545888752447
630.0 77.37120882146348
650.0 76.82212103508324
670.0 75.43681000644814
690.0 75.09556711549172
710.0 75.92041596112163
730.0 75.714774277264
750.0 75.29489069996326
775.0 76.20015635118136
800.0 77.14573064819712
825.0 77.10404269497963
850.0 76.51360070094243
875.0 75.98287623427619
900.0 75.65055262998585
925.0 74.69508201230228
950.0 73.99925520948132
975.0 73.83022059823887
1000.0 73.67616394910044
1030.0 73.5189092736047
1060.0 73.2440533836637
1090.0 73.44058629435953
1120.0 73.63387413291362
1150.0 73.4082406994394
1180.0 72.90118976551052
1220.0 73.26568226171558
1250.0 72.24083014365121
1280.0 72.35352345531179
1320.0 71.79747897154199
1360.0 71.61502104297335
1400.0 71.30413679099435
1450.0 70.78249937306917
1500.0 70.38521215560816
1550.0 69.57297292749816
1600.0 70.03627836800037
1650.0 69.83161353080884
1700.0 69.56372909996144
1750.0 69.20203496625922
1800.0 70.35811766196294
1850.0 69.92083702564084
1900.0 69.59187578212928
1950.0 69.74964875619857
2000.0 69.36003716684068
2060.0 69.14070720568836
2120.0 69.44384523661752
2180.0 68.87238717357364
2240.0 68.37873152911224
2300.0 68.34218777417523
2360.0 68.61654652195703
2400.0 68.62929727236336
2500.0 68.87467907753597
2580.0 68.58300967136485
2650.0 68.40344187770853
2720.0 68.07671395563737
2800.0 67.4337228187801
2900.0 66.98527525856674
3000.0 66.37162176823331
3070.0 66.11730920858197
3150.0 66.7989946832256
3250.0 67.11801880638738
3350.0 66.85976661513273
3450.0 66.3503647591086
3550.0 66.96734328229303
3650.0 66.82145376532168
3750.0 66.89593742613194
3870.0 66.09542124069218
4000.0 66.11298209668537
4120.0 65.57146636478886
4250.0 65.70058658817676
4370.0 65.94044392265674
4500.0 66.30579176528373
4620.0 66.93872097705982
4750.0 67.38746374300025
4870.0 67.5800890460244
5000.0 67.37422479526604
5150.0 66.86832827549993
5300.0 66.00831282724663
5450.0 64.84644064967686
5600.0 64.09646240207985
5800.0 63.22781204328507
6000.0 62.73014273361633
6150.0 62.533248480968425
6300.0 62.78264638237586
6500.0 61.71255149125108
6700.0 61.29696367848119
6900.0 61.67732353550373
7100.0 62.50615731862776
7300.0 62.60514714261723
7500.0 62.05898377680701
7750.0 61.790235598125065
8000.0 61.588860612810336
8250.0 60.972903152095355
8500.0 60.67620056557553
8750.0 59.49572489521678
9000.0 60.80643203107523
9250.0 62.112078189955824
9500.0 63.11508568787799
9750.0 63.65592507446392
10000.0 63.16588095061191
10300.0 62.93880746659862
10600.0 61.959208536192435
10900.0 59.94424431445617
11200.0 58.94398385748919
11500.0 57.87156352888054
11800.0 57.31126447893537
12200.0 56.38979562729618
12500.0 56.01319151615279
12800.0 55.50151633604857
13200.0 54.89066400573158
13600.0 52.81899103877994
14000.0 50.320202257975055
14500.0 49.812601524683984
15000.0 51.453534987958236
15500.0 52.26032588734451
16000.0 51.669317808985866
16500.0 50.052185166940816
17000.0 47.34995704145341
17500.0 44.80949305738743
18000.0 45.59462808281471
18500.0 44.18859130767744
19000.0 43.71105400053678
19500.0 43.130150448299574
