Freq "Listening Window"
22.4 -6.34417789529617
23.0 -5.155140407747908
23.6 -3.9098775096614844
24.0 -2.296949583054058
25.0 -0.6163872587459451
25.8 0.9750633384591509
26.5 2.5108527986039775
27.2 4.0353649816341175
28.0 5.525320907522271
29.0 6.982675122850296
30.0 8.813760048006188
30.7 11.227292598530184
31.5 13.424166483525013
32.5 15.399949775365215
33.5 17.232593248795766
34.5 18.9981286359306
35.5 20.742801405901062
36.5 23.086760225805918
37.5 25.220262349027834
38.7 27.186760225805912
40.0 29.031287047325563
41.2 30.77562176756156
42.5 32.9641942111039
43.7 35.186760225805884
45.0 37.186760225805884
46.2 39.0753619787787
47.5 40.9641942111039
48.7 43.26419421110391
50.0 45.38650110247592
51.5 47.35299765175715
53.0 49.252997651757155
54.5 51.54177215189874
56.0 53.74177215189873
58.0 55.697611728756485
60.0 57.641772151898735
61.5 59.752997651757155
63.0 61.74177215189873
65.0 63.586501102475935
67.0 65.38650110247593
69.0 67.11974806971251
71.0 68.7420279984546
73.0 70.21974806971251
75.0 71.61974806971251
77.5 72.93077407194536
80.0 74.16444874019986
82.5 75.32025649615723
85.0 76.38675432761075
87.5 77.26520644539083
90.0 78.06520644539083
92.5 78.79786430690811
95.0 79.39786430690809
97.5 79.86520644539085
100.0 80.2210103796646
103.0 80.45476054583337
106.0 80.5877672147553
109.0 80.67737550375408
112.0 80.75476054583336
115.0 80.75476054583336
118.0 80.67737550375408
122.0 80.57737550375408
125.0 80.53353699844014
128.0 80.52276915131525
132.0 80.5900056492776
136.0 80.62276915131524
140.0 80.73430608537198
145.0 80.75652338834996
150.0 80.74530700977402
155.0 80.79051756939732
160.0 80.9684739327644
165.0 81.079129192352
170.0 80.93579253993445
175.0 80.78060038684544
180.0 80.86918594030418
185.0 80.88060038684543
190.0 81.03629909163551
195.0 81.05850622730128
200.0 81.06994874059883
206.0 80.90289741753145
212.0 80.89427324950121
218.0 80.9277641742343
224.0 81.25002097024313
230.0 81.32653095861062
236.0 81.13680585279378
240.0 81.11620982548864
250.0 81.48652939819866
258.0 81.53929396624255
265.0 81.32803294357541
272.0 81.3612425933225
280.0 81.27421452187531
290.0 81.00588602971267
300.0 80.79479657858154
307.0 80.81842520220216
315.0 80.84391778470824
325.0 80.7065758635473
335.0 80.60540397599998
345.0 80.88688965685331
355.0 81.04476127629802
365.0 80.68854526017641
375.0 80.61230988685453
387.0 80.15819397677485
400.0 79.4521919556377
412.0 78.58809462489343
425.0 77.41233252932646
437.0 76.4387774572077
450.0 76.48829048620176
462.0 77.2674348736302
475.0 78.46989667150457
487.0 79.2507637896048
500.0 79.61501246293142
515.0 79.88774526275397
530.0 79.7301873410954
545.0 79.44656623100461
560.0 79.33678360589063
580.0 79.15980754191273
600.0 78.94751680457543
615.0 78.50975181860161
630.0 78.24014380869865
650.0 78.00054905215353
670.0 78.04081121486354
690.0 78.48042205054561
710.0 79.3894413474027
730.0 79.78958678052072
750.0 79.34421364894567
775.0 78.49920962396719
800.0 78.23608261094599
825.0 78.49008492910099
850.0 78.73429294435918
875.0 78.75273269155285
900.0 78.73267939152244
925.0 78.94510339359876
950.0 79.52374260614181
975.0 80.16791171413188
1000.0 79.89077866414395
1030.0 78.52795106131431
1060.0 77.43043303111499
1090.0 77.30172281794269
1120.0 78.38574793390275
1150.0 79.18583066050316
1180.0 79.07831850229496
1220.0 78.0670159753189
1250.0 77.17583679683653
1280.0 77.68153850238053
1320.0 79.11012459805634
1360.0 80.21608968742729
1400.0 80.52350147951668
1450.0 80.34557685544901
1500.0 79.94559123428893
1550.0 79.74616189174901
1600.0 79.92200844201115
1650.0 80.19676250740098
1700.0 80.39430530208655
1750.0 80.31765243610596
1800.0 79.94211922283687
1850.0 79.21337613502497
1900.0 78.38239630037582
1950.0 77.80819022304048
2000.0 77.7855826960638
2060.0 77.96643759269422
2120.0 77.68934545305946
2180.0 77.46891824482253
2240.0 77.70424786206672
2300.0 77.69779577149268
2360.0 77.67652581214062
2400.0 79.00017422482509
2500.0 79.55728459252119
2580.0 79.26654685118731
2650.0 78.95423403000086
2720.0 78.94423544375198
2800.0 78.15766143429094
2900.0 77.91367781883899
3000.0 77.99500003170051
3070.0 77.9688816748799
3150.0 78.35578633625097
3250.0 79.01655823079581
3350.0 79.60661280515193
3450.0 79.98656443293861
3550.0 79.22210162244095
3650.0 78.29698479138453
3750.0 77.46490436695827
3870.0 77.25504057188859
4000.0 77.66095713507953
4120.0 78.29262518347467
4250.0 78.47214900271408
4370.0 77.30816852583318
4500.0 76.65110591062437
4620.0 76.27536955196446
4750.0 75.67497693780564
4870.0 75.55614398479976
5000.0 76.35831743382461
5150.0 77.3207761636835
5300.0 78.98323951058066
5450.0 80.70549245177016
5600.0 80.35263858578514
5800.0 79.44026505119399
6000.0 78.5396128940651
6150.0 78.52383977905444
6300.0 79.08791287951972
6500.0 79.14586456190465
6700.0 78.47825274877498
6900.0 78.57767552307372
7100.0 79.11015163393591
7300.0 79.66741594065344
7500.0 80.88107624107582
7750.0 81.56017201753237
8000.0 81.3980882047676
8250.0 80.73991816174241
8500.0 80.55434462050523
8750.0 81.19889272234315
9000.0 80.86994812175145
9250.0 79.69068319938346
9500.0 77.72489942348548
9750.0 75.75014830835322
10000.0 75.2506768484272
10300.0 77.95155306627667
10600.0 78.01327173596839
10900.0 78.11244867847896
11200.0 77.45328006710703
11500.0 77.53683295922993
11800.0 75.82358371048889
12200.0 78.40184615442435
12500.0 79.56388551797055
12800.0 77.8152957100919
13200.0 77.2060400648358
13600.0 75.32153720066158
14000.0 77.63726916856835
14500.0 79.12536438630153
15000.0 80.75247755358095
15500.0 82.62349272669782
16000.0 85.02651205308072
16500.0 86.05635280140716
17000.0 83.25808980394049
17500.0 77.30800327154525
18000.0 74.41782683507532
18500.0 66.44627015860385
19000.0 57.73890949700488
19500.0 49.6751198915927
