Freq "On Axis"
22.4 -6.358227848101265
23.0 -5.158227848101305
23.6 -3.9582278481012594
24.0 -2.3582278481012935
25.0 -0.658227848101248
25.8 0.9417721518987179
26.5 2.441772151898718
27.2 3.941772151898718
28.0 5.441772151898718
29.0 6.941772151898718
30.0 8.74177215189873
30.7 11.141772151898735
31.5 13.341772151898724
32.5 15.341772151898724
33.5 17.24177215189873
34.5 18.941772151898718
35.5 20.74177215189873
36.5 23.04177215189874
37.5 25.24177215189873
38.7 27.141772151898735
40.0 29.04177215189874
41.2 30.74177215189873
42.5 32.94177215189872
43.7 35.141772151898735
45.0 37.141772151898735
46.2 39.04177215189874
47.5 40.94177215189872
48.7 43.24177215189873
50.0 45.44177215189872
51.5 47.341772151898724
53.0 49.24177215189873
54.5 51.54177215189874
56.0 53.74177215189873
58.0 55.74177215189873
60.0 57.641772151898735
61.5 59.74177215189873
63.0 61.74177215189873
65.0 63.641772151898735
67.0 65.44177215189873
69.0 67.14177215189873
71.0 68.74177215189873
73.0 70.24177215189873
75.0 71.64177215189873
77.5 72.94177215189873
80.0 74.24177215189873
82.5 75.34177215189872
85.0 76.44177215189873
87.5 77.34177215189872
90.0 78.14177215189873
92.5 78.84177215189872
95.0 79.44177215189873
97.5 79.94177215189872
100.0 80.34177215189872
103.0 80.54177215189873
106.0 80.64177215189873
109.0 80.74177215189873
112.0 80.84177215189872
115.0 80.84177215189872
118.0 80.74177215189873
122.0 80.64177215189873
125.0 80.64177215189873
128.0 80.64177215189873
132.0 80.74177215189873
136.0 80.74177215189873
140.0 80.84177215189872
145.0 80.94177215189875
150.0 80.94177215189875
155.0 80.94177215189875
160.0 81.14177215189873
165.0 81.24177215189873
170.0 81.14177215189873
175.0 80.94177215189875
180.0 81.04177215189871
185.0 81.04177215189871
190.0 81.24177215189873
195.0 81.24177215189873
200.0 81.24177215189873
206.0 81.14177215189873
212.0 81.14177215189873
218.0 81.14177215189873
224.0 81.54177215189873
230.0 81.54177215189873
236.0 81.34177215189872
240.0 81.34177215189872
250.0 81.74177215189873
258.0 81.84177215189872
265.0 81.64177215189873
272.0 81.64177215189873
280.0 81.54177215189873
290.0 81.24177215189873
300.0 81.04177215189871
307.0 81.14177215189873
315.0 81.14177215189873
325.0 80.94177215189875
335.0 80.84177215189872
345.0 81.24177215189873
355.0 81.34177215189872
365.0 81.04177215189871
375.0 80.94177215189875
387.0 80.54177215189873
400.0 79.84177215189872
412.0 79.04177215189873
425.0 77.84177215189872
437.0 76.94177215189873
450.0 76.94177215189873
462.0 77.74177215189873
475.0 78.94177215189873
487.0 79.74177215189873
500.0 80.14177215189873
515.0 80.44177215189873
530.0 80.24177215189873
545.0 80.04177215189873
560.0 79.94177215189872
580.0 79.74177215189873
600.0 79.54177215189874
615.0 79.04177215189873
630.0 78.74177215189873
650.0 78.54177215189871
670.0 78.64177215189873
690.0 79.14177215189873
710.0 80.14177215189873
730.0 80.44177215189873
750.0 79.94177215189872
775.0 78.84177215189872
800.0 78.54177215189871
825.0 78.94177215189873
850.0 79.24177215189873
875.0 79.14177215189873
900.0 79.04177215189873
925.0 79.14177215189873
950.0 79.74177215189873
975.0 80.54177215189873
1000.0 80.44177215189873
1030.0 79.14177215189873
1060.0 77.94177215189873
1090.0 77.64177215189873
1120.0 78.84177215189872
1150.0 79.74177215189873
1180.0 79.74177215189873
1220.0 78.54177215189871
1250.0 77.34177215189872
1280.0 77.74177215189873
1320.0 79.34177215189872
1360.0 80.44177215189873
1400.0 80.74177215189873
1450.0 80.74177215189873
1500.0 80.44177215189873
1550.0 80.44177215189873
1600.0 80.74177215189873
1650.0 81.04177215189871
1700.0 81.24177215189873
1750.0 81.24177215189873
1800.0 80.94177215189875
1850.0 80.34177215189872
1900.0 79.64177215189873
1950.0 79.24177215189873
2000.0 79.24177215189873
2060.0 79.44177215189873
2120.0 79.14177215189873
2180.0 78.84177215189872
2240.0 78.94177215189873
2300.0 78.94177215189873
2360.0 78.94177215189873
2400.0 80.24177215189873
2500.0 80.74177215189873
2580.0 80.24177215189873
2650.0 79.64177215189873
2720.0 79.14177215189873
2800.0 77.84177215189872
2900.0 77.94177215189873
3000.0 78.54177215189871
3070.0 78.74177215189873
3150.0 79.04177215189873
3250.0 79.64177215189873
3350.0 80.44177215189873
3450.0 81.24177215189873
3550.0 80.74177215189873
3650.0 79.74177215189873
3750.0 78.84177215189872
3870.0 78.94177215189873
4000.0 79.64177215189873
4120.0 80.74177215189873
4250.0 81.44177215189873
4370.0 80.34177215189872
4500.0 79.34177215189872
4620.0 78.54177215189871
4750.0 77.84177215189872
4870.0 77.64177215189873
5000.0 78.74177215189873
5150.0 79.74177215189873
5300.0 81.24177215189873
5450.0 83.04177215189873
5600.0 82.04177215189874
5800.0 80.74177215189873
6000.0 79.34177215189872
6150.0 78.74177215189873
6300.0 79.14177215189873
6500.0 80.24177215189873
6700.0 80.24177215189873
6900.0 79.84177215189872
7100.0 76.84177215189872
7300.0 72.34177215189872
7500.0 75.44177215189873
7750.0 77.44177215189872
8000.0 76.64177215189873
8250.0 79.34177215189872
8500.0 79.04177215189873
8750.0 78.04177215189873
9000.0 73.64177215189873
9250.0 73.74177215189873
9500.0 76.54177215189873
9750.0 75.24177215189873
10000.0 71.44177215189873
10300.0 75.54177215189873
10600.0 79.34177215189872
10900.0 80.94177215189875
11200.0 79.54177215189874
11500.0 79.34177215189872
11800.0 78.14177215189873
12200.0 79.94177215189872
12500.0 80.64177215189873
12800.0 79.64177215189873
13200.0 76.64177215189873
13600.0 76.94177215189873
14000.0 80.54177215189873
14500.0 79.74177215189873
15000.0 82.04177215189874
15500.0 85.04177215189873
16000.0 87.64177215189873
16500.0 87.74177215189873
17000.0 85.14177215189873
17500.0 79.24177215189873
18000.0 77.14177215189873
18500.0 68.54177215189871
19000.0 59.641772151898735
19500.0 51.54177215189874
