Freq "Sound Power"
22.4 -7.39827176499449
23.0 -6.205672309016052
23.6 -4.9508789735329515
24.0 -3.3262965939726996
25.0 -1.6439623084437471
25.8 -0.04576811671171299
26.5 1.528581583036953
27.2 3.054863897126353
28.0 4.5562455557052886
29.0 6.025916565461046
30.0 7.83555570725602
30.7 10.258244603556875
31.5 12.422481392359487
32.5 14.393868356065298
33.5 16.226739236764956
34.5 17.958117466776116
35.5 19.707799471397863
36.5 22.032105720760285
37.5 24.180073851770544
38.7 26.146496509018135
40.0 27.97142762445813
41.2 29.704434767516403
42.5 31.884079437412737
43.7 34.12239188451514
45.0 36.135028143868595
46.2 38.01390583035345
47.5 39.87713067576681
48.7 42.174020528049
50.0 44.318303574902075
51.5 46.26125593496087
53.0 48.15258511705554
54.5 50.430430040063186
56.0 52.589732876314315
58.0 54.546643260385565
60.0 56.505104810188556
61.5 58.62493999165241
63.0 60.56778652094191
65.0 62.42752059174478
67.0 64.19817184411525
69.0 65.9119808447299
71.0 67.53853251568437
73.0 68.94790040603422
75.0 70.30836350861392
77.5 71.6187850382839
80.0 72.85452836880665
82.5 74.02473896367238
85.0 75.04041824011333
87.5 75.87623447433108
90.0 76.63752043460492
92.5 77.38088591720495
95.0 77.98574303785583
97.5 78.40297981521441
100.0 78.68376911952889
103.0 78.88034373294268
106.0 78.98848974146235
109.0 78.98867387860946
112.0 78.96521194840669
115.0 78.97023194588984
118.0 78.93035194101296
122.0 78.82609110516044
125.0 78.6792273574117
128.0 78.47952611617767
132.0 78.29274033865347
136.0 78.26231565954916
140.0 78.44185057825221
145.0 78.47334538355108
150.0 78.3500998009672
155.0 78.20581797060078
160.0 78.26049110953377
165.0 78.29712313801363
170.0 78.27821913895988
175.0 78.1966335207342
180.0 78.06262574581775
185.0 77.94208422866711
190.0 77.93068562757384
195.0 77.8780306133483
200.0 77.7739011730796
206.0 77.68195548735807
212.0 77.53154837273533
218.0 77.3513059516077
224.0 77.34210262764587
230.0 77.25418113893005
236.0 77.17177904969888
240.0 77.15120279591238
250.0 77.25902862096123
258.0 77.18529610822411
265.0 76.97847780192609
272.0 77.0916874278727
280.0 77.05522214892935
290.0 76.6780444871429
300.0 76.59080942522615
307.0 76.4353576114688
315.0 76.42741515829141
325.0 76.35056632643915
335.0 76.13464035932626
345.0 76.27243949307234
355.0 76.18106821338652
365.0 75.68571398815939
375.0 75.60605074165997
387.0 75.08599163714432
400.0 74.25561058150124
412.0 73.26237802643845
425.0 72.07173736563561
437.0 70.70371648442102
450.0 70.46167926247159
462.0 71.26261630667985
475.0 72.30926451260285
487.0 73.12961489774382
500.0 73.42317838122966
515.0 73.11773407655657
530.0 72.86781383600876
545.0 72.54879347339043
560.0 72.40583823677397
580.0 72.21102778782459
600.0 71.96659688330163
615.0 71.65868476325727
630.0 71.34637039329606
650.0 71.03583175234401
670.0 70.90072011437378
690.0 70.92515312860942
710.0 71.50273282139146
730.0 71.94834928376135
750.0 72.22354909194105
775.0 72.22229023994167
800.0 71.80740886663546
825.0 71.59930607311061
850.0 71.60388394309764
875.0 71.82134518828165
900.0 72.21097041276722
925.0 72.61345026833999
950.0 73.05651821939873
975.0 73.23246142658286
1000.0 72.40509209041491
1030.0 70.90976858630698
1060.0 70.14923894912727
1090.0 70.60329961540873
1120.0 71.4745896371117
1150.0 71.79436476166589
1180.0 71.67639668351282
1220.0 71.36378844785257
1250.0 71.446437131846
1280.0 71.99725350855488
1320.0 72.68331470180973
1360.0 73.11242654804929
1400.0 73.10413439382819
1450.0 72.59846104325433
1500.0 71.8600458387419
1550.0 71.25979599221651
1600.0 71.08012879877272
1650.0 71.233476837579
1700.0 71.40091775529496
1750.0 71.22341964836141
1800.0 70.78306034537255
1850.0 70.09676991241827
1900.0 69.11371708658311
1950.0 68.21205387561744
2000.0 67.85483604153713
2060.0 67.77582271720273
2120.0 67.71148791823926
2180.0 67.5744148855002
2240.0 67.76260880559221
2300.0 67.87794121239928
2360.0 67.67958861305144
2400.0 68.46735545138264
2500.0 68.88767691376933
2580.0 68.70682235675007
2650.0 68.79282591018233
2720.0 69.42485557298087
2800.0 68.99699701888241
2900.0 68.27062330379746
3000.0 67.77089251870984
3070.0 67.58991776992826
3150.0 67.79741406899824
3250.0 68.15134346961491
3350.0 68.54867355221563
3450.0 68.69212871565884
3550.0 67.82692487462437
3650.0 66.95939188757124
3750.0 66.3975125190038
3870.0 66.44521579235531
4000.0 66.95604031995099
4120.0 67.16039275259989
4250.0 67.10041708031855
4370.0 66.46325246101395
4500.0 66.28627551566255
4620.0 66.47055160929861
4750.0 66.53920881152594
4870.0 66.57442568089752
5000.0 66.92723050032188
5150.0 67.72088130738032
5300.0 69.63107056913879
5450.0 70.93496023893258
5600.0 71.07447171191802
5800.0 70.96316823757849
6000.0 70.65434651662237
6150.0 70.45902460870502
6300.0 70.30939120165677
6500.0 70.15037719583397
6700.0 69.77046284640899
6900.0 69.43500443530877
7100.0 69.33984932254363
7300.0 70.12566008686767
7500.0 71.68416390557896
7750.0 72.53877896994027
8000.0 72.2554767639712
8250.0 70.94108920295143
8500.0 70.63784723995603
8750.0 71.69635887761356
9000.0 71.9518984543079
9250.0 71.25684655402667
9500.0 69.75632868480977
9750.0 68.28296653302735
10000.0 67.09602172473876
10300.0 67.87836593152242
10600.0 67.9142268235325
10900.0 68.1187310426151
11200.0 66.78169217582779
11500.0 66.2094513362383
11800.0 64.83615968796272
12200.0 68.25432514402186
12500.0 70.40426595860151
12800.0 69.55072267370888
13200.0 67.33244062174275
13600.0 64.68099745065128
14000.0 66.51247251457117
14500.0 67.87952312203649
15000.0 68.75234852022467
15500.0 71.18865258082963
16000.0 73.1412709251141
16500.0 74.43360623842798
17000.0 71.8574174279668
17500.0 65.84341879680161
18000.0 62.8975440088428
18500.0 56.1830622986171
19000.0 48.02625589804495
19500.0 39.3453282685295
