Freq,On Axis,Listening Window,Sound Power,Early Reflections,Early Reflections DI,Sound Power DI,DI offset
22.4,20.040506329113967,20.052242186229805,21.092954417593475,20.577572232279053,29.47466995395075,28.95928776863633,30
23.0,19.640506329113933,19.663182917415085,20.448109562887012,20.051542009433618,29.611640907981467,29.215073354528073,30
23.6,19.14050632911399,19.14076217566982,19.575386364677385,19.34096538462002,29.7997967910498,29.565375810992435,30
24.0,18.540506329113967,18.540762175669798,18.3922940667032,18.446623455379168,30.09413872029063,30.148468108966597,30
25.0,19.040506329113967,19.00742818027446,18.651011860915176,18.821268107266107,30.186160073008352,30.356416319359283,30
25.8,19.740506329113956,19.751731828972382,19.378510503077692,19.550371763927288,30.201360065045094,30.37322132589469,30
26.5,20.440506329113944,20.45173182897237,20.045300599829446,20.22578753516403,30.22594429380834,30.406431229142925,30
27.2,20.940506329113944,20.918482246927724,20.5218717428058,20.71608531372364,30.202396933204085,30.396610504121924,30
28.0,20.940506329113944,20.940762175669803,20.529381526815612,20.72196827533135,30.218793900338454,30.41138064885419,30
29.0,20.940506329113944,20.907428180274465,20.499362393699712,20.70017282794329,30.207255352331174,30.408065786574753,30
30.0,21.240506329113956,21.251731828972382,20.820891802746658,21.025153743861907,30.226578085110475,30.430840026225724,30
30.7,24.34050632911395,24.28523527969115,23.820341669124574,24.038373652581456,30.246861627109695,30.464893610566577,30
31.5,26.540506329113967,26.496345905971722,26.023282490762213,26.243422906257862,30.25292299971386,30.47306341520951,30
32.5,28.040506329113967,28.00742818027446,27.522315527535127,27.74543222417948,30.261995956094978,30.485112652739332,30
33.5,28.940506329113944,28.940762175669803,28.448656413561608,28.67824684349476,30.26251533217504,30.492105762108196,30
34.5,29.740506329113956,29.685235279691156,29.17870553681938,29.415301244035405,30.26993403565575,30.506529742871777,30
35.5,31.64050632911396,31.651731828972387,31.12827610199524,31.362557977786807,30.28917385118558,30.523455726977147,30
36.5,35.64050632911396,35.65173182897239,35.1138746799697,35.362623971233475,30.289107857738912,30.53785714900269,30
37.5,37.940506329113944,37.90742818027444,37.38791149239974,37.634387155320056,30.27304102495438,30.5195166878747,30
38.7,40.240506329113956,40.240762175669815,39.701128183265425,39.955785568829285,30.28497660684053,30.53963399240439,30
40.0,42.240506329113956,42.240762175669815,41.69773661858268,41.94965222880673,30.291109946863088,30.543025557087134,30
41.2,44.04050632911397,43.98523527969117,43.42155269065229,43.69154897302532,30.293686306665847,30.563682589038876,30
42.5,46.14050632911396,46.06292838831915,45.49491404746881,45.755758560407756,30.307169827911395,30.56801434085034,30
43.7,47.740506329113956,47.662928388319145,47.09733768538736,47.35575856040778,30.307169827911366,30.565590702931786,30
45.0,49.64050632911396,49.61848224692774,49.034980100445395,49.30573206160794,30.3127501853198,30.583502146482346,30
46.2,51.240506329113956,51.185235279691156,50.59542281276133,50.87020313480174,30.315032144889415,30.58981246692983,30
47.5,53.04050632911394,52.97409615599392,52.37800134369091,52.65199473108528,30.322101424908638,30.596094812303008,30
48.7,54.64050632911396,54.60742818027447,54.0001738312438,54.27840340483094,30.32902477544353,30.60725434903067,30
50.0,57.54050632911395,57.50742818027446,56.900094633693115,57.181465184976204,30.325962995298255,30.607333546581344,30
51.5,59.740506329113956,59.685235279691184,59.05718232237547,59.34695623928641,30.33827904040477,30.628052957315717,30
53.0,61.740506329113956,61.71873939419784,61.096070891757606,61.38912369878547,30.32961569541237,30.622668502440234,30
54.5,63.54050632911395,63.48523527969115,62.847336242910146,63.14106054287815,30.344174736813002,30.637899036781008,30
56.0,65.44050632911397,65.34101800715443,64.70202152353285,65.00138680615449,30.339631200999946,30.638996483621582,30
58.0,67.04050632911395,66.98523527969115,66.31212847030876,66.61559353619076,30.369641743500395,30.67310680938239,30
60.0,68.44050632911396,68.41848224692774,67.76475372792451,68.06874570477218,30.349736542155554,30.653728519003224,30
61.5,70.04050632911395,69.98523527969118,69.29953558612063,69.61372708902013,30.37150819067105,30.685699693570555,30
63.0,71.24050632911396,71.18523527969116,70.49771721168734,70.81372708902013,30.371508190671022,30.68751806800381,30
65.0,72.04050632911395,72.02976474442457,71.33388560522864,71.65482248621008,30.37494225821449,30.695879139195924,30
67.0,72.44050632911396,72.42976474442457,71.71447100513939,72.03882299342187,30.3909417510027,30.715293739285187,30
69.0,72.84050632911395,72.78523527969118,72.05726255747905,72.39298597130835,30.39224930838283,30.72797272221213,30
71.0,73.14050632911395,73.06318291741509,72.32323202963477,72.66396754991737,30.399215367497717,30.739950887780324,30
73.0,73.04050632911394,72.98523527969117,72.24460828781123,72.58229069000001,30.40294458969116,30.740626991879935,30
75.0,73.24050632911396,73.21848224692773,72.46074819578376,72.80572071128866,30.412761535639078,30.75773405114397,30
77.5,73.54050632911395,73.52976474442457,72.74148871502285,73.09917873419566,30.430586010228907,30.788276029401715,30
80.0,73.84050632911395,73.76343743159458,72.96885261263672,73.33990946620139,30.42352796539319,30.79458481895786,30
82.5,73.94050632911396,73.90742818027447,73.09403772251761,73.46672026120278,30.440707919071684,30.813390457756853,30
85.0,73.94050632911396,73.84101800715443,73.00096559376115,73.37499489207937,30.46602311507506,30.84005241339328,30
87.5,74.54050632911395,74.46343743159458,73.60957675044611,74.00178675629074,30.461650675303844,30.853860681148475,30
90.0,74.44050632911394,74.36343743159459,73.49576990822186,73.8962308966977,30.46720653489689,30.86766752337273,30
92.5,74.64050632911395,74.62976474442456,73.71804699982827,74.13011562297173,30.499649121452833,30.911717744596288,30
95.0,74.84050632911395,74.79710947880397,73.87515743293118,74.29484045459498,30.502269024209,30.9219520458728,30
97.5,74.64050632911395,74.5522421862298,73.58179978717324,74.01485990939739,30.537382276832417,30.970442399056566,30
100.0,75.14050632911396,75.06343743159458,74.10913823136117,74.55308703335159,30.51035039824299,30.954299200233407,30
103.0,75.04050632911395,75.01899067337244,74.00763027155405,74.46114556810441,30.55784510526803,31.011360401818393,30
106.0,75.24050632911396,75.09736789464436,74.06227887563462,74.53814512650429,30.559222768140074,31.035089019009746,30
109.0,74.84050632911395,74.73027185182401,73.64863449120293,74.13229601122495,30.597975840599062,31.081637360621087,30
112.0,74.84050632911395,74.7634374315946,73.62863008545263,74.13419404409225,30.629243387502342,31.13480734614197,30
115.0,74.74050632911396,74.64202953861574,73.48850177952508,74.01719606651655,30.624833472099198,31.153527759090665,30
118.0,74.74050632911396,74.6634374315946,73.45485089620034,74.00953971140588,30.653897720188723,31.20858653539426,30
122.0,74.84050632911395,74.7634374315946,73.52994963083873,74.10139544726398,30.662041984330614,31.233487800755867,30
125.0,74.94050632911396,74.88574761304805,73.93650600862811,74.40039875875357,30.485348854294486,30.94924160441994,30
128.0,74.94050632911396,74.8522421862298,74.22765850312807,74.50864304445882,30.34359914177098,30.624583683101733,30
132.0,74.74050632911396,74.70768598287391,74.09579675977875,74.36263709832423,30.345048884549684,30.61188922309516,30
136.0,74.54050632911395,74.46318291741507,73.84790666411183,74.12693023709177,30.336252680323298,30.615276253303236,30
140.0,74.34050632911395,74.23002122454078,73.53143063521127,73.83165731488077,30.398363909660006,30.698590589329513,30
145.0,74.14050632911393,74.05224218622982,73.17154743466692,73.55439834662839,30.49784383960143,30.8806947515629,30
150.0,74.14050632911393,74.01975612737715,72.87334624139176,73.37460293225045,30.645153195126696,31.146409885985392,30
155.0,74.24050632911396,74.09838389603101,72.63869023542009,73.27525181015233,30.823132085878683,31.459693660610924,30
160.0,74.44050632911394,74.33204944796789,72.62061629823094,73.38764149184051,30.944407956127378,31.711433149736948,30
165.0,74.74050632911396,74.56695381668773,72.59185497851247,73.49071328550873,31.076240531178996,31.975098838175256,30
170.0,74.84050632911395,74.66773455696611,72.48490698700485,73.50487087131354,31.162863685652567,32.18282756996126,30
175.0,74.94050632911396,74.76697079013505,72.39109938710091,73.50304590560319,31.26392488453186,32.37587140303414,30
180.0,75.24050632911396,74.99128798499746,72.49072149774065,73.67917989335002,31.31210809164743,32.500566487256805,30
185.0,75.44050632911397,75.245557608163,72.67475563025316,73.89839944983031,31.34715815833269,32.57080197790984,30
190.0,75.74050632911396,75.48978665467791,72.87234036071519,74.12376399257805,31.366022662099866,32.61744629396273,30
195.0,75.84050632911395,75.63405392229079,72.97114097692806,74.2513286453014,31.38272527698939,32.662912945362734,30
200.0,75.94050632911396,75.7217834333464,72.98312527187021,74.29992436611037,31.421859067236028,32.738658161476195,30
206.0,75.74050632911396,75.59888305448376,72.83224435833837,74.20115582252878,31.39772723195499,32.76663869614539,30
212.0,75.14050632911396,75.00844756467895,72.47057301562002,73.81201936861125,31.1964281960677,32.53787454905893,30
218.0,74.14050632911393,73.92102990371133,71.89889848201966,73.0237206412625,30.89730926244883,32.02213142169167,30
224.0,74.24050632911396,73.99425494445505,71.45116494395377,72.66673090538193,31.327524039073126,32.54309000050128,30
230.0,74.54050632911395,74.32377550738616,71.16934008981907,72.70561767510812,31.618157832278044,33.154435417567086,30
236.0,74.54050632911395,74.32152646625708,71.0007978905045,72.71226713666529,31.609259329591794,33.32072857575258,30
240.0,74.44050632911394,74.25351214576806,70.87790024470489,72.67514633046743,31.57836581530063,33.375611901063166,30
250.0,74.34050632911395,74.20946097766027,70.8373027012366,72.66366762129634,31.54579335636393,33.372158276423676,30
258.0,74.44050632911394,74.23306333893072,70.8776361101053,72.68890522877562,31.544158110155095,33.35542722882542,30
265.0,74.64050632911395,74.39031037198494,70.99571883614551,72.7566637306402,31.63364664134474,33.394591535839425,30
272.0,74.84050632911395,74.56926641340148,71.08147497207506,72.85373646815756,31.715529945243915,33.48779144132642,30
280.0,75.24050632911396,74.9490846760621,71.39070803499844,73.16549308317937,31.78359159288273,33.55837664106366,30
290.0,75.84050632911395,75.5066683452226,71.87284749026595,73.6707685627824,31.835899782440194,33.63382085495664,30
300.0,75.84050632911395,75.65755858533379,72.05165965756284,73.82963845582826,31.82792012950553,33.60589892777095,30
307.0,75.64050632911395,75.4227825765751,71.86438534906362,73.63709556393005,31.785687012645056,33.55839722751148,30
315.0,75.24050632911396,75.13204944796789,71.55645496258666,73.37191127510246,31.760138172865425,33.57559448538123,30
325.0,75.44050632911397,75.28751993838357,71.58903830589007,73.53114954192857,31.756370396454997,33.6984816324935,30
335.0,75.24050632911396,75.16394062260608,71.36505577090011,73.40728087565266,31.756659746953417,33.798884851705964,30
345.0,75.04050632911395,74.88600080831276,71.01796176837281,73.13020768943838,31.75579311887438,33.868039039939944,30
355.0,74.64050632911395,74.55249734236996,70.69438405063742,72.83348120391585,31.71901613845411,33.858113291732536,30
365.0,74.44050632911394,74.29711536123767,70.41025402776407,72.54424440831825,31.752870952919423,33.886861333473604,30
375.0,74.24050632911396,74.15224218622981,70.3228967370915,72.42609059883586,31.726151587393957,33.829345449138316,30
387.0,74.44050632911394,74.25426006102667,70.47104444493117,72.60797870354068,31.64628135748599,33.783215616095504,30
400.0,75.14050632911396,74.73178718488477,70.60755388252063,72.8778166688923,31.853970515992472,34.12423330236413,30
412.0,76.04050632911395,75.44955533309015,70.70574887239394,73.1438429847718,32.30571234831835,34.743806460696206,30
425.0,76.44050632911396,75.86363338676021,70.51849952672617,73.14028900984836,32.723344376911854,35.34513386003404,30
437.0,76.04050632911395,75.45893211525916,69.59484509836903,72.39297889149991,33.06595322375925,35.864087016890124,30
450.0,74.24050632911396,73.74401479033055,67.62079338793222,70.4782596569028,33.26575513342776,36.12322140239833,30
462.0,72.94050632911397,72.67074657865932,66.78919898212234,69.6366151154353,33.034131463224014,35.881547596536976,30
475.0,72.44050632911396,72.22290362634288,66.3297824184329,69.51205562328988,32.710848003053,35.893121207909985,30
487.0,72.44050632911396,72.17405464708087,66.33874051425381,69.64421361362483,32.52984103345604,35.83531413282705,30
500.0,72.94050632911397,72.58179397825582,66.75471828125923,70.02769333903846,32.55410063921735,35.82707569699659,30
515.0,73.14050632911395,72.83326204737924,67.43607813588888,70.50531725363916,32.32794479374007,35.39718391149036,30
530.0,73.64050632911395,73.24136692107808,68.08022067135398,70.89295784482493,32.34840907625315,35.1611462497241,30
545.0,74.04050632911397,73.53232581059349,67.66578266125924,70.61726034564062,32.915065464952875,35.86654314933425,30
560.0,74.24050632911396,73.6452166175181,67.32887716491412,70.4779863268253,33.1672302906928,36.316339452603984,30
580.0,74.24050632911396,73.61437833803797,66.91591788359305,70.2789652861038,33.33541305193417,36.69846045444491,30
600.0,74.04050632911397,73.36922470378984,66.29384454062158,69.8714119149981,33.497812788791734,37.07538016316826,30
615.0,73.54050632911395,72.78387848205611,65.49995606781114,69.20436073100883,33.57951775104728,37.28392241424497,30
630.0,73.94050632911396,73.18537597705478,65.98544578230141,69.78555728262995,33.39981869442482,37.199930194753364,30
650.0,74.04050632911397,73.42923335138879,66.63938517979346,70.30036668764383,33.12886666374496,36.789848171595324,30
670.0,73.44050632911396,72.85495115570541,66.45173333188828,69.69852847176655,33.15642268393886,36.40321782381713,30
690.0,73.54050632911395,72.84215094116895,66.01643606272067,69.25950780889114,33.58264313227781,36.82571487844828,30
710.0,74.44050632911394,73.73047718118073,66.20687807334993,69.8545584988186,33.875918682362126,37.523599107830805,30
730.0,74.84050632911395,74.12973568132306,66.51551029739615,70.41275147920308,33.716984202119974,37.61422538392691,30
750.0,74.84050632911395,74.12639469397918,66.93131381411766,70.72376042068605,33.40263427329313,37.19508087986152,30
775.0,75.14050632911396,74.47232417936546,67.61560421766569,71.23583489891301,33.236489280452446,36.85671996169977,30
800.0,75.54050632911394,74.88849726895144,68.00677261055436,71.61858012344885,33.26991714550259,36.881724658397076,30
825.0,75.54050632911394,74.95294311408466,68.11070357075701,71.72542310125294,33.22752001283172,36.84223954332765,30
850.0,75.34050632911395,74.93998104815708,68.2545703828893,71.84997702574839,33.09000402240869,36.68541066526778,30
875.0,75.04050632911395,74.74487074012396,68.27701015888526,71.82460869208656,32.9202620480374,36.467860581238696,30
900.0,74.84050632911395,74.45062787902195,68.3676038428544,71.83546694622116,32.61516093280079,36.08302403616756,30
925.0,74.54050632911395,74.14296267911762,68.42957292310317,71.8304091868553,32.31255349226231,35.71338975601445,30
950.0,74.84050632911395,74.2015878072057,68.51186869981917,71.9062352493939,32.295352557811796,35.68971910738652,30
975.0,74.84050632911395,74.20939018461581,68.07386168350982,71.61576188627318,32.59362829834264,36.135528501105995,30
1000.0,74.24050632911396,73.6358448851532,67.62124836359754,71.23371197422387,32.40213291092934,36.01459652155566,30
1030.0,74.34050632911395,73.66487595613498,67.59615361558772,71.16389512160767,32.50098083452731,36.068722340547254,30
1060.0,74.44050632911394,73.68722622139576,67.56540747498514,71.1581158619094,32.52911035948637,36.121818746410625,30
1090.0,74.44050632911394,73.6093268410704,67.13093732229642,70.72664319600028,32.88268364507012,36.47838951877398,30
1120.0,74.54050632911395,73.6934834190197,66.53942076886803,70.2253564654359,33.468126953583806,37.15406265015167,30
1150.0,74.84050632911395,73.95103077025182,66.27918206050323,70.09089894906433,33.860131821187494,37.67184870974859,30
1180.0,75.04050632911395,74.11976517906466,66.19316059351112,70.14378804976435,33.975977129300304,37.926604585553534,30
1220.0,75.04050632911395,74.07026553453183,66.0893301466587,70.12432732756854,33.94593820696329,37.98093538787313,30
1250.0,74.64050632911395,73.80303661913543,66.05320769504549,70.10219614144602,33.70084047768941,37.74982892408994,30
1280.0,73.94050632911396,73.3387959870683,65.97052618960115,70.0302567895048,33.30853919756349,37.36826979746715,30
1320.0,73.14050632911395,72.567058319825,65.63743206462752,69.72649784251482,32.84056047731018,36.929626255197476,30
1360.0,73.34050632911395,72.677449203255,65.63416585890445,69.70786896486068,32.969580238394315,37.04328334435054,30
1400.0,73.44050632911396,72.74045896164586,65.41190795168238,69.65633211489366,33.0841268467522,37.328551009963476,30
1450.0,73.34050632911395,72.47940742753907,64.96158869253601,69.391245856264,33.088161571275066,37.51781873500306,30
1500.0,74.54050632911395,73.30973064682173,65.06650540576223,69.57081658159616,33.73891406522557,38.243225241059505,30
1550.0,76.14050632911395,74.66233238218119,65.28210712250889,69.93849511989002,34.72383726229117,39.3802252596723,30
1600.0,76.44050632911396,74.75356366169875,64.57965273832173,69.43648369252675,35.317079969172,40.17391092337702,30
1650.0,75.74050632911396,73.93056598450192,63.831189545796775,68.60174778130865,35.32881820319328,40.09937643870515,30
1700.0,75.34050632911395,73.6769221473957,64.34979330010863,68.74761344044377,34.92930870695193,39.32712884728707,30
1750.0,74.94050632911396,73.59468134435026,64.87413932294325,69.05924598564141,34.53543535870885,38.72054202140701,30
1800.0,74.94050632911396,73.7839803330949,65.3314777695932,69.32210166712261,34.46187866597229,38.452502563501696,30
1850.0,75.44050632911397,74.22094517516906,65.84176610158322,69.78714917617418,34.43379599899488,38.379179073585846,30
1900.0,75.94050632911396,74.52130390043264,65.93305933135697,69.99776346406506,34.52354043636758,38.58824456907567,30
1950.0,75.74050632911396,74.14609290049036,65.45173390496755,69.55037509538633,34.59571780510403,38.694358995522805,30
2000.0,75.44050632911397,73.83943407312451,65.29314805100393,69.3610470598138,34.47838701331071,38.54628602212058,30
2060.0,74.84050632911395,73.4017467655787,65.34404519419061,69.2629929818879,34.13875378369079,38.05770157138808,30
2120.0,74.34050632911395,72.96252744849924,65.18657089302764,69.15090813201729,33.81161931648195,37.77595655547161,30
2180.0,74.64050632911395,73.0047710706878,64.94837323786618,68.9917593683161,34.0130117023717,38.05639783282162,30
2240.0,74.44050632911394,72.56783568158095,64.5664628660669,68.41640442978816,34.151431251792786,38.001372815514046,30
2300.0,74.84050632911395,73.31440968103755,65.08572968831622,69.10819248095281,34.20621720008474,38.228679992721325,30
2360.0,74.04050632911397,73.02145120458077,64.8694219115545,68.86322302383367,34.1582281807471,38.152029293026274,30
2400.0,73.74050632911396,73.11958240416955,65.44249261221735,69.23520921848858,33.88437318568097,37.6770897919522,30
2500.0,74.64050632911395,74.17981041174103,66.711560022908,70.39764637172217,33.782164040018856,37.46825038883303,30
2580.0,75.54050632911394,75.18283677939645,67.40685523248891,71.18599652410104,33.99684025529541,37.775981546907545,30
2650.0,75.84050632911395,75.79968214316152,67.90015681935488,71.77222923153408,34.027452911627435,37.89952532380664,30
2720.0,75.74050632911396,76.08180411461721,68.13637565858222,72.21629431192223,33.86550980269499,37.94542845603499,30
