Freq "On Axis"
22.4 20.000000000000014
23.0 19.60000000000001
23.6 19.10000000000001
24.0 18.500000000000014
25.0 19.000000000000014
25.8 19.700000000000003
26.5 20.39999999999999
27.2 20.89999999999999
28.0 20.89999999999999
29.0 20.89999999999999
30.0 21.200000000000003
30.7 24.299999999999997
31.5 26.500000000000014
32.5 28.000000000000014
33.5 28.89999999999999
34.5 29.700000000000003
35.5 31.60000000000001
36.5 35.60000000000001
37.5 37.89999999999999
38.7 40.2
40.0 42.2
41.2 44.000000000000014
42.5 46.10000000000001
43.7 47.7
45.0 49.60000000000001
46.2 51.2
47.5 53.000000000000014
48.7 54.60000000000001
50.0 57.5
51.5 59.7
53.0 61.7
54.5 63.5
56.0 65.4
58.0 66.99999999999999
60.0 68.39999999999999
61.5 70.0
63.0 71.2
65.0 71.99999999999999
67.0 72.4
69.0 72.8
71.0 73.09999999999998
73.0 73.00000000000001
75.0 73.2
77.5 73.5
80.0 73.8
82.5 73.9
85.0 73.9
87.5 74.49999999999999
90.0 74.40000000000002
92.5 74.6
95.0 74.8
97.5 74.6
100.0 75.1
103.0 75.0
106.0 75.2
109.0 74.8
112.0 74.8
115.0 74.7
118.0 74.7
122.0 74.8
125.0 74.9
128.0 74.9
132.0 74.7
136.0 74.49999999999999
140.0 74.3
145.0 74.10000000000001
150.0 74.10000000000001
155.0 74.2
160.0 74.40000000000002
165.0 74.7
170.0 74.8
175.0 74.9
180.0 75.2
185.0 75.4
190.0 75.7
195.0 75.8
200.0 75.89999999999999
206.0 75.7
212.0 75.1
218.0 74.10000000000001
224.0 74.2
230.0 74.49999999999999
236.0 74.49999999999999
240.0 74.40000000000002
250.0 74.3
258.0 74.40000000000002
265.0 74.6
272.0 74.8
280.0 75.2
290.0 75.8
300.0 75.8
307.0 75.59999999999998
315.0 75.2
325.0 75.4
335.0 75.2
345.0 75.0
355.0 74.6
365.0 74.40000000000002
375.0 74.2
387.0 74.40000000000002
400.0 75.1
412.0 76.0
425.0 76.4
437.0 76.0
450.0 74.2
462.0 72.9
475.0 72.4
487.0 72.4
500.0 72.9
515.0 73.09999999999998
530.0 73.6
545.0 74.0
560.0 74.2
580.0 74.2
600.0 74.0
615.0 73.5
630.0 73.9
650.0 74.0
670.0 73.39999999999999
690.0 73.5
710.0 74.40000000000002
730.0 74.8
750.0 74.8
775.0 75.1
800.0 75.50000000000001
825.0 75.50000000000001
850.0 75.3
875.0 75.0
900.0 74.8
925.0 74.49999999999999
950.0 74.8
975.0 74.8
1000.0 74.2
1030.0 74.3
1060.0 74.40000000000002
1090.0 74.40000000000002
1120.0 74.49999999999999
1150.0 74.8
1180.0 75.0
1220.0 75.0
1250.0 74.6
1280.0 73.9
1320.0 73.09999999999998
1360.0 73.3
1400.0 73.39999999999999
1450.0 73.3
1500.0 74.49999999999999
1550.0 76.1
1600.0 76.4
1650.0 75.7
1700.0 75.3
1750.0 74.9
1800.0 74.9
1850.0 75.4
1900.0 75.89999999999999
1950.0 75.7
2000.0 75.4
2060.0 74.8
2120.0 74.3
2180.0 74.6
2240.0 74.40000000000002
2300.0 74.8
2360.0 74.0
2400.0 73.7
2500.0 74.6
2580.0 75.50000000000001
2650.0 75.8
2720.0 75.7
2800.0 75.4
2900.0 74.7
3000.0 74.40000000000002
3070.0 73.39999999999999
3150.0 71.7
3250.0 70.7
3350.0 71.90000000000002
3450.0 73.6
3550.0 75.2
3650.0 75.59999999999998
3750.0 74.6
3870.0 72.2
4000.0 72.6
4120.0 72.5
4250.0 72.8
4370.0 73.5
4500.0 74.2
4620.0 75.50000000000001
4750.0 76.1
4870.0 76.4
5000.0 76.2
5150.0 74.9
5300.0 74.10000000000001
5450.0 73.6
5600.0 74.0
5800.0 73.9
6000.0 73.5
6150.0 73.6
6300.0 74.0
6500.0 75.2
6700.0 76.1
6900.0 76.3
7100.0 75.3
7300.0 73.39999999999999
7500.0 74.49999999999999
7750.0 75.89999999999999
8000.0 76.7
8250.0 76.4
8500.0 74.9
8750.0 75.4
9000.0 74.8
9250.0 74.7
9500.0 74.7
9750.0 75.3
10000.0 75.8
10300.0 75.89999999999999
10600.0 76.1
10900.0 75.8
11200.0 74.0
11500.0 72.5
11800.0 72.4
12200.0 74.6
12500.0 76.7
12800.0 75.7
13200.0 74.49999999999999
13600.0 73.39999999999999
14000.0 73.39999999999999
14500.0 73.39999999999999
15000.0 73.6
15500.0 73.09999999999998
16000.0 74.49999999999999
16500.0 74.8
17000.0 73.8
17500.0 72.2
18000.0 70.3
18500.0 68.6
19000.0 64.2
19500.0 63.3
