Freq "Ceiling Bounce"
20.507813 36.23159935660338
21.972656 43.08047333676991
23.4375 49.13419594794489
24.902344 51.31220142324101
26.367188 52.50284137127828
27.832031 55.099948073224326
29.296875 57.445295819745326
30.761719 59.11714709718784
32.226563 60.80189557307244
33.691406 62.303100956138934
35.15625 63.88325141738946
36.621094 65.0894714499453
38.085938 65.96310723590618
39.550781 66.72186285473752
41.015625 67.43259429385894
42.480469 68.13999780248865
43.945313 68.78878279009021
45.410156 69.37043997358559
46.875 69.87310179323421
48.339844 70.32334398530857
51.269531 71.19756977951518
52.734375 71.63050367449007
54.199219 72.04099922140031
55.664063 72.35764042551332
58.59375 73.00374129300579
60.058594 73.37449999881181
62.988281 74.0372361275209
64.453125 74.33654008192818
67.382813 74.85313784605638
68.847656 75.07716382870423
71.777344 75.62617660350396
74.707031 76.14546029733448
77.636719 76.49489706607919
79.101563 76.69632825015034
82.03125 77.20099381698546
84.960938 77.62243925616436
87.890625 77.87037951626212
90.820313 78.20599862042154
95.214844 78.64155340651998
98.144531 78.82159994309475
101.07422 79.05078469818103
105.46875 79.32427756997431
108.39844 79.4402600673183
112.79297 79.70737358415228
117.1875 79.81475554092312
120.11719 79.88800332686186
124.51172 79.93040132969811
128.90625 79.96309998537045
133.30078 80.00367245022537
139.16016 80.04198835493217
143.55469 79.96587748066668
147.94922 79.86745028794488
153.80859 79.75739137863938
159.66797 79.71652035284966
165.52734 79.61275426072002
171.38672 79.6165483329628
177.24609 79.48149009378103
183.10547 79.26589278948616
188.96484 79.14017529879233
196.28906 79.18116387441417
203.61328 78.99632726410199
210.9375 78.72730352857126
218.26172 78.49258137725748
225.58594 78.28778609224449
232.91016 78.44783078007245
241.69922 78.2049706509316
250.48828 78.01759060750639
259.27734 77.92460109192918
268.06641 77.86867829884072
276.85547 77.65573986077247
287.10938 77.59994709012564
297.36328 77.72982642635533
307.61719 77.57982205545547
319.33594 77.74758658030096
329.58984 77.62403445670819
341.30859 77.72069697991705
353.02734 77.41743984297035
366.21094 77.28251536564869
379.39453 77.28960718317025
392.57813 77.29734943313618
405.76172 77.5783966320732
420.41016 77.18431175288104
435.05859 77.22852708657742
451.17188 77.21758201703473
465.82031 77.36096008798263
483.39844 77.8211482817948
499.51172 78.23971514054611
517.08984 78.73157693321029
536.13281 78.22876999035672
555.17578 77.9996497695336
574.21875 77.80021309839664
594.72656 77.62734957103707
615.23438 77.39255097186212
637.20703 77.21555877186674
659.17969 76.85135381303814
682.61719 76.07888009638046
707.51953 75.98306233723024
732.42188 75.26677756073822
757.32422 75.46291541990526
785.15625 75.36099022038209
811.52344 74.82711954794374
840.82031 75.26860362521062
870.11719 74.02570271942328
900.87891 73.97297030582475
933.10547 73.8972068432247
965.33203 74.47662542887394
1000.4883 74.80829330886193
1035.6445 74.9363161028193
1072.2656 75.60129454224598
1108.8867 76.2031498593142
1148.4375 76.74484509580155
1189.4531 77.10899438489879
1230.4688 77.24064417591454
1274.4141 77.32016940144864
1319.8242 77.29873750168652
1366.6992 77.10244054676782
1413.5742 76.39731666501967
1463.3789 76.33913411773493
1516.1133 76.33100449475988
1568.8477 76.39277857297891
1624.5117 76.4071928286117
1681.6406 75.69308534934085
1741.6992 75.10527266688852
1803.2227 74.55020373387362
1866.2109 73.5367592339595
1932.1289 72.65013841334672
1999.5117 73.42930490359096
2069.8242 74.34171674215825
2143.0664 73.75513844534633
2219.2383 72.5746167430655
2296.875 71.61966809028812
2378.9063 71.48500579378613
2462.4023 71.54903782735913
2548.8281 71.3859990098022
2639.6484 71.90149097049868
2731.9336 71.7637258363215
2828.6133 70.70209767108581
2928.2227 72.53086498930988
3030.7617 72.78362352058708
3137.6953 72.28126689567257
3249.0234 73.09950828892555
3363.2813 73.34412037882497
3481.9336 74.31461110918521
3604.9805 74.47821215621768
3732.4219 75.17384195655477
3864.2578 75.06974408012573
4000.4883 74.80995673978143
4141.1133 74.3596267521643
4287.5977 73.60582030807782
4438.4766 72.76234213444619
4595.2148 71.16540075358638
4756.3477 69.97840983064685
4924.8047 68.42553831349564
5097.6563 67.3122836984627
5277.832 66.46747202983308
5463.8672 66.02059535302891
5657.2266 65.54445773697707
5856.4453 64.70758998023645
6062.9883 64.54039236819365
6276.8555 65.47371033234322
6498.0469 66.29442062428745
6726.5625 66.68815158671215
6963.8672 66.35861150650304
7209.9609 66.42869347851261
7464.8438 66.50361155418886
7727.0508 66.39084044989681
7999.5117 65.17889948785404
8282.2266 62.50729906048777
8573.7305 60.83178913070532
8876.9531 59.67330633811166
9188.9648 58.181775788396536
9514.1602 58.78317195607616
9849.6094 58.53868304034586
10196.777 59.571130851681616
10555.664 60.52903704279878
10927.734 60.87364557731091
11312.988 60.811222330490764
11712.891 60.58674307702795
12125.977 60.3554942698844
12553.711 59.94632219713726
12996.094 59.54160884988703
13454.59 59.67901705786849
13929.199 59.78304740133079
14419.922 60.00035898547203
14928.223 59.72162550781299
15455.566 58.62382509872569
16000.488 58.013577529769336
16564.453 57.33885866530538
17148.926 56.31250077389909
17752.441 55.595022948870664
18379.395 54.72205486219356
19026.855 54.19124966218449
19697.754 52.91840616312196
19999.512 52.713362250159676
