Freq "Side Wall Bounce"
20.507813 38.44462833329112
21.972656 46.915100644879715
23.4375 51.576896448080845
24.902344 53.14128738220859
26.367188 54.33228963509538
27.832031 56.73585846814757
29.296875 58.90453347234342
30.761719 60.511750955590145
32.226563 62.13943916822784
33.691406 63.58920151535476
35.15625 65.09334854050988
36.621094 66.24038556863145
38.085938 67.08313703221586
39.550781 67.81483755216058
41.015625 68.49576542141332
42.480469 69.18055447658672
43.945313 69.8148636025354
45.410156 70.38365272366788
46.875 70.87110961925163
48.339844 71.30485586371758
51.269531 72.14958367500984
52.734375 72.5718593822155
54.199219 72.97265479740129
55.664063 73.27477426635274
58.59375 73.90882870137658
60.058594 74.2660866476757
62.988281 74.91034461202022
64.453125 75.20000116916576
67.382813 75.69865079710826
68.847656 75.91622265647257
71.777344 76.4571350785958
74.707031 76.96662135958849
77.636719 77.3049447457326
79.101563 77.50181574115291
82.03125 77.9972685872998
84.960938 78.4155404391815
87.890625 78.65581410824876
90.820313 78.98165078368868
95.214844 79.41680991033928
98.144531 79.591081544468
101.07422 79.80822153433056
105.46875 80.07676580747315
108.39844 80.18674590414449
112.79297 80.433926197706
117.1875 80.55420453031954
120.11719 80.6233082613517
124.51172 80.66360921420443
128.90625 80.69484107250196
133.30078 80.73557467014153
139.16016 80.75644351444629
143.55469 80.6739988060813
147.94922 80.577954620514
153.80859 80.47749286588238
159.66797 80.43456371430594
165.52734 80.33153470253295
171.38672 80.31361332440692
177.24609 80.17608564700136
183.10547 79.96068717339324
188.96484 79.82168301792551
196.28906 79.84851546760828
203.61328 79.64922743404641
210.9375 79.3797220739223
218.26172 79.15141907417932
225.58594 78.95371522173808
232.91016 79.11782253580076
241.69922 78.88013107474212
250.48828 78.73368852245623
259.27734 78.68190975594484
268.06641 78.64387968364998
276.85547 78.38825368027342
287.10938 78.28820056863839
297.36328 78.41285804891078
307.61719 78.23938566170824
319.33594 78.41412735261513
329.58984 78.24064618097337
341.30859 78.31311153289546
353.02734 77.97250515331365
366.21094 77.85358104667745
379.39453 77.89292784347096
392.57813 77.88798916421845
405.76172 78.1448503917556
420.41016 77.6733962698203
435.05859 77.70748775950955
451.17188 77.62369142772457
465.82031 77.85088982941019
483.39844 78.30834101474791
499.51172 78.80920960155468
517.08984 79.43581299159821
536.13281 79.11870490268267
555.17578 79.15273202606929
574.21875 79.19813970413058
594.72656 79.34618626056522
615.23438 79.0751161145146
637.20703 79.07933124251124
659.17969 78.85979253271297
682.61719 78.21369765829236
707.51953 78.30224251643338
732.42188 78.01586190723268
757.32422 77.75612337335842
785.15625 77.46420877202272
811.52344 77.0029931021879
840.82031 77.12541442186559
870.11719 76.05063399776706
900.87891 75.69087510842725
933.10547 76.11755323747776
965.33203 76.24018459620116
1000.4883 76.65868711099492
1035.6445 76.37810988843857
1072.2656 75.85006019995488
1108.8867 75.65079601353769
1148.4375 75.97584869755285
1189.4531 76.87523469130885
1230.4688 77.16994001612713
1274.4141 77.15954149438008
1319.8242 76.84692850178192
1366.6992 76.76774426918753
1413.5742 76.58531508735464
1463.3789 76.60917885397939
1516.1133 76.60699063207811
1568.8477 76.40507061293602
1624.5117 76.2763085979729
1681.6406 76.463650284158
1741.6992 76.98528180986224
1803.2227 76.7214448484762
1866.2109 75.48466197182553
1932.1289 74.54663216703386
1999.5117 75.15643683001822
2069.8242 75.63970536360759
2143.0664 75.08494089054477
2219.2383 74.56515729203022
2296.875 75.18734580538516
2378.9063 75.93773043148533
2462.4023 76.30478155586695
2548.8281 76.76728698049014
2639.6484 76.92260131172415
2731.9336 77.10613292389763
2828.6133 77.998837800812
2928.2227 77.6597999774638
3030.7617 77.10119597395303
3137.6953 77.67404709919707
3249.0234 77.96969955586147
3363.2813 77.63966707136518
3481.9336 77.8862260503511
3604.9805 78.16102420130545
3732.4219 78.46597744085761
3864.2578 78.11486458242294
4000.4883 78.62194229681032
4141.1133 78.03985324230325
4287.5977 78.06475240326253
4438.4766 77.73823524180898
4595.2148 77.58747207053958
4756.3477 77.04064285795494
4924.8047 77.1399727915174
5097.6563 76.78431727675158
5277.832 76.97874618812264
5463.8672 76.92550487042135
5657.2266 77.09191764179327
5856.4453 77.04423635718373
6062.9883 77.69520835005781
6276.8555 77.64337327544989
6498.0469 78.04642604553499
6726.5625 77.48275012039772
6963.8672 76.9780721316963
7209.9609 76.83639361402389
7464.8438 76.41194188194474
7727.0508 76.82243630454336
7999.5117 77.22148861538282
8282.2266 77.70269399653776
8573.7305 78.28812910664819
8876.9531 78.22233269432047
9188.9648 78.15065440141183
9514.1602 78.1274055166877
9849.6094 77.8916478995242
10196.777 77.62059090341907
10555.664 77.22334152899815
10927.734 77.0827698080662
11312.988 77.01134178831646
11712.891 76.9043671284936
12125.977 76.78415527652614
12553.711 76.58898324574318
12996.094 76.2648452155337
13454.59 75.8984305133993
13929.199 75.5657176358946
14419.922 75.3090463325351
14928.223 75.18782448309575
15455.566 75.12669927062595
16000.488 75.10871018069142
16564.453 75.23805236556817
17148.926 75.6739020901387
17752.441 76.03420885079689
18379.395 76.61675224910601
19026.855 76.94849335497327
19697.754 77.26103678094543
19999.512 77.3128064747694
