Freq "Side Wall Bounce"
22.4 19.10678876457345
23.0 20.493535129669425
23.6 21.85521735688397
24.0 23.582732291177592
25.0 25.09353512966942
25.8 26.393535129669402
26.5 27.59353512966942
27.2 29.262079921664764
28.0 30.78273229117758
29.0 32.06207992166475
30.0 33.39353512966943
30.7 34.993535129669425
31.5 36.36877581514764
32.5 37.66207992166477
33.5 39.29353512966941
34.5 40.75571028918651
35.5 42.09353512966942
36.5 43.693535129669414
37.5 45.11607936848509
38.7 46.4935351296694
40.0 48.016079368485066
41.2 49.35571028918652
42.5 50.76340859864466
43.7 52.17041766232953
45.0 53.46340859864465
46.2 54.89144861083136
47.5 56.15032689134895
48.7 57.42976037270715
50.0 58.64455573828704
51.5 59.89825420708746
53.0 61.04455573828703
54.5 62.13079684331457
56.0 63.13079684331457
58.0 64.10022462319142
60.0 64.98709100626921
61.5 65.85263723229065
63.0 66.61532585688728
65.0 67.38153124985224
67.0 68.02225169669924
69.0 68.63741724262607
71.0 69.20239983397602
73.0 69.72455690115174
75.0 70.16336837877667
77.5 70.52455690115174
80.0 70.83992308218897
82.5 71.16240037094336
85.0 71.46240037094336
87.5 71.79707838851132
90.0 72.09366451060822
92.5 72.36075080234374
95.0 72.6007869497084
97.5 72.8252607531596
100.0 73.05544830423082
103.0 73.28732278587364
106.0 73.47699194845009
109.0 73.65449368109151
112.0 73.85092470273558
115.0 74.00448724927402
118.0 74.12789375416529
122.0 74.28412555224372
125.0 74.35669841435599
128.0 74.42508680200791
132.0 74.47877018492119
136.0 74.54412724686692
140.0 74.58395532450118
145.0 74.62627366830489
150.0 74.66915503622447
155.0 74.68760533363252
160.0 74.69138277340929
165.0 74.69160686582947
170.0 74.62435884330156
175.0 74.5117459761034
180.0 74.36570303318155
185.0 74.18570485586496
190.0 73.91444441011053
195.0 73.603783949078
200.0 73.24050046958561
206.0 72.80037866023079
212.0 72.36957685839407
218.0 71.94201572481964
224.0 71.57380913072285
230.0 71.29660257959053
236.0 71.18947043400492
240.0 71.20704069853811
250.0 71.3839557164311
258.0 71.61181185808717
265.0 71.87852346475857
272.0 72.11429774490145
280.0 72.29163177177414
290.0 72.42984645233412
300.0 72.50886982018032
307.0 72.4754392757938
315.0 72.42744074150573
325.0 72.37253360035055
335.0 72.27066524798788
345.0 72.22315466234478
355.0 72.20708038627336
365.0 72.23040150261693
375.0 72.28624888829529
387.0 72.3334593420277
400.0 72.32794642559696
412.0 72.26925382213616
425.0 72.12472021186606
437.0 71.93791637241556
450.0 71.72402963141022
462.0 71.50407609273512
475.0 71.37216676225707
487.0 71.33303205380965
500.0 71.30835176562358
515.0 71.21418618868947
530.0 71.07665677432033
545.0 70.93085527206159
560.0 70.72179611684757
580.0 70.4715906599585
600.0 70.22695210049707
615.0 69.9928299328671
630.0 69.74148398577621
650.0 69.51387100720554
670.0 69.32328573039666
690.0 69.1554815284328
710.0 68.97546425736742
730.0 68.79156674811796
750.0 68.56195120984654
775.0 68.36294391494513
800.0 68.15520829081981
825.0 67.96801869166538
850.0 67.80754305565583
875.0 67.72395617820072
900.0 67.72733707850423
925.0 67.8119473120785
950.0 67.92635487178835
975.0 68.03159441500115
1000.0 68.10946507765068
1030.0 68.08339811813681
1060.0 67.92967944112222
1090.0 67.58517829751153
1120.0 67.11724097207266
1150.0 66.50172835677
1180.0 65.89769061074749
1220.0 65.36901125195789
1250.0 64.95329824159734
1280.0 64.76383379877527
1320.0 64.7314236288743
1360.0 64.95267168156488
1400.0 65.21213097389835
1450.0 65.42997197284758
1500.0 65.64005549699223
1550.0 65.8366464182136
1600.0 66.0538608518214
1650.0 66.43125729024865
1700.0 66.74680877958193
1750.0 66.89256427510756
1800.0 66.61595118803838
1850.0 66.17000351008203
1900.0 65.72392709919919
1950.0 65.47656883868335
2000.0 65.3531245035202
2060.0 65.26068115940615
2120.0 65.04762703087621
2180.0 64.60686342229714
2240.0 64.21409481490639
2300.0 64.13104405612074
2360.0 64.19028691110586
2400.0 63.806349372848814
2500.0 63.013302259313775
2580.0 62.76504778786605
2650.0 62.898612142057544
2720.0 62.2434045260181
2800.0 60.97317308653844
2900.0 59.699901886334814
3000.0 59.32630931448956
3070.0 59.81543725861397
3150.0 60.40910475416767
3250.0 60.73653891107966
3350.0 60.91908334199091
3450.0 61.26753264504302
3550.0 61.879931076306704
3650.0 62.36050776729229
3750.0 62.352087564920424
3870.0 62.554241327317555
4000.0 63.55751386381665
4120.0 64.25661252113719
4250.0 64.29961323488163
4370.0 64.93486659186688
4500.0 66.04903887826957
4620.0 66.64010552122488
4750.0 67.0894805880071
4870.0 67.1112324996663
5000.0 67.1262787342273
5150.0 66.78305283270754
5300.0 65.85443445124294
5450.0 64.99877600966022
5600.0 63.85898432026012
5800.0 63.54984084446977
6000.0 64.23886835534087
6150.0 64.97258155412872
6300.0 67.2173250691921
6500.0 68.7750419741798
6700.0 69.26092308582321
6900.0 69.34499840383327
7100.0 69.22576324665036
7300.0 67.87984191648542
7500.0 66.08096586595514
7750.0 66.03482574607159
8000.0 66.12077958251058
8250.0 65.47855776903543
8500.0 65.38488323176264
8750.0 64.84347323448603
9000.0 65.14311141160302
9250.0 66.5718369579048
9500.0 66.46404345854629
9750.0 67.09373685689215
10000.0 66.00495194184629
10300.0 64.67651627405931
10600.0 64.34698472320025
10900.0 64.88862921057448
11200.0 66.49381659464046
11500.0 66.58925607601469
11800.0 67.43475510759637
12200.0 65.5481850639548
12500.0 63.52875161385323
12800.0 61.75374677413005
13200.0 63.702312455956985
13600.0 64.33684049331966
14000.0 62.67463831465119
14500.0 58.8017218282759
15000.0 58.6151864102773
15500.0 60.05056759719632
16000.0 58.36992089500308
16500.0 53.13360923192454
17000.0 55.25296110995917
17500.0 57.1972731864186
18000.0 55.2550121206892
18500.0 57.15492695596632
19000.0 59.1346385410062
19500.0 57.319550239682314
