Freq "Side Wall Bounce"
22.4 17.633371043054467
23.0 19.02011740815044
23.6 20.381799635364956
24.0 22.10931456965858
25.0 23.620117408150406
25.8 24.920117408150418
26.5 26.120117408150406
27.2 27.78866220014575
28.0 29.309314569658568
29.0 30.588662200145762
30.0 31.920117408150418
30.7 33.52011740815041
31.5 34.89535809362866
32.5 36.18866220014576
33.5 37.82011740815042
34.5 39.282292567667525
35.5 40.620117408150406
36.5 42.22011740815043
37.5 43.642661646966076
38.7 45.02011740815041
40.0 46.54266164696605
41.2 47.88229256766752
42.5 49.28999087712566
43.7 50.696999940810514
45.0 51.98999087712566
46.2 53.41803088931236
47.5 54.676909169829955
48.7 55.95634265118814
50.0 57.17113801676804
51.5 58.42483648556845
53.0 59.57113801676803
54.5 60.65737912179557
56.0 61.65737912179557
58.0 62.62680690167241
60.0 63.51367328475021
61.5 64.37921951077165
63.0 65.14190813536828
65.0 65.90811352833325
67.0 66.54883397518026
69.0 67.16399952110707
71.0 67.728982112457
73.0 68.25113917963273
75.0 68.68995065725765
77.5 69.05113917963273
80.0 69.36650536066999
82.5 69.68898264942435
85.0 69.98898264942436
87.5 70.32366066699234
90.0 70.62024678908922
92.5 70.88733308082476
95.0 71.1273692281894
97.5 71.35184303164061
100.0 71.58203058271181
103.0 71.81390506435464
106.0 72.00357422693111
109.0 72.18107595957252
112.0 72.37750698121658
115.0 72.53106952775504
118.0 72.65447603264627
122.0 72.81070783072474
125.0 72.883280692837
128.0 72.95166908048893
132.0 73.0053524634022
136.0 73.07070952534794
140.0 73.11053760298216
145.0 73.15285594678588
150.0 73.19573731470548
155.0 73.2141876121135
160.0 73.2179650518903
165.0 73.21818914431049
170.0 73.15094112178255
175.0 73.0383282545844
180.0 72.89228531166253
185.0 72.71228713434596
190.0 72.44102668859152
195.0 72.130366227559
200.0 71.7670827480666
206.0 71.32696093871178
212.0 70.89615913687507
218.0 70.46859800330063
224.0 70.10039140920387
230.0 69.82318485807151
236.0 69.71605271248593
240.0 69.73362297701911
250.0 69.91053799491209
258.0 70.13839413656818
265.0 70.40510574323957
272.0 70.64088002338246
280.0 70.81821405025514
290.0 70.95642873081512
300.0 71.03545209866132
307.0 71.00202155427479
315.0 70.95402301998675
325.0 70.89911587883157
335.0 70.79724752646888
345.0 70.74973694082578
355.0 70.73366266475435
365.0 70.75698378109794
375.0 70.81283116677628
387.0 70.8600416205087
400.0 70.85452870407798
412.0 70.79583610061718
425.0 70.65130249034706
437.0 70.46449865089656
450.0 70.25061190989123
462.0 70.03065837121613
475.0 69.89874904073808
487.0 69.85961433229066
500.0 69.8349340441046
515.0 69.74076846717048
530.0 69.60323905280134
545.0 69.4574375505426
560.0 69.24837839532859
580.0 68.9981729384395
600.0 68.75353437897807
615.0 68.5194122113481
630.0 68.26806626425721
650.0 68.04045328568654
670.0 67.84986800887768
690.0 67.68206380691379
710.0 67.50204653584842
730.0 67.31814902659897
750.0 67.08853348832754
775.0 66.88952619342612
800.0 66.68179056930082
825.0 66.49460097014637
850.0 66.33412533413683
875.0 66.25053845668172
900.0 66.25391935698524
925.0 66.33852959055952
950.0 66.45293715026934
975.0 66.55817669348217
1000.0 66.63604735613168
1030.0 66.6099803966178
1060.0 66.45626171960323
1090.0 66.11176057599255
1120.0 65.64382325055365
1150.0 65.028310635251
1180.0 64.42427288922849
1220.0 63.89559353043889
1250.0 63.47988052007835
1280.0 63.29041607725625
1320.0 63.25800590735531
1360.0 63.47925396004587
1400.0 63.73871325237937
1450.0 63.9565542513286
1500.0 64.16663777547322
1550.0 64.36322869669462
1600.0 64.58044313030238
1650.0 64.95783956872965
1700.0 65.27339105806294
1750.0 65.41914655358858
1800.0 65.14253346651937
1850.0 64.69658578856303
1900.0 64.25050937768017
1950.0 64.00315111716434
2000.0 63.87970678200121
2060.0 63.78726343788715
2120.0 63.57420930935723
2180.0 63.133445700778125
2240.0 62.74067709338739
2300.0 62.65762633460173
2360.0 62.71686918958687
2400.0 62.3329316513298
2500.0 61.53988453779478
2580.0 61.29163006634707
2650.0 61.425194420538546
2720.0 60.76998680449911
2800.0 59.49975536501944
2900.0 58.226484164815815
3000.0 57.85289159297058
3070.0 58.34201953709497
3150.0 58.93568703264869
3250.0 59.26312118956068
3350.0 59.445665620471914
3450.0 59.794114923524035
3550.0 60.40651335478772
3650.0 60.887090045773306
3750.0 60.87866984340144
3870.0 61.08082360579857
4000.0 62.08409614229765
4120.0 62.78319479961817
4250.0 62.82619551336262
4370.0 63.461448870347894
4500.0 64.57562115675056
4620.0 65.16668779970588
4750.0 65.61606286648811
4870.0 65.63781477814732
5000.0 65.6528610127083
5150.0 65.30963511118853
5300.0 64.38101672972395
5450.0 63.52535828814122
5600.0 62.38556659874112
5800.0 62.076423122950786
6000.0 62.76545063382187
6150.0 63.499163832609725
6300.0 65.74390734767312
6500.0 67.30162425266082
6700.0 67.7875053643042
6900.0 67.87158068231429
7100.0 67.75234552513135
7300.0 66.40642419496643
7500.0 64.60754814443612
7750.0 64.5614080245526
8000.0 64.6473618609916
8250.0 64.00514004751643
8500.0 63.911465510243644
8750.0 63.37005551296704
9000.0 63.66969369008403
9250.0 65.09841923638578
9500.0 64.99062573702727
9750.0 65.62031913537314
10000.0 64.5315342203273
10300.0 63.20309855254031
10600.0 62.87356700168125
10900.0 63.41521148905548
11200.0 65.02039887312147
11500.0 65.11583835449568
11800.0 65.96133738607739
12200.0 64.0747673424358
12500.0 62.05533389233425
12800.0 60.28032905261105
13200.0 62.22889473443796
13600.0 62.86342277180064
14000.0 61.20122059313219
14500.0 57.32830410675692
15000.0 57.141768688758305
15500.0 58.577149875677335
16000.0 56.896503173484064
16500.0 51.66019151040554
17000.0 53.779543388440175
17500.0 55.7238554648996
18000.0 53.7815943991702
18500.0 55.68150923444733
19000.0 57.6612208194872
19500.0 55.84613251816333
