Freq "Estimated In-Room Response"
20.5078 62.31933894788918
21.9727 63.407877126354094
23.4375 64.7349065639625
24.9023 65.40790465020146
26.3672 66.32858786170317
27.832 67.31177979238254
29.2969 67.9537213859478
30.7617 68.71424277357836
32.2266 69.48200329101795
33.6914 70.18786435033672
35.1562 70.80175961402834
36.6211 71.48079423693356
38.0859 72.0958920064615
39.5508 72.74614238046847
41.0156 73.28629303374635
42.4805 73.9317704933535
43.9453 74.38308953077484
45.4102 74.95991289366229
46.875 75.45035524930739
48.3398 75.95320415817993
51.2695 76.8641026487035
52.7344 77.36497237071431
54.1992 77.79634643981396
55.6641 78.1732817106256
58.5938 78.96844347867568
60.0586 79.37790893639237
62.9883 80.19346658636354
64.4531 80.48039771513842
67.3828 81.21164327128037
68.8477 81.5005675232568
71.7773 82.1084401774979
74.707 82.65957134965632
77.6367 83.16719423148945
79.1016 83.40380412375964
82.0312 83.8337465746338
84.9609 84.24232281079415
87.8906 84.7445677660255
90.8203 85.17703945230134
95.2148 85.58893148982092
98.1445 85.82475064974956
101.074 86.0297584113649
105.469 86.34740019167562
108.398 86.47644659386003
112.793 86.5502630140553
117.188 86.60300595104474
120.117 86.88644692420704
124.512 87.08194507847921
128.906 87.09839926864547
133.301 87.06537784090071
139.16 86.88747262551387
143.555 86.73199090915367
147.949 86.95534485900976
153.809 86.74299931477731
159.668 86.20794315820902
165.527 86.07596078896307
171.387 86.46431425086712
177.246 86.34069837700646
183.105 86.36405101915233
188.965 86.33380862425673
196.289 85.87540170441275
203.613 85.5301584077812
210.938 85.5962651319452
218.262 85.57200694177368
225.586 85.40829247004942
232.91 85.12036924832236
241.699 84.731248389563
250.488 84.69831033164435
259.277 85.16813505680578
268.066 85.12826576439741
276.855 84.57100758488498
287.109 84.1546937687693
297.363 84.37670340904081
307.617 84.46560107245115
319.336 84.03057117133342
329.59 84.36976977110965
341.309 84.20486234345579
353.027 84.31378265091462
366.211 84.09526830077647
379.395 83.67152691473062
392.578 83.16683253188029
405.762 83.73249448123109
420.41 82.73038292579099
435.059 82.72387058366645
451.172 81.63691832698501
465.82 82.20591860542496
483.398 81.97928347178373
499.512 81.75745985028439
517.09 81.07046349079721
536.133 80.69739567397416
555.176 80.56461690324062
574.219 80.87155993771295
594.727 81.10831163427443
615.234 80.91746401083005
637.207 81.29113298576303
659.18 82.3939037383222
682.617 82.37132469768004
707.52 83.16054640112804
732.422 82.34156736800645
757.324 82.70199615170326
785.156 82.35485462860821
811.523 81.98372719525665
840.82 82.54056736966992
870.117 82.10758839978593
900.879 83.2128538594323
933.105 82.86979191325844
965.332 82.83536145532312
1000.49 82.39897534316572
1035.64 82.59913137671202
1072.27 82.61409811955825
1108.89 82.66277336811588
1148.44 82.44623325581205
1189.45 82.25061545505523
1230.47 81.90371682583782
1274.41 81.95385960661454
1319.82 82.18083532551043
1366.7 82.48919035570215
1413.57 82.67428060445451
1463.38 81.66658925405451
1516.11 80.91556761581361
1568.85 80.98497582816418
1624.51 81.45953075398663
1681.64 81.43022503294583
1741.7 81.13384768448284
1803.22 81.35811438179724
1866.21 81.66099971537979
1932.13 81.69892908925277
1999.51 81.32528502522125
2069.82 81.80079044083423
2143.07 81.99700369685073
2219.24 81.19155160286732
2296.88 80.81506494411747
2378.91 81.2648066325166
2462.4 81.24551201145603
2548.83 82.0065282842817
2639.65 82.90021279265714
2731.93 83.09279418755563
2828.61 83.2575098201272
2928.22 83.85593561836617
3030.76 84.26750208179054
3137.7 84.38400283996626
3249.02 84.57874558769858
3363.28 84.63501992154774
3481.93 84.70419599728311
3604.98 84.53825530646866
3732.42 84.72116189100319
3864.26 84.144576475267
4000.49 84.18938996218226
4141.11 83.92402141019437
4287.6 83.9307934370168
4438.48 84.14825893058983
4595.21 84.03760500754657
4756.35 84.11188891621396
4924.8 83.98174133165536
5097.66 83.80104524667512
5277.83 83.75013596208026
5463.87 83.91566009802361
5657.23 83.98324492545858
5856.45 83.59273304052654
6062.99 83.51625194003925
6276.86 83.2537505994272
6498.05 82.93773903383637
6726.56 82.77730640801077
6963.87 82.5856052476294
7209.96 82.25403641443032
7464.84 82.25999631767421
7727.05 82.24321400704997
7999.51 82.3323375050907
8282.23 82.51450705062734
8573.73 82.62206723888525
8876.95 82.64671790498446
9188.96 82.53083525402383
9514.16 82.35205903858258
9849.61 82.55284833647852
10196.8 82.62919776842122
10555.7 82.53333708400854
10927.7 82.4487976422375
11313.0 82.40014987657881
11712.9 82.26114131246331
12126.0 82.16974750239952
12553.7 82.23559136819124
12996.1 82.3067227396326
13454.6 82.29220604044303
13929.2 82.16461503552193
14419.9 82.37736479490334
14928.2 82.85228013500482
15455.6 82.56765524481796
16000.5 81.86089355775553
16564.5 80.83536591705438
17148.9 79.67827151712902
17752.4 81.23220918473226
18379.4 80.63100724683078
19026.9 80.01732401344452
19697.8 79.64227189181305
19999.5 79.5087346643125
