Freq "Rear Wall Bounce"
22.4 74.79013954049702
23.0 74.63945173577302
23.6 74.5044594877589
24.0 74.36677048110884
25.0 74.23151899654715
25.8 74.13346506590433
26.5 74.0262779307304
27.2 73.92250155107216
28.0 73.80354601828336
29.0 73.73243558647447
30.0 73.60473219433071
30.7 73.62017454304328
31.5 73.7016129174158
32.5 73.8415047278565
33.5 73.99206672761126
34.5 74.22969104986831
35.5 74.62887964371794
36.5 75.2624929044907
37.5 76.18419250022927
38.7 77.61919346301131
40.0 79.51613786193317
41.2 81.78566779760565
42.5 83.19720422581058
43.7 82.55240281234441
45.0 80.77021806434625
46.2 79.11732597878849
47.5 77.85151538683866
48.7 76.89322162238001
50.0 76.18982928326287
51.5 75.65113003293956
53.0 75.24649171059983
54.5 74.95967360754524
56.0 74.71737076661093
58.0 74.54190230364195
60.0 74.40227609144915
61.5 74.33481033427167
63.0 74.29927343364905
65.0 74.28626094021627
67.0 74.31109914298841
69.0 74.38025165458835
71.0 74.43380670346644
73.0 74.52787267893098
75.0 74.60682875499474
77.5 74.70093629387142
80.0 74.78571668813802
82.5 74.84885780497014
85.0 74.91010875434418
87.5 74.94820882741958
90.0 74.91118188013066
92.5 74.88913595093506
95.0 74.81356098041093
97.5 74.68469030838627
100.0 74.55760748486811
103.0 74.37033595085796
106.0 74.20577703001017
109.0 74.01639831625367
112.0 73.88330056962073
115.0 73.75584748019325
118.0 73.62934908368177
122.0 73.5242957994757
125.0 73.45523481879493
128.0 73.3975956433544
132.0 73.36050838972545
136.0 73.32491284072935
140.0 73.37307089635873
145.0 73.43312366245914
150.0 73.56014943944677
155.0 73.7270122948778
160.0 73.92137042243823
165.0 74.1273554958292
170.0 74.31647560031085
175.0 74.50953825252745
180.0 74.58102554250432
185.0 74.6063821984493
190.0 74.49070253928537
195.0 74.23646061213122
200.0 73.88338150342993
206.0 73.47517924438772
212.0 73.03920827075704
218.0 72.57968617027305
224.0 72.08798596150932
230.0 71.38988847082088
236.0 70.40378331560396
240.0 69.3974965064475
250.0 68.67311761551673
258.0 68.54548178711379
265.0 69.12127455527465
272.0 70.69871580701124
280.0 72.8152064032034
290.0 71.82013558271048
300.0 70.99448998731442
307.0 71.10398247459582
315.0 71.37857848870122
325.0 71.54905213259012
335.0 71.6596613191003
345.0 71.87968974250585
355.0 71.72245467026106
365.0 70.53073107738756
375.0 68.75615328495562
387.0 67.10878956308655
400.0 66.00300142045418
412.0 66.16081150475657
425.0 67.55987728651836
437.0 67.93211404753362
450.0 67.09733633099182
462.0 65.6826405251628
475.0 64.09710860719069
487.0 63.867537727230996
500.0 64.52742414732288
515.0 65.00458586039365
530.0 65.00737373496368
545.0 63.86151011530791
560.0 62.69806302727031
580.0 61.80039038661995
600.0 60.57403070033736
615.0 61.56340101411273
630.0 65.06562503845626
650.0 65.8563512884041
670.0 61.4175146543658
690.0 58.83340393629133
710.0 61.837867477602046
730.0 62.30925075701427
750.0 62.28750894430506
775.0 60.922458359373636
800.0 60.313998421740806
825.0 61.65191324141206
850.0 67.56653216555664
875.0 70.55422502564717
900.0 76.953749152617
925.0 69.69664990999506
950.0 66.11160287970313
975.0 64.30369625081666
1000.0 68.51502080099694
1030.0 63.527803275452314
1060.0 60.655393397393055
1090.0 59.18450255487518
1120.0 59.35395185002385
1150.0 59.307447878747695
1180.0 59.52865289845154
1220.0 58.8638416282876
1250.0 57.7166263818734
1280.0 62.20511517279154
1320.0 69.75135014783886
1360.0 68.33685886427374
1400.0 72.38309239489422
1450.0 62.69833895540059
1500.0 58.62805700387223
1550.0 56.10559073447169
1600.0 51.72065313314572
1650.0 40.935768801070154
1700.0 49.81756244675951
1750.0 54.93613320018845
1800.0 56.79800950568169
1850.0 55.61519893877835
1900.0 54.43956748404166
1950.0 57.75001649792233
2000.0 56.47131732650776
2060.0 54.72035466572537
2120.0 53.78276837705978
2180.0 48.60192519849788
2240.0 51.158821504993554
2300.0 53.45011627696984
2360.0 51.67215747799848
2400.0 48.873653220582256
2500.0 53.637269933675455
2580.0 56.957130918125
2650.0 61.45431062145778
2720.0 54.59558213390521
2800.0 52.75655122208643
2900.0 52.655441150847636
3000.0 57.89502135287084
3070.0 62.58183025291815
3150.0 60.139543693303224
3250.0 56.363391717469085
3350.0 57.38225891415834
3450.0 56.3841877227063
3550.0 60.654212974828894
3650.0 55.1500100480779
3750.0 50.06404661795345
3870.0 51.690677698624896
4000.0 50.6567804955008
4120.0 53.14799919909156
4250.0 48.67841374389964
4370.0 49.55730716890547
4500.0 54.91222413869302
4620.0 60.9356134306539
4750.0 52.283394335849195
4870.0 46.12074985828046
5000.0 48.66559024701964
5150.0 54.845616734468834
5300.0 48.9523153487318
5450.0 50.15470282439854
5600.0 57.17533665229966
5800.0 57.42445019446036
6000.0 51.43682882915975
6150.0 56.642238982197526
6300.0 57.89905042875452
6500.0 52.89783412861625
6700.0 51.75967291841938
6900.0 47.2956035142259
7100.0 43.96788165953582
7300.0 43.850574268643314
7500.0 52.590556290009076
7750.0 45.81277731426867
8000.0 51.19779626950161
8250.0 54.588634683561835
8500.0 53.490977345559415
8750.0 47.879431645448435
9000.0 49.33842275563664
9250.0 44.644271258676056
9500.0 36.47718639655646
9750.0 44.38406160170622
10000.0 45.327582234268775
10300.0 48.5428230905117
10600.0 43.50414005289757
10900.0 44.40539679155704
11200.0 44.0522638865054
11500.0 43.32563826057675
11800.0 52.47235108351815
12200.0 47.5428930960564
12500.0 40.06185421946044
12800.0 42.71604581959484
13200.0 42.71494688420445
13600.0 42.80980690153602
14000.0 45.67634942813389
14500.0 41.13472473767062
15000.0 40.177666464171025
15500.0 38.302965505344204
16000.0 38.79319335944446
16500.0 36.871195132888644
17000.0 38.996162871347465
17500.0 37.75325878497945
18000.0 40.17154177161545
18500.0 38.61427077615453
19000.0 39.157855952424754
19500.0 36.103405085853055
