Freq,On Axis,Listening Window,Sound Power,Early Reflections,Early Reflections DI,Sound Power DI,DI offset
20.0,47.726776,47.726776,47.726776,47.726776,40.0,40.0,40
20.290899,48.18977699999999,48.18977699999999,48.18977699999999,48.18977699999999,40.0,40.0,40
20.586,48.68377699999999,48.68377699999999,48.68377699999999,48.68377699999999,40.0,40.0,40
20.8855,49.216778000000005,49.216778000000005,49.216778000000005,49.216778000000005,40.0,40.0,40
21.189301,49.80477500000001,49.80477500000001,49.80477500000001,49.80477500000001,40.0,40.0,40
21.497499,50.446777,50.446777,50.446777,50.446777,40.0,40.0,40
21.8102,51.13377800000001,51.13377800000001,51.13377800000001,51.13377800000001,40.0,40.0,40
22.127399,51.859779,51.859779,51.859779,51.859779,40.0,40.0,40
22.4492,52.61077900000001,52.61077900000001,52.61077900000001,52.61077900000001,40.0,40.0,40
22.775801,53.373774999999995,53.373774999999995,53.373774999999995,53.373774999999995,40.0,40.0,40
23.1071,54.13377800000001,54.13377800000001,54.13377800000001,54.13377800000001,40.0,40.0,40
23.443199,54.875778,54.875778,54.875778,54.875778,40.0,40.0,40
23.7841,55.586776999999984,55.586776999999984,55.586776999999984,55.586776999999984,40.0,40.0,40
24.1301,56.257778,56.257778,56.257778,56.257778,40.0,40.0,40
24.4811,56.882778,56.882778,56.882778,56.882778,40.0,40.0,40
24.8372,57.461776999999984,57.461776999999984,57.461776999999984,57.461776999999984,40.0,40.0,40
25.1984,57.995777000000004,57.995777000000004,57.995777000000004,57.995777000000004,40.0,40.0,40
25.564899,58.489777000000004,58.489777000000004,58.489777000000004,58.489777000000004,40.0,40.0,40
25.9368,58.95177799999999,58.95177799999999,58.95177799999999,58.95177799999999,40.0,40.0,40
26.3141,59.392776,59.392776,59.392776,59.392776,40.0,40.0,40
26.6968,59.824780000000004,59.824780000000004,59.824780000000004,59.824780000000004,40.0,40.0,40
27.0851,60.259776999999985,60.259776999999985,60.259776999999985,60.259776999999985,40.0,40.0,40
27.479099,60.709778,60.709778,60.709778,60.709778,40.0,40.0,40
27.878799,61.177775999999994,61.177775999999994,61.177775999999994,61.177775999999994,40.0,40.0,40
28.2843,61.662777000000006,61.662777000000006,61.662777000000006,61.662777000000006,40.0,40.0,40
28.6957,62.15778,62.15778,62.15778,62.15778,40.0,40.0,40
29.1131,62.65078,62.65078,62.65078,62.65078,40.0,40.0,40
29.536501,63.132778,63.132778,63.132778,63.132778,40.0,40.0,40
29.966101,63.593777,63.593777,63.593777,63.593777,40.0,40.0,40
30.402,64.029778,64.029778,64.029778,64.029778,40.0,40.0,40
30.8442,64.44278,64.44278,64.44278,64.44278,40.0,40.0,40
31.2929,64.843773,64.843773,64.843773,64.843773,40.0,40.0,40
31.748,65.24677299999999,65.24677299999999,65.24677299999999,65.24677299999999,40.0,40.0,40
32.209801,65.668777,65.668777,65.668777,65.668777,40.0,40.0,40
32.678299,66.126778,66.126778,66.126778,66.126778,40.0,40.0,40
33.153599,66.626778,66.626778,66.626778,66.626778,40.0,40.0,40
33.635899,67.16478,67.16478,67.16478,67.16478,40.0,40.0,40
34.125099,67.732773,67.732773,67.732773,67.732773,40.0,40.0,40
34.621498,68.312775,68.312775,68.312775,68.312775,40.0,40.0,40
35.125,68.88678,68.88678,68.88678,68.88678,40.0,40.0,40
35.635899,69.438774,69.438774,69.438774,69.438774,40.0,40.0,40
36.154301,69.959778,69.959778,69.959778,69.959778,40.0,40.0,40
36.680199,70.444778,70.444778,70.444778,70.444778,40.0,40.0,40
37.213699,70.892776,70.892776,70.892776,70.892776,40.0,40.0,40
37.755,71.321777,71.321777,71.321777,71.321777,40.0,40.0,40
38.3041,71.740776,71.740776,71.740776,71.740776,40.0,40.0,40
38.861301,72.059776,72.059776,72.059776,72.059776,40.0,40.0,40
39.426498,72.415779,72.415779,72.415779,72.415779,40.0,40.0,40
40.0,72.763779,72.763779,72.763779,72.763779,40.0,40.0,40
40.581799,73.11077900000001,73.11077900000001,73.11077900000001,73.11077900000001,40.0,40.0,40
41.1721,73.460777,73.460777,73.460777,73.460777,40.0,40.0,40
41.771,73.818779,73.818779,73.818779,73.818779,40.0,40.0,40
42.378502,74.187775,74.187775,74.187775,74.187775,40.0,40.0,40
42.9949,74.56778,74.56778,74.56778,74.56778,40.0,40.0,40
43.6203,74.956779,74.956779,74.956779,74.956779,40.0,40.0,40
44.254799,75.353775,75.353775,75.353775,75.353775,40.0,40.0,40
44.898499,75.756775,75.756775,75.756775,75.756775,40.0,40.0,40
45.551498,76.16478000000001,76.16478000000001,76.16478000000001,76.16478000000001,40.0,40.0,40
46.2141,76.580772,76.580772,76.580772,76.580772,40.0,40.0,40
46.886299,77.005775,77.005775,77.005775,77.005775,40.0,40.0,40
47.568298,77.443779,77.443779,77.443779,77.443779,40.0,40.0,40
48.260201,77.893776,77.893776,77.893776,77.893776,40.0,40.0,40
48.962101,78.352776,78.352776,78.352776,78.352776,40.0,40.0,40
49.674301,78.815773,78.815773,78.815773,78.815773,40.0,40.0,40
50.396801,79.278778,79.278778,79.278778,79.278778,40.0,40.0,40
51.129902,79.735779,79.735779,79.735779,79.735779,40.0,40.0,40
51.8736,80.18377700000002,80.18377700000002,80.18377700000002,80.18377700000002,40.0,40.0,40
52.628101,80.619774,80.619774,80.619774,80.619774,40.0,40.0,40
53.3936,81.043777,81.043777,81.043777,81.043777,40.0,40.0,40
54.1702,81.454773,81.454773,81.454773,81.454773,40.0,40.0,40
54.958099,81.850777,81.850777,81.850777,81.850777,40.0,40.0,40
55.7575,82.231773,82.231773,82.231773,82.231773,40.0,40.0,40
56.568501,82.597771,82.597771,82.597771,82.597771,40.0,40.0,40
57.391399,82.946777,82.946777,82.946777,82.946777,40.0,40.0,40
58.226101,83.280777,83.280777,83.280777,83.280777,40.0,40.0,40
59.073,83.596771,83.596771,83.596771,83.596771,40.0,40.0,40
59.932301,83.897774,83.897774,83.897774,83.897774,40.0,40.0,40
60.804,84.18377699999999,84.18377699999999,84.18377699999999,84.18377699999999,40.0,40.0,40
61.6884,84.452774,84.452774,84.452774,84.452774,40.0,40.0,40
62.585701,84.708771,84.708771,84.708771,84.708771,40.0,40.0,40
63.496,84.991776,84.991776,84.991776,84.991776,40.0,40.0,40
64.419601,85.167778,85.167778,85.167778,85.167778,40.0,40.0,40
65.356598,85.376778,85.376778,85.376778,85.376778,40.0,40.0,40
66.307297,85.569771,85.569771,85.569771,85.569771,40.0,40.0,40
67.271698,85.74577300000001,85.74577300000001,85.74577300000001,85.74577300000001,40.0,40.0,40
68.250198,85.907776,85.907776,85.907776,85.907776,40.0,40.0,40
69.242897,86.055771,86.055771,86.055771,86.055771,40.0,40.0,40
70.250099,86.19577800000002,86.19577800000002,86.19577800000002,86.19577800000002,40.0,40.0,40
71.271896,86.328773,86.328773,86.328773,86.328773,40.0,40.0,40
72.308601,86.454773,86.454773,86.454773,86.454773,40.0,40.0,40
73.360298,86.576775,86.576775,86.576775,86.576775,40.0,40.0,40
74.427399,86.692772,86.692772,86.692772,86.692772,40.0,40.0,40
75.509903,86.802773,86.802773,86.802773,86.802773,40.0,40.0,40
76.608299,86.905777,86.905777,86.905777,86.905777,40.0,40.0,40
77.722603,86.999771,86.999771,86.999771,86.999771,40.0,40.0,40
78.853104,87.08577699999998,87.08577699999998,87.08577699999998,87.08577699999998,40.0,40.0,40
80.0,87.163773,87.163773,87.163773,87.163773,40.0,40.0,40
81.163597,87.23277299999998,87.23277299999998,87.23277299999998,87.23277299999998,40.0,40.0,40
82.3442,87.293777,87.293777,87.293777,87.293777,40.0,40.0,40
83.541901,87.347771,87.347771,87.347771,87.347771,40.0,40.0,40
84.757,87.393776,87.393776,87.393776,87.393776,40.0,40.0,40
85.989899,87.434776,87.434776,87.434776,87.434776,40.0,40.0,40
87.240601,87.469772,87.469772,87.469772,87.469772,40.0,40.0,40
88.509598,87.50377700000001,87.50377700000001,87.50377700000001,87.50377700000001,40.0,40.0,40
89.797,87.526772,87.526772,87.526772,87.526772,40.0,40.0,40
91.103104,87.551773,87.551773,87.551773,87.551773,40.0,40.0,40
92.4282,87.572777,87.572777,87.572777,87.572777,40.0,40.0,40
93.772598,87.592773,87.592773,87.592773,87.592773,40.0,40.0,40
95.136597,87.610771,87.610771,87.610771,87.610771,40.0,40.0,40
96.520401,87.62777700000001,87.62777700000001,87.62777700000001,87.62777700000001,40.0,40.0,40
97.924301,87.641777,87.641777,87.641777,87.641777,40.0,40.0,40
99.348602,87.652771,87.652771,87.652771,87.652771,40.0,40.0,40
100.794,87.659775,87.659775,87.659775,87.659775,40.0,40.0,40
102.26,87.661774,87.661774,87.661774,87.661774,40.0,40.0,40
103.747,87.659775,87.659775,87.659775,87.659775,40.0,40.0,40
105.256,87.65777599999998,87.65777599999998,87.65777599999998,87.65777599999998,40.0,40.0,40
106.787,87.65777599999998,87.65777599999998,87.65777599999998,87.65777599999998,40.0,40.0,40
108.34,87.659775,87.659775,87.659775,87.659775,40.0,40.0,40
109.916,87.661774,87.661774,87.661774,87.661774,40.0,40.0,40
111.515,87.660774,87.660774,87.660774,87.660774,40.0,40.0,40
113.137,87.64577500000001,87.64577500000001,87.64577500000001,87.64577500000001,40.0,40.0,40
114.783,87.59977699999999,87.59977699999999,87.59977699999999,87.59977699999999,40.0,40.0,40
116.452,87.533775,87.533775,87.533775,87.533775,40.0,40.0,40
118.146,87.441772,87.441772,87.441772,87.441772,40.0,40.0,40
119.865,87.351776,87.351776,87.351776,87.351776,40.0,40.0,40
121.608,87.279778,87.279778,87.279778,87.279778,40.0,40.0,40
123.377,87.229774,87.229774,87.229774,87.229774,40.0,40.0,40
125.171,87.197777,87.197777,87.197777,87.197777,40.0,40.0,40
126.992,87.177773,87.177773,87.177773,87.177773,40.0,40.0,40
128.839,87.165771,87.165771,87.165771,87.165771,40.0,40.0,40
130.713,87.159775,87.159775,87.159775,87.159775,40.0,40.0,40
132.615,87.151772,87.151772,87.151772,87.151772,40.0,40.0,40
134.543,87.132774,87.132774,87.132774,87.132774,40.0,40.0,40
136.5,87.09677099999999,87.09677099999999,87.09677099999999,87.09677099999999,40.0,40.0,40
138.486,87.047775,87.047775,87.047775,87.047775,40.0,40.0,40
140.5,86.979774,86.979774,86.979774,86.979774,40.0,40.0,40
142.544,86.894775,86.894775,86.894775,86.894775,40.0,40.0,40
144.617,86.809776,86.809776,86.809776,86.809776,40.0,40.0,40
146.721,86.738777,86.738777,86.738777,86.738777,40.0,40.0,40
148.855,86.689774,86.689774,86.689774,86.689774,40.0,40.0,40
151.02,86.662773,86.662773,86.662773,86.662773,40.0,40.0,40
153.217,86.647774,86.647774,86.647774,86.647774,40.0,40.0,40
155.445,86.63877099999999,86.63877099999999,86.63877099999999,86.63877099999999,40.0,40.0,40
157.706,86.634773,86.634773,86.634773,86.634773,40.0,40.0,40
160.0,86.635773,86.635773,86.635773,86.635773,40.0,40.0,40
162.327,86.637772,86.637772,86.637772,86.637772,40.0,40.0,40
164.688,86.642776,86.642776,86.642776,86.642776,40.0,40.0,40
167.084,86.647774,86.647774,86.647774,86.647774,40.0,40.0,40
169.514,86.651772,86.651772,86.651772,86.651772,40.0,40.0,40
171.98,86.647774,86.647774,86.647774,86.647774,40.0,40.0,40
174.481,86.624771,86.624771,86.624771,86.624771,40.0,40.0,40
177.019,86.56777199999999,86.56777199999999,86.56777199999999,86.56777199999999,40.0,40.0,40
179.594,86.47377800000001,86.47377800000001,86.47377800000001,86.47377800000001,40.0,40.0,40
182.206,86.364777,86.364777,86.364777,86.364777,40.0,40.0,40
184.856,86.283775,86.283775,86.283775,86.283775,40.0,40.0,40
187.545,86.248772,86.248772,86.248772,86.248772,40.0,40.0,40
190.273,86.243774,86.243774,86.243774,86.243774,40.0,40.0,40
193.041,86.25377700000001,86.25377700000001,86.25377700000001,86.25377700000001,40.0,40.0,40
195.849,86.251778,86.251778,86.251778,86.251778,40.0,40.0,40
198.697,86.218773,86.218773,86.218773,86.218773,40.0,40.0,40
201.587,86.140778,86.140778,86.140778,86.140778,40.0,40.0,40
204.52,86.026772,86.026772,86.026772,86.026772,40.0,40.0,40
207.494,85.916771,85.916771,85.916771,85.916771,40.0,40.0,40
210.512,85.842773,85.842773,85.842773,85.842773,40.0,40.0,40
213.574,85.809776,85.809776,85.809776,85.809776,40.0,40.0,40
216.681,85.810776,85.810776,85.810776,85.810776,40.0,40.0,40
219.833,85.826775,85.826775,85.826775,85.826775,40.0,40.0,40
223.03,85.84077499999998,85.84077499999998,85.84077499999998,85.84077499999998,40.0,40.0,40
226.274,85.838776,85.838776,85.838776,85.838776,40.0,40.0,40
229.565,85.810776,85.810776,85.810776,85.810776,40.0,40.0,40
232.905,85.756775,85.756775,85.756775,85.756775,40.0,40.0,40
236.292,85.68177800000001,85.68177800000001,85.68177800000001,85.68177800000001,40.0,40.0,40
239.729,85.579773,85.579773,85.579773,85.579773,40.0,40.0,40
243.216,85.49977099999998,85.49977099999998,85.49977099999998,85.49977099999998,40.0,40.0,40
246.754,85.469772,85.469772,85.469772,85.469772,40.0,40.0,40
250.343,85.472771,85.472771,85.472771,85.472771,40.0,40.0,40
253.984,85.47377799999998,85.47377799999998,85.47377799999998,85.47377799999998,40.0,40.0,40
257.678,85.43377699999999,85.43377699999999,85.43377699999999,85.43377699999999,40.0,40.0,40
261.426,85.303772,85.303772,85.303772,85.303772,40.0,40.0,40
265.229,85.104774,85.104774,85.104774,85.104774,40.0,40.0,40
269.087,84.959778,84.959778,84.959778,84.959778,40.0,40.0,40
273.001,84.893776,84.893776,84.893776,84.893776,40.0,40.0,40
276.972,84.895775,84.895775,84.895775,84.895775,40.0,40.0,40
281.0,84.94577800000002,84.94577800000002,84.94577800000002,84.94577800000002,40.0,40.0,40
285.088,85.029778,85.029778,85.029778,85.029778,40.0,40.0,40
289.234,85.103775,85.103775,85.103775,85.103775,40.0,40.0,40
293.441,85.135773,85.135773,85.135773,85.135773,40.0,40.0,40
297.709,85.121773,85.121773,85.121773,85.121773,40.0,40.0,40
302.04,85.03722952710037,85.03500575962951,84.99586063290239,85.0138603227569,40.021145436872615,40.03914512672712,40
306.433,84.89869157544169,84.89421443179785,84.81559335905939,84.85178777597866,40.042426655819185,40.07862107273846,40
310.89,84.80715735538877,84.80039629722512,84.68195828687955,84.73654823763644,40.06384805958868,40.11843801034557,40
315.412,84.80363497212845,84.79455904862307,84.63596218625848,84.7091500197229,40.08540902890017,40.15859686236459,40
320.0,84.8521215308478,84.84069938224197,84.64160101410349,84.73359055753801,40.10710882470396,40.19909836813848,40
324.655,84.88760713673429,84.87380699794528,84.63386391269812,84.7448604088156,40.12894658912968,40.23994308524716,40
329.377,84.84510478979709,84.82889500413508,84.5477723067711,84.67797829112949,40.150916713005586,40.28112269736398,40
334.168,84.71060670040275,84.69195470216795,84.3693084960756,84.51893188756233,40.173022814605616,40.322646206092344,40
339.028,84.53412386856097,84.51299720691144,84.14849215676497,84.31773807707921,40.19525912983222,40.36450505014646,40
343.959,84.43563550463904,84.41200082855248,84.00529305336495,84.19437185896754,40.217628969584936,40.40670777518753,40
348.962,84.52816471382607,84.50198828612974,84.0527342245448,84.2618573885318,40.24013089759795,40.44925406158494,40
354.038,84.67370260131139,84.64495030276544,84.15280688188997,84.38218693777793,40.26276336498751,40.492143420875465,40
359.188,84.71423727228483,84.68287460574757,84.14749940740607,84.39734989439967,40.285524711347904,40.5353751983415,40
364.412,84.7517897267576,84.7177823273972,84.13884206355718,84.40937352258081,40.308408804816395,40.578940263840025,40
369.713,84.79434728027792,84.75765940140238,84.13480508401929,84.42623687486531,40.33142252653707,40.62285431738309,40
375.09,84.74991482767881,84.71051136898822,84.04341171501062,84.35595616358432,40.3545552054039,40.6670996539776,40
380.546,84.71248568450952,84.67033017522644,83.95863873610035,84.29251682484507,40.37781335038137,40.711691439126085,40
386.081,84.77906985078269,84.7341259696745,83.97750599732805,84.33293553156024,40.401190438114256,40.75661997234644,40
391.697,84.93865753686961,84.89088810878253,84.08899641482842,84.46619978224244,40.42468832654009,40.80189169395412,40
397.394,85.08625974278362,85.03562775033254,84.18813103068902,84.58732738844799,40.44830036188455,40.847496719643516,40
403.175,85.12886778407616,85.07533486547754,84.18188585628003,84.60330266386794,40.47203220160961,40.89344900919751,40
409.039,85.04248655558224,84.9860150182002,84.0462845439198,84.49014211682108,40.49587290137913,40.93973047428041,40
414.989,84.84811237285433,84.78866319245076,83.80230861997828,84.2688354350301,40.51982775742066,40.98635457247248,40
421.025,84.64074723590753,84.57828156557768,83.54497064366812,84.03439181645557,40.543889749122116,41.03331092190956,40
427.149,84.50139235511618,84.43587053042508,83.3552659047868,83.86781076125945,40.56805976916563,41.08060462563827,40
433.362,84.37204083567568,84.30342288090011,83.1751900859897,83.7110883149076,40.592334565992516,41.12823279491042,40
439.665,84.23870878278198,84.16695441646256,82.9907619996242,83.55024362587723,40.61671079058533,41.17619241683836,40
446.06,84.20537740681122,84.13044555090342,82.90595766957661,83.4892567457012,40.64118880520222,41.22448788132681,40
452.548,84.28606081296044,84.20791009734137,82.93479433144195,83.54214514810126,40.66576494924011,41.27311576589942,40
459.131,84.43675521160714,84.35534348500678,83.03326354220164,83.66490428962653,40.69043919538025,41.322079942805146,40
465.809,84.56745460276967,84.48273993031454,83.11137069088996,83.76753604453211,40.71520388578243,41.37136923942458,40
472.584,84.66816619682666,84.58010587623639,83.15911868281584,83.84004715054454,40.74005872569185,41.420987193420544,40
479.458,84.81689120415756,84.72544177515934,83.25450476712248,83.96043860686794,40.7650031682914,41.470937008036856,40
486.432,84.96662672996248,84.87174447575451,83.35053010177225,84.08171162962401,40.7900328461305,41.52121437398226,40
493.507,85.05436887944211,84.95600983327924,83.38419495153806,84.1408665331591,40.81514330012014,41.571814881741176,40
500.686,84.99212096815826,84.89023993968804,83.26749178305451,84.04990298055846,40.84033695912959,41.622748156633534,40
507.968,84.81589189095257,84.71044443711125,83.03644920203834,83.84484239280046,40.86560204431079,41.67399523507291,40
515.357,84.62766606856866,84.5186060513928,82.79303377416232,83.62766199669802,40.89094405469477,41.72557227723047,40
522.853,84.38645850102982,84.27374005555593,82.49627296757251,83.35738561356015,40.91635444199578,41.777467087983425,40
530.458,84.14625339872076,84.02982996336193,82.20014867620709,83.08799857461626,40.94183138874567,41.82968128715484,40
538.174,83.95906897202704,83.83889329955079,81.9566771204609,82.87152046971765,40.96737282983314,41.882216179089895,40
546.002,83.75289132615464,83.62891597984866,81.69384994821836,82.6359427773089,40.99297320253976,41.9350660316303,40
553.943,83.78772356631008,83.6599009277852,81.67167589858,82.64127407089731,41.01862685688789,41.988225029205196,40
562.001,84.1345711132432,84.00285194107016,81.9611448410933,82.95851437237323,41.04433756869693,42.04170709997686,40
570.175,84.5864348618008,84.45077072164013,82.35527807356097,83.38067782699093,41.07009289464919,42.09549264807916,40
578.469,84.92930323273481,84.78964409211524,82.64004916527384,83.69374801166269,41.09589608045255,42.1495949268414,40
586.883,85.1371882260746,84.99348439531337,82.78948371991234,83.8717467917842,41.12173760352917,42.20400067540103,40
595.419,85.22508405221217,85.0772852307448,82.81857568774609,83.9296711912632,41.14761403948161,42.258709542998716,40
604.08,85.28199502672197,85.13004983764917,82.81632264160795,83.95652514466911,41.17352469298005,42.313727196041214,40
612.866,85.34692214963589,85.19077958851656,82.82173962305552,83.99131991688034,41.19945967163622,42.36903996546104,40
621.78,85.30785873653056,85.14746674798025,82.72281378698504,83.9220489108781,41.22541783710214,42.4246529609952,40
630.824,85.15181299780258,84.98711896834283,82.50655436395078,83.73572416880155,41.25139479954127,42.48056460439204,40
640.0,85.10777914384983,84.93872991579977,82.40195690620561,83.66134398542306,41.27738593037671,42.53677300959416,40
649.309,85.17475327988963,85.00129563857155,82.40802569764548,83.69791204790343,41.30338359066812,42.593269940926064,40
658.753,85.23675061632204,85.05883082823632,82.40877776529143,83.72944803059892,41.32938279763741,42.65005306294489,40
668.335,85.17375546873026,84.99131882538299,82.28419316886544,83.63593779792966,41.35538102745333,42.70712565651755,40
678.056,85.1117819423352,84.92477371911184,82.16029499899966,83.54340366181268,41.381370057299165,42.76447872011218,40
687.919,84.99181735272289,84.8001818825334,81.9780670894266,83.39283506202749,41.40734682050591,42.82211479310679,40
