Freq,On Axis,Listening Window,Sound Power,Early Reflections,Early Reflections DI,Sound Power DI,DI offset
20.5078,61.29438636363638,61.27715977301973,61.098521706400405,61.123603536723905,40.15355623629583,40.17863806661933,40
21.9727,63.83948636363637,63.818499640942164,63.55132091966156,63.632436775464825,40.18606286547734,40.2671787212806,40
23.4375,64.63098636363638,64.60884057462395,64.3073337072959,64.40095425452213,40.20788632010182,40.30150686732806,40
24.9023,65.47198636363638,65.44955447604566,65.08608374795737,65.21638401662848,40.23317045941718,40.36347072808829,40
26.3672,66.77978636363638,66.76877264823716,66.58873265895187,66.62571616810094,40.143056480136224,40.18003998928529,40
27.832,67.44858636363637,67.4361152634136,67.24583524341692,67.28857513626706,40.14754012714654,40.19028001999668,40
29.2969,68.11888636363638,68.10400297675552,67.84309792308775,67.92487997524991,40.179123001505616,40.26090505366777,40
30.7617,69.25948636363637,69.24195300493685,68.91486509708179,69.03379740638941,40.208155598547435,40.32708790785506,40
32.2266,69.89138636363639,69.87612091884266,69.63289545889786,69.70285398632191,40.17326693252075,40.243225459944796,40
33.6914,70.87678636363638,70.86289202820832,70.614564066651,70.68738761060426,40.17550441760406,40.24832796155732,40
35.1562,71.57128636363637,71.55553169698612,71.28088446123151,71.36948776972709,40.186043927259036,40.274647235754614,40
36.6211,72.23338636363637,72.21892014321735,71.9714599291512,72.04586637937118,40.17305376384617,40.24746021406615,40
38.0859,72.85128636363638,72.83855881911497,72.63492948556642,72.68694573020696,40.15161308890801,40.20362933354855,40
39.5508,73.65808636363637,73.6444198515578,73.43545590337804,73.48948146080104,40.154938390756755,40.20896394817976,40
41.0156,74.09868636363636,74.08377440591447,73.8994092101941,73.9416602680369,40.14211413787757,40.184365195720375,40
42.4805,74.75678636363635,74.74038839852705,74.46878948719899,74.55314053162382,40.18724786690322,40.271598911328056,40
43.9453,75.26988636363636,75.25324329458404,74.96034325957324,75.05691566882291,40.19632762576113,40.2929000350108,40
45.4102,75.88888636363639,75.87353919519748,75.60223372096154,75.68953169574881,40.18400749944867,40.271305474235945,40
46.875,76.49668636363637,76.47975742140702,76.17621584843165,76.28077777477579,40.19897964663123,40.30354157297536,40
48.3398,77.11168636363637,77.0940075731489,76.77985296441173,76.88962688390669,40.204380689242214,40.31415460873717,40
51.2695,78.03058636363637,78.01356891116423,77.72346657218857,77.81897236783199,40.19459654333224,40.29010233897566,40
52.7344,78.57438636363638,78.5580577038292,78.29307925708436,78.37427182230044,40.18378588152876,40.26497844674485,40
54.1992,79.08538636363637,79.06949096247777,78.82591849855608,78.89656821604136,40.17292274643641,40.243572463921694,40
55.6641,79.62208636363637,79.60475030579511,79.35316590556036,79.42897366705954,40.17577663873557,40.25158440023475,40
58.5938,80.52768636363638,80.50621802611914,80.15759541499268,80.2832169064058,40.223001119713345,40.34862261112646,40
60.0586,80.97488636363637,80.95319932328324,80.60971606976688,80.73144183006367,40.22175749321957,40.34348325351637,40
62.9883,81.79028636363635,81.76836748496008,81.38641750263899,81.52985513891394,40.238512346046136,40.38194998232109,40
64.4531,82.12378636363637,82.10320762683784,81.75508640133907,81.88111386232352,40.22209376451433,40.34812122549877,40
67.3828,82.66528636363637,82.6463813509127,82.35685065236099,82.45048318876057,40.19589816215213,40.289530698551715,40
68.8477,82.91748636363637,82.89935513861309,82.63984105338588,82.71820295292065,40.18115218569244,40.25951408522721,40
71.7773,83.57538636363637,83.5570229683979,83.30822411945113,83.3818225677763,40.175200400621605,40.24879884894678,40
74.707,84.12568636363638,84.1060837013553,83.84998831165504,83.92577633376344,40.180307367591865,40.25609538970026,40
77.6367,84.59558636363637,84.57626690954186,84.33266890229201,84.40180091384093,40.17446599570093,40.243598007249844,40
79.1016,84.85178636363638,84.83004015917865,84.55789535336066,84.64120172645634,40.18883843272231,40.27214480581799,40
82.0312,85.1304863636364,85.10611735198529,84.78606247624056,84.8935669187437,40.21255043324159,40.32005487574473,40
84.9609,85.38778636363637,85.36364347408303,85.04759043461159,85.15155746870852,40.212086005374516,40.31605303947144,40
87.8906,85.63448636363637,85.61136422292246,85.32866738523693,85.41321524153877,40.198148981383696,40.282696837685535,40
90.8203,85.83158636363639,85.80307210311994,85.46598651153114,85.57788979239005,40.22518231072989,40.3370855915888,40
95.2148,86.12128636363637,86.09330349939214,85.77412378850174,85.87697979980669,40.216323699585445,40.319179710890396,40
98.1445,86.18458636363637,86.15246237147564,85.82002263873191,85.93060215320291,40.221860218272724,40.33243973274372,40
101.074,86.12588636363635,86.09510318547039,85.78528866635396,85.88703002678501,40.20807315868538,40.30981451911643,40
105.469,86.29208636363637,86.25837527903514,85.89966874180604,86.02488085961092,40.23349441942422,40.3587065372291,40
108.398,86.41858636363638,86.37737186754917,85.90691907822536,86.08694385531697,40.2904280122322,40.470452789323815,40
112.793,86.31228636363637,86.27309434245957,85.81611059919717,85.9889002160215,40.28419412643807,40.4569837432624,40
117.188,86.32798636363637,86.27927256761275,85.72843860217256,85.94464257063615,40.3346299969766,40.55083396544019,40
120.117,86.43108636363637,86.38293656883532,85.71147865887417,85.99712493162185,40.385811637213465,40.67145790996115,40
124.512,86.23188636363638,86.18736690053878,85.577852215811,85.82638011464196,40.36098678589681,40.60951468472777,40
128.906,85.96628636363637,85.92393857121458,85.41166709270355,85.60733239392978,40.3166061772848,40.512271478511025,40
133.301,85.87178636363637,85.82662036062486,85.28611344380309,85.49557107290575,40.33104928771911,40.54050691682177,40
139.16,85.87018636363638,85.81839650327107,85.21039764514352,85.44708005829457,40.3713164449765,40.60799885812756,40
143.555,85.82838636363637,85.77268259780163,85.11618611341098,85.37664502173727,40.39603757606436,40.65649648439066,40
147.949,85.61858636363637,85.56573183725872,84.96149835217064,85.19029854659473,40.37543329066399,40.60423348508809,40
153.809,85.45648636363637,85.39645290188218,84.703590608819,84.96867755096862,40.427775350913564,40.692862293063186,40
159.668,85.37338636363637,85.31407256103228,84.66611665934225,84.91083811597969,40.40323444505259,40.647955901690025,40
165.527,85.24068636363637,85.17773212611438,84.53963016904662,84.78094588008427,40.3967862460301,40.63810195706776,40
171.387,85.17498636363636,85.10583216812101,84.39455082821146,84.66773172542256,40.438100442698456,40.71128133990955,40
177.246,85.31548636363637,85.23352744676804,84.3379008345986,84.70647867034403,40.52704877642401,40.89562661216944,40
183.105,85.09738636363637,85.02328891502215,84.04492294092046,84.46294624668553,40.56034266833662,40.97836597410169,40
188.965,84.91908636363637,84.84172448897908,83.93617586678066,84.31562720722691,40.52609728175217,40.905548622198424,40
196.289,85.04028636363637,84.9524422502578,83.91516441543543,84.36195995410354,40.59048229615426,41.037277834822376,40
203.613,85.09598636363638,84.99818261136454,83.71572882357746,84.29887807997456,40.699304531389984,41.28245378778708,40
210.938,84.79358636363638,84.70736714369725,83.51889736689141,84.05494926553033,40.65241787816693,41.188469776805846,40
218.262,84.61798636363638,84.52241717384368,83.42854711984445,83.90203394379341,40.620383230050265,41.093870053999225,40
225.586,84.87358636363638,84.77114549322759,83.42758947411801,84.05005351083625,40.72109198239134,41.343556019109585,40
232.91,84.88988636363638,84.77846120797606,83.30659713284021,83.99847955355558,40.77998165442048,41.471864075135855,40
241.699,84.59728636363637,84.50232847464649,83.04995075513749,83.72745229529045,40.77487617935604,41.452377719509,40
250.488,84.96898636363638,84.84331647332895,83.05608441537558,83.87679054943789,40.96652592389107,41.787232057953375,40
259.277,84.80568636363637,84.69106434827543,83.01543792217765,83.77005627257601,40.92100807569942,41.67562642609778,40
268.066,84.75308636363637,84.62397998640995,82.79274364642015,83.6201005667202,41.00387941968975,41.8312363399898,40
276.855,84.58598636363637,84.50311140882314,82.72003299783697,83.58332584522492,40.919785563598225,41.78307841098618,40
287.109,84.58208636363638,84.48171684565104,82.68681092427252,83.58288953622414,40.89882730942689,41.794905921378515,40
297.363,84.97088636363637,84.82517354835836,82.69461529577161,83.7421798738508,41.08299367450756,42.13055825258675,40
307.617,84.89378636363635,84.77292090938904,82.67362952014503,83.73926782607587,41.03365308331317,42.099291389244016,40
319.336,84.90978636363637,84.76757980082299,82.52194584904638,83.6368709308927,41.13070886993029,42.24563395177661,40
329.59,84.67118636363637,84.58680228232392,82.55339251257662,83.5591637641557,41.02763851816822,42.033409769747294,40
341.309,85.19648636363637,85.03536548829857,82.69179908397446,83.81388758099519,41.22147790730338,42.34356640432411,40
353.027,85.17878636363638,85.04269966743969,82.61193023448664,83.80703951856329,41.235660148876406,42.430769432953056,40
366.211,85.86588636363638,85.73139361622168,82.94850212177276,84.37691469815663,41.354478918065055,42.78289149444892,40
379.395,85.68558636363638,85.59754695965248,83.14090716052375,84.49953008756957,41.09801687208291,42.45663979912872,40
392.578,85.31248636363637,85.22755206931299,82.81225502959268,84.12460544025718,41.10294662905581,42.415297039720315,40
405.762,85.86728636363637,85.70814017974031,82.96019433732828,84.34663524021128,41.36150493952903,42.74794584241204,40
420.41,85.72958636363637,85.61927580489225,83.12493304125671,84.40735444718537,41.211921357706885,42.494342763635544,40
435.059,85.97608636363637,85.87649021926607,83.11620384060332,84.53460673063181,41.34188348863427,42.760286378662755,40
451.172,85.90358636363638,85.77127380191907,82.88370338986411,84.46701026455086,41.3042635373682,42.887570412054956,40
465.82,85.91438636363638,85.78608896967538,82.7859699259166,84.35799454385361,41.42809442582177,43.00011904375877,40
483.398,85.44898636363637,85.32909866815663,82.51985353646653,83.99963720563599,41.32946146252064,42.809245131690105,40
499.512,86.01288636363638,85.8204450097143,82.728797972402,84.35940961082757,41.461035398886736,43.0916470373123,40
517.09,85.39228636363637,85.16439414225813,82.27109975532292,83.68382654525811,41.48056759700002,42.89329438693521,40
536.133,86.01018636363638,85.7173272903536,81.84752970128484,83.71159801727954,42.00572927307405,43.86979758906875,40
555.176,85.64178636363637,85.52951655052824,81.84103014893053,83.66776102292002,41.861755527608224,43.688486401597714,40
574.219,85.17238636363638,84.9565153982977,81.45651721042093,83.356065715731,41.60044968256669,43.49999818787677,40
594.727,85.26488636363638,84.95443144188323,80.8621170776337,82.8907001369923,42.063731304890936,44.09231436424953,40
615.234,84.61028636363638,84.47897758984213,80.69838158941172,82.62272047388929,41.85625711595284,43.78059600043041,40
637.207,84.38078636363637,84.10166656172716,80.12150638098642,82.24270242082049,41.858964140906664,43.98016018074074,40
659.18,83.87278636363637,83.53269876737245,79.44674940302211,81.56248427968364,41.97021448768881,44.08594936435034,40
682.617,83.86238636363638,83.58822132333513,79.49978912961555,81.5223885884101,42.06583273492504,44.08843219371958,40
707.52,83.47828636363637,83.15588328032987,78.86839478612563,81.27485347397298,41.88102980635689,44.28748849420424,40
732.422,83.19008636363638,82.81258186576001,78.39186964249157,80.70306340277655,42.10951846298346,44.42071222326844,40
757.324,83.44018636363637,83.12507456232836,78.49323396357272,81.05577945846476,42.06929510386361,44.631840598755645,40
785.156,82.90498636363637,82.52698218069293,77.69394228400088,80.29957470516077,42.22740747553216,44.83303989669204,40
811.523,83.03278636363638,82.66222679178374,77.56185501780716,80.22237166247854,42.4398551293052,45.100371773976576,40
840.82,83.16068636363637,82.8227766866981,77.2705878604631,80.09129510888664,42.731481577811465,45.55218882623501,40
870.117,83.35638636363636,82.92207574065036,77.10615862204511,80.03454795162988,42.88752778902048,45.81591711860524,40
900.879,83.29688636363637,83.05596971709305,77.2309396867591,80.25214264419786,42.80382707289519,45.82503003033395,40
933.105,83.43608636363636,83.01532854178755,76.92646454877925,80.03220369355112,42.98312484823643,46.0888639930083,40
965.332,83.12598636363637,82.81127770717852,76.75224168351887,79.82162984835726,42.98964785882126,46.059036023659644,40
1000.49,82.87228636363638,82.48530396334354,76.41111667504468,79.6096899596175,42.87561400372604,46.07418728829886,40
1035.64,82.45728636363637,82.33582542958388,76.52175698121381,79.70619102873125,42.62963440085262,45.814068448370065,40
1072.27,82.28938636363637,82.07052491014299,76.33819565162771,79.49264017831686,42.57788473182613,45.73232925851528,40
1108.89,82.49638636363638,82.1412606659003,76.28073142123887,79.50665193655676,42.63460872934354,45.860529244661436,40
1148.44,82.77868636363637,82.26621231037906,76.5921818615081,79.65880878183314,42.607403528545916,45.674030448870965,40
1189.45,83.01288636363637,82.54949990166075,76.91321119191035,79.7876181282699,42.761881773390854,45.6362887097504,40
1230.47,83.71218636363638,83.11781149897617,77.30771229800051,80.12471308192853,42.993098417047634,45.81009920097566,40
1274.41,83.91008636363637,83.52961229299324,77.64258443360113,80.43268552268728,43.096926770305956,45.887027859392106,40
1319.82,84.54708636363638,84.01557430769776,78.0623213517874,80.98707376379447,43.02850054390329,45.95325295591036,40
1366.7,84.58148636363637,83.94698826291852,78.14710942943144,80.91098871956588,43.035999543352645,45.799878833487085,40
1413.57,84.04978636363637,83.80198109395097,78.29034325578336,81.22053274595133,42.58144834799964,45.511637838167616,40
1463.38,83.26388636363637,83.10556560161814,78.07552897208879,80.82422588066785,42.281339720950285,45.03003662952935,40
1516.11,83.11108636363637,82.81807509195949,77.74910649065889,80.4621364076264,42.35593868433308,45.0689686013006,40
1568.85,82.51498636363637,82.38800252374546,77.6596213719114,80.28693909205107,42.101063431694385,44.72838115183406,40
1624.51,83.47258636363638,83.31255399495448,78.0407936670479,80.51775560500782,42.79479838994666,45.27176032790659,40
1681.64,84.13548636363637,83.97974648477678,78.52840297413194,80.93937251288516,43.040373971891626,45.45134351064485,40
1741.7,85.47308636363637,84.32661577438547,78.74774721408949,81.3678902915173,42.958725482868175,45.57886856029599,40
1803.22,84.22158636363638,83.97766455757187,78.73115268130866,81.02999209328722,42.94767246428465,45.24651187626321,40
1866.21,83.22568636363637,83.0457308688553,77.95901114303699,80.54925330318483,42.496477565670475,45.08671972581831,40
1932.13,84.26098636363638,83.36800145434403,78.08064976939235,80.60266303074415,42.76533842359987,45.28735168495167,40
1999.51,84.77898636363638,84.10733228327962,78.55567211494836,81.2500057637837,42.85732651949591,45.55166016833125,40
2069.82,85.43428636363637,84.73182397530901,79.00343061036149,81.74034336072835,42.99148061458067,45.72839336494752,40
2143.07,85.03258636363636,84.58606644105828,79.12948653346773,81.82768420318958,42.7583822378687,45.45657990759055,40
2219.24,83.92278636363638,83.50443982600548,78.70730028416715,81.125794219442,42.37864560656348,44.797139541838334,40
2296.88,82.92098636363637,82.9607817376692,78.75606904868923,81.35286366207724,41.607918075591954,44.20471268897997,40
2378.91,83.95348636363637,83.73248066657425,79.27374630727728,81.65696717432013,42.07551349225412,44.45873435929697,40
2462.4,84.38518636363638,84.39610177237127,79.51744186255577,81.94902808959563,42.44707368277564,44.8786599098155,40
2548.83,84.17348636363637,84.0560404802945,79.28582659246965,81.8257016163526,42.230338863941896,44.77021388782485,40
2639.65,82.63848636363637,82.72253804916731,78.81572593018504,81.33548534266944,41.38705270649787,43.90681211898227,40
2731.93,81.90258636363637,82.23980097181128,78.43621767543978,81.09013271492921,41.149668256882066,43.8035832963715,40
2828.61,82.76448636363635,82.9357927617644,78.51304250682732,81.19450033144157,41.74129243032283,44.422750254937085,40
2928.22,83.55288636363638,83.63898990704799,78.88892308924795,81.56686241303292,42.072127494015064,44.75006681780003,40
3030.76,83.67398636363637,83.76481810421414,78.88260215340921,81.58161749860638,42.183200605607766,44.882215950804934,40
3137.7,83.56608636363637,83.6335753874591,78.77418432847684,81.4532118526204,42.180363534838705,44.85939105898227,40
3249.02,83.47558636363637,83.53725781390963,78.55102371895975,81.30779971873763,42.229458095172006,44.98623409494988,40
3363.28,83.97058636363637,83.94879808226487,78.5101875950159,81.25181924366422,42.69697883860066,45.438610487248965,40
3481.93,84.04458636363637,84.18830601693494,78.63084381807909,81.19952723262784,42.9887787843071,45.55746219885586,40
3604.98,84.62798636363637,84.79552155401839,78.99764661741523,81.3684326091373,43.42708894488109,45.797874936603165,40
3732.42,85.12388636363637,85.26771364150487,78.82182580355935,81.36969261081437,43.8980210306905,46.44588783794552,40
3864.26,84.24378636363637,84.20503117338092,77.97027427404507,80.4239292979986,43.78110187538232,46.23475689933585,40
4000.49,84.75138636363637,84.45041586443007,77.74892656975955,80.36295679173354,44.08745907269653,46.70148929467052,40
4141.11,85.01848636363637,84.75802670728082,77.35418923439717,80.29359664538448,44.46443006189634,47.40383747288365,40
4287.6,85.21878636363637,84.63959261313637,77.24024055881235,80.01547843031743,44.62411418281894,47.39935205432403,40
4438.48,84.53308636363637,84.3011596709844,77.19605151421547,79.6265305341086,44.67462913687581,47.105108156768935,40
4595.21,84.40268636363636,84.40630267925437,77.3300327863369,79.76369334180725,44.64260933744711,47.076269892917466,40
4756.35,85.48988636363637,85.10704480181587,77.74493185531773,80.48084201080731,44.626202791008566,47.362112946498144,40
4924.8,85.13928636363637,84.7904571549807,77.74667532733916,80.56353645409074,44.22692070088996,47.04378182764154,40
5097.66,85.27338636363638,84.81060933703988,77.53302759107022,80.47211865792038,44.3384906791195,47.277581745969655,40
5277.83,84.92848636363637,84.70081339403549,77.96279717724369,80.70701754084874,43.993795853186754,46.738016216791806,40
5463.87,85.25708636363638,84.85057959219795,78.0160293881646,81.10203979884281,43.748539793355135,46.83455020403335,40
5657.23,85.56638636363637,84.82836387345382,78.25281884963019,81.37770318614297,43.45066068731086,46.575545023823636,40
5856.45,85.65348636363638,84.85762978322784,78.30062039367172,81.30949108858665,43.54813869464118,46.557009389556114,40
6062.99,86.02448636363637,85.2763981867604,78.58524721011516,81.63005363017244,43.64634455658796,46.69115097664525,40
6276.86,86.16058636363637,85.02789354248142,78.37159669740792,81.60494950544042,43.422944037041006,46.6562968450735,40
6498.05,86.80008636363637,85.64995967617408,78.78720121650133,82.11875167613867,43.531208000035406,46.86275845967275,40
6726.56,86.44658636363637,85.37370052390392,78.73861750265517,82.19464107644185,43.179059447462066,46.63508302124875,40
6963.87,86.58208636363638,85.38275067688433,78.81925489416766,82.47535223348218,42.907398443402144,46.56349578271667,40
7209.96,87.01378636363637,85.60903659206,78.97172958247647,82.59779390169662,43.011242690363375,46.63730700958352,40
7464.84,86.04278636363637,84.94115774344847,78.3668661133673,82.00983228496206,42.93132545848641,46.57429163008118,40
7727.05,86.61728636363638,85.49604388902397,78.65593440120881,82.28050721709812,43.21553667192585,46.840109487815155,40
7999.51,85.95968636363637,85.10629253744351,78.30708027370038,82.22965226309873,42.87664027434478,46.79921226374313,40
