Freq "Ceiling Bounce"
20.5078 92.99829332130881
21.9727 94.6433638888948
23.4375 95.61270622978938
24.9023 96.55769673325648
26.3672 97.03874723998265
27.832 97.51592282243135
29.2969 97.96649482937005
30.7617 98.1833187333493
32.2266 98.41323418866652
33.6914 98.63505902397792
35.1562 98.81807746632734
36.6211 98.99124218359029
38.0859 99.11530947377196
39.5508 99.221428136727
41.0156 99.30679738262614
42.4805 99.40167232764585
43.9453 99.46688133646202
45.4102 99.54945381467999
46.875 99.64062371483054
48.3398 99.68162241251105
51.2695 99.7752263240762
52.7344 99.85523946243781
54.1992 99.91252543302599
55.6641 99.91667733476142
58.5938 99.97755252961305
60.0586 99.99503132600843
62.9883 99.94462007021357
64.4531 99.9289460892018
67.3828 99.8808728745723
68.8477 99.87657612387576
71.7773 99.8383755207118
74.707 99.87293352331064
77.6367 99.94939231852781
79.1016 100.00605381467999
82.0312 100.11276033014133
84.9609 100.17553742415873
87.8906 100.36178569766184
90.8203 100.54648310537688
95.2148 100.58773369108306
98.1445 100.60492300590896
101.074 100.63732491257912
105.469 100.67591532849517
108.398 100.70350481954475
112.793 100.6870552097526
117.188 100.68404351519965
120.117 100.67328456134874
124.512 100.66215139487788
128.906 100.63671799524079
133.301 100.63192265567983
139.16 100.55698233830385
143.555 100.4754528734683
147.949 100.44381779388189
153.809 100.41712511715588
159.668 100.25726762312348
165.527 100.02454715225811
171.387 99.86265987513292
177.246 99.6602235754313
183.105 99.29384915758897
188.965 99.30457398235163
196.289 99.93345127061188
203.613 99.42264314189076
210.938 99.24013768913356
218.262 99.09035192834224
225.586 98.84142161742218
232.91 98.77191367155936
241.699 99.0361044182859
250.488 98.73064815322932
259.277 99.09615002552476
268.066 98.62232754953865
276.855 98.42454665244377
287.109 98.67472886175825
297.363 99.0052966083188
307.617 98.6386940667048
319.336 98.187422865686
329.59 97.69952693939167
341.309 98.0356016153981
353.027 97.45330225994182
366.211 96.86536306662074
379.395 97.73235619875422
392.578 97.80998209980376
405.762 97.42197721064463
420.41 97.15437868093252
435.059 96.77147828104557
451.172 96.76572961433125
465.82 97.01445040494832
483.398 97.74998285102045
499.512 97.32620508530304
517.09 96.79643829168037
536.133 96.65925301446649
555.176 97.16300552846307
574.219 96.3546054655302
594.727 96.33047081577189
615.234 96.36223722353195
637.207 96.01044423447208
659.18 96.52862251750228
682.617 96.68730815124349
707.52 96.25133692381361
732.422 95.90075047393711
757.324 96.27246027192696
785.156 96.28380448147455
811.523 96.64554214359941
840.82 96.49328200911575
870.117 96.51705026695285
900.879 96.41237695049922
933.105 96.6992111804272
965.332 96.66015153465166
1000.49 96.84391341752104
1035.64 96.20061069847748
1072.27 96.14331108991423
1108.89 95.93233020736086
1148.44 96.37940767358364
1189.45 96.7699117242774
1230.47 96.86539835760601
1274.41 97.11699891639148
1319.82 97.10870858383957
1366.7 96.3658510851852
1413.57 95.60542551913844
1463.38 95.97825955211007
1516.11 96.4524363346496
1568.85 96.31743354303758
1624.51 95.94253204255422
1681.64 95.64246788469374
1741.7 95.93965154402595
1803.22 96.41425723487123
1866.21 96.25269542993196
1932.13 96.31993449763117
1999.51 95.60731325681147
2069.82 96.04795937970935
2143.07 96.938498149596
2219.24 96.57145392877587
2296.88 96.27321291427963
2378.91 96.33332046002624
2462.4 96.37163252268388
2548.83 95.89566679006914
2639.65 95.36268960676794
2731.93 95.99099838667135
2828.61 95.93352878543429
2928.22 95.44179359468218
3030.76 95.15398056371284
3137.7 95.09236096126422
3249.02 95.11264197878478
3363.28 95.02145103362074
3481.93 94.83942657635923
3604.98 94.83769955684708
3732.42 94.67739632168424
3864.26 94.56765301996137
4000.49 94.72813565756977
4141.11 94.62877000369343
4287.6 94.53779756137776
4438.48 94.34145835881364
4595.21 94.07901756225307
4756.35 93.89234273463663
4924.8 93.54858556023693
5097.66 93.33812848716279
5277.83 93.20169789027511
5463.87 92.90062920828464
5657.23 92.80667535250831
5856.45 92.55560861867039
6062.99 92.32195652738855
6276.86 91.97521484975424
6498.05 91.55355948724497
6726.56 91.33091081884874
6963.87 91.34199106606486
7209.96 91.28210550277102
7464.84 91.29198412258191
7727.05 90.96547563148502
7999.51 90.65263288862516
8282.23 90.29332248822868
8573.73 90.04072333592923
8876.95 89.95418794047451
9188.96 90.05147710439215
9514.16 90.02379429285045
9849.61 89.95583263011139
10196.8 89.58167469399174
10555.7 89.43893894070729
10927.7 89.17057224032399
11313.0 88.95658910043306
11712.9 88.81830047792829
12126.0 88.84689693810466
12553.7 88.62744336403412
12996.1 88.37453507692038
13454.6 88.18000313991058
13929.2 87.85412607837634
14419.9 86.52245563961593
14928.2 86.12424418965662
15455.6 86.59190790872276
16000.5 87.26545476200988
16564.5 87.63479019134381
17148.9 87.41197764230199
17752.4 88.29688986042757
18379.4 88.81041873235156
19026.9 89.582567754342
19697.8 89.57962145484957
19999.5 89.5777600394468
