Freq "Side Wall Bounce"
20.5078 93.02500692274148
21.9727 94.69336436757901
23.4375 95.67694406017316
24.9023 96.64514846424596
26.3672 97.1381234274598
27.832 97.61724479320836
29.2969 98.07113549036492
30.7617 98.28230740682132
32.2266 98.51758970928545
33.6914 98.74225922199399
35.1562 98.92870869979966
36.6211 99.10298051060627
38.0859 99.22547640205975
39.5508 99.33343693636681
41.0156 99.41588719531381
42.4805 99.5056831193021
43.9453 99.56786663353259
45.4102 99.64648334260954
46.875 99.73252036723454
48.3398 99.77159624968107
51.2695 99.85452472332
52.7344 99.92732587104322
54.1992 99.97623985260407
55.6641 99.97488029961103
58.5938 100.01185237097394
60.0586 100.02417497399968
62.9883 99.98827130708565
64.4531 99.97391191287147
67.3828 99.92444269490156
68.8477 99.91168687423033
71.7773 99.87281766140077
74.707 99.88290687085947
77.6367 99.96577049194671
79.1016 100.01836970883646
82.0312 100.11858030792936
84.9609 100.16242551712111
87.8906 100.3390296784082
90.8203 100.51240814474735
95.2148 100.5469838753331
98.1445 100.55084932056538
101.074 100.58631678464329
105.469 100.60630771156724
108.398 100.62142721252087
112.793 100.57231199288856
117.188 100.54608711277042
120.117 100.54602035766865
124.512 100.52998794167021
128.906 100.4829546881195
133.301 100.46694554174616
139.16 100.41505370408831
143.555 100.35250954087354
147.949 100.27563524121598
153.809 100.18838733283016
159.668 100.07188344779536
165.527 99.8440413878079
171.387 99.5952693110359
177.246 99.31029561018507
183.105 98.9005607267959
188.965 98.53152433684443
196.289 99.14117364367719
203.613 98.71113165596107
210.938 98.35922858964837
218.262 98.5303607823823
225.586 98.34088758834666
232.91 98.19083154261116
241.699 98.87544669113007
250.488 98.51429094942333
259.277 98.71521534770359
268.066 97.9913656164978
276.855 97.78171906552947
287.109 98.2603759097364
297.363 97.89600070243571
307.617 98.54299480224016
319.336 98.16629667709016
329.59 97.43793091501927
341.309 97.34959370795389
353.027 97.6582398013501
366.211 97.17356351092104
379.395 98.51665417482278
392.578 98.81220153942724
405.762 98.40987483375037
420.41 98.23551771941838
435.059 97.39743259092063
451.172 97.49877674836142
465.82 97.49171265920103
483.398 98.64082255067561
499.512 98.76847348400563
517.09 98.35854428279603
536.133 97.78247933048522
555.176 98.04830963008664
574.219 97.67874181603126
594.727 96.96798433251949
615.234 97.24527153681406
637.207 97.30602015954119
659.18 97.0204726168738
682.617 96.66093379645874
707.52 96.723521082071
732.422 96.95852279794823
757.324 96.33707800145567
785.156 97.35383569529903
811.523 96.66078591319817
840.82 96.42079633515898
870.117 96.47947421113705
900.879 96.29852210183014
933.105 96.57955733765411
965.332 96.33570133284435
1000.49 96.90933818409462
1035.64 96.73335497655046
1072.27 96.49107983231451
1108.89 95.87959737713598
1148.44 95.53980654003703
1189.45 95.07435829425218
1230.47 95.24993745024018
1274.41 95.95379491121874
1319.82 95.88477362970501
1366.7 96.00531688294237
1413.57 95.27341724031315
1463.38 94.52162770046681
1516.11 94.63056714187783
1568.85 94.30420509214927
1624.51 94.80984256428697
1681.64 93.73404837653148
1741.7 94.18864930497168
1803.22 93.93040483095172
1866.21 94.19473221704524
1932.13 94.15761169416922
1999.51 93.22469723755964
2069.82 92.55298572532456
2143.07 92.83525752823421
2219.24 93.82897873236399
2296.88 93.15140712363922
2378.91 93.09983276558444
2462.4 93.45757326933281
2548.83 93.18184724447833
2639.65 92.84607017465198
2731.93 93.01342751617395
2828.61 93.33547171560392
2928.22 93.24099991585064
3030.76 92.21794389099016
3137.7 92.63333060401136
3249.02 92.94373534381808
3363.28 92.70350659086546
3481.93 92.32891314965698
3604.98 92.06922201113048
3732.42 92.36013260663097
3864.26 92.19458563225403
4000.49 91.63017481095075
4141.11 91.66563630085537
4287.6 91.28108448354683
4438.48 91.22034172944475
4595.21 91.27048946671712
4756.35 91.51846821689091
4924.8 90.94533853829908
5097.66 91.28255666501148
5277.83 91.107598252912
5463.87 91.4739429074279
5657.23 91.56720814267501
5856.45 91.35506945138769
6062.99 91.82361807844978
6276.86 91.6046729966353
6498.05 91.70777976290012
6726.56 91.61332732113334
6963.87 91.89389622532221
7209.96 91.3068264274179
7464.84 91.26621651548483
7727.05 90.56622124587594
7999.51 90.32508614729737
8282.23 90.16892855793373
8573.73 90.09475492457457
8876.95 90.85098261788085
9188.96 91.04785816864424
9514.16 90.62733204527953
9849.61 90.31468119941408
10196.8 89.92774704882898
10555.7 89.57910956241844
10927.7 89.40587708727884
11313.0 89.24493265678706
11712.9 88.96037631295926
12126.0 88.64450915469922
12553.7 88.37802404446334
12996.1 88.27145882603693
13454.6 88.30367696421536
13929.2 88.37837506645099
14419.9 88.10260492504688
14928.2 88.22326349045461
15455.6 88.55263570745522
16000.5 88.90979409426384
16564.5 88.87684616837456
17148.9 89.07357862490714
17752.4 89.57396230024543
18379.4 90.43530953637627
19026.9 90.8830367738239
19697.8 91.06149821414616
19999.5 91.0920337975285
