Freq,On Axis,Listening Window,Sound Power,Early Reflections,Early Reflections DI,Sound Power DI,DI offset
20.5078125,72.9691155384788,74.46647150261765,72.71585535353569,73.56326242996542,40.90320907265223,41.750616149081964,40
23.4375,73.45171292206184,74.80234997671428,73.25020623445225,73.99967343156844,40.80267654514584,41.55214374226203,40
26.3671875,74.5296784312308,75.69748249423216,74.38946162746315,75.02156926109136,40.675913233140804,41.30802086676901,40
29.296875,75.90166887601103,76.91050407332672,75.81202943462807,76.34612856565482,40.5643755076719,41.09847463869865,40
32.2265625,77.38768601479921,78.27811272829072,77.33417202810935,77.79760315828702,40.480509570003704,40.94394070018137,40
35.15625,78.8700580622849,79.68101531976441,78.84008085632837,79.25716449670189,40.42385082306252,40.84093446343604,40
38.0859375,80.28309447120397,81.04433927956023,80.26756003711381,80.65608243388934,40.388256845670895,40.77677924244642,40
41.015625,81.59136327778266,82.32309771189149,81.58430212765035,81.95602484685101,40.367072865040484,40.738795584241146,40
43.9453125,82.77882455380738,83.49384096147806,82.77653087482032,83.13878711085172,40.355053850626334,40.71731008665773,40
46.875,83.84071823953502,84.54668238367202,83.84099616762259,84.19814185945502,40.348540524217,40.70568621604943,40
49.8046875,84.77899289365264,85.48037082414471,84.78057106956172,85.13513164634584,40.345239177798874,40.699799754583,40
52.734375,85.5998944407824,86.29931426200048,85.60202722810492,85.95548490979428,40.3438293522062,40.69728703389556,40
55.6640625,86.3119622790511,87.0111325319125,86.31416573062243,86.66748288004302,40.34364965186947,40.69696680129006,40
58.59375,86.92505090279539,87.51971471740904,86.79433942033862,87.17220462571666,40.347510091692385,40.72537529707043,40
61.5234375,87.44918694972439,87.97011223024788,87.22372786078982,87.62508742653561,40.34502480371226,40.746384369458056,40
64.453125,87.89396198634509,88.37649618737652,87.61163799426501,88.03565571041565,40.340840476960864,40.76485819311151,40
67.3828125,88.26792837279655,88.74079349287949,87.95638109637875,88.40182595855505,40.33896753432444,40.78441239650074,40
70.3125,88.57835672899951,89.05568653563236,88.24911960751456,88.71524038767089,40.34044614796147,40.8065669281178,40
73.2421875,88.83125076184481,89.31028235417193,88.4792375659911,88.96465384338833,40.3456285107836,40.83104478818083,40
76.171875,89.03154389586794,89.49584129409794,88.63960779682681,89.14353042619757,40.35231086790037,40.856233497271134,40
79.1015625,89.18356365238148,89.61096063997289,88.72962018656447,89.25042532768923,40.36053531228366,40.88134045340841,40
82.03125,89.29144391869872,89.66313044686402,88.75668004966684,89.29332518748087,40.36980525938314,40.906450397197176,40
84.9609375,89.35965743791235,89.66895862437556,88.73470947820735,89.28539555225815,40.38356307211741,40.93424914616821,40
87.890625,89.39322129726844,89.64927175897185,88.68154106996006,89.24605505299961,40.40321670597224,40.96773068901179,40
90.8203125,89.39797992232484,89.62406591450869,88.61369734695222,89.1925580526871,40.431507861821586,41.01036856755647,40
93.75,89.38047101808796,89.60462004912313,88.54233615645273,89.13873823504188,40.46588181408124,41.06228389267039,40
96.6796875,89.34751515250056,89.5913713463232,88.47016737041747,89.08824820737658,40.50312313894662,41.12120397590573,40
99.609375,89.30636401448108,89.57436515337591,88.3933973956705,89.03869669530006,40.53566845807585,41.1809677577054,40
102.5390625,89.27106373298803,89.54327550363939,88.30849426861113,88.982300883582,40.560974620057394,41.234781235028265,40
105.46875,89.24041416139565,89.50265796970858,88.21904078128436,88.92461040240235,40.57804756730623,41.283617188424216,40
108.3984375,89.21960726335797,89.45344662162941,88.12812542503777,88.86815897029194,40.58528765133747,41.325321196591645,40
111.328125,89.21152167713414,89.40742737476083,88.04341442553175,88.8170564844145,40.590370890346335,41.36401294922908,40
114.2578125,89.21920515602773,89.3790565392772,87.9752331459932,88.77994976987088,40.59910676940632,41.403823393284,40
117.1875,89.24437470623289,89.38006438081175,87.9314242563747,88.76379833663546,40.616266044176285,41.44864012443705,40
120.1171875,89.28770564479512,89.41451589759842,87.91442110272314,88.77121049917258,40.64330539842584,41.50009479487528,40
123.046875,89.3490615590866,89.47750444793061,87.92102652828304,88.8001320696151,40.67737237831551,41.55647791964758,40
125.9765625,89.4275356633751,89.55825805795504,87.944812114997,88.84553027913594,40.7127277788191,41.61344594295804,40
128.90625,89.521358136447,89.64586444850852,87.97991256891439,88.90255828428411,40.74330616422441,41.66595187959413,40
131.8359375,89.62777353717067,89.7345280145144,88.02401567907177,88.96908718200507,40.76544083250933,41.71051233544263,40
134.765625,89.74297787729786,89.82527832062783,88.07876175655343,89.04625548083831,40.77902283978952,41.7465165640744,40
137.6953125,89.86220465001038,89.92339003700114,88.14717754536295,89.13622117333065,40.78716886367049,41.77621249163819,40
140.625,89.9800472512348,90.03293214335724,88.22971452247316,89.23881354768052,40.79411859567672,41.803217620884084,40
143.5546875,90.09103408500157,90.1517931592488,88.32119728724582,89.34881970247697,40.802973456771824,41.830595872002974,40
146.484375,90.19027767546913,90.26986692274936,88.41052755044922,89.45578275352517,40.81408416922419,41.85933937230014,40
149.4140625,90.27415478820107,90.37172127983115,88.48344996679018,89.54637207999625,40.8253491998349,41.888271313040974,40
152.34375,90.3408217207522,90.44257705678456,88.52742888410327,89.60885305255692,40.83372400422763,41.915148172681285,40
155.2734375,90.39044675698241,90.47495757311763,88.53657065950073,89.637655464184,40.83730210893364,41.93838691361691,40
158.203125,90.4251274014224,90.47281749544463,88.51443165594422,89.63623744374635,40.83658005169828,41.95838583950041,40
161.1328125,90.44846752216604,90.45091337320851,88.47309477063935,89.61629033074932,40.834623042459185,41.97781860256916,40
164.0625,90.46487963173631,90.4290607781171,88.42859734941325,89.59351444816417,40.83554632995293,42.00046342870385,40
166.9921875,90.4788068902413,90.4237058832806,88.39445157431089,89.58133156112537,40.84237432215524,42.02925430896971,40
169.921875,90.49400369798998,90.44075070827601,88.37630162388243,89.58568071349532,40.85506999478069,42.06444908439359,40
172.8515625,90.51304568254585,90.47372335717506,88.3702793073965,89.6031635946765,40.87055976249856,42.10344404977856,40
175.78125,90.53715710334923,90.50829530344947,88.36606773253743,89.62389776174344,40.884397541706036,42.14222757091204,40
178.7109375,90.56636091784453,90.53098445153486,88.35325149433012,89.63755752596211,40.893426925572754,42.17773295720474,40
181.640625,90.59982411990788,90.53723486295335,88.32768920417166,89.63973200492583,40.89750285802752,42.20954565878169,40
184.5703125,90.636276402844,90.53432055449686,88.29426383634967,89.63465561572978,40.899664938767074,42.24005671814719,40
187.5,90.67439346068483,90.53732105474424,88.26442403968034,89.63296172095693,40.90435933378731,42.272897015063904,40
190.4296875,90.71297244303452,90.56042393503971,88.24976843202582,89.64547227827774,40.91495165676197,42.31065550301389,40
193.359375,90.75104653889521,90.60836328280544,88.25529279296047,89.67676305571689,40.93160022708855,42.35307048984497,40
196.2890625,90.78775696394824,90.6729403216656,88.27593190693412,89.72177020942351,40.951170112242096,42.39700841473149,40
199.21875,90.82223520694868,90.73646290620185,88.29837266621348,89.76754476813431,40.96891813806754,42.43809023998837,40
202.1484375,90.85347461707079,90.78036625815085,88.30729140502925,89.79917073840707,40.98119551974378,42.4730748531216,40
205.078125,90.88024911958652,90.79422631697607,88.29279248959293,89.80697683308462,40.987249483891446,42.50143382738314,40
208.0078125,90.90106971386456,90.78047199651814,88.25493846676447,89.79089030774735,40.9895816887708,42.52553352975367,40
210.9375,90.91430233115962,90.75234307131416,88.20297808979285,89.7597840138163,40.99255905749786,42.54936498152131,40
213.8671875,90.91830650397091,90.72638834432485,88.14976271710094,89.72605690996924,41.0003314343556,42.576625627223905,40
216.796875,90.91166055948752,90.71341609057234,88.10446951824227,89.69867213246647,41.01474395810587,42.60894657233007,40
219.7265625,90.89338608800688,90.71280967155072,88.06744426122332,89.67813375954725,41.034675912003465,42.6453654103274,40
222.65625,90.86318049139368,90.71288488549034,88.02985618918663,89.65623157604296,41.056653309447384,42.68302869630371,40
225.5859375,90.8215398572553,90.69715279318838,87.97830113336038,89.62038593866316,41.07676685452522,42.718851659828005,40
228.515625,90.76981977327176,90.65306735519218,87.90205088015284,89.56060101336743,41.092466341824746,42.751016475039336,40
231.4453125,90.71008731644295,90.57876606951052,87.79907313895876,89.47501267822017,41.103753391290354,42.77969293055176,40
234.375,90.64493882910676,90.48433060696735,87.67762889409983,89.37135088601228,41.11297972095507,42.80670171286752,40
237.3046875,90.57723412863376,90.38703676700374,87.552530476203,89.26326425784036,41.12377250916337,42.83450629080073,40
240.234375,90.50986318084188,90.3029556289287,87.438121860521,89.16382553032386,41.13913009860484,42.864833768407706,40
243.1640625,90.445626373891,90.2395330804504,87.34165734334636,89.07946730618747,41.16006577426293,42.897875737104044,40
246.09375,90.38723343721348,90.19301122286899,87.26075361239775,89.00796085147297,41.18505037139602,42.93225761047124,40
249.0234375,90.33741271682919,90.1523777015528,87.18631074654608,88.94131798051151,41.21105972104128,42.96606695500671,40
251.953125,90.2989844980828,90.10769972684358,87.1096146960897,88.87253349147883,41.235166235364744,42.998085030753884,40
254.8828125,90.2747994744366,90.05822822552402,87.02959766420332,88.80211194531861,41.256116280205404,43.028630561320696,40
257.8125,90.26745618530516,90.01523469777015,86.9557984634036,88.74050492723671,41.27472977053344,43.05943623436656,40
260.7421875,90.27876920198614,89.99744930391935,86.904689451933,88.70411198446261,41.29333731945674,43.09275985198636,40
263.671875,90.30920580191867,90.02122536759278,86.8911087320529,88.70688253164457,41.31434283594821,43.13011663553988,40
266.6015625,90.35748160896873,90.09104901522088,86.91972407162258,88.7523065041896,41.33874251103127,43.17132494359829,40
269.53125,90.42049096189822,90.1958098558614,86.98151338174932,88.83062034466155,41.365189511199844,43.214296474112075,40
272.4609375,90.49364246507719,90.31302021866905,87.05717305259644,88.92263403721535,41.39038618145371,43.25584716607261,40
275.390625,90.5715245750749,90.41845493011667,87.12533006445105,89.00778021784251,41.41067471227416,43.29312486566562,40
278.3203125,90.64869155664732,90.4960793114056,87.17112426670181,89.07201592470827,41.42406338669733,43.324955044703785,40
281.25,90.72033833550336,90.54334406070697,87.19103204828725,89.11196277922618,41.431381281480796,43.352312012419716,40
284.1796875,90.78267709197479,90.56971709437472,87.19199998209325,89.13376960363419,41.43594749074053,43.37771711228147,40
287.109375,90.83303731834319,90.58985149731049,87.18597641398998,89.14799993902616,41.44185155828433,43.403875083320514,40
290.0390625,90.869542647272,90.61473711244592,87.18252685669849,89.16290223451861,41.45183487792731,43.432210255747435,40
292.96875,90.89008235438263,90.64459569594713,87.18272642925176,89.17893579072239,41.46565990522474,43.46186926669537,40
295.8984375,90.89070504114245,90.66663291645528,87.17706935020469,89.18663923902271,41.479993677432574,43.489563566250595,40
298.828125,90.87182970276079,90.66510359471877,87.15319219562515,89.1746666153618,41.49043697935697,43.51191139909362,40
301.7578125,90.84144961700828,90.63386614078135,87.10635224227221,89.13892606288299,41.49494007789836,43.52751389850914,40
304.6875,90.80979563137119,90.56932439524132,87.0276038061973,89.07491796838019,41.49440642686113,43.54172058904402,40
307.6171875,90.80675623016755,90.55470718813422,87.00891295711173,89.05989574828615,41.494811439848064,43.545794231022484,40
310.546875,90.79690188226178,90.52391912478578,86.97057559535186,89.02837442678232,41.49554469800346,43.55334352943392,40
313.4765625,90.7920170818302,90.50506059996374,86.9448876191495,89.0073605658119,41.49770003415185,43.560172980814244,40
316.40625,90.78749335487029,90.4950735527383,86.92878503468903,88.99395205364192,41.501121499096385,43.56628851804928,40
319.3359375,90.77994517079392,90.48812650459075,86.91729252757577,88.98365118139081,41.50447532319994,43.570833977014985,40
322.265625,90.76907891012326,90.48015830026569,86.9066448206662,88.97353256404327,41.50662573622242,43.573513479599484,40
325.1953125,90.75507744167538,90.46656366598762,86.89203783144136,88.95972374582831,41.50683992015931,43.574525834546264,40
328.125,90.7387465191709,90.44527947128475,86.87058347858772,88.9399313594562,41.50534811182855,43.57469599269703,40
331.0546875,90.72136135818931,90.41807519318314,86.84270947093668,88.91465670628844,41.5034184868947,43.57536572224646,40
333.984375,90.70442524539519,90.38983685298413,86.81195150328836,88.88703993923752,41.50279691374661,43.57788534969578,40
336.9140625,90.68937733264977,90.36616125003013,86.78312858165474,88.86125460262177,41.50490664740836,43.583032668375395,40
339.84375,90.67729148628472,90.35061844885225,86.76009140330834,88.84055833394305,41.510060114909194,43.59052704554391,40
342.7734375,90.66878544249823,90.34319261680726,86.74412072992874,88.82588346974674,41.517309147060516,43.59907188687852,40
345.703125,90.6639507425418,90.34056946826121,86.73376626068404,88.81574744423824,41.52482202402297,43.60680320757717,40
348.6328125,90.66247332071408,90.33818627197557,86.72609404105532,88.8073893595456,41.53079691242998,43.612092230920254,40
351.5625,90.66380069365445,90.33273089545978,86.71859740459522,88.79853300968381,41.53419788577597,43.61413349086456,40
354.4921875,90.66726167765465,90.32384247658361,86.71067491192196,88.78868236762719,41.53516010895642,43.61316756466165,40
357.421875,90.67221591583893,90.31399827851865,86.70389606104078,88.77931309465882,41.534685183859835,43.61010221747787,40
360.3515625,90.67797900118782,90.30682615839191,86.70092875138356,88.77278496339505,41.53404119499686,43.60589740700836,40
363.28125,90.68382179672886,90.3047463885932,86.7037919100936,88.77068914838222,41.534057240210984,43.6009544784996,40
366.2109375,90.68889646490844,90.3073800917364,86.71243868505655,88.77253962179121,41.534840469945195,43.59494140667985,40
369.140625,90.6922422003666,90.31149405725265,86.72446082683572,88.77558596914331,41.53590808810934,43.58703323041692,40
372.0703125,90.69289916739653,90.31251771370131,86.73604329325403,88.77580229347882,41.53671542022249,43.57647442044728,40
375.0,90.6900718944935,90.30671326906186,86.7436493382931,88.76958677136898,41.53712649769288,43.56306393076876,40
377.9296875,90.683387308193,90.29286787534497,86.74554726311437,88.75525445679519,41.53761341854978,43.54732061223059,40
380.859375,90.673051571567,90.27270974384692,86.74245218281911,88.73368099166225,41.53902875218466,43.53025756102781,40
383.7890625,90.65997531775817,90.2499520055143,86.73699123889988,88.70777764197923,41.54217436353507,43.51296076661443,40
386.71875,90.64573300603044,90.22866941930786,86.73241409522915,88.6813005107832,41.54736890852466,43.49625532407872,40
389.6484375,90.63235294354622,90.21190034371898,86.73122577645654,88.65754640306099,41.55435394065799,43.48067456726244,40
392.578125,90.62207687745618,90.20119235857335,86.73448111711039,88.63869053482549,41.562501823747866,43.46671124146296,40
395.5078125,90.61696518573976,90.19709203835583,86.74190760277607,88.62582714766839,41.571264890687445,43.45518443557977,40
398.4375,90.61861885228365,90.19995945896173,86.75259409843298,88.61947352891829,41.58048593004344,43.44736536052875,40
401.3671875,90.62786418671894,90.21050524087029,86.76573486123245,88.62001747215756,41.590487768712734,43.444770379637845,40
404.296875,90.64464207675654,90.2295804610126,86.78096280549636,88.62778389522329,41.601796565789314,43.448617655516244,40
407.2265625,90.66796270744658,90.25741694026057,86.79817121412582,88.64264272758811,41.61477421267246,43.45924572613475,40
410.15625,90.69606488058501,90.29279409711235,86.81701598221844,88.66352932470886,41.62926477240349,43.47577811489391,40
413.0859375,90.72662762426621,90.33272214687724,86.83646164283336,88.68819227219285,41.644529874684395,43.49626050404389,40
416.015625,90.75714420278804,90.37287223358507,86.85469601860211,88.71345295358239,41.65941928000268,43.51817621498296,40
418.9453125,90.78524999248233,90.40866302879,86.869511303365,88.73590069958993,41.67276232920007,43.539151725425,40
421.875,90.80902464973005,90.43643893644278,86.87894831562551,88.75274849147144,41.68369044497135,43.557490620817276,40
424.8046875,90.82719695554323,90.45434605257913,86.88190361735285,88.76247697498782,41.691869077591306,43.57244243522628,40
427.734375,90.83920719972856,90.46256845177149,86.87841234848548,88.76503765411225,41.69753079765924,43.584156103286006,40
430.6640625,90.84516610668533,90.46289839276159,86.86945391189737,88.76149906758408,41.701399325177505,43.59344448086422,40
433.59375,90.84564992010709,90.45796505303437,86.85647712669288,88.7534653843566,41.70449966867777,43.60148792634149,40
436.5234375,90.84154126639686,90.45036921819661,86.84080652178227,88.74240635399927,41.70796286419734,43.60956269641434,40
439.453125,90.83381584199114,90.44206219548049,86.82323877600135,88.72927554418209,41.7127866512984,43.61882341947914,40
442.3828125,90.82342494999074,90.43405803609096,86.80391229067246,88.71441181832394,41.71964621776702,43.6301457454185,40
445.3125,90.81122990586755,90.42649020318788,86.78248401705531,88.69775959928786,41.72873060390002,43.64400618613257,40
448.2421875,90.79799914481112,90.41893512934163,86.75847527680952,88.67919304519333,41.739742084148304,43.660459852532114,40
451.171875,90.78440434691493,90.41085406468378,86.73163512393484,88.65884299628212,41.75201106840166,43.67921894074894,40
454.1015625,90.77101142574918,90.40195277763728,86.70216300276905,88.63721278713999,41.76473999049729,43.69978977486822,40
457.03125,90.75821010609569,90.39235686781683,86.67071508957298,88.61512285542412,41.77723401239271,43.72164177824385,40
459.9609375,90.74615056639519,90.38249428003775,86.63821383591124,88.59347410435745,41.78902017568029,43.7442804441265,40
462.890625,90.73465317130282,90.37279551667356,86.60554525982943,88.57296591724524,41.79982959942832,43.767250256844136,40
465.8203125,90.72321726999026,90.36334677894966,86.57327744087756,88.55385181220075,41.809494966748915,43.7900693380721,40
468.75,90.71106855437407,90.35367443653928,86.54151878227579,88.53585652038555,41.81781791615373,43.81215565426349,40
471.6796875,90.69732370250496,90.34284054234732,86.50998289416933,88.51829078899313,41.82454975335419,43.83285764817799,40
474.609375,90.68115529919805,90.32972543121613,86.47820219845929,88.50030234762689,41.82942308358925,43.85152323275685,40
477.5390625,90.6620269515066,90.31348460985791,86.44581125573546,88.48119181721952,41.832292792638384,43.867673354122445,40
480.46875,90.6398149800553,90.2938428893853,86.41274847504552,88.46064690829908,41.83319598108622,43.881094414339785,40
483.3984375,90.61483723710448,90.27117745629576,86.37927684168352,88.43878061173085,41.83239684456491,43.89190061461224,40
486.328125,90.58783268020181,90.24633741110206,86.34585184124303,88.4160388460755,41.83029856502657,43.90048556985903,40
489.2578125,90.55978576126418,90.22026213123193,86.31289961773268,88.39295655066314,41.82730558056879,43.90736251349925,40
492.1875,90.53178956137089,90.19374568557977,86.28066435931797,88.37000589130088,41.82373979427889,43.9130813262618,40
495.1171875,90.50474921236022,90.1670996991778,86.24912834662814,88.3474332143002,41.8196664848776,43.91797135254966,40
