Freq,On Axis,Listening Window,Sound Power,Early Reflections,Early Reflections DI,Sound Power DI,DI offset
20.5078125,72.79590842631248,74.29326439045131,72.54264824136936,73.39005531779908,40.90320907265223,41.75061614908195,40
23.4375,73.27850580989552,74.62914286454794,73.07699912228591,73.82646631940213,40.802676545145815,41.55214374226203,40
26.3671875,74.35647131906448,75.52427538206582,74.21625451529681,74.84836214892505,40.675913233140776,41.30802086676901,40
29.296875,75.7284617638447,76.7372969611604,75.63882232246175,76.17292145348851,40.56437550767188,41.09847463869865,40
32.2265625,77.21447890263289,78.1049056161244,77.16096491594303,77.6243960461207,40.480509570003704,40.94394070018137,40
35.15625,78.69685095011857,79.50780820759809,78.66687374416205,79.08395738453558,40.42385082306251,40.84093446343604,40
38.0859375,80.10988735903764,80.87113216739391,80.09435292494749,80.48287532172301,40.388256845670895,40.77677924244642,40
41.015625,81.41815616561634,82.14989059972518,81.41109501548402,81.78281773468468,40.3670728650405,40.73879558424116,40
43.9453125,82.60561744164106,83.32063384931172,82.60332376265399,82.96557999868539,40.355053850626334,40.71731008665773,40
46.875,83.6675111273687,84.3734752715057,83.66778905545627,84.02493474728868,40.348540524217015,40.70568621604943,40
49.8046875,84.60578578148632,85.30716371197839,84.60736395739539,84.96192453417952,40.345239177798874,40.699799754583,40
52.734375,85.4266873286161,86.12610714983416,85.42882011593858,85.78227779762794,40.343829352206214,40.69728703389558,40
55.6640625,86.13875516688478,86.83792541974617,86.14095861845611,86.4942757678767,40.34364965186947,40.69696680129006,40
58.59375,86.75184379062908,87.34650760524272,86.62113230817229,86.99899751355034,40.347510091692385,40.72537529707043,40
61.5234375,87.27597983755808,87.79690511808155,87.0505207486235,87.45188031436929,40.34502480371226,40.746384369458056,40
64.453125,87.72075487417875,88.20328907521017,87.43843088209869,87.86244859824933,40.340840476960835,40.76485819311148,40
67.3828125,88.09472126063024,88.56758638071317,87.78317398421241,88.22861884638873,40.33896753432444,40.784412396500755,40
70.3125,88.40514961683317,88.88247942346604,88.07591249534822,88.54203327550455,40.34044614796149,40.80656692811782,40
73.2421875,88.65804364967849,89.13707524200561,88.30603045382477,88.79144673122201,40.3456285107836,40.83104478818083,40
76.171875,88.85833678370162,89.32263418193159,88.46640068466048,88.97032331403125,40.35231086790034,40.856233497271106,40
79.1015625,89.01035654021513,89.43775352780658,88.55641307439815,89.0772182155229,40.36053531228367,40.88134045340843,40
82.03125,89.1182368065324,89.4899233346977,88.58347293750052,89.12011807531454,40.36980525938317,40.90645039719719,40
84.9609375,89.18645032574601,89.49575151220924,88.56150236604104,89.11218844009183,40.38356307211741,40.9342491461682,40
87.890625,89.22001418510212,89.47606464680553,88.50833395779374,89.07284794083328,40.40321670597224,40.96773068901179,40
90.8203125,89.22477281015853,89.45085880234237,88.4404902347859,89.01935094052078,40.431507861821586,41.01036856755647,40
93.75,89.20726390592164,89.4314129369568,88.36912904428641,88.96553112287557,40.46588181408123,41.06228389267039,40
96.6796875,89.17430804033425,89.41816423415688,88.29696025825115,88.91504109521026,40.50312313894662,41.12120397590573,40
99.609375,89.13315690231475,89.4011580412096,88.2201902835042,88.86548958313372,40.535668458075875,41.1809677577054,40
102.5390625,89.0978566208217,89.37006839147307,88.1352871564448,88.80909377141568,40.560974620057394,41.234781235028265,40
105.46875,89.06720704922932,89.32945085754226,88.04583366911802,88.75140329023604,40.578047567306214,41.28361718842423,40
108.3984375,89.04640015119165,89.28023950946309,87.95491831287146,88.69495185812563,40.58528765133745,41.32532119659163,40
111.328125,89.03831456496783,89.23422026259449,87.87020731336543,88.64384937224817,40.59037089034632,41.364012949229064,40
114.2578125,89.0459980438614,89.20584942711086,87.80202603382688,88.60674265770454,40.59910676940632,41.403823393283986,40
117.1875,89.0711675940666,89.20685726864544,87.75821714420839,88.59059122446912,40.616266044176314,41.44864012443705,40
120.1171875,89.1144985326288,89.2413087854321,87.74121399055683,88.59800338700626,40.64330539842584,41.50009479487527,40
123.046875,89.17585444692027,89.30429733576429,87.74781941611673,88.62692495744876,40.677372378315525,41.55647791964756,40
125.9765625,89.25432855120874,89.38505094578872,87.7716050028307,88.67232316696962,40.7127277788191,41.61344594295802,40
128.90625,89.3481510242807,89.47265733634221,87.80670545674806,88.72935117211779,40.74330616422442,41.66595187959415,40
131.8359375,89.45456642500432,89.56132090234807,87.85080856690544,88.79588006983874,40.76544083250933,41.71051233544263,40
134.765625,89.56977076513154,89.6520712084615,87.90555464438711,88.87304836867199,40.77902283978952,41.7465165640744,40
137.6953125,89.68899753784407,89.7501829248348,87.97397043319663,88.96301406116433,40.78716886367047,41.77621249163818,40
140.625,89.80684013906847,89.85972503119092,88.05650741030684,89.0656064355142,40.79411859567672,41.803217620884084,40
143.5546875,89.91782697283524,89.97858604708247,88.1479901750795,89.17561259031065,40.802973456771824,41.830595872002974,40
146.484375,90.0170705633028,90.09665981058303,88.23732043828286,89.28257564135885,40.81408416922419,41.85933937230017,40
149.4140625,90.10094767603475,90.19851416766483,88.31024285462385,89.37316496782994,40.82534919983489,41.888271313040974,40
152.34375,90.16761460858588,90.2693699446182,88.35422177193695,89.4356459403906,40.833724004227605,41.915148172681256,40
155.2734375,90.21723964481609,90.3017504609513,88.36336354733439,89.46444835201768,40.83730210893361,41.93838691361691,40
158.203125,90.25192028925608,90.2996103832783,88.34122454377788,89.46303033158003,40.83658005169828,41.95838583950042,40
161.1328125,90.27526040999972,90.27770626104218,88.29988765847303,89.443083218583,40.834623042459185,41.97781860256916,40
164.0625,90.29167251957,90.25585366595077,88.25539023724693,89.42030733599783,40.83554632995293,42.00046342870384,40
166.9921875,90.30559977807498,90.25049877111428,88.22124446214457,89.40812444895906,40.84237432215522,42.02925430896971,40
169.921875,90.32079658582366,90.2675435961097,88.2030945117161,89.41247360132901,40.85506999478069,42.0644490843936,40
172.8515625,90.33983857037953,90.30051624500874,88.19707219523019,89.42995648251018,40.87055976249856,42.103444049778545,40
175.78125,90.36394999118289,90.33508819128315,88.1928606203711,89.4506906495771,40.88439754170605,42.14222757091204,40
178.7109375,90.3931538056782,90.35777733936854,88.18004438216377,89.46435041379578,40.893426925572754,42.17773295720477,40
181.640625,90.42661700774156,90.36402775078703,88.15448209200535,89.46652489275951,40.89750285802752,42.20954565878168,40
184.5703125,90.46306929067767,90.36111344233053,88.12105672418336,89.46144850356346,40.899664938767074,42.24005671814717,40
187.5,90.50118634851852,90.36411394257793,88.091216927514,89.4597546087906,40.904359333787326,42.27289701506393,40
190.4296875,90.53976533086819,90.38721682287337,88.07656131985948,89.47226516611141,40.91495165676196,42.31065550301389,40
193.359375,90.57783942672889,90.43515617063912,88.08208568079417,89.50355594355057,40.93160022708855,42.35307048984495,40
196.2890625,90.6145498517819,90.49973320949928,88.1027247947678,89.54856309725719,40.951170112242096,42.39700841473149,40
199.21875,90.64902809478237,90.56325579403553,88.12516555404716,89.59433765596799,40.96891813806754,42.43809023998837,40
202.1484375,90.68026750490445,90.60715914598453,88.13408429286294,89.62596362624073,40.98119551974379,42.47307485312159,40
205.078125,90.7070420074202,90.62101920480974,88.1195853774266,89.63376972091828,40.98724948389146,42.50143382738314,40
208.0078125,90.72786260169823,90.60726488435182,88.08173135459815,89.61768319558102,40.9895816887708,42.52553352975367,40
210.9375,90.7410952189933,90.57913595914783,88.0297709776265,89.58657690164998,40.99255905749786,42.549364981521336,40
213.8671875,90.74509939180459,90.55318123215852,87.97655560493463,89.55284979780292,41.0003314343556,42.57662562722389,40
216.796875,90.73845344732118,90.54020897840601,87.93126240607594,89.52546502030015,41.01474395810587,42.60894657233007,40
219.7265625,90.72017897584055,90.53960255938438,87.89423714905699,89.50492664738091,41.034675912003465,42.645365410327386,40
222.65625,90.68997337922734,90.539677773324,87.85664907702031,89.48302446387662,41.056653309447384,42.683028696303694,40
225.5859375,90.64833274508898,90.52394568102204,87.80509402119404,89.44717882649684,41.076766854525204,42.718851659828005,40
228.515625,90.59661266110544,90.47986024302584,87.72884376798653,89.38739390120111,41.09246634182473,42.75101647503931,40
231.4453125,90.53688020427661,90.40555895734418,87.62586602679245,89.30180556605383,41.103753391290354,42.77969293055173,40
234.375,90.47173171694041,90.31112349480102,87.50442178193349,89.19814377384596,41.11297972095507,42.806701712867536,40
237.3046875,90.40402701646741,90.21382965483741,87.3793233640367,89.09005714567404,41.12377250916337,42.83450629080072,40
240.234375,90.33665606867555,90.12974851676238,87.26491474835467,88.99061841815751,41.139130098604866,42.864833768407706,40
243.1640625,90.27241926172468,90.06632596828408,87.16845023118002,88.90626019402114,41.16006577426293,42.89787573710406,40
246.09375,90.21402632504714,90.01980411070267,87.08754650023141,88.83475373930665,41.18505037139602,42.932257610471254,40
249.0234375,90.16420560466287,89.97917058938646,87.01310363437977,88.76811086834519,41.211059721041266,42.96606695500668,40
251.953125,90.12577738591648,89.93449261467725,86.93640758392337,88.69932637931252,41.23516623536473,42.998085030753884,40
254.8828125,90.10159236227025,89.88502111335771,86.856390552037,88.62890483315226,41.25611628020545,43.02863056132071,40
257.8125,90.09424907313883,89.84202758560382,86.78259135123727,88.56729781507038,41.27472977053344,43.059436234366544,40
260.7421875,90.10556208981981,89.824242191753,86.73148233976667,88.5309048722963,41.2933373194567,43.09275985198633,40
263.671875,90.13599868975233,89.84801825542645,86.71790161988658,88.53367541947824,41.31434283594821,43.13011663553988,40
266.6015625,90.18427449680242,89.91784190305455,86.74651695945626,88.57909939202328,41.33874251103127,43.17132494359829,40
269.53125,90.2472838497319,90.02260274369507,86.808306269583,88.65741323249523,41.365189511199844,43.214296474112075,40
272.4609375,90.32043535291086,90.13981310650274,86.88396594043012,88.74942692504901,41.390386181453735,43.25584716607263,40
275.390625,90.39831746290858,90.24524781795034,86.95212295228472,88.83457310567618,41.41067471227416,43.29312486566562,40
278.3203125,90.475484444481,90.32287219923927,86.99791715453549,88.89880881254196,41.42406338669731,43.324955044703785,40
281.25,90.54713122333703,90.37013694854065,87.01782493612095,88.93875566705985,41.431381281480796,43.3523120124197,40
284.1796875,90.60946997980847,90.3965099822084,87.01879286992693,88.96056249146787,41.43594749074053,43.37771711228147,40
287.109375,90.65983020617688,90.41664438514415,87.01276930182365,88.97479282685984,41.44185155828431,43.4038750833205,40
290.0390625,90.69633553510567,90.4415300002796,87.00931974453216,88.98969512235229,41.45183487792731,43.432210255747435,40
292.96875,90.7168752422163,90.47138858378081,87.00951931708542,89.00572867855607,41.46565990522474,43.46186926669539,40
295.8984375,90.71749792897612,90.49342580428896,87.00386223803837,89.0134321268564,41.47999367743256,43.489563566250595,40
298.828125,90.69862259059447,90.49189648255246,86.97998508345884,89.00145950319546,41.490436979357,43.51191139909362,40
301.7578125,90.66824250484197,90.46065902861503,86.93314513010588,88.96571895071668,41.49494007789835,43.52751389850914,40
304.6875,90.63658851920485,90.39611728307501,86.85439669403098,88.90171085621387,41.49440642686115,43.54172058904403,40
307.6171875,90.63354911800123,90.38150007596789,86.83570584494541,88.88668863611983,41.494811439848064,43.545794231022484,40
310.546875,90.62369477009545,90.35071201261945,86.79736848318552,88.85516731461601,41.49554469800344,43.55334352943393,40
313.4765625,90.61880996966389,90.33185348779742,86.77168050698317,88.83415345364557,41.49770003415185,43.560172980814244,40
316.40625,90.61428624270397,90.321866440572,86.75557792252272,88.8207449414756,41.5011214990964,43.56628851804928,40
319.3359375,90.6067380586276,90.31491939242443,86.74408541540944,88.8104440692245,41.50447532319993,43.570833977014985,40
322.265625,90.59587179795695,90.30695118809936,86.73343770849988,88.80032545187694,41.50662573622242,43.573513479599484,40
325.1953125,90.58187032950907,90.2933565538213,86.71883071927505,88.78651663366199,41.50683992015931,43.57452583454625,40
328.125,90.56553940700458,90.27207235911843,86.6973763664214,88.76672424728989,41.50534811182854,43.57469599269703,40
331.0546875,90.54815424602299,90.24486808101682,86.66950235877036,88.74144959412212,41.5034184868947,43.57536572224646,40
333.984375,90.53121813322886,90.21662974081781,86.63874439112203,88.7138328270712,41.50279691374661,43.57788534969578,40
336.9140625,90.51617022048345,90.19295413786381,86.60992146948841,88.68804749045546,41.50490664740835,43.583032668375395,40
339.84375,90.50408437411838,90.17741133668592,86.58688429114203,88.66735122177673,41.510060114909194,43.590527045543894,40
342.7734375,90.49557833033191,90.16998550464093,86.57091361776241,88.65267635758042,41.517309147060516,43.59907188687852,40
345.703125,90.49074363037548,90.16736235609488,86.56055914851771,88.64254033207189,41.524822024022995,43.60680320757717,40
348.6328125,90.48926620854776,90.16497915980925,86.552886928889,88.63418224737927,41.53079691242998,43.612092230920254,40
351.5625,90.49059358148813,90.15952378329345,86.54539029242888,88.62532589751748,41.53419788577597,43.614133490864575,40
354.4921875,90.49405456548831,90.15063536441727,86.53746779975563,88.61547525546086,41.535160108956404,43.61316756466164,40
357.421875,90.49900880367261,90.14079116635233,86.53068894887446,88.6061059824925,41.534685183859835,43.61010221747787,40
360.3515625,90.5047718890215,90.13361904622559,86.52772163921723,88.59957785122873,41.53404119499686,43.60589740700836,40
363.28125,90.51061468456254,90.13153927642688,86.53058479792728,88.5974820362159,41.534057240210984,43.6009544784996,40
366.2109375,90.51568935274213,90.13417297957008,86.53923157289023,88.59933250962489,41.534840469945195,43.59494140667985,40
369.140625,90.51903508820028,90.13828694508632,86.5512537146694,88.60237885697698,41.53590808810934,43.58703323041692,40
372.0703125,90.51969205523021,90.13931060153496,86.5628361810877,88.6025951813125,41.536715420222464,43.576474420447255,40
375.0,90.51686478232719,90.13350615689555,86.57044222612679,88.59637965920267,41.53712649769288,43.56306393076876,40
377.9296875,90.51018019602668,90.11966076317864,86.57234015094805,88.58204734462886,41.53761341854978,43.54732061223059,40
380.859375,90.49984445940068,90.09950263168061,86.56924507065278,88.56047387949593,41.53902875218468,43.530257561027824,40
383.7890625,90.48676820559184,90.07674489334799,86.56378412673357,88.53457052981292,41.54217436353507,43.51296076661443,40
386.71875,90.47252589386413,90.05546230714155,86.55920698306284,88.50809339861688,41.547368908524675,43.49625532407872,40
389.6484375,90.4591458313799,90.03869323155267,86.55801866429022,88.48433929089467,41.554353940658004,43.480674567262454,40
392.578125,90.44886976528984,90.02798524640704,86.56127400494408,88.46548342265916,41.56250182374788,43.46671124146296,40
395.5078125,90.44375807357343,90.02388492618948,86.56870049060974,88.45262003550206,41.57126489068742,43.45518443557974,40
398.4375,90.44541174011731,90.0267523467954,86.57938698626664,88.44626641675197,41.58048593004344,43.447365360528764,40
401.3671875,90.45465707455261,90.03729812870398,86.59252774906614,88.44681035999125,41.590487768712734,43.444770379637845,40
404.296875,90.47143496459023,90.05637334884628,86.60775569333002,88.45457678305696,41.601796565789314,43.44861765551626,40
407.2265625,90.49475559528025,90.08420982809425,86.6249641019595,88.46943561542179,41.61477421267246,43.45924572613474,40
410.15625,90.52285776841869,90.11958698494601,86.64380887005211,88.49032221254254,41.629264772403474,43.4757781148939,40
413.0859375,90.55342051209989,90.1595150347109,86.66325453066703,88.51498516002653,41.64452987468438,43.496260504043875,40
416.015625,90.5839370906217,90.19966512141875,86.68148890643579,88.54024584141608,41.659419280002666,43.51817621498296,40
418.9453125,90.61204288031601,90.23545591662368,86.69630419119866,88.56269358742362,41.672762329200054,43.539151725425015,40
421.875,90.63581753756372,90.26323182427646,86.70574120345918,88.57954137930511,41.68369044497135,43.557490620817276,40
424.8046875,90.6539898433769,90.28113894041279,86.70869650518652,88.58926986282148,41.691869077591306,43.572442435226264,40
427.734375,90.66600008756224,90.28936133960516,86.70520523631917,88.59183054194591,41.697530797659255,43.58415610328599,40
430.6640625,90.671958994519,90.28969128059526,86.69624679973106,88.58829195541776,41.701399325177505,43.59344448086421,40
433.59375,90.67244280794077,90.28475794086805,86.68327001452656,88.58025827219028,41.70449966867777,43.60148792634149,40
436.5234375,90.66833415423054,90.27716210603027,86.66759940961593,88.56919924183293,41.70796286419734,43.60956269641434,40
439.453125,90.66060872982482,90.26885508331416,86.650031663835,88.55606843201576,41.7127866512984,43.61882341947917,40
442.3828125,90.65021783782441,90.26085092392464,86.63070517850612,88.54120470615763,41.71964621776701,43.63014574541852,40
445.3125,90.63802279370123,90.25328309102156,86.609276904889,88.52455248712155,41.728730603900004,43.64400618613256,40
448.2421875,90.62479203264482,90.24572801717531,86.5852681646432,88.50598593302702,41.73974208414829,43.660459852532114,40
451.171875,90.6111972347486,90.23764695251742,86.5584280117685,88.4856358841158,41.75201106840163,43.679218940748925,40
454.1015625,90.59780431358287,90.22874566547097,86.52895589060275,88.46400567497366,41.764739990497304,43.69978977486822,40
457.03125,90.58500299392936,90.2191497556505,86.49750797740666,88.4419157432578,41.77723401239271,43.72164177824385,40
459.9609375,90.57294345422885,90.20928716787142,86.46500672374492,88.42026699219115,41.78902017568028,43.7442804441265,40
462.890625,90.5614460591365,90.19958840450724,86.43233814766309,88.39975880507892,41.79982959942832,43.76725025684415,40
465.8203125,90.55001015782393,90.19013966678334,86.40007032871122,88.38064470003442,41.809494966748915,43.790069338072115,40
468.75,90.53786144220776,90.18046732437296,86.36831167010948,88.36264940821923,41.81781791615373,43.81215565426348,40
471.6796875,90.52411659033864,90.16963343018101,86.33677578200302,88.34508367682679,41.82454975335422,43.83285764817799,40
474.609375,90.50794818703173,90.15651831904981,86.30499508629296,88.32709523546056,41.82942308358925,43.85152323275685,40
477.5390625,90.48881983934028,90.14027749769159,86.27260414356914,88.30798470505319,41.8322927926384,43.867673354122445,40
480.46875,90.466607867889,90.120635777219,86.2395413628792,88.28743979613276,41.833195981086234,43.8810944143398,40
483.3984375,90.44163012493816,90.09797034412944,86.2060697295172,88.26557349956454,41.8323968445649,43.89190061461224,40
486.328125,90.41462556803549,90.07313029893575,86.17264472907672,88.24283173390918,41.83029856502657,43.90048556985903,40
489.2578125,90.38657864909784,90.04705501906561,86.13969250556636,88.21974943849682,41.82730558056879,43.90736251349925,40
492.1875,90.35858244920456,90.02053857341346,86.10745724715164,88.19679877913455,41.82373979427891,43.91308132626182,40
495.1171875,90.33154210019389,89.99389258701147,86.0759212344618,88.17422610213387,41.8196664848776,43.91797135254967,40
