Freq "Early Reflections DI"
20.5078125 40.90320907265223
23.4375 40.802676545145815
26.3671875 40.675913233140776
29.296875 40.56437550767188
32.2265625 40.480509570003704
35.15625 40.42385082306251
38.0859375 40.388256845670895
41.015625 40.3670728650405
43.9453125 40.355053850626334
46.875 40.348540524217015
49.8046875 40.345239177798874
52.734375 40.343829352206214
55.6640625 40.34364965186947
58.59375 40.347510091692385
61.5234375 40.34502480371226
64.453125 40.340840476960835
67.3828125 40.33896753432444
70.3125 40.34044614796149
73.2421875 40.3456285107836
76.171875 40.35231086790034
79.1015625 40.36053531228367
82.03125 40.36980525938317
84.9609375 40.38356307211741
87.890625 40.40321670597224
90.8203125 40.431507861821586
93.75 40.46588181408123
96.6796875 40.50312313894662
99.609375 40.535668458075875
102.5390625 40.560974620057394
105.46875 40.578047567306214
108.3984375 40.58528765133745
111.328125 40.59037089034632
114.2578125 40.59910676940632
117.1875 40.616266044176314
120.1171875 40.64330539842584
123.046875 40.677372378315525
125.9765625 40.7127277788191
128.90625 40.74330616422442
131.8359375 40.76544083250933
134.765625 40.77902283978952
137.6953125 40.78716886367047
140.625 40.79411859567672
143.5546875 40.802973456771824
146.484375 40.81408416922419
149.4140625 40.82534919983489
152.34375 40.833724004227605
155.2734375 40.83730210893361
158.203125 40.83658005169828
161.1328125 40.834623042459185
164.0625 40.83554632995293
166.9921875 40.84237432215522
169.921875 40.85506999478069
172.8515625 40.87055976249856
175.78125 40.88439754170605
178.7109375 40.893426925572754
181.640625 40.89750285802752
184.5703125 40.899664938767074
187.5 40.904359333787326
190.4296875 40.91495165676196
193.359375 40.93160022708855
196.2890625 40.951170112242096
199.21875 40.96891813806754
202.1484375 40.98119551974379
205.078125 40.98724948389146
208.0078125 40.9895816887708
210.9375 40.99255905749786
213.8671875 41.0003314343556
216.796875 41.01474395810587
219.7265625 41.034675912003465
222.65625 41.056653309447384
225.5859375 41.076766854525204
228.515625 41.09246634182473
231.4453125 41.103753391290354
234.375 41.11297972095507
237.3046875 41.12377250916337
240.234375 41.139130098604866
243.1640625 41.16006577426293
246.09375 41.18505037139602
249.0234375 41.211059721041266
251.953125 41.23516623536473
254.8828125 41.25611628020545
257.8125 41.27472977053344
260.7421875 41.2933373194567
263.671875 41.31434283594821
266.6015625 41.33874251103127
269.53125 41.365189511199844
272.4609375 41.390386181453735
275.390625 41.41067471227416
278.3203125 41.42406338669731
281.25 41.431381281480796
284.1796875 41.43594749074053
287.109375 41.44185155828431
290.0390625 41.45183487792731
292.96875 41.46565990522474
295.8984375 41.47999367743256
298.828125 41.490436979357
301.7578125 41.49494007789835
304.6875 41.49440642686115
307.6171875 41.494811439848064
310.546875 41.49554469800344
313.4765625 41.49770003415185
316.40625 41.5011214990964
319.3359375 41.50447532319993
322.265625 41.50662573622242
325.1953125 41.50683992015931
328.125 41.50534811182854
331.0546875 41.5034184868947
333.984375 41.50279691374661
336.9140625 41.50490664740835
339.84375 41.510060114909194
342.7734375 41.517309147060516
345.703125 41.524822024022995
348.6328125 41.53079691242998
351.5625 41.53419788577597
354.4921875 41.535160108956404
357.421875 41.534685183859835
360.3515625 41.53404119499686
363.28125 41.534057240210984
366.2109375 41.534840469945195
369.140625 41.53590808810934
372.0703125 41.536715420222464
375.0 41.53712649769288
377.9296875 41.53761341854978
380.859375 41.53902875218468
383.7890625 41.54217436353507
386.71875 41.547368908524675
389.6484375 41.554353940658004
392.578125 41.56250182374788
395.5078125 41.57126489068742
398.4375 41.58048593004344
401.3671875 41.590487768712734
404.296875 41.601796565789314
407.2265625 41.61477421267246
410.15625 41.629264772403474
413.0859375 41.64452987468438
416.015625 41.659419280002666
418.9453125 41.672762329200054
421.875 41.68369044497135
424.8046875 41.691869077591306
427.734375 41.697530797659255
430.6640625 41.701399325177505
433.59375 41.70449966867777
436.5234375 41.70796286419734
439.453125 41.7127866512984
442.3828125 41.71964621776701
445.3125 41.728730603900004
448.2421875 41.73974208414829
451.171875 41.75201106840163
454.1015625 41.764739990497304
457.03125 41.77723401239271
459.9609375 41.78902017568028
462.890625 41.79982959942832
465.8203125 41.809494966748915
468.75 41.81781791615373
471.6796875 41.82454975335422
474.609375 41.82942308358925
477.5390625 41.8322927926384
480.46875 41.833195981086234
483.3984375 41.8323968445649
486.328125 41.83029856502657
489.2578125 41.82730558056879
492.1875 41.82373979427891
495.1171875 41.8196664848776
498.046875 41.81507721179858
500.9765625 41.81035144570764
503.90625 41.80460420251376
506.8359375 41.80141319400997
509.765625 41.799059513499216
512.6953125 41.798820900192965
515.625 41.79780069292556
518.5546875 41.797480245533166
521.484375 41.79752542092402
524.4140625 41.79767703832877
527.34375 41.79789868265789
530.2734375 41.79809953106894
533.203125 41.798163858125335
536.1328125 41.7980371509623
539.0625 41.79769262638587
541.9921875 41.79712693973492
544.921875 41.79634108020501
547.8515625 41.7953421088861
550.78125 41.79414523298743
553.7109375 41.792774069056335
556.640625 41.79127474899413
559.5703125 41.78969810730774
562.5 41.7881028736074
565.4296875 41.78654336131507
568.359375 41.785057132106544
571.2890625 41.78366144628566
574.21875 41.78235279626851
577.1484375 41.78112679866325
580.078125 41.779959073949385
583.0078125 41.77884844522116
585.9375 41.77782768662587
588.8671875 41.77701120965057
591.796875 41.77657656943485
594.7265625 41.77640961804059
597.65625 41.77625073478663
600.5859375 41.77599264201987
603.515625 41.77558593373611
606.4453125 41.774978972416136
609.375 41.77406346345548
612.3046875 41.77270027976921
615.234375 41.771063332960196
618.1640625 41.76949750480455
621.09375 41.76818635793539
624.0234375 41.767243675024986
626.953125 41.76673975919542
629.8828125 41.766714501700136
632.8125 41.76718962316184
635.7421875 41.768159504044604
638.671875 41.769605851250205
641.6015625 41.771500209584914
644.53125 41.773801982230765
647.4609375 41.776467870321795
650.390625 41.77945578865679
653.3203125 41.78272823758016
656.25 41.78625132391079
659.1796875 41.789995163741395
662.109375 41.793946221320525
665.0390625 41.79809050000158
667.96875 41.802424303243825
670.8984375 41.806953298927084
673.828125 41.81168925569703
676.7578125 41.81663508992368
679.6875 41.82180075605142
682.6171875 41.827193764206186
685.546875 41.83281794556241
688.4765625 41.83866699086825
691.40625 41.844731246510705
694.3359375 41.85100152850586
697.265625 41.85745442475262
700.1953125 41.86407435868037
703.125 41.870839686841634
706.0546875 41.88125143149023
708.984375 41.88829453527859
711.9140625 41.89543529889018
714.84375 41.902671053846774
717.7734375 41.906360554280496
720.703125 41.913751504274174
723.6328125 41.92124784124948
726.5625 41.92886359201256
729.4921875 41.93660398293727
732.421875 41.94448247742744
735.3515625 41.95250292237834
738.28125 41.960667691630874
741.2109375 41.9689791026518
744.140625 41.97742911254497
747.0703125 41.986008454333884
750.0 41.994710354495155
752.9296875 42.00351255144889
755.859375 42.01240233588537
758.7890625 42.021362438487756
761.71875 42.03037335816505
764.6484375 42.03942013058855
767.578125 42.04848272228152
770.5078125 42.05754586613537
773.4375 42.066594176603175
776.3671875 42.07560452997882
779.296875 42.084565416380045
782.2265625 42.09344883254468
785.15625 42.102234059257086
788.0859375 42.110896688905854
791.015625 42.119406169641294
793.9453125 42.127736263404344
796.875 42.135857806057714
799.8046875 42.14374326042386
802.734375 42.151370400630526
805.6640625 42.1587167329166
808.59375 42.16577067906634
811.5234375 42.172520887484865
814.453125 42.17896514024801
817.3828125 42.185101717653225
820.3125 42.19094321396646
823.2421875 42.19648921480547
826.171875 42.20175011921066
829.1015625 42.206730040481986
832.03125 42.21142912302271
834.9609375 42.21584144830602
837.890625 42.21995044154775
840.8203125 42.22373862592241
843.75 42.22717559163222
846.6796875 42.23023073662455
849.609375 42.232869187324795
852.5390625 42.23504944553859
855.46875 42.236743732562175
858.3984375 42.2379226193806
861.328125 42.238567302410175
864.2578125 42.23867146108773
867.1875 42.238240201977945
870.1171875 42.23728784618659
873.046875 42.23583826705048
875.9765625 42.23392866558069
878.90625 42.23159722420144
881.8359375 42.22888703761049
884.765625 42.225836260128176
887.6953125 42.2224810103599
890.625 42.218846960952746
893.5546875 42.21494703963825
896.484375 42.210793453698386
899.4140625 42.20637479802696
902.34375 42.20167674963196
905.2734375 42.196680973183476
908.203125 42.18835451051025
911.1328125 42.182490546676505
914.0625 42.17626000531496
916.9921875 42.16965619364447
919.921875 42.16599534970349
922.8515625 42.15888137541796
925.78125 42.151443254007376
928.7109375 42.14371592790705
931.640625 42.135743144969084
934.5703125 42.127566862162126
937.5 42.11923123628169
940.4296875 42.110787909853514
943.359375 42.10227588892607
946.2890625 42.09372715012218
949.21875 42.08517353072398
952.1484375 42.07662549839371
955.078125 42.06808960312408
958.0078125 42.05956435767499
960.9375 42.05104000718919
963.8671875 42.04250539788198
966.796875 42.03394437247775
969.7265625 42.02535193293026
972.65625 42.01672710751373
975.5859375 42.008066916154036
978.515625 41.99938808485905
981.4453125 41.99071821857551
984.375 41.98208193884585
987.3046875 41.973526060808055
990.234375 41.96509415501818
993.1640625 41.95683418052532
996.09375 41.94879625985156
999.0234375 41.94102512193811
1001.953125 41.93356339428716
1004.8828125 41.9264421961374
1007.8125 41.91968963559518
1010.7421875 41.913322432161664
1013.671875 41.90734868600556
1016.6015625 41.90177329158354
1019.53125 41.89659404743989
1022.4609375 41.89180717800389
1025.390625 41.88740490788376
1028.3203125 41.883388691211906
1031.25 41.879752817118344
1034.1796875 41.87650637085041
1037.109375 41.87365357011912
1040.0390625 41.871211802073844
1042.96875 41.86919912925147
1045.8984375 41.867637079267226
1048.828125 41.866552006072965
1051.7578125 41.865971039446194
1054.6875 41.86591932513815
1057.6171875 41.86642360584736
1060.546875 41.86750405883559
1063.4765625 41.869183271832014
1066.40625 41.871473236694854
1069.3359375 41.87438569427623
1072.265625 41.87792304305076
1075.1953125 41.882089354544846
1078.125 41.886872219799855
1081.0546875 41.892262168640244
1083.984375 41.89824116893037
1086.9140625 41.90478109447052
1089.84375 41.91185119698237
1092.7734375 41.91941745237732
1095.703125 41.927434399353174
1098.6328125 41.93585394993191
1101.5625 41.94462245499466
1104.4921875 41.953680451227285
1107.421875 41.96296844675112
1110.3515625 41.977406019484604
1113.28125 41.98693778332694
1116.2109375 41.996481899577944
1119.140625 42.005983907685405
1122.0703125 42.01538960313812
1125.0 42.020010321592636
1127.9296875 42.02912100111972
1130.859375 42.03801531480417
1133.7890625 42.046648753306854
1136.71875 42.05497698773874
1139.6484375 42.06296680519678
1142.578125 42.07058245779925
1145.5078125 42.07779471755133
1148.4375 42.08457388416225
1151.3671875 42.0908998831741
1154.296875 42.09674791628032
1157.2265625 42.10209804647246
1160.15625 42.106946661269006
1163.0859375 42.1112830440908
1166.015625 42.115108255928945
1168.9453125 42.11842636197623
1171.875 42.12124958144092
1174.8046875 42.12359250196464
1177.734375 42.125476363276306
1180.6640625 42.12693069806605
1183.59375 42.12797932591559
1186.5234375 42.12865402356098
1189.453125 42.12897626183491
1192.3828125 42.12897462057097
1195.3125 42.128660432536435
1198.2421875 42.128054308957616
1201.171875 42.12716357448687
1204.1015625 42.12599620550145
1207.03125 42.124555896576084
1209.9609375 42.122842935042456
1212.890625 42.12086483884843
1215.8203125 42.11862474440157
1218.75 42.116133901223606
1221.6796875 42.11340517318946
1224.609375 42.110455315599424
1227.5390625 42.10730870852794
1230.46875 42.10399089601883
1233.3984375 42.10054166553208
1236.328125 42.09699100551386
1239.2578125 42.09338350679124
1242.1875 42.08975553263559
1245.1171875 42.08615228194898
1248.046875 42.08261817884521
1250.9765625 42.07919262058026
1253.90625 42.075909558514326
1256.8359375 42.07281096370558
1259.765625 42.06992544421125
1262.6953125 42.06728791000705
1265.625 42.06492169335749
1268.5546875 42.06286055277795
1271.484375 42.061127087528064
1274.4140625 42.05974680110954
1277.34375 42.05874363458096
1280.2734375 42.058140457038974
1283.203125 42.05795480694036
1286.1328125 42.05820981653666
1289.0625 42.05891808303598
1291.9921875 42.06009299720145
1294.921875 42.0617414781382
1297.8515625 42.06386716571468
1300.78125 42.06647177646633
1303.7109375 42.069551650327824
1306.640625 42.073102800071894
1309.5703125 42.07986056192901
1312.5 42.08454391999423
1315.4296875 42.089683299971014
1318.359375 42.09527802300261
1321.2890625 42.101336360494855
1324.21875 42.10785892008019
1327.1484375 42.11486022826011
1330.078125 42.11915140623151
1333.0078125 42.12690392228018
1335.9375 42.135162699562045
1338.8671875 42.14393571969582
1341.796875 42.15322200039033
1344.7265625 42.16302500602066
1347.65625 42.173340723881054
1350.5859375 42.18415849878261
1353.515625 42.19546060254777
1356.4453125 42.20722676870447
1359.375 42.21942562677626
1362.3046875 42.232027993470155
1365.234375 42.244995334110854
1368.1640625 42.25828593971025
1371.09375 42.27186303944231
1374.0234375 42.28568437600302
1376.953125 42.29970700240648
1379.8828125 42.313895112322854
1382.8125 42.32821244741547
1385.7421875 42.342623512358315
1388.671875 42.35709708238154
1391.6015625 42.371605909088984
1394.53125 42.38612241376859
1397.4609375 42.400623041470766
1400.390625 42.41508178798908
1403.3203125 42.42947564316782
1406.25 42.4437833763521
1409.1796875 42.45798653547227
1412.109375 42.47206216081949
1415.0390625 42.48598956578975
1417.96875 42.499757367644364
1420.8984375 42.513342515904014
1423.828125 42.52673198211487
1426.7578125 42.53991543454444
1429.6875 42.55287956569322
1432.6171875 42.5656137887117
1435.546875 42.578111835310224
1438.4765625 42.59036528238427
1441.40625 42.6023658104678
1444.3359375 42.6141052282821
1447.265625 42.62557119439087
1450.1953125 42.636755623708396
1453.125 42.647642837475814
1456.0546875 42.65821909591216
1458.984375 42.66846456802169
1461.9140625 42.67836321373757
1464.84375 42.68789699973209
1467.7734375 42.69704511215933
1470.703125 42.705793881528365
1473.6328125 42.714128095082955
1476.5625 42.72203459877335
1479.4921875 42.729505952652545
1482.421875 42.73654353061549
1485.3515625 42.743145863385735
1488.28125 42.74932882452599
1491.2109375 42.75510389071556
1494.140625 42.76048327648685
1497.0703125 42.765486636556176
1500.0 42.77012801534012
1502.9296875 42.774428320584434
1505.859375 42.77839953149086
1508.7890625 42.78205944527603
1511.71875 42.786692712057814
1514.6484375 42.789642792195664
1517.578125 42.79233182174583
1520.5078125 42.79476514595498
1523.4375 42.796965947913534
1526.3671875 42.79894728291207
1529.296875 42.800734565573904
1532.2265625 42.80234185563329
1535.15625 42.80297438036408
1538.0859375 42.804405216836514
1541.015625 42.80571173591473
1543.9453125 42.80691182098775
1546.875 42.808029467525415
1549.8046875 42.80907884336588
1552.734375 42.81007632138504
1555.6640625 42.811040639376955
1558.59375 42.81198837342839
1561.5234375 42.81293840716545
1564.453125 42.813903426440845
1567.3828125 42.81490121314219
1570.3125 42.81594556644977
1573.2421875 42.8170525998776
1576.171875 42.81823440228965
1579.1015625 42.819503132204645
1582.03125 42.82087291053793
1584.9609375 42.82235509377847
1587.890625 42.823957615104575
1590.8203125 42.82569102618719
1593.75 42.82756386261963
1596.6796875 42.829581935771586
1599.609375 42.831754382553925
1602.5390625 42.834084136779396
1605.46875 42.83658165985774
1608.3984375 42.83925526403131
1611.328125 42.842111973712875
1614.2578125 42.845161390664686
1617.1875 42.84841654372188
1620.1171875 42.8518871670116
1623.046875 42.855589621327724
1625.9765625 42.85954476404129
1628.90625 42.863764386323254
1631.8359375 42.86826897240158
1634.765625 42.87307860581103
1637.6953125 42.87820997590647
1640.625 42.883681500558794
1643.5546875 42.88950687927722
1646.484375 42.89569734763994
1649.4140625 42.90226562343619
1652.34375 42.90921444676988
1655.2734375 42.91654592153911
1658.203125 42.924256171152976
1661.1328125 42.93234095030299
1664.0625 42.94079293643303
1666.9921875 42.949598183188186
1669.921875 42.95874534125639
1672.8515625 42.96822123315755
1675.78125 42.978011566272556
1678.7109375 42.988107966016244
1681.640625 42.99849570322668
1684.5703125 43.00917397963694
1687.5 43.020130534125386
1690.4296875 43.03136346616232
1693.359375 43.042873471019675
1696.2890625 43.05465849267837
1699.21875 43.06671979973632
1702.1484375 43.07905203942697
1705.078125 43.091657067207564
1708.0078125 43.10452558087839
1710.9375 43.11765123112056
1713.8671875 43.13817639861344
1716.796875 43.15182911676722
1719.7265625 43.165663638944366
1722.65625 43.179656093538426
1725.5859375 43.19378328932004
1728.515625 43.2080115685542
1731.4453125 43.22231330731067
1734.375 43.23665500388945
1737.3046875 43.24380189923971
1740.234375 43.258108448334895
1743.1640625 43.27238962477732
1746.09375 43.28661363624791
1749.0234375 43.30074805032024
1751.953125 43.31476751078503
1754.8828125 43.32864385300344
1757.8125 43.34234788575624
1760.7421875 43.355857614120325
1763.671875 43.36914981167891
1766.6015625 43.382200859559944
1769.53125 43.39498653898998
1772.4609375 43.40749003656762
1775.390625 43.419683144190486
1778.3203125 43.43154603680378
1781.25 43.44305501294674
1784.1796875 43.454182389350876
1787.109375 43.46490756239207
1790.0390625 43.47519887588777
1792.96875 43.48504006107176
1795.8984375 43.49440245863185
1798.828125 43.503267896199716
1801.7578125 43.51162134497909
1804.6875 43.519446730979695
1807.6171875 43.5267407639885
1810.546875 43.53350248427331
1813.4765625 43.53972977039507
1816.40625 43.545437613729945
1819.3359375 43.55063223638102
1822.265625 43.55533438410707
1825.1953125 43.55956232723669
1828.125 43.5633363890707
1831.0546875 43.56667742209301
1833.984375 43.5696051985212
1836.9140625 43.57214053189986
1839.84375 43.574299184608904
1842.7734375 43.57609638143168
1845.703125 43.57754342766468
1848.6328125 43.57865055514574
1851.5625 43.57942972777242
1854.4921875 43.57988890698853
1857.421875 43.580038318515236
1860.3515625 43.57988421234482
1863.28125 43.57944422708144
1866.2109375 43.57873131319059
1869.140625 43.57776205016145
1872.0703125 43.57655869599613
1875.0 43.57514464403883
1877.9296875 43.57355145474679
1880.859375 43.571806253226995
1883.7890625 43.56994458823932
1886.71875 43.56800179161425
1889.6484375 43.56601551446609
1892.578125 43.56402454649242
1895.5078125 43.562071962013604
1898.4375 43.56019246973436
1901.3671875 43.55843360325429
1904.296875 43.556826663878965
1907.2265625 43.55541120417938
1910.15625 43.554223210604846
1913.0859375 43.55329498527499
1916.015625 43.55315959456212
1918.9453125 43.55301364197982
1921.875 43.55321075799637
1924.8046875 43.553769333063
1927.734375 43.55470191601093
1930.6640625 43.556021897054876
1933.59375 43.55773484652582
1936.5234375 43.559840327368704
1939.453125 43.5623405125404
1942.3828125 43.56443617235527
1945.3125 43.567515094794274
1948.2421875 43.57098384889743
1951.171875 43.574828890532714
1954.1015625 43.57904940999671
1957.03125 43.58364526929924
1959.9609375 43.588612676749705
1962.890625 43.59395405596017
1965.8203125 43.59967404529276
1968.75 43.605777125931056
1971.6796875 43.6122717511324
1974.609375 43.61916265453283
1977.5390625 43.62645492194956
1980.46875 43.63415149516
1983.3984375 43.64225399329716
