Freq "Ceiling Bounce"
22.4 -25.6
23.0 -23.833078148839498
23.6 -22.1
24.0 -20.400000000000013
25.0 -18.666410173120035
25.8 -16.966410173120046
26.5 -15.266410173120029
27.2 -13.600000000000001
28.0 -11.900000000000013
29.0 -10.233078148839503
30.0 -8.600000000000001
30.7 -7.000000000000007
31.5 -5.366410173119995
32.5 -3.6999999999999673
33.5 -2.1000000000000014
34.5 -0.5330781488395147
35.5 1.0000000000000213
36.5 2.599999999999987
37.5 4.20000000000001
38.7 5.70000000000001
40.0 7.266921851160525
41.2 8.800000000000004
42.5 10.300000000000004
43.7 11.800000000000004
45.0 13.300000000000004
46.2 14.800000000000004
47.5 16.20000000000001
48.7 17.533589826879954
50.0 18.800000000000004
51.5 19.999999999999993
53.0 21.266921851160497
54.5 22.56692185116048
56.0 23.9
58.0 25.4
60.0 26.9
61.5 28.56692185116048
63.0 30.166921851160502
65.0 31.70000000000001
67.0 33.20000000000001
69.0 34.49999999999999
71.0 35.800000000000004
73.0 36.9
75.0 37.800000000000004
77.5 38.70000000000001
80.0 39.49999999999999
82.5 40.300000000000004
85.0 41.20000000000001
87.5 42.20000000000001
90.0 43.03358982687997
92.5 43.9
95.0 44.833589826879965
97.5 45.800000000000004
100.0 46.70000000000001
103.0 47.600000000000016
106.0 48.49999999999999
109.0 49.433589826879974
112.0 50.20000000000001
115.0 50.93358982687996
118.0 51.70000000000001
122.0 52.333589826879965
125.0 52.99999999999999
128.0 53.70000000000001
132.0 54.366921851160505
136.0 54.99999999999999
140.0 55.733589826879985
145.0 56.433589826879974
150.0 56.99999999999999
155.0 57.53358982687998
160.0 57.9669218511605
165.0 58.33358982687998
170.0 58.63358982687998
175.0 58.933589826879974
180.0 59.13358982687998
185.0 59.13358982687998
190.0 59.1669218511605
195.0 59.433589826879974
200.0 59.76692185116051
206.0 59.93358982687996
212.0 59.833589826879965
218.0 59.800767494455606
224.0 59.93358982687996
230.0 60.10076749445562
236.0 60.10076749445562
240.0 60.03358982687998
250.0 59.966921851160485
258.0 59.800767494455606
265.0 59.800767494455606
272.0 59.93358982687996
280.0 59.833589826879965
290.0 59.733589826879985
300.0 59.70076749445561
307.0 59.70076749445561
315.0 59.63358982687999
325.0 59.433589826879974
335.0 59.233589826879985
345.0 59.4
355.0 59.53358982687998
365.0 59.49999999999999
375.0 59.4
387.0 59.33358982687998
400.0 59.53358982687998
412.0 59.60076749445562
425.0 59.40076749445563
437.0 59.23513059177983
450.0 59.33513059177982
462.0 59.40306957104253
475.0 59.10306957104252
487.0 58.93821129888743
500.0 59.00690501035458
515.0 58.84283030471975
530.0 58.61227178315618
545.0 58.782199673323056
560.0 58.68219967332305
580.0 58.782199673323056
600.0 59.252609532022184
615.0 59.21916705502753
630.0 59.08982856673472
650.0 59.189828566734725
670.0 59.08982856673472
690.0 59.08982856673472
710.0 58.82758719283593
730.0 58.960965142371826
750.0 58.86096514237183
775.0 58.46096514237181
800.0 58.76096514237182
825.0 59.38982856673473
850.0 59.28982856673472
875.0 58.95260953202217
900.0 58.91916705502752
925.0 58.98219967332306
950.0 58.745767194384705
975.0 58.44576719438469
1000.0 58.67609175449223
1030.0 58.57609175449223
1060.0 58.640441679454916
1090.0 58.30531806766471
1120.0 57.97150800786938
1150.0 58.60306957104253
1180.0 58.26845083805434
1220.0 57.96845083805433
1250.0 57.46845083805433
1280.0 56.66845083805433
1320.0 56.36845083805432
1360.0 57.03513059177984
1400.0 58.23821129888743
1450.0 58.306905010354605
1500.0 57.84283030471975
1550.0 57.37928732607431
1600.0 57.74898514879552
1650.0 57.44898514879551
1700.0 57.21916705502755
1750.0 57.11916705502755
1800.0 57.519167055027516
1850.0 57.8566725593005
1900.0 57.5566725593005
1950.0 57.0566725593005
2000.0 56.92758719283591
2060.0 56.42758719283592
2120.0 55.1489851487955
2180.0 52.879287326074326
2240.0 50.46966078457043
2300.0 48.823764509309676
2360.0 48.9124664126148
2400.0 49.03401118403297
2500.0 49.63878621388877
2580.0 49.37096325109015
2650.0 49.79579688779125
2720.0 49.618862053072256
2800.0 50.65315875839968
2900.0 51.960010091434405
3000.0 54.24878700732916
3070.0 55.45519220018269
3150.0 57.009019382769985
3250.0 57.763387752513616
3350.0 58.5299114115576
3450.0 59.329911411557596
3550.0 59.933228937980424
3650.0 60.1205727933722
3750.0 59.877464800006386
3870.0 59.477464800006395
4000.0 59.89521707200081
4120.0 59.756234957828376
4250.0 59.272453064786454
4370.0 57.925660314298334
4500.0 57.16062045150712
4620.0 56.49595284808597
4750.0 56.425660314298334
4870.0 55.89122190442486
5000.0 55.10519194627346
5150.0 55.00833704711781
5300.0 55.06338775251363
5450.0 55.91655999317606
5600.0 56.249934726018544
5800.0 56.70052961054488
6000.0 55.429607788473085
6150.0 53.40241678566789
6300.0 50.57605289976869
6500.0 49.96820626411148
6700.0 51.86023818113063
6900.0 51.79843514857179
7100.0 51.57789079450554
7300.0 50.75647994661606
7500.0 51.37641629732152
7750.0 51.67182978310016
8000.0 51.2301206597481
8250.0 50.879601214334606
8500.0 51.902611558953645
8750.0 52.64898359150842
9000.0 52.47717895989805
9250.0 52.69238414975148
9500.0 52.87295409049299
9750.0 53.039213203426975
10000.0 53.325660314298325
10300.0 53.46531308837816
10600.0 52.503413581982805
10900.0 53.23728906550861
11200.0 54.261619735560764
11500.0 52.62602931574093
11800.0 46.68760046288923
12200.0 42.416590626927835
12500.0 49.09220047151572
12800.0 49.9254512340871
13200.0 50.07461960007611
13600.0 50.22747332942243
14000.0 49.549612805392734
14500.0 46.57432484332772
15000.0 49.31954103557673
15500.0 49.57634337204299
16000.0 53.51232073990119
16500.0 13.914109260517613
17000.0 11.398974451309236
17500.0 9.832572180465569
18000.0 7.077178959898042
18500.0 7.01172846437381
19000.0 9.015925388799836
19500.0 8.848983591508407
