Freq "Estimated In-Room Response"
22.4 28.119703506432373
23.0 29.939835174374323
23.6 31.389605992431555
24.0 32.53714001000823
25.0 33.702077564536054
25.8 35.167913729359
26.5 36.398607848470604
27.2 37.572237685382746
28.0 38.76041923591025
29.0 40.14430547811311
30.0 41.685985933312836
30.7 42.71023486037764
31.5 43.87369244954577
32.5 45.07340743079543
33.5 46.449539403857486
34.5 47.95330787263599
35.5 48.92701023428782
36.5 49.98434132805912
37.5 51.38749842561809
38.7 52.564446602502315
40.0 53.467592688001545
41.2 54.53939769477411
42.5 55.678548664037905
43.7 56.552297756117966
45.0 57.24491396111438
46.2 58.23360154520847
47.5 58.9811178270965
48.7 59.677467897349075
50.0 60.30191003875265
51.5 60.85613720772544
53.0 61.40735980383154
54.5 61.790158142026556
56.0 62.228801389497434
58.0 62.59458805489783
60.0 62.85370765790316
61.5 63.18567780749446
63.0 63.40994230508241
65.0 63.63861620614534
67.0 63.848289762018325
69.0 64.00522247656231
71.0 64.15705606155284
73.0 64.26671336243648
75.0 64.37079557021237
77.5 64.4169456250047
80.0 64.42728990484424
82.5 64.41559973780981
85.0 64.39055117064545
87.5 64.32926848342112
90.0 64.30195300621858
92.5 64.29646624963517
95.0 64.31480560749871
97.5 64.40744133930546
100.0 64.56985022373398
103.0 64.85004004400152
106.0 65.25072858997169
109.0 65.76256033858854
112.0 66.28397759281229
115.0 66.73692200442416
118.0 67.11893181017743
122.0 67.473965176327
125.0 67.82574524526905
128.0 68.2447406082316
132.0 68.66814791274804
136.0 69.03802498054714
140.0 69.29685236982087
145.0 69.36781281134513
150.0 69.32919696101793
155.0 69.21629208386433
160.0 69.07362220532035
165.0 68.94195225668352
170.0 68.81800710131799
175.0 68.78126062365335
180.0 68.81326622987223
185.0 68.84654138850945
190.0 68.78991154929608
195.0 68.73364670882826
200.0 68.7415234907228
206.0 68.77145671293192
212.0 68.71821866594236
218.0 68.80334933165695
224.0 69.26603107127899
230.0 69.85798162068214
236.0 70.28983613981252
240.0 70.50733497810654
250.0 70.48732558666599
258.0 70.45365415926426
265.0 70.45580714451538
272.0 70.41315789028302
280.0 70.42237134788515
290.0 70.35590827577926
300.0 70.28663981338666
307.0 70.22658674687717
315.0 70.11951808077085
325.0 69.99002501099649
335.0 69.83703286766703
345.0 69.66704849318216
355.0 69.4801195782311
365.0 69.31008915074406
375.0 69.17774690464758
387.0 69.1030398794873
400.0 69.06867057663935
412.0 69.08650322577856
425.0 69.13771006425414
437.0 69.20968626076379
450.0 69.31102743584248
462.0 69.38974192113794
475.0 69.39941787534505
487.0 69.36495591885152
500.0 69.2746890470375
515.0 69.11311148579145
530.0 68.88770346809547
545.0 68.5667298110612
560.0 68.12047212195243
580.0 67.61114672108886
600.0 67.02219289596472
615.0 66.44467282826523
630.0 65.90125585524368
650.0 65.55506260400944
670.0 65.4643122907494
690.0 65.67263378633844
710.0 66.12690448171044
730.0 66.66784727262218
750.0 67.07277361446567
775.0 67.3645026997816
800.0 67.48315885609301
825.0 67.56209235674108
850.0 67.56238393285079
875.0 67.47980570180839
900.0 67.2843755255139
925.0 67.07267268962539
950.0 66.85416947288257
975.0 66.69790632600389
1000.0 66.63371249584544
1030.0 66.60371857165028
1060.0 66.56243521853817
1090.0 66.54682249939566
1120.0 66.56304465963385
1150.0 66.58666112389247
1180.0 66.61280742999878
1220.0 66.68400458943094
1250.0 66.75307963463203
1280.0 66.76019651857489
1320.0 66.65338505623814
1360.0 66.47149379616528
1400.0 66.26876131146058
1450.0 66.07570077861583
1500.0 65.89072381072589
1550.0 65.67529971880286
1600.0 65.33606446462596
1650.0 64.98820091918886
1700.0 64.71897065039254
1750.0 64.49516185107063
1800.0 64.18728263263527
1850.0 63.88961409453762
1900.0 63.62160353282364
1950.0 63.476817027324145
2000.0 63.38327086287974
2060.0 63.409938794964646
2120.0 63.435613164663835
2180.0 63.47704561228399
2240.0 63.604811959452704
2300.0 63.769661298189774
2360.0 63.94462392948638
2400.0 64.168040327808
2500.0 64.36084660938263
2580.0 64.53406210306478
2650.0 64.79503397937772
2720.0 65.11779220127109
2800.0 65.54374052408066
2900.0 65.99351783250545
3000.0 66.21905814463996
3070.0 66.24280975089961
3150.0 66.229605854052
3250.0 66.29538517753869
3350.0 66.32936748338163
3450.0 66.21029345138152
3550.0 65.94004168504937
3650.0 65.57779440186613
3750.0 65.23488124382169
3870.0 65.02999812499543
4000.0 64.99784415421365
4120.0 64.9005297918556
4250.0 64.77273190741184
4370.0 64.71663174850282
4500.0 64.64156292085012
4620.0 64.73672615790147
4750.0 64.9322450818646
4870.0 64.81414230327528
5000.0 64.72034724832453
5150.0 64.66533309985432
5300.0 64.65195043911616
5450.0 64.6694454501965
5600.0 64.74654580889734
5800.0 64.95514620229157
6000.0 65.22948778674755
6150.0 65.2596143416531
6300.0 65.04951748770587
6500.0 64.58634513239132
6700.0 64.10925238122864
6900.0 63.95206583668717
7100.0 63.710211823152164
7300.0 63.36773142378715
7500.0 63.0913636045169
7750.0 63.037993154687385
8000.0 63.214789459299695
8250.0 63.615245668908486
8500.0 64.00364179829883
8750.0 63.96679676609996
9000.0 64.15582962378049
9250.0 64.14915138135002
9500.0 63.63573922409897
9750.0 63.102091987429446
10000.0 62.74625554353956
10300.0 62.411074894140896
10600.0 61.95445509046458
10900.0 61.822079441183945
11200.0 61.59605951701296
11500.0 61.526085568674105
11800.0 61.95111561916606
12200.0 62.408923805990824
12500.0 63.38097123406183
12800.0 64.56706805406836
13200.0 65.65721296667216
13600.0 65.87201780833554
14000.0 65.88390389959822
14500.0 65.7647923536622
15000.0 65.65986349727473
15500.0 65.40363756029528
16000.0 64.83793871291142
16500.0 63.77719289648098
17000.0 62.26519174820639
17500.0 61.78135037806034
18000.0 62.305033502093366
18500.0 62.436277298730644
19000.0 62.04931275990873
19500.0 61.66331806833567
