Freq "Estimated In-Room Response"
22.4 28.339956670989338
23.0 30.16008833893129
23.6 31.60985915698852
24.0 32.757393174565195
25.0 33.92233072909302
25.8 35.388166893915965
26.5 36.61886101302757
27.2 37.79249084993971
28.0 38.98067240046721
29.0 40.364558642670076
30.0 41.9062390978698
30.7 42.930488024934604
31.5 44.093945614102736
32.5 45.29366059535239
33.5 46.66979256841445
34.5 48.173561037192954
35.5 49.147263398844785
36.5 50.20459449261608
37.5 51.607751590175056
38.7 52.78469976705928
40.0 53.68784585255851
41.2 54.759650859331074
42.5 55.89880182859487
43.7 56.77255092067493
45.0 57.46516712567134
46.2 58.45385470976544
47.5 59.20137099165346
48.7 59.89772106190604
50.0 60.52216320330962
51.5 61.076390372282404
53.0 61.627612968388505
54.5 62.01041130658352
56.0 62.4490545540544
58.0 62.81484121945479
60.0 63.07396082246012
61.5 63.40593097205142
63.0 63.630195469639375
65.0 63.85886937070231
67.0 64.06854292657529
69.0 64.22547564111927
71.0 64.3773092261098
73.0 64.48696652699344
75.0 64.59104873476933
77.5 64.63719878956167
80.0 64.64754306940121
82.5 64.63585290236678
85.0 64.61080433520242
87.5 64.54952164797808
90.0 64.52220617077555
92.5 64.51671941419214
95.0 64.53505877205568
97.5 64.62769450386243
100.0 64.79010338829094
103.0 65.07029320855848
106.0 65.47098175452865
109.0 65.98281350314551
112.0 66.50423075736926
115.0 66.95717516898112
118.0 67.3391849747344
122.0 67.69421834088396
125.0 68.04599840982601
128.0 68.46499377278856
132.0 68.888401077305
136.0 69.2582781451041
140.0 69.51710553437783
145.0 69.5880659759021
150.0 69.5494501255749
155.0 69.4365452484213
160.0 69.29387536987731
165.0 69.16220542124049
170.0 69.03826026587495
175.0 69.00151378821032
180.0 69.03351939442919
185.0 69.06679455306642
190.0 69.01016471385304
195.0 68.95389987338523
200.0 68.96177665527976
206.0 68.99170987748889
212.0 68.93847183049932
218.0 69.02360249621391
224.0 69.48628423583595
230.0 70.0782347852391
236.0 70.51008930436949
240.0 70.7275881426635
250.0 70.70757875122295
258.0 70.67390732382123
265.0 70.67606030907234
272.0 70.63341105483998
280.0 70.64262451244211
290.0 70.57616144033622
300.0 70.50689297794362
307.0 70.44683991143414
315.0 70.33977124532781
325.0 70.21027817555346
335.0 70.057286032224
345.0 69.88730165773913
355.0 69.70037274278806
365.0 69.53034231530103
375.0 69.39800006920454
387.0 69.32329304404426
400.0 69.28892374119631
412.0 69.30675639033552
425.0 69.3579632288111
437.0 69.42993942532075
450.0 69.53128060039944
462.0 69.6099950856949
475.0 69.61967103990202
487.0 69.58520908340849
500.0 69.49494221159446
515.0 69.33336465034841
530.0 69.10795663265243
545.0 68.78698297561816
560.0 68.3407252865094
580.0 67.83139988564582
600.0 67.24244606052169
615.0 66.66492599282219
630.0 66.12150901980064
650.0 65.7753157685664
670.0 65.68456545530637
690.0 65.8928869508954
710.0 66.3471576462674
730.0 66.88810043717915
750.0 67.29302677902264
775.0 67.58475586433856
800.0 67.70341202064998
825.0 67.78234552129804
850.0 67.78263709740776
875.0 67.70005886636535
900.0 67.50462869007086
925.0 67.29292585418236
950.0 67.07442263743954
975.0 66.91815949056085
1000.0 66.85396566040241
1030.0 66.82397173620724
1060.0 66.78268838309513
1090.0 66.76707566395262
1120.0 66.78329782419081
1150.0 66.80691428844943
1180.0 66.83306059455575
1220.0 66.9042577539879
1250.0 66.973332799189
1280.0 66.98044968313185
1320.0 66.8736382207951
1360.0 66.69174696072224
1400.0 66.48901447601754
1450.0 66.29595394317279
1500.0 66.11097697528285
1550.0 65.89555288335983
1600.0 65.55631762918293
1650.0 65.20845408374582
1700.0 64.9392238149495
1750.0 64.7154150156276
1800.0 64.40753579719224
1850.0 64.10986725909459
1900.0 63.84185669738061
1950.0 63.69707019188111
2000.0 63.603524027436706
2060.0 63.63019195952161
2120.0 63.6558663292208
2180.0 63.69729877684095
2240.0 63.82506512400967
2300.0 63.98991446274674
2360.0 64.16487709404335
2400.0 64.38829349236497
2500.0 64.5810997739396
2580.0 64.75431526762175
2650.0 65.01528714393469
2720.0 65.33804536582805
2800.0 65.76399368863763
2900.0 66.21377099706241
3000.0 66.43931130919692
3070.0 66.46306291545658
3150.0 66.44985901860896
3250.0 66.51563834209566
3350.0 66.5496206479386
3450.0 66.43054661593848
3550.0 66.16029484960633
3650.0 65.7980475664231
3750.0 65.45513440837865
3870.0 65.2502512895524
4000.0 65.21809731877062
4120.0 65.12078295641257
4250.0 64.9929850719688
4370.0 64.93688491305979
4500.0 64.86181608540709
4620.0 64.95697932245844
4750.0 65.15249824642156
4870.0 65.03439546783224
5000.0 64.9406004128815
5150.0 64.88558626441129
5300.0 64.87220360367313
5450.0 64.88969861475347
5600.0 64.9667989734543
5800.0 65.17539936684854
6000.0 65.44974095130452
6150.0 65.47986750621007
6300.0 65.26977065226284
6500.0 64.80659829694828
6700.0 64.32950554578561
6900.0 64.17231900124413
7100.0 63.93046498770913
7300.0 63.58798458834411
7500.0 63.311616769073865
7750.0 63.25824631924435
8000.0 63.43504262385666
8250.0 63.83549883346545
8500.0 64.2238949628558
8750.0 64.18704993065693
9000.0 64.37608278833746
9250.0 64.36940454590699
9500.0 63.855992388655935
9750.0 63.32234515198641
10000.0 62.96650870809653
10300.0 62.63132805869786
10600.0 62.17470825502154
10900.0 62.04233260574091
11200.0 61.816312681569926
11500.0 61.74633873323107
11800.0 62.171368783723025
12200.0 62.62917697054779
12500.0 63.6012243986188
12800.0 64.78732121862532
13200.0 65.87746613122913
13600.0 66.0922709728925
14000.0 66.10415706415519
14500.0 65.98504551821917
15000.0 65.88011666183169
15500.0 65.62389072485225
16000.0 65.05819187746839
16500.0 63.99744606103795
17000.0 62.485444912763356
17500.0 62.0016035426173
18000.0 62.52528666665033
18500.0 62.65653046328761
19000.0 62.269565924465695
19500.0 61.883571232892635
