Freq "Estimated In-Room Response"
20.5078 52.05872390186286
21.9727 58.47789516200342
23.4375 60.612383272940264
24.9023 61.26744166336039
26.3672 61.45607671919734
27.832 62.288045535628015
29.2969 64.3653062865911
30.7617 66.2585132267812
32.2266 67.49411817124923
33.6914 68.24523430274186
35.1563 69.09467120236599
36.6211 70.30016117614454
38.0859 71.69804974452826
39.5508 72.78734828032948
41.0156 73.93541812667354
42.4805 74.71967424867832
43.9453 75.65153266854941
45.4102 76.447478104572
46.875 77.3024923725798
48.3398 78.13607039109424
51.2695 79.79074895560325
52.7344 80.58295597078376
54.1992 81.29253541578049
55.6641 81.91938852867705
58.5938 83.07300610393939
60.0586 83.54949346235004
62.9883 84.44761132789468
64.4531 84.89808493680134
67.3828 85.63274898337598
68.8477 85.88956904748176
71.7773 86.28885736788283
74.707 86.74054674522996
77.6367 87.06013848696311
79.1016 87.1603832068678
82.0313 87.30586566017973
84.9609 87.33097020388287
87.8906 87.49078237953243
90.8203 87.22749291640066
95.2148 87.73636789552246
98.1445 87.38056499562092
101.074 87.1912246508509
105.469 87.54143256894437
108.398 87.19217806803437
112.793 87.6360475863891
117.188 87.37738206315561
120.117 87.73625159544551
124.512 87.28067587736523
128.906 87.21479631379714
133.301 87.28314926387623
139.16 87.07212866055758
143.555 86.98852521141666
147.949 86.90370059302086
153.809 86.85581093873569
159.668 86.95810355471835
165.527 86.92634388883125
171.387 86.77109708586757
177.246 86.6120516505889
183.105 86.36884401992614
188.965 86.41409037940907
196.289 86.4434822892066
203.613 86.2055251641032
210.938 86.15027491191631
218.262 86.07472473109384
225.586 85.970538732611
232.91 86.06311008712244
241.699 86.07324317399642
250.488 86.12136194219556
259.277 86.27284840127858
268.066 85.93226492434107
276.855 86.08340392683519
287.109 86.04338901608801
297.363 85.91592656319128
307.617 86.15053633469586
319.336 85.92796653238017
329.59 86.16863335796356
341.309 85.50558599583334
353.027 85.47453847354139
366.211 85.57954449849038
379.395 85.96841593548837
392.578 85.5461135041732
405.762 85.20903725265096
420.41 85.69931682753406
435.059 85.5153825372032
451.172 85.51812221483377
465.82 85.42134236701945
483.398 85.14444900601364
499.512 85.19305630968277
517.09 85.63216625649764
536.133 85.03718361857835
555.176 85.32172094651283
574.219 85.53129186359743
594.727 85.08548223835254
615.234 85.17400248675567
637.207 85.20338618223832
659.18 85.3816521100069
682.617 85.10565152756159
707.52 85.2061506101479
732.422 85.54278702131019
757.324 85.53848491842619
785.156 85.96931653067993
811.523 85.67268988466614
840.82 85.30644759624087
870.117 85.2627720433305
900.879 85.09150356885044
933.105 85.05243111230345
965.332 84.98410199435247
1000.49 84.856954333099
1035.64 84.42659990579551
1072.27 83.88688020123412
1108.89 83.16577020225215
1148.44 83.10120595863867
1189.45 83.208879557002
1230.47 83.37904136223611
1274.41 83.44572136784637
1319.82 82.9399216688596
1366.7 82.48860953593152
1413.57 82.07149661036237
1463.38 81.90176504734879
1516.11 82.10330921978965
1568.85 82.71962941350164
1624.51 82.85777538370178
1681.64 82.34956162647129
1741.7 82.24730908642877
1803.22 82.7188937535774
1866.21 82.52212030271127
1932.13 81.91187280166301
1999.51 81.70155007151143
2069.82 82.42240311379415
2143.07 82.19592311389495
2219.24 81.5843988499453
2296.88 81.92334237545495
2378.91 82.46668486056527
2462.4 81.5461714579694
2548.83 81.13252837182904
2639.65 81.34259323108164
2731.93 81.0879122186367
2828.61 80.65822018660091
2928.22 80.51974997334499
3030.76 80.32225724734374
3137.7 80.82277983240311
3249.02 80.87651472654318
3363.28 80.74611153740571
3481.93 80.47735496570108
3604.98 80.54409307753417
3732.42 80.60266037830398
3864.26 81.11836291227081
4000.49 81.47432054658604
4141.11 81.81514736880015
4287.6 81.30868556567762
4438.48 81.3872206061175
4595.21 81.29599982924258
4756.35 81.43710991366797
4924.8 81.89302200474694
5097.66 81.78793439654851
5277.83 82.02472774444911
5463.87 81.94977516927602
5657.23 82.00027959573006
5856.45 82.06843309842274
6062.99 81.96673086043572
6276.86 81.9345381291497
6498.05 82.01567228878082
6726.56 82.20898335336943
6963.87 82.31065095269349
7209.96 82.21780091756415
7464.84 81.88708184929038
7727.05 81.74364383265146
7999.51 81.90421342440006
8282.23 82.12773523088985
8573.73 82.35915362843377
8876.95 82.32820862075468
9188.96 82.24246448570271
9514.16 82.05758861911866
9849.61 81.87856874093555
10196.8 81.79844493720344
10555.7 81.66685568605895
10927.7 81.4317915607288
11313.0 81.2231965232562
11712.9 80.89692094481097
12126.0 80.67223274260235
12553.7 80.68769238640098
12996.1 80.62918806173266
13454.6 80.5112980158948
13929.2 80.52050190770753
14419.9 80.42409243636699
14928.2 80.30605640341378
15455.6 80.3518408724261
16000.5 80.38443342942163
16564.5 80.36506892794807
17148.9 80.64068262268479
17752.4 80.95536747231085
18379.4 81.20939328011207
19026.9 81.4394599138777
19697.8 81.98954798550378
19999.5 82.40428003035073
