Freq,On Axis,Listening Window,Sound Power,Early Reflections,Early Reflections DI,Sound Power DI,DI offset
20.5078,58.42213181818181,58.48838908558625,60.03107047658898,59.585108464993596,48.90328062059265,48.45731860899727,50
21.9727,59.920531818181814,59.98375267089705,61.41143448713299,61.05859408790923,48.92515858298782,48.572318183764054,50
23.4375,62.84593181818181,62.88744856178414,63.83395149270797,63.62269064265092,49.26475791913322,49.05349706907617,50
24.9023,64.2591318181818,64.28870799070913,65.00016412781466,64.84784265002057,49.44086534068856,49.28854386289447,50
26.3672,65.28463181818182,65.31044589027573,65.88903919058714,65.79724869637289,49.51319719390284,49.42140669968859,50
27.832,66.6939318181818,66.70919000156732,67.03889163822754,67.02516842726322,49.6840215743041,49.67029836333978,50
29.2969,67.65423181818181,67.66240606986506,67.84245000977819,67.86958988094099,49.792816188924064,49.81995606008687,50
30.7617,68.1812318181818,68.18264244129693,68.222335809324,68.29615261452906,49.88648982676787,49.96030663197294,50
32.2266,68.68923181818181,68.68452096852988,68.5888901736874,68.71501358587494,49.96950738265494,50.09563079484248,50
33.6914,69.23743181818182,69.22986023457193,69.07029858500319,69.21810932169868,50.011750912873254,50.159561649568744,50
35.1562,69.76583181818181,69.75578745665487,69.54484019497426,69.70603192259598,50.04975553405889,50.210947261680616,50
36.6211,70.25683181818181,70.24369400321598,69.9690012866981,70.15467619407244,50.08901780914354,50.274692716517876,50
38.0859,70.71813181818182,70.70302392732728,70.3881633675362,70.58772914853776,50.11529477878952,50.314860559791086,50
39.5508,71.13343181818182,71.11690556768983,70.77861076340452,70.98382690380095,50.13307866388888,50.33829480428531,50
41.0156,71.6667318181818,71.64883242459038,71.28414440376471,71.49799773610457,50.150834688485816,50.36468802082567,50
42.4805,72.15423181818181,72.1352354153308,71.75319347321587,71.97142335918261,50.16381205614819,50.382041942114924,50
43.9453,72.6356318181818,72.61491395506546,72.20527253196693,72.43366327168104,50.18125068338442,50.409641423098535,50
45.4102,73.09973181818181,73.07735171296636,72.63780309477143,72.87854904325775,50.19880266970861,50.439548618194934,50
46.875,73.60563181818182,73.58152345064028,73.10830227468857,73.36422007004106,50.21730338059922,50.47322117595171,50
48.3398,74.11533181818182,74.09107760161008,73.62327886550429,73.87241230083663,50.21866530077345,50.46779873610579,50
51.2695,75.19663181818181,75.16945992538265,74.66147669711992,74.92655812101026,50.242901804372394,50.50798322826273,50
52.7344,75.6589318181818,75.63035637016276,75.09867722902052,75.37398713687571,50.256369233287046,50.531679141142234,50
54.1992,76.06973181818182,76.03983286488467,75.48507649078185,75.77022353533303,50.26960932955164,50.55475637410282,50
55.6641,76.49633181818182,76.46583163002452,75.91231839591217,76.19486363060759,50.27096799941694,50.55351323411236,50
58.5938,77.46643181818182,77.43026304297881,76.76688295194297,77.10558608543346,50.32467695754535,50.66338009103583,50
60.0586,77.9785318181818,77.94237476333161,77.27005188349509,77.61207662866641,50.3302981346652,50.67232287983653,50
62.9883,78.97033181818182,78.93474297517876,78.30077597735867,78.61891329299928,50.31582968217948,50.633966997820096,50
64.4531,79.48833181818182,79.45212568427345,78.81881183114407,79.13384457817398,50.31828110609948,50.63331385312938,50
67.3828,80.37333181818181,80.33486767184081,79.68264327651796,80.00060201159202,50.33426566024879,50.65222439532285,50
68.8477,80.79243181818181,80.7527844268143,80.08935475203899,80.41088040699776,50.34190401981654,50.663429674775315,50
71.7773,81.70293181818181,81.6621255050376,81.00092988151769,81.31630924600793,50.34581625902966,50.6611956235199,50
74.707,82.66073181818182,82.6172800239797,81.9357190771461,82.25710643646646,50.360173587513245,50.6815609468336,50
77.6367,83.5435318181818,83.49753598544362,82.80049398141335,83.1257791042358,50.371756881207816,50.697042004030266,50
79.1016,83.96853181818182,83.92041378248386,83.19687536739106,83.53417924476192,50.38623453772195,50.723538415092804,50
82.0312,84.93623181818181,84.88472743546916,84.10311216409114,84.4685449440045,50.41618249146465,50.781615271378016,50
84.9609,85.89943181818181,85.84572447254365,85.04423646362427,85.41658437349352,50.42914009905013,50.80148800891938,50
87.8906,86.76713181818181,86.71137124181197,85.90568474551546,86.27619474325614,50.43517649855583,50.80568649629652,50
90.8203,87.67693181818181,87.61714063138679,86.7727669812681,87.16035523339514,50.45678539799165,50.84437365011868,50
95.2148,89.16983181818182,89.10470992125437,88.20161053393318,88.61362039314821,50.49108952810616,50.90309938732119,50
98.1445,90.12313181818182,90.05497511390085,89.11254141580827,89.54285583043004,50.51211928347081,50.942433698092586,50
101.074,91.02613181818181,90.95759876484261,90.01081754597116,90.44377912159179,50.51381964325083,50.94678121887145,50
105.469,92.19563181818181,92.12236467354695,91.11801415531559,91.57873990473232,50.54362476881464,51.00435051823136,50
108.398,92.93153181818181,92.85498692886631,91.81513390694028,92.29086827612804,50.56411865273827,51.039853021926035,50
112.793,93.67623181818182,93.59041012233341,92.45456046371913,92.97242076274338,50.61798935959003,51.135849658614276,50
117.188,94.00893181818182,93.91367066443945,92.68008258263275,93.2379714732558,50.675699191183654,51.2335880818067,50
120.117,94.1771318181818,94.07601737306659,92.70646686162254,93.33849439982403,50.73752297324256,51.36955051144405,50
124.512,94.56623181818182,94.46470193430125,93.10929447890341,93.7437859552482,50.720915979053046,51.35540745539784,50
128.906,94.25243181818182,94.14414804878847,92.77087804869561,93.40821460106295,50.735933447725515,51.37327000009286,50
133.301,93.74573181818181,93.63090843411356,92.12939510398984,92.8389995229325,50.79190891118107,51.50151333012373,50
139.16,93.27503181818182,93.15521566691943,91.66128980195185,92.35201734360055,50.80319832331888,51.49392586496758,50
143.555,92.84763181818181,92.7203600073125,91.11545853010924,91.85959817245427,50.86076183485822,51.604901477203256,50
147.949,92.42833181818182,92.30426126654216,90.69858974204138,91.44429350751325,50.859967759028905,51.60567152450078,50
153.809,92.36443181818181,92.2217461866793,90.22881751776228,91.20469906485755,51.01704712182175,51.99292866891702,50
159.668,91.9956318181818,91.84725132309183,89.75130771269231,90.78070785434403,51.066543468747795,52.095943610399516,50
165.527,92.10183181818181,91.94930365740761,89.68546196721417,90.81082327991629,51.13848037749132,52.263841690193445,50
171.387,92.15853181818181,92.01383462116995,89.78732354450099,90.90309704932739,51.11073757184256,52.226511076668956,50
177.246,91.58253181818179,91.44109559388711,89.46412787996628,90.42987500369883,51.01122059018829,51.97696771392083,50
183.105,91.26383181818181,91.10107475803122,88.85315483552361,89.96643636293246,51.13463839509876,52.247919922507606,50
188.965,91.12773181818181,90.96621237768282,88.57855835734343,89.786348831462,51.179863546220815,52.3876540203394,50
196.289,90.95093181818181,90.78322513447371,88.45171038498228,89.61674955706818,51.166475577405535,52.33151474949143,50
203.613,90.55703181818181,90.38175929475344,88.06393013545484,89.19965667724955,51.18210261750389,52.3178291592986,50
210.938,90.1288318181818,89.93502952690501,87.46559665544875,88.67239521867805,51.262634308226964,52.46943287145626,50
218.262,90.07823181818182,89.88633696052312,87.21491404065353,88.55795817421685,51.328378786306274,52.6714229198696,50
225.586,89.51993181818182,89.31350034227948,86.81587851606221,88.03839940548337,51.27510093679611,52.49762182621727,50
232.91,89.61203181818183,89.3720742558604,86.35766022193977,87.87765893219375,51.494415323666644,53.01441403392063,50
241.699,89.72093181818181,89.47432938469856,85.58572002135884,87.67585780884083,51.79847157585773,53.888609363339725,50
250.488,90.95613181818182,90.74879207776321,86.59511546578572,88.90755383670809,51.84123824105512,54.15367661197749,50
259.277,90.5534318181818,90.356572502853,87.0690052816625,88.82186558079371,51.534706922059286,53.2875672211905,50
268.066,90.7413318181818,90.54148014897208,87.25389321928117,88.98109973768783,51.56038041128426,53.28758692969092,50
276.855,91.34063181818183,91.14166509681677,88.06382365866547,89.6451295044809,51.49653559233586,53.077841438151296,50
287.109,91.56633181818181,91.34163842318995,87.90612398045687,89.71887676973985,51.6227616534501,53.43551444273308,50
297.363,91.27213181818183,91.05352393601305,87.41699787591465,89.33957542651461,51.71394850949844,53.636526060098404,50
307.617,91.64813181818181,91.42917687378026,87.82558673690068,89.74067682678279,51.688500046997476,53.60359013687959,50
319.336,92.1453318181818,91.90558648086481,87.45400585375556,89.93879950362958,51.96678697723523,54.45158062710925,50
329.59,91.53583181818183,91.34551024992177,87.80493683166063,89.68036687474628,51.66514337517549,53.54057341826115,50
341.309,90.87843181818181,90.64697620783613,87.49587269756844,89.09013172155107,51.55684448628506,53.15110351026769,50
353.027,91.19553181818182,90.92504189280682,87.24991699240378,89.146908541702,51.77813335110481,53.675124900403034,50
366.211,91.7173318181818,91.44264713980377,87.35489815031644,89.55774737543723,51.88489976436654,54.087748989487324,50
379.395,92.50693181818181,92.2035784613504,87.9801034051471,90.17328751381132,52.030290947539086,54.2234750562033,50
392.578,93.85273181818181,93.56395799982738,89.03791376717993,91.43801731208663,52.12594068774075,54.52604423264745,50
405.762,93.16573181818181,92.89237190977737,88.43954936378242,90.78474970250664,52.10762220727072,54.45282254599495,50
420.41,92.75073181818182,92.45841023203687,87.72402421779817,90.13364356387295,52.32476666816392,54.734386014238694,50
435.059,92.68893181818181,92.40220356614132,88.07875551357066,90.28327538057091,52.11892818557041,54.32344805257067,50
451.172,90.94183181818181,90.65123403428208,86.98267625295523,88.76528271882323,51.885951315458854,53.668557781326854,50
465.82,93.51823181818182,93.15501782343874,88.2539561210075,90.8284709998153,52.326546823623445,54.901061702431235,50
483.398,94.24343181818182,93.89995958130885,88.64739457433792,91.37411823015135,52.525841351157496,55.252565006970926,50
499.512,93.44193181818181,93.10893433962187,87.81853468107491,90.50961925338615,52.59931508623572,55.29039965854696,50
517.09,88.55453181818183,88.24316191126698,83.417985017522,85.75385002030923,52.48931189095775,54.82517689374498,50
536.133,82.92303181818181,82.46478121208726,78.61505245959067,80.548594920891,51.916186291196254,53.84972875249659,50
555.176,83.96803181818181,83.6668432060501,79.17711466713922,81.38014915443105,52.28669405161905,54.48972853891088,50
574.219,85.82513181818182,85.53233106824175,80.90771504954022,83.13081381401581,52.401517254225936,54.62461601870153,50
594.727,86.69383181818182,86.40031355249401,82.47169418042378,84.59849852566366,51.801815026830354,53.92861937207023,50
615.234,88.77073181818182,88.40288335789263,84.2992912306843,86.62979913001334,51.773084227879295,54.10359212720833,50
637.207,90.50303181818181,89.98323868404799,84.88030093901105,87.54839303995547,52.43484564409252,55.10293774503694,50
659.18,90.74603181818182,90.21682140764395,85.21971848828375,87.83796792866647,52.378853478977476,54.9971029193602,50
682.617,90.29903181818182,89.79055351516993,85.53491399436732,87.75211003326399,52.038443481905944,54.25563952080262,50
707.52,91.1366318181818,90.66056654821628,86.24254374704302,88.57832717715303,52.08223937106325,54.418022801173265,50
732.422,91.77093181818181,91.18562616534264,86.41819264129253,88.77242084010012,52.413205325242515,54.767433524050105,50
757.324,90.20923181818182,89.84743493066766,85.88001857387337,88.3898715993658,51.457563331301856,53.96741635679429,50
785.156,88.11633181818182,87.6299612164184,83.9564836853207,86.50341330191249,51.126547914505906,53.67347753109769,50
811.523,87.57363181818181,87.25196676176282,83.15501376199934,86.05235008580212,51.1996166759607,54.096952999763474,50
840.82,90.15493181818181,89.66665400578641,84.86918878049812,87.73705478887403,51.92959921691238,54.79746522528829,50
870.117,90.78663181818182,90.2071210716991,84.058620143135,87.82208046966329,52.385040602035815,56.148500928564104,50
900.879,88.96413181818181,88.50390554187364,82.99088206509971,86.93943029930628,51.564475242567354,55.513023476773924,50
933.105,89.25973181818182,88.74043221579186,82.67875650031336,86.56058795910985,52.179844256682,56.0616757154785,50
965.332,88.35513181818182,87.76037658782984,81.68710001274484,85.47669324331311,52.28368334451673,56.073276575085,50
1000.49,89.10613181818181,88.78436325383262,82.95323379780635,86.6270896307314,52.15727362310122,55.831129456026275,50
1035.64,94.16263181818181,93.56214717941229,86.64553675341041,90.82573834998746,52.73640882942483,56.91661042600188,50
1072.27,95.34053181818182,94.46553934335162,86.81888561181233,91.35673225457359,53.108807088778036,57.64665373153929,50
1108.89,94.42163181818181,93.6712987271269,86.09160886424169,90.47908632874346,53.19221239838343,57.5796898628852,50
1148.44,93.61073181818182,92.89611171084161,85.59435111177382,89.65287480305115,53.24323690779046,57.30176059906779,50
1189.45,92.70613181818183,92.06762377627079,85.14774995391159,89.27474160160963,52.79288217466116,56.91987382235921,50
1230.47,92.99353181818182,92.1273902814159,84.2510600027143,88.62734609612957,53.50004418528633,57.8763302787016,50
1274.41,92.8258318181818,91.94841249856871,83.842681993778,88.14004833026583,53.80836416830289,58.105730504790714,50
1319.82,92.1887318181818,91.34891660235229,83.25004482521183,87.47756342790467,53.87135317444762,58.09887177714046,50
1366.7,91.31933181818181,90.5051529028713,82.8488451182866,86.96934017400537,53.535812728865935,57.6563077845847,50
1413.57,90.65443181818182,89.8833707296219,82.34431025643607,86.69272999297955,53.19064073664235,57.53906047318583,50
1463.38,89.92753181818182,89.0667601448917,81.22836743664712,85.88097869713783,53.18578144775387,57.838392708244584,50
1516.11,89.89463181818181,88.78277217812106,80.54874766801639,85.5171337805851,53.265638397535966,58.234024510104675,50
1568.85,91.38763181818183,89.8758121375415,80.34799959623007,85.49222347133244,54.383588666209064,59.527812541311434,50
1624.51,92.44723181818182,90.99976339011363,81.45749530647898,86.18722373942268,54.81253965069095,59.54226808363465,50
1681.64,91.49943181818182,89.97270076213427,81.03602382247816,85.44013328724411,54.53256747489016,58.93667693965611,50
1741.7,92.62463181818183,90.9055816274271,81.3087336074431,85.80411039777398,55.101471229653114,59.596848019983995,50
1803.22,93.38063181818181,91.55574774335743,81.7516574571748,86.1322357856121,55.42351195774533,59.80409028618263,50
1866.21,93.80483181818181,91.93773942313717,82.01866817703355,86.40702110074024,55.530718322396936,59.91907124610363,50
1932.13,94.8916318181818,92.89315067039692,82.60169579257126,87.23358209465341,55.659568575743506,60.29145487782566,50
1999.51,95.78243181818182,93.92426150370562,83.61740451198098,88.38606377664442,55.5381977270612,60.30685699172464,50
2069.82,95.69003181818181,93.88972439623825,84.26802682030169,88.87613029136524,55.01359410487301,59.621697575936565,50
2143.07,94.3274318181818,92.81599346594982,83.92804118594988,88.26669800661394,54.54929545933588,58.887952279999936,50
2219.24,94.2540318181818,92.55727533898784,83.72184561883138,88.11889010813121,54.438385230856625,58.835429720156455,50
2296.88,94.62463181818181,92.70871983800262,83.6005731815797,88.1855533688921,54.52316646911052,59.10814665642292,50
2378.91,93.96143181818181,92.13597256115672,83.1011241472561,87.653557443588,54.48241511756872,59.03484841390062,50
2462.4,92.6624318181818,90.90678081083071,82.006134822853,86.65831652644212,54.24846428438859,58.90064598797771,50
2548.83,92.28403181818182,90.20068471140291,81.1060381789751,86.01984082747057,54.18084388393234,59.09464653242782,50
2639.65,92.70693181818181,90.53559280693804,81.35898133962151,86.0574833166879,54.47810949025015,59.17661146731653,50
2731.93,92.16023181818181,90.15254758114212,81.09611531574825,85.68267745481921,54.4698701263229,59.056432265393866,50
2828.61,91.51263181818182,89.56699342521807,80.52299094584467,85.22531518727648,54.34167823794159,59.044002479373404,50
2928.22,89.2276318181818,88.15999546434863,79.36998253670956,83.93572949983627,54.224265964512355,58.79001292763907,50
3030.76,89.21533181818182,88.52052711410316,79.46629126122092,83.81455077135973,54.705976342743426,59.05423585288224,50
3137.7,89.75553181818181,88.90047532965457,79.85423751337572,84.28516720876787,54.615308120886695,59.04623781627885,50
3249.02,88.8730318181818,87.99164363450423,79.26006222194938,83.84299160321768,54.148652031286545,58.731581412554846,50
3363.28,89.53763181818181,88.69469706887253,79.55689010742314,84.02854416569141,54.666152903181114,59.137806961449385,50
3481.93,89.3301318181818,88.87327818355553,80.11861703807214,84.25876933010733,54.6145088534482,58.75466114548338,50
3604.98,89.64123181818181,88.8518479463522,80.2934863193002,84.50183557638701,54.350012369965185,58.558361627051994,50
3732.42,90.94953181818181,90.1027349606728,81.34373507885535,85.5208959362495,54.5818390244233,58.75899988181746,50
3864.26,90.28313181818183,89.71725482107807,81.25082409979963,85.3339914095758,54.38326341150227,58.46643072127844,50
4000.49,91.9062318181818,91.18609630305744,82.13550027090302,86.32353206224474,54.8625642408127,59.05059603215442,50
4141.11,92.1386318181818,91.40288354250603,82.36415323865062,86.53337462737267,54.869508915133366,59.03873030385542,50
4287.6,92.53833181818182,91.90128127631553,82.73278341423512,86.9649400105564,54.936341265759125,59.168497862080415,50
4438.48,93.16713181818182,92.62263276458917,83.11862561450755,87.34534923123796,55.27728353335121,59.50400715008162,50
4595.21,91.97603181818181,91.74515402345088,82.39834517738579,86.59182952841667,55.15332449503421,59.34680884606509,50
4756.35,92.63413181818181,91.8382824408227,82.52962032211335,86.71487415473202,55.12340828609068,59.30866211870935,50
4924.8,92.5761318181818,91.44546002764045,82.26212279813194,86.57905865336195,54.866401374278496,59.18333722950851,50
5097.66,92.56883181818179,91.2496264934376,82.12742052488476,86.52386432714032,54.72576216629729,59.12220596855285,50
5277.83,92.13313181818181,90.72097665693934,81.73489132547292,86.1512300213333,54.56974663560604,58.98608533146643,50
5463.87,91.44663181818181,90.31368727418156,81.4531928112237,85.74938577160427,54.564301502577294,58.86049446295786,50
5657.23,91.00693181818181,89.78481864904896,80.81353558054013,85.20051969506528,54.58429895398368,58.971283068508825,50
5856.45,90.29533181818181,89.26757390141637,80.13031831782902,84.33894137811905,54.928632523297324,59.13725558358735,50
6062.99,92.11373181818182,90.5468341326283,80.9344607907262,85.42221115506425,55.12462297756406,59.6123733419021,50
6276.86,93.59293181818181,91.62321676779862,81.71853545488636,86.21972309397583,55.403493673822794,59.90468131291226,50
6498.05,94.06073181818181,92.01599014709952,82.36154850801731,86.89196583625078,55.12402431084874,59.65444163908221,50
6726.56,93.3081318181818,91.48785986043293,81.82789063004627,86.39761908792491,55.090240772508025,59.659969230386665,50
6963.87,91.62983181818183,90.03132721645942,80.59764392312667,85.2425663219477,54.78876089451171,59.43368329333275,50
7209.96,92.12283181818181,90.83015826585691,81.47664428708994,86.12065303352108,54.70950523233583,59.35351397876697,50
7464.84,92.52323181818181,91.27449413559286,81.85036177218294,86.5125057414941,54.761988394098765,59.424132363409925,50
7727.05,92.0459318181818,91.00027168290269,81.53273664446489,86.17144696175126,54.828824721151435,59.4675350384378,50
7999.51,92.14323181818182,90.92827392138484,81.26289274662264,85.8413319312358,55.08694199014904,59.6653811747622,50
