Freq "Sound Power"
20.5078 60.03107047658898
21.9727 61.41143448713299
23.4375 63.83395149270797
24.9023 65.00016412781466
26.3672 65.88903919058714
27.832 67.03889163822754
29.2969 67.84245000977819
30.7617 68.222335809324
32.2266 68.5888901736874
33.6914 69.07029858500319
35.1562 69.54484019497426
36.6211 69.9690012866981
38.0859 70.3881633675362
39.5508 70.77861076340452
41.0156 71.28414440376471
42.4805 71.75319347321587
43.9453 72.20527253196693
45.4102 72.63780309477143
46.875 73.10830227468857
48.3398 73.62327886550429
51.2695 74.66147669711992
52.7344 75.09867722902052
54.1992 75.48507649078185
55.6641 75.91231839591217
58.5938 76.76688295194297
60.0586 77.27005188349509
62.9883 78.30077597735867
64.4531 78.81881183114407
67.3828 79.68264327651796
68.8477 80.08935475203899
71.7773 81.00092988151769
74.707 81.9357190771461
77.6367 82.80049398141335
79.1016 83.19687536739106
82.0312 84.10311216409114
84.9609 85.04423646362427
87.8906 85.90568474551546
90.8203 86.7727669812681
95.2148 88.20161053393318
98.1445 89.11254141580827
101.074 90.01081754597116
105.469 91.11801415531559
108.398 91.81513390694028
112.793 92.45456046371913
117.188 92.68008258263275
120.117 92.70646686162254
124.512 93.10929447890341
128.906 92.77087804869561
133.301 92.12939510398984
139.16 91.66128980195185
143.555 91.11545853010924
147.949 90.69858974204138
153.809 90.22881751776228
159.668 89.75130771269231
165.527 89.68546196721417
171.387 89.78732354450099
177.246 89.46412787996628
183.105 88.85315483552361
188.965 88.57855835734343
196.289 88.45171038498228
203.613 88.06393013545484
210.938 87.46559665544875
218.262 87.21491404065353
225.586 86.81587851606221
232.91 86.35766022193977
241.699 85.58572002135884
250.488 86.59511546578572
259.277 87.0690052816625
268.066 87.25389321928117
276.855 88.06382365866547
287.109 87.90612398045687
297.363 87.41699787591465
307.617 87.82558673690068
319.336 87.45400585375556
329.59 87.80493683166063
341.309 87.49587269756844
353.027 87.24991699240378
366.211 87.35489815031644
379.395 87.9801034051471
392.578 89.03791376717993
405.762 88.43954936378242
420.41 87.72402421779817
435.059 88.07875551357066
451.172 86.98267625295523
465.82 88.2539561210075
483.398 88.64739457433792
499.512 87.81853468107491
517.09 83.417985017522
536.133 78.61505245959067
555.176 79.17711466713922
574.219 80.90771504954022
594.727 82.47169418042378
615.234 84.2992912306843
637.207 84.88030093901105
659.18 85.21971848828375
682.617 85.53491399436732
707.52 86.24254374704302
732.422 86.41819264129253
757.324 85.88001857387337
785.156 83.9564836853207
811.523 83.15501376199934
840.82 84.86918878049812
870.117 84.058620143135
900.879 82.99088206509971
933.105 82.67875650031336
965.332 81.68710001274484
1000.49 82.95323379780635
1035.64 86.64553675341041
1072.27 86.81888561181233
1108.89 86.09160886424169
1148.44 85.59435111177382
1189.45 85.14774995391159
1230.47 84.2510600027143
1274.41 83.842681993778
1319.82 83.25004482521183
1366.7 82.8488451182866
1413.57 82.34431025643607
1463.38 81.22836743664712
1516.11 80.54874766801639
1568.85 80.34799959623007
1624.51 81.45749530647898
1681.64 81.03602382247816
1741.7 81.3087336074431
1803.22 81.7516574571748
1866.21 82.01866817703355
1932.13 82.60169579257126
1999.51 83.61740451198098
2069.82 84.26802682030169
2143.07 83.92804118594988
2219.24 83.72184561883138
2296.88 83.6005731815797
2378.91 83.1011241472561
2462.4 82.006134822853
2548.83 81.1060381789751
2639.65 81.35898133962151
2731.93 81.09611531574825
2828.61 80.52299094584467
2928.22 79.36998253670956
3030.76 79.46629126122092
3137.7 79.85423751337572
3249.02 79.26006222194938
3363.28 79.55689010742314
3481.93 80.11861703807214
3604.98 80.2934863193002
3732.42 81.34373507885535
3864.26 81.25082409979963
4000.49 82.13550027090302
4141.11 82.36415323865062
4287.6 82.73278341423512
4438.48 83.11862561450755
4595.21 82.39834517738579
4756.35 82.52962032211335
4924.8 82.26212279813194
5097.66 82.12742052488476
5277.83 81.73489132547292
5463.87 81.4531928112237
5657.23 80.81353558054013
5856.45 80.13031831782902
6062.99 80.9344607907262
6276.86 81.71853545488636
6498.05 82.36154850801731
6726.56 81.82789063004627
6963.87 80.59764392312667
7209.96 81.47664428708994
7464.84 81.85036177218294
7727.05 81.53273664446489
7999.51 81.26289274662264
8282.23 81.18082327098942
8573.73 81.83676237469345
8876.95 81.98300461321709
9188.96 82.8742184819739
9514.16 83.68052734347141
9849.61 83.90525235173423
10196.8 84.20595357134954
10555.7 83.99207228187935
10927.7 82.15816157333387
11313.0 81.79616076667722
11712.9 82.22542959687993
12126.0 83.7065519349774
12553.7 85.00658598672058
12996.1 85.16587175622496
13454.6 83.81802171117079
13929.2 83.96524489974696
14419.9 85.95352859314197
14928.2 86.56712567746101
15455.6 79.56092647366901
16000.5 71.1872301738331
16564.5 78.04562095726071
17148.9 79.44561930438672
17752.4 69.0222802805272
18379.4 65.39978589635408
19026.9 72.01133054088247
19697.8 73.26786315179329
19999.5 70.50707823542547
