Freq "On Axis"
20.5078 62.53572424242425
21.9727 62.17312424242424
23.4375 62.939124242424256
24.9023 65.74912424242426
26.3672 66.95102424242425
27.832 68.57282424242423
29.2969 70.60822424242427
30.7617 71.96352424242427
32.2266 73.97672424242425
33.6914 75.87132424242425
35.1563 77.43512424242425
36.6211 79.13672424242425
38.0859 80.49572424242425
39.5508 81.98562424242425
41.0156 83.48222424242424
42.4805 84.84142424242425
43.9453 85.79032424242425
45.4102 86.96602424242425
46.875 88.01912424242427
48.3398 88.90732424242425
51.2695 90.56602424242425
52.7344 91.33282424242425
54.1992 92.00762424242426
55.6641 92.61732424242425
58.5938 93.80642424242426
60.0586 94.29452424242425
62.9883 95.23232424242424
64.4531 95.66202424242425
67.3828 96.45042424242425
68.8477 96.82242424242425
71.7773 97.51572424242426
74.707 98.14572424242425
77.6367 98.64002424242425
79.1016 98.87842424242423
82.0313 99.43982424242425
84.9609 99.94392424242425
87.8906 100.17992424242424
90.8203 99.88692424242426
95.2148 101.16292424242427
98.1445 101.00592424242426
101.074 101.11792424242425
105.469 101.21992424242426
108.398 101.29792424242424
112.793 101.53192424242425
117.188 101.38692424242426
120.117 101.57192424242425
124.512 101.36292424242426
128.906 100.95592424242425
133.301 100.69992424242425
139.16 100.44992424242425
143.555 100.27592424242425
147.949 100.06192424242425
153.809 99.96892424242425
159.668 99.75992424242425
165.527 99.52092424242424
171.387 99.17902424242425
177.246 98.99342424242425
183.105 98.65462424242425
188.965 98.51972424242425
196.289 98.47472424242424
203.613 98.22792424242424
210.938 98.09922424242426
218.262 97.98062424242427
225.586 97.81792424242425
232.91 97.74782424242424
241.699 97.56722424242425
250.488 97.45862424242425
259.277 97.24942424242425
268.066 96.94132424242424
276.855 97.21032424242425
287.109 97.59752424242426
297.363 97.55692424242424
307.617 97.55992424242423
319.336 97.33262424242425
329.59 97.55082424242427
341.309 97.22182424242425
353.027 97.52882424242425
366.211 98.21792424242425
379.395 98.47392424242425
392.578 98.16892424242425
405.762 98.03972424242427
420.41 98.50882424242425
435.059 98.23532424242426
451.172 98.72092424242425
465.82 98.48582424242424
483.398 98.45052424242425
499.512 98.19792424242424
517.09 98.19412424242425
536.133 97.70802424242424
555.176 98.53882424242425
574.219 99.14682424242424
594.727 98.72182424242425
615.234 99.79492424242424
637.207 100.05992424242423
659.18 100.36192424242425
682.617 100.32092424242425
707.52 100.94492424242425
732.422 101.24192424242425
757.324 100.66092424242424
785.156 99.46892424242425
811.523 98.73462424242425
840.82 100.31792424242425
870.117 100.35292424242425
900.879 101.29392424242425
933.105 100.73092424242425
965.332 100.51292424242425
1000.49 100.87192424242427
1035.64 101.58892424242426
1072.27 100.95992424242425
1108.89 99.88092424242426
1148.44 99.11142424242425
1189.45 99.04622424242424
1230.47 100.17292424242424
1274.41 100.37392424242425
1319.82 100.10092424242426
1366.7 100.07892424242425
1413.57 99.93092424242425
1463.38 100.11392424242426
1516.11 100.29092424242425
1568.85 100.49292424242425
1624.51 100.26492424242426
1681.64 99.36482424242425
1741.7 99.69392424242425
1803.22 100.46292424242425
1866.21 100.74392424242426
1932.13 100.20792424242426
1999.51 100.82992424242425
2069.82 101.63892424242425
2143.07 101.46392424242426
2219.24 100.41892424242425
2296.88 101.01592424242425
2378.91 101.63392424242427
2462.4 100.40292424242425
2548.83 99.86992424242426
2639.65 100.30692424242424
2731.93 100.45292424242425
2828.61 100.19192424242425
2928.22 100.32292424242425
3030.76 99.68792424242424
3137.7 99.06862424242425
3249.02 97.38062424242425
3363.28 96.83532424242425
3481.93 97.00042424242424
3604.98 98.08222424242426
3732.42 98.42332424242424
3864.26 99.17552424242426
4000.49 99.54192424242423
4141.11 100.02892424242425
4287.6 100.37792424242426
4438.48 101.00892424242427
4595.21 99.63692424242426
4756.35 98.96622424242425
4924.8 98.80102424242425
5097.66 97.96812424242425
5277.83 97.87842424242424
5463.87 97.54752424242425
5657.23 97.02292424242425
5856.45 97.53762424242424
6062.99 97.86082424242424
6276.86 97.69472424242424
6498.05 98.27682424242425
6726.56 98.39182424242425
6963.87 98.43112424242425
7209.96 98.58642424242424
7464.84 98.58162424242424
7727.05 98.62442424242427
7999.51 99.07292424242425
8282.23 99.61692424242425
8573.73 99.89792424242425
8876.95 99.74592424242427
9188.96 99.50092424242425
9514.16 99.37482424242425
9849.61 99.53492424242425
10196.8 99.85092424242426
10555.7 100.01792424242426
10927.7 100.04692424242425
11313.0 99.90492424242424
11712.9 99.74692424242426
12126.0 99.75792424242425
12553.7 99.73892424242423
12996.1 99.48192424242426
13454.6 99.12902424242425
13929.2 98.77032424242425
14419.9 98.34552424242425
14928.2 98.13552424242427
15455.6 98.25562424242425
16000.5 98.31742424242425
16564.5 98.23742424242425
17148.9 98.50702424242425
17752.4 98.78472424242425
18379.4 98.49012424242424
19026.9 97.84332424242423
19697.8 97.43722424242425
19999.5 97.25742424242425
