Freq "Estimated In-Room Response"
22.4 23.372394827193474
23.0 24.89066884622538
23.6 26.358844815650073
24.0 28.38856442617309
25.0 30.17476978335735
25.8 31.715312866554243
26.5 33.13690629158309
27.2 34.98564807730206
28.0 36.65228458680029
29.0 38.11017595320253
30.0 39.59871019586136
30.7 41.32142086280594
31.5 42.83215524574838
32.5 44.19130551394365
33.5 45.89819988737675
34.5 47.39918744070174
35.5 48.779571067570814
36.5 50.32082704751555
37.5 51.74909769792855
38.7 53.08091592708254
40.0 54.456205195133165
41.2 55.72810133649914
42.5 56.94453286279604
43.7 58.137740271798776
45.0 59.24521813974182
46.2 60.36164142168006
47.5 61.3743276389489
48.7 62.39633831276164
50.0 63.35797835474001
51.5 64.27624167425739
53.0 65.13235782301739
54.5 65.93762893621196
56.0 66.70645736172627
58.0 67.48474379369482
60.0 68.22346133733224
61.5 68.95491598897296
63.0 69.63177764819751
65.0 70.30734648473454
67.0 70.90288393456822
69.0 71.45288038771892
71.0 71.9781420716605
73.0 72.45713132350691
75.0 72.89636642796093
77.5 73.26850097914472
80.0 73.58624997587646
82.5 73.90185756221344
85.0 74.21047218643336
87.5 74.50526317205184
90.0 74.77955215658173
92.5 75.02178787215524
95.0 75.29130870717391
97.5 75.52648331708514
100.0 75.76140829148346
103.0 76.0025643355575
106.0 76.21991114274552
109.0 76.4223589053481
112.0 76.64467650179976
115.0 76.83332912750669
118.0 76.97784854375944
122.0 77.17100543925714
125.0 77.30208221338086
128.0 77.40311897055744
132.0 77.506334186203
136.0 77.57713080809695
140.0 77.62319988920468
145.0 77.65189633783633
150.0 77.65771235241534
155.0 77.61563769284382
160.0 77.55888993637039
165.0 77.48439895354808
170.0 77.35499412522213
175.0 77.24521403033152
180.0 77.08404431839372
185.0 76.91878711223272
190.0 76.75158356416478
195.0 76.55615733103848
200.0 76.35895995876706
206.0 76.17453652157144
212.0 75.99510336233782
218.0 75.79915213683232
224.0 75.62462914093447
230.0 75.39572620935512
236.0 75.17668773000652
240.0 74.90917282074184
250.0 74.58042953322823
258.0 74.20526063599345
265.0 73.8588915727426
272.0 73.73153486466454
280.0 73.66178478584673
290.0 73.65297772192615
300.0 73.71922858816173
307.0 73.86531003736032
315.0 74.07157916844857
325.0 74.2869624454193
335.0 74.51682918519725
345.0 74.66243915056359
355.0 74.76605986260653
365.0 74.74186382870163
375.0 74.66017680575081
387.0 74.56167841752865
400.0 74.48306876578444
412.0 74.42092326111786
425.0 74.40312704658162
437.0 74.37194520891364
450.0 74.36601931457457
462.0 74.36553714157903
475.0 74.3639304953977
487.0 74.28632289042771
500.0 74.21800897602888
515.0 74.06225478913352
530.0 73.87812962534544
545.0 73.61978123738454
560.0 73.4115613692774
580.0 73.18203941274288
600.0 73.01974015401156
615.0 72.88189534809014
630.0 72.68217178375444
650.0 72.41653302727123
670.0 71.95632694921623
690.0 71.4944971337767
710.0 71.13684767395337
730.0 70.77562828595138
750.0 70.4921505592361
775.0 70.24729566218542
800.0 70.08242898837217
825.0 70.15560749549844
850.0 70.41032460150946
875.0 70.53929136453216
900.0 70.3817780054964
925.0 69.98474989964703
950.0 69.62592353568301
975.0 69.65792308864373
1000.0 70.10799405774924
1030.0 70.59096891704561
1060.0 70.79730294257351
1090.0 70.91006554943989
1120.0 71.5530497660129
1150.0 73.1081597707004
1180.0 74.50434120657151
1220.0 73.8941080148649
1250.0 72.41364741935264
1280.0 71.98721939317285
1320.0 72.48790146569765
1360.0 72.3251593767268
1400.0 71.18384768172645
1450.0 70.41786533028566
1500.0 70.71566479708568
1550.0 70.44904028420994
1600.0 69.40679894637971
1650.0 68.44657669818291
1700.0 67.91402485365633
1750.0 68.19420547209582
1800.0 68.41053766950714
1850.0 68.07527342555215
1900.0 67.83073351710135
1950.0 67.69363594265475
2000.0 67.62418950641663
2060.0 67.47468807783822
2120.0 67.29187760142402
2180.0 67.80059685911061
2240.0 67.32717674300635
2300.0 66.62828734215834
2360.0 65.77865258908736
2400.0 65.32551479528277
2500.0 65.70595669065082
2580.0 65.88725996239044
2650.0 65.95799440404906
2720.0 65.92919015249637
2800.0 65.66881397853177
2900.0 65.5479903166627
3000.0 65.20056601778951
3070.0 65.32633449021961
3150.0 65.48350370682799
3250.0 65.50768969161804
3350.0 65.52259613247638
3450.0 65.59510659325963
3550.0 65.93428111798555
3650.0 66.47446478198275
3750.0 66.80138403349059
3870.0 66.76411004551314
4000.0 66.71557519985714
4120.0 66.77221416536173
4250.0 67.12546651766192
4370.0 67.30080816198561
4500.0 67.31154757164184
4620.0 67.52737766555562
4750.0 67.63414596980441
4870.0 68.00935930457922
5000.0 68.48417492069991
5150.0 68.69214289725396
5300.0 68.68144465245169
5450.0 68.42920794923002
5600.0 67.71076346962262
5800.0 67.16622837497495
6000.0 67.3309270338606
6150.0 68.29600132801549
6300.0 69.69942437107667
6500.0 70.55892828031548
6700.0 70.61461674803991
6900.0 70.97397426953738
7100.0 71.54419488527265
7300.0 71.42046202369293
7500.0 71.21341548656527
7750.0 71.15849046898022
8000.0 70.5927366683885
8250.0 70.2326489856367
8500.0 70.37087623539533
8750.0 69.95681122049011
9000.0 69.31221547429902
9250.0 68.9855034205787
9500.0 69.57056040368857
9750.0 69.35878784088882
10000.0 69.42144443244868
10300.0 69.8530059868982
10600.0 70.78642251280283
10900.0 71.41755345965262
11200.0 72.15475871341692
11500.0 72.42275948854895
11800.0 73.07474444800496
12200.0 72.94786502338205
12500.0 72.77836109703655
12800.0 72.09632632543699
13200.0 71.73189312579146
13600.0 71.58692226707622
14000.0 71.64416504486046
14500.0 71.02589487890195
15000.0 71.02648857542722
15500.0 70.77209942861326
16000.0 69.10483379782431
16500.0 69.99061740604186
17000.0 69.19088354700568
17500.0 66.52442213199694
18000.0 66.19569071879205
18500.0 66.34201930727745
19000.0 66.07505597570767
19500.0 65.68094233027188
