Freq,Floor Bounce,Ceiling Bounce,Front Wall Bounce,Side Wall Bounce,Rear Wall Bounce,Total Early Reflection
22.4,13.920223103242535,14.609866286723303,14.363085197541153,15.467228316589484,17.803370372967066,15.47514013372438
23.0,14.84935766478273,15.474493510304399,15.263085197541159,16.3845444396772,18.681759310072692,16.369544625961083
23.6,15.649357664782741,16.27449351030438,16.06308519754117,17.161169345124932,19.456422556675506,17.156240969509952
24.0,16.31430637862283,16.874493510304404,16.69147828382367,17.761169345124955,20.02168432568078,17.75816821071834
25.0,16.81430637862283,17.3053180676647,17.204970675233483,18.221909416217358,20.475616215792883,18.225706698736616
25.8,17.114306378622814,17.60531806766471,17.532454020274116,18.540229704852123,20.728362860127334,18.51794800660329
26.5,17.24415774934849,17.705318067664706,17.663085197541164,18.640229704852118,20.81117797258716,18.621476336257018
27.2,17.079777457905692,17.50531806766469,17.463085197541176,18.440229704852158,20.53994717512569,18.40325298564167
28.0,16.47977745790567,16.870717324954086,16.876665949577642,17.81715320522204,19.911177972587154,17.785781400203547
29.0,15.944157749348506,16.302284613960182,16.332454020274156,17.217153205222047,19.277247590847054,17.198579595245405
30.0,17.144157749348523,17.5022846139602,17.532454020274116,18.398735104281542,20.38699913880737,18.36593649176288
30.7,20.944157749348506,21.302284613960182,21.346130745957254,22.135076909741628,24.137427838699722,22.139684293734632
31.5,25.27449351030438,25.568450838054332,25.67463452918082,26.453766384224622,28.366622297793583,26.424980313811062
32.5,28.609866286723303,28.868450838054343,28.974634529180832,29.73507690974165,31.61339511106962,29.710105412254705
33.5,30.94044167945492,31.134351408685035,31.332454020274128,32.05376638422459,33.866622297793555,32.00844556183617
34.5,32.8404416794549,33.06845083805433,33.24613074595726,33.891807204399925,35.68485524638095,33.87900534016143
35.5,34.740441679454904,34.90076749445561,35.07463452918083,35.71025464712571,37.43476177615514,35.693846731470956
36.5,36.4715080078694,36.600767494455624,36.87463452918084,37.44956775128412,39.114404053627254,37.418191627876155
37.5,38.17150800786939,38.30076749445561,38.57463452918083,39.1290510163561,40.72342795438141,39.08734945954487
38.7,39.60690501035458,39.70076749445562,39.974634529180804,40.506958833511476,42.052725718578785,40.4681714535034
40.0,40.67150800786939,40.73358982687998,41.01608174351881,41.48717399212583,42.97285720853833,41.46502213969282
41.2,41.838211298887416,41.86769521305294,42.2160817435188,42.6257694416573,44.06187855487295,42.60475990868082
42.5,44.43821129888744,44.43358982687997,44.75873795327732,45.14493423116792,46.54178119744239,45.1388809772381
43.7,47.73821129888742,47.70076749445562,48.05873795327733,48.40416503127341,49.71911462673532,48.39152335699876
45.0,50.13821129888743,50.100767494455624,50.486514495860945,50.783905206537554,52.01911462673533,50.76571351566781
46.2,51.60306957104251,51.53435140868501,51.88651449586095,52.142600298207896,53.31911462673531,52.14813161714153
47.5,52.838211298887416,52.80076749445561,53.18651449586096,53.38203378418834,54.49061554892134,53.385339889133235
48.7,54.503069571042516,54.43435140868502,54.829460668555924,55.001392116247644,56.020282256320485,54.996865935914826
50.0,56.370014882574765,56.26845083805432,56.71541094484141,56.82111243765536,57.788263118832106,56.82740216353682
51.5,58.40306957104252,58.30228461396018,58.7294606685559,58.80139211624763,59.64920496989444,58.80394895644923
53.0,60.47001488257477,60.3022846139602,60.75742449135815,60.80046051294917,61.59004725232397,60.807303747825074
54.5,62.370014882574765,62.20228461396019,62.7294606685559,62.66074062498237,63.40992796567113,62.69473916566852
56.0,63.97001488257477,63.8022846139602,64.28651449586096,64.2201850554159,64.84588316525847,64.23980653422316
58.0,65.13746771551315,64.9022846139602,65.40065786069425,65.30046051294917,65.87693494826699,65.33579775213651
60.0,66.57001488257477,66.33663575667188,66.85742449135815,66.66074062498234,67.15879668410929,66.7256241527885
61.5,68.57001488257475,68.33663575667187,68.80065786069426,68.60046051294916,69.02761447478755,68.67333358074053
63.0,70.60231994589775,70.33663575667185,70.90065786069425,70.60046051294917,70.92666167565028,70.67884267413852
65.0,72.53746771551315,72.23663575667186,72.80065786069426,72.48064597778591,72.71013332870059,72.55749579989455
67.0,74.40231994589774,74.13663575667186,74.67232492078934,74.32157071745497,74.45102220160733,74.40028495312129
69.0,76.20231994589776,75.87150800786937,76.44313939533782,76.02157071745498,76.10821983296943,76.13357214465707
71.0,77.57001488257477,77.23663575667186,77.84313939533781,77.34260029820793,77.3495843669719,77.47385781987063
73.0,78.47001488257476,78.1053180676647,78.67232492078934,78.18294805437282,78.08106924919234,78.30854394851798
75.0,78.97001488257477,78.57150800786938,79.17232492078932,78.6041650312734,78.41183871239951,78.75511819522737
77.5,79.50231994589775,79.17150800786939,79.77232492078934,79.14630164850179,78.87986292995512,79.30559595211992
80.0,80.07001488257477,79.67150800786938,80.27232492078934,79.62757995317386,79.28508699373741,79.79926792978523
82.5,80.07001488257477,79.67150800786938,80.28684446163055,79.62757995317386,79.17438875977669,79.78306212229606
85.0,79.97001488257476,79.57150800786938,80.21508314243883,79.46952426187775,78.96366410712864,79.65922598505121
87.5,80.10306957104252,79.67150800786938,80.31508314243885,79.53128689490089,78.93747100601585,79.73781918445503
90.0,80.10306957104252,79.67150800786938,80.31508314243885,79.49448290397311,78.79551630716637,79.70749333808305
92.5,80.20306957104252,79.74044167945492,80.41508314243883,79.55226959352626,78.74826045594666,79.76971719983445
95.0,80.60306957104252,80.14044167945491,80.84445718403788,79.8944829039731,79.03771690224909,80.1483291299827
97.5,80.97001488257476,80.47609175449222,81.14445718403786,80.17680320017618,79.24875672728021,80.4534890680489
100.0,81.20306957104252,80.74044167945492,81.3590700361194,80.42070188121242,79.35951821044907,80.67228193281024
103.0,81.60306957104252,81.07609175449221,81.7590700361194,80.72070188121242,79.63365806964882,81.02201777658038
106.0,81.70306957104252,81.2404416794549,81.94445718403787,80.84375958238675,79.64496525990265,81.14706963536854
109.0,81.90306957104252,81.37609175449221,82.05907003611941,80.98505351870533,79.676472557111,81.27890178831612
112.0,82.17150800786938,81.64044167945491,82.3590700361194,81.20830075647112,79.82431852478119,81.52919825875584
115.0,81.77150800786939,81.20690501035459,81.9590700361194,80.76813431484035,79.3255809815962,81.10164395119963
118.0,80.87150800786937,80.30986628672329,81.0590700361194,79.85342828338572,78.3255809815962,80.1863698288808
122.0,80.8030695710425,80.21227178315618,80.9590700361194,79.71313953999233,78.12655621440389,80.07407974642621
125.0,81.87150800786937,81.27609175449221,82.05907003611941,80.75678912644874,79.08993154101275,81.13151081525949
128.0,82.40306957104252,81.8457671943847,82.61704993328868,81.23677387477599,79.53348703177149,81.65724985476697
132.0,81.70306957104252,81.11227178315619,81.91704993328868,80.52043663028579,78.73348703177149,80.93513945401745
136.0,81.27150800786939,80.6760917544922,81.43175513861905,80.08636069648989,78.19269673501417,80.47568568684937
140.0,81.37150800786938,80.74576719438468,81.53175513861908,80.12669501426713,78.1708062444186,80.54419638703268
145.0,81.27150800786939,80.64576719438469,81.53175513861908,80.03276641677856,78.02314861337841,80.46515887045169
150.0,81.63821129888743,81.01227178315618,81.83175513861906,80.33276641677855,78.25028228468904,80.78702657773982
155.0,81.90690501035459,81.2457671943847,82.13175513861906,80.57732080935236,78.45028228468905,81.04437704549733
160.0,81.67150800786939,81.01227178315618,81.9048949937362,80.31715136362975,78.15028228468904,80.80007057394815
165.0,81.27150800786939,80.58219967332305,81.43175513861905,79.84187360004248,77.56655648238242,80.34177837866787
170.0,81.40690501035459,80.68219967332304,81.63175513861907,80.009097646702,77.63974364428852,80.48561988237654
175.0,82.07150800786938,81.38219967332304,82.30489499373621,80.60909764670198,78.22965539189033,81.14069187009753
180.0,82.30690501035458,81.58219967332305,82.50489499373622,80.809097646702,78.36532891857334,81.34296583782249
185.0,82.30690501035458,81.58219967332305,82.57658977321829,80.7941049676779,78.30409511712296,81.35307359836753
190.0,83.10690501035458,82.31916705502753,83.35000634017071,81.54207582704608,79.01373711798593,82.11472831583839
195.0,83.54044167945491,82.71916705502754,83.80489499373621,81.94207582704607,79.36090676058517,82.53269214490258
200.0,83.07609175449221,82.21916705502754,83.35000634017071,81.46781203523977,78.83983315162362,82.05629374799247
206.0,82.87609175449222,82.01916705502754,83.15000634017072,81.23631489701508,78.53596431604925,81.84099777766602
212.0,82.87609175449222,81.98982856673473,83.15000634017072,81.15929007237312,78.41502197448875,81.81036785269711
218.0,82.6760917544922,81.78982856673471,83.01998423401443,80.99130985335837,78.16265268617902,81.63029793709671
224.0,82.6457671943847,81.68982856673472,82.99366590096781,80.89130985335836,78.03161802184206,81.56570872772902
230.0,82.5457671943847,81.58982856673472,82.95000634017075,80.75766281516856,77.83857550318154,81.46756639379028
236.0,82.24576719438468,81.22758719283593,82.62386986096215,80.42745355433874,77.4365065537142,81.1335277085274
240.0,81.98219967332305,80.92758719283593,82.39366590096782,80.15448951060213,77.075814957179,80.86218361436684
250.0,81.98219967332305,80.89897445130924,82.43924275721992,80.12494858827161,76.9644783227288,80.85522938910063
258.0,81.85260953202217,80.69897445130925,82.26528715999552,79.91194105500615,76.6450664661932,80.66932068316412
265.0,81.85260953202217,80.63752777300029,82.26528715999552,79.82703559310904,76.47740810842802,80.62970724374335
272.0,81.75260953202218,80.53752777300026,82.23924275721991,79.72228735290044,76.27200517988076,80.54263355968527
280.0,81.68982856673472,80.4096325668162,82.21363940606881,79.59037146704557,76.01737405846335,80.4524960642668
290.0,82.06096514237183,80.70963256681621,82.61363940606881,79.89133343592059,76.17624885174462,80.79189523333785
300.0,82.4234968506598,81.04898359150842,82.92940676691627,80.19133343592058,76.30012761690816,81.10936918379616
307.0,82.66096514237182,81.22179738688894,83.2136394060688,80.35271843178538,76.28065225964733,81.31969566050174
315.0,82.76096514237182,81.32179738688896,83.32940676691626,80.38218256754128,76.1361269483269,81.39842657916441
325.0,82.76096514237182,81.26194867563765,83.32940676691626,80.35587916121916,75.80709849112876,81.36359071575205
335.0,82.69897445130925,81.16194867563766,83.2600593685791,80.21446101809806,75.38527129479607,81.26000068625562
345.0,82.33257218046558,80.76194867563764,82.90433100962667,79.78885469295305,74.67536969407097,80.86401973072161
355.0,81.83257218046558,80.23546263134682,82.46005936857911,79.28885469295304,73.80980889319156,80.35993915812274
365.0,81.80464502318536,80.13546263134683,82.4351604799582,79.21944779865235,73.38259755200968,80.29561448330391
375.0,81.97082970284298,80.3094224842602,82.6351604799582,79.41944779865236,73.20089048156302,80.4660972343412
387.0,82.20963256681621,80.45062128010365,82.90433100962667,79.6441570031598,73.0428163288831,80.67980140648946
400.0,82.54314826109434,80.75062128010364,83.30433100962668,80.01944779865235,73.05557256402116,81.02528819752544
412.0,82.78219812790054,80.89237898809802,83.60433100962669,80.30910562523084,72.99887738417499,81.26597234926881
425.0,82.45521969308379,80.4672655885961,83.4351604799582,80.07506547612178,72.5131658413449,80.98642276400474
437.0,81.8950645803583,79.78538710465898,82.8796853669198,79.51944779865237,71.71403274193474,80.4006629446603
450.0,81.24293979360189,78.98538710465898,82.36373611801397,78.97506547612178,70.90675709971416,79.78579010573424
462.0,80.88382334167595,78.50497668676807,82.1106896630263,78.67506547612177,70.40596789156626,79.45185273058709
475.0,81.33392832814567,78.72602452356692,82.7106896630263,79.10646781378354,70.74597977343419,79.91648351449179
487.0,82.07584607527146,79.32643297742509,83.58664191481758,79.8921423436035,71.38533664306784,80.69373940043272
500.0,82.59448868932289,79.59780984381857,84.15821708819499,80.36297035804023,71.75083413102266,81.18651496640615
515.0,82.54805664755615,79.37695775614917,84.23443179205896,80.27119168217541,71.57473819410752,81.1552835896932
530.0,82.1361070797735,78.7844476236301,83.91106138014496,79.76212079483687,70.984931623853,80.73670022569675
545.0,81.61395652088274,78.06322504785601,83.35968554741491,78.97294784209741,70.19100187400709,80.12984052763716
560.0,81.09220047151572,77.39472217650471,82.87640057047572,78.23216230427526,69.41816467643676,79.56855389605094
580.0,80.81638770313009,76.92756634145692,82.58147278830732,77.56262293422549,68.84733554594132,79.20004237675923
600.0,80.49562483724392,76.52756634145692,82.21663399781778,76.83898653126438,68.24601649918988,78.79221076106265
615.0,80.09562483724393,76.12756634145691,81.74636972502742,75.98996422077569,67.58443666901432,78.30171343711012
630.0,79.59562483724392,75.67655346032069,81.07755820836576,75.01272032842998,66.79784321003251,77.67487098298739
650.0,79.01638770313008,75.24449659419709,80.3962315366465,74.10853553589052,66.01594084046575,77.0327452165894
670.0,78.69220047151572,75.08230649956842,79.8962315366465,73.55722239022674,65.39430473470222,76.62779985085372
690.0,78.61395652088274,75.1527499421436,79.76475013681102,73.58507757259807,65.05985752465969,76.55513204621592
710.0,78.7694198636673,75.40432912249858,79.96751662947581,74.09844173973934,64.88736073890752,76.77724896707792
730.0,78.99179815677408,75.6527499421436,80.28147278830733,74.64507774907686,64.58431963127474,77.0713582725989
750.0,79.09179815677408,75.68230649956844,80.55378373474547,75.07616962241974,64.04830582347796,77.26652954318158
775.0,79.21395652088273,75.66322504785602,80.87640057047572,75.39492295237854,63.310383476180746,77.47288677065296
800.0,79.49220047151573,75.7947221765047,81.26976085057073,75.6417767605888,62.50264476789489,77.77189451786076
825.0,79.81638770313006,75.90994607707172,81.71467853559537,75.78455980208,61.55092729469894,78.09665852777407
850.0,80.1625132206552,76.1114593810032,82.0643876597268,75.8059224282111,60.510818856609234,78.38484830138282
875.0,80.47523823794751,76.24850588118669,82.42146308291565,75.73622211952434,59.502536112900316,78.65360549936756
900.0,80.74197022557485,76.47168531355223,82.62360108344741,75.51606653933872,58.65378981673811,78.8345330770401
925.0,81.02180052683974,76.62638463906274,82.71913795500015,75.22979159655449,58.08622675283107,78.96006931241457
950.0,81.12180052683973,76.6816538778036,82.75268458216537,74.84718117988966,57.800682437428975,78.98355457221072
975.0,81.16893616304387,76.66718462137125,82.7066916966184,74.37688072328056,57.80950216009319,78.94098126542004
1000.0,81.1493489016972,76.56718462137125,82.54540219268526,73.93838793989022,58.11790486528733,78.81694980764739
1030.0,81.0493489016972,76.46718462137125,82.4046423015725,73.53299208248443,58.662452976415864,78.67964704221046
1060.0,81.00199903162157,76.52638463906274,82.22545872374144,73.31971488198849,59.49187523846453,78.57564001222542
1090.0,81.04197022557484,76.77168531355224,82.09917364584663,73.38431895659446,60.42204223874869,78.56992181396834
1120.0,81.29220047151571,77.33288092656521,82.05955825135796,73.7233492914366,61.28975422697842,78.74316867056022
1150.0,81.6254512340871,77.94273297424513,82.10092952448638,74.30901487739476,62.20170334613013,79.01469202761848
1180.0,81.98573781157954,78.55905592381313,82.19059903313652,74.86758433819065,63.09804245734546,79.32521789093894
1220.0,82.26803106656234,78.94273297424512,82.19064436625222,75.28781281175903,63.91664379005171,79.53108292728882
1250.0,82.40265313251615,79.0586096117203,82.19064436625222,75.39957484207525,64.6066184070363,79.61476745249205
1280.0,82.32699787697726,78.96400119283412,82.14462258558768,75.2332251859608,65.14530525017041,79.54390855048139
1320.0,82.17872996753789,78.61755713588667,82.01912395882263,75.01404473661623,65.50381878291313,79.36865613734885
1360.0,81.76226919657725,78.21145938100321,81.87710142937743,74.89157151753943,65.61577584287328,79.08318759199875
1400.0,81.36226919657724,77.92756634145692,81.65112799184645,74.98003113194123,65.56024717484146,78.81073626140939
1450.0,80.98573781157955,77.7948466445546,81.51319950332297,75.12270837748837,65.36750445792724,78.61317556914543
1500.0,80.86803106656234,77.7948466445546,81.53766362204877,75.11996194322174,65.10383476969815,78.57983948878577
1550.0,80.76803106656234,77.71378996755591,81.6446225855877,74.82324301037923,64.61440537643837,78.54559012519874
1600.0,80.58573781157955,77.56620989389216,81.8420509606742,74.34210347628918,63.90922021422206,78.50037160549431
1650.0,80.07106744273918,77.35295536787778,81.94237649569413,73.82163672370537,62.990576577477555,78.30603120898003
1700.0,79.08538710465898,77.03752777300028,81.92509554380021,73.38593740710454,62.06331564711252,77.93452291526847
1750.0,77.74611403139875,76.64935766478271,81.76962488079582,72.97890660973604,61.38739424681067,77.43945017557596
1800.0,76.58407681298945,76.25768127821954,81.56962488079583,72.61932619794413,61.07924659996975,77.0050063590183
1850.0,76.16194867563766,75.71852635130014,81.33560461189454,72.23726284753104,61.12413595406075,76.67782881413243
1900.0,76.21867994149332,74.73342548668361,81.09355725203235,71.6537800486778,61.28152640328442,76.35922773010924
1950.0,76.4105569656426,73.31595200332335,80.84806940475144,71.1398059125029,61.230137630993056,76.04461968362781
2000.0,76.72854947575144,71.7392575253357,80.73820081422197,71.1514922933398,60.89062583417349,75.90616542188133
2060.0,76.89466814462868,70.43143825467693,80.66076284939064,71.60093384299776,60.38794088461178,75.8420957875171
2120.0,76.72611926252661,69.55289390570607,80.38586254489637,71.56547184507289,59.73480943930372,75.57866888179797
2180.0,76.26882143514852,68.97597600675884,79.99939882174344,70.96013879426648,59.02415502191434,75.14578074578824
2240.0,76.09898600207458,68.77737589849775,79.9495394207411,70.67708911493324,58.774227915851725,75.03956614309912
2300.0,76.48859177923461,69.08447915322583,80.45326979616806,71.3060025975256,59.13644403086562,75.51399913757317
2360.0,76.80996605888053,69.23761753949296,80.9191527155626,72.0850400297895,59.297080463117254,75.95378254686187
2400.0,76.82002361533638,69.37710466008849,81.02933685627114,72.47062585489651,58.47016198130365,76.06080029686262
2500.0,76.96160454713643,70.23788730291392,80.95909081887163,72.43596933226772,56.82891040697564,76.08434501873948
2580.0,77.1040939473306,71.33268615537793,80.80788249492196,72.05745554536878,55.22739182166174,76.05873946141777
2650.0,77.2416724010325,72.42758719283592,80.73323299332911,71.72177938581629,55.16094333678146,76.1079077677114
2720.0,77.52207120098842,73.3501692307022,81.17710142937744,71.83041420196199,56.132676017506014,76.53084238403643
2800.0,77.89346852360754,73.97567604030067,81.7576661350632,72.168036004588,56.788062493185606,77.04810575248868
2900.0,78.16210102616272,74.14214978057116,82.1522638825425,72.3453647464932,56.97029899512566,77.37594906974093
3000.0,78.26764836244455,73.92963782068198,82.15653165662421,72.26306034534046,56.99368758289907,77.37934417934026
3070.0,78.3014648093739,73.34882433806492,81.97312289288453,72.03614007335707,57.71924383855114,77.2154150444929
3150.0,78.28835946822157,72.63907858744408,81.68078284748019,71.54844207043614,58.91957490489426,76.9567457164249
3250.0,78.16226611626816,72.12413245863547,81.45011551896026,70.99488796233607,59.48968981455383,76.71932217670275
