Freq "Floor Bounce"
22.4 13.920223103242506
23.0 14.84935766478273
23.6 15.649357664782713
24.0 16.31430637862283
25.0 16.814306378622803
25.8 17.114306378622814
26.5 17.244157749348545
27.2 17.079777457905664
28.0 16.479777457905698
29.0 15.944157749348506
30.0 17.144157749348523
30.7 20.944157749348506
31.5 25.27449351030441
32.5 28.609866286723275
33.5 30.940441679454892
34.5 32.8404416794549
35.5 34.740441679454904
36.5 36.471508007869375
37.5 38.17150800786939
38.7 39.60690501035458
40.0 40.67150800786939
41.2 41.838211298887416
42.5 44.43821129888744
43.7 47.73821129888742
45.0 50.13821129888743
46.2 51.60306957104251
47.5 52.838211298887416
48.7 54.503069571042516
50.0 56.370014882574765
51.5 58.40306957104252
53.0 60.47001488257476
54.5 62.370014882574765
56.0 63.97001488257477
58.0 65.13746771551314
60.0 66.57001488257475
61.5 68.57001488257477
63.0 70.60231994589775
65.0 72.53746771551316
67.0 74.40231994589774
69.0 76.20231994589774
71.0 77.57001488257477
73.0 78.47001488257477
75.0 78.97001488257477
77.5 79.50231994589775
80.0 80.07001488257477
82.5 80.07001488257477
85.0 79.97001488257477
87.5 80.10306957104252
90.0 80.10306957104252
92.5 80.20306957104253
95.0 80.60306957104251
97.5 80.97001488257477
100.0 81.20306957104252
103.0 81.60306957104251
106.0 81.70306957104253
109.0 81.90306957104252
112.0 82.17150800786939
115.0 81.77150800786937
118.0 80.87150800786938
122.0 80.80306957104251
125.0 81.87150800786938
128.0 82.40306957104252
132.0 81.70306957104253
136.0 81.27150800786939
140.0 81.37150800786937
145.0 81.27150800786939
150.0 81.63821129888743
155.0 81.90690501035459
160.0 81.67150800786938
165.0 81.27150800786939
170.0 81.40690501035459
175.0 82.07150800786937
180.0 82.30690501035458
185.0 82.30690501035458
190.0 83.10690501035458
195.0 83.5404416794549
200.0 83.07609175449221
206.0 82.87609175449221
212.0 82.87609175449221
218.0 82.6760917544922
224.0 82.64576719438469
230.0 82.5457671943847
236.0 82.24576719438468
240.0 81.98219967332304
250.0 81.98219967332304
258.0 81.85260953202219
265.0 81.85260953202219
272.0 81.75260953202216
280.0 81.68982856673472
290.0 82.06096514237183
300.0 82.42349685065979
307.0 82.66096514237182
315.0 82.76096514237183
325.0 82.76096514237183
335.0 82.69897445130925
345.0 82.33257218046558
355.0 81.83257218046558
365.0 81.80464502318537
375.0 81.97082970284299
387.0 82.2096325668162
400.0 82.54314826109436
412.0 82.78219812790057
425.0 82.45521969308379
437.0 81.89506458035831
450.0 81.2429397936019
462.0 80.88382334167595
475.0 81.33392832814567
487.0 82.07584607527144
500.0 82.5944886893229
515.0 82.54805664755614
530.0 82.1361070797735
545.0 81.61395652088274
560.0 81.09220047151572
580.0 80.81638770313008
600.0 80.49562483724392
615.0 80.09562483724392
630.0 79.59562483724393
650.0 79.01638770313008
670.0 78.69220047151572
690.0 78.61395652088274
710.0 78.76941986366728
730.0 78.99179815677408
750.0 79.09179815677408
775.0 79.21395652088275
800.0 79.49220047151572
825.0 79.81638770313008
850.0 80.16251322065519
875.0 80.4752382379475
900.0 80.74197022557485
925.0 81.02180052683973
950.0 81.12180052683972
975.0 81.16893616304385
1000.0 81.14934890169721
1030.0 81.0493489016972
1060.0 81.00199903162155
1090.0 81.04197022557483
1120.0 81.29220047151573
1150.0 81.6254512340871
1180.0 81.98573781157955
1220.0 82.26803106656234
1250.0 82.40265313251615
1280.0 82.32699787697726
1320.0 82.17872996753789
1360.0 81.76226919657725
1400.0 81.36226919657724
1450.0 80.98573781157955
1500.0 80.86803106656234
1550.0 80.76803106656234
1600.0 80.58573781157955
1650.0 80.07106744273918
1700.0 79.08538710465899
1750.0 77.74611403139875
1800.0 76.58407681298944
1850.0 76.16194867563766
1900.0 76.2186799414933
1950.0 76.41055696564261
2000.0 76.72854947575142
2060.0 76.8946681446287
2120.0 76.7261192625266
2180.0 76.26882143514852
2240.0 76.09898600207458
2300.0 76.4885917792346
2360.0 76.80996605888055
2400.0 76.82002361533638
2500.0 76.96160454713643
2580.0 77.10409394733058
2650.0 77.24167240103252
2720.0 77.52207120098842
2800.0 77.89346852360754
2900.0 78.1621010261627
3000.0 78.26764836244455
3070.0 78.30146480937388
3150.0 78.28835946822156
3250.0 78.16226611626817
3350.0 77.98583171242583
3450.0 77.68917592295983
3550.0 77.58246887516232
3650.0 77.78936069103892
3750.0 78.31987670385897
3870.0 78.99138540383123
4000.0 79.53669399809316
4120.0 79.61832710287032
4250.0 79.08917592295983
4370.0 78.10222301168453
4500.0 77.20055227763726
4620.0 76.93635504891597
4750.0 77.13268757119693
4870.0 77.12240726008676
5000.0 77.09441444972205
5150.0 77.2524231134238
5300.0 77.39898600207458
5450.0 77.4680110708392
5600.0 77.47918907608377
5800.0 77.62413245863547
6000.0 77.71814364711209
6150.0 77.81330886278798
6300.0 77.74101601652292
6500.0 77.26435270902095
6700.0 76.66610579770341
6900.0 76.40879341872709
7100.0 76.84321526348381
7300.0 77.79224640773785
7500.0 78.78155097500955
7750.0 79.30669030042277
8000.0 79.11688630006817
8250.0 78.77985234006252
8500.0 78.89996104206953
8750.0 78.92068825021472
9000.0 78.93268757119691
9250.0 78.98787716280523
9500.0 79.10956131030868
9750.0 79.20316376986722
10000.0 79.16885082383816
10300.0 79.45858209721455
10600.0 80.0990151873486
10900.0 80.48155097500955
11200.0 80.8400040429633
11500.0 81.07937331174563
11800.0 80.22750889663556
12200.0 78.79313369209547
12500.0 78.30036736655676
12800.0 77.81798844377296
13200.0 75.96915788647944
13600.0 74.62181948028218
14000.0 75.05254418009572
14500.0 77.80142935009356
15000.0 79.26033522812085
15500.0 77.41813904149157
16000.0 75.16375912932898
16500.0 76.17186175887043
17000.0 78.65863630136403
17500.0 79.177310267439
18000.0 76.38605330394488
18500.0 74.40113590967529
19000.0 73.44347039029353
19500.0 71.07584966904317
