Freq "Listening Window"
22.4 51.697256519264926
23.0 51.66237615275671
23.6 51.585298107052296
24.0 51.50985516286835
25.0 51.40262387365701
25.8 51.34676341215666
26.5 51.16947597586545
27.2 50.89307111207427
28.0 50.22720321420357
29.0 48.92046293991734
30.0 47.36510987806767
30.7 45.591151845933126
31.5 42.96854704355377
32.5 41.53043392411496
33.5 45.47394200391827
34.5 49.64874827537864
35.5 53.144390630497725
36.5 56.62860668599484
37.5 59.39273306055287
38.7 61.79077385642435
40.0 63.912495473354284
41.2 65.85660314969002
42.5 67.56768347817138
43.7 69.53536100122722
45.0 71.24701964202876
46.2 72.54701964202876
47.5 73.99053496374991
48.7 75.5130058166541
50.0 76.5905349637499
51.5 77.7905349637499
53.0 78.95660314969003
54.5 79.8015232095018
56.0 80.4343573213356
58.0 81.22293110248063
60.0 82.03409756292211
61.5 82.67797591781378
63.0 83.12293110248063
65.0 83.61173585711585
67.0 84.22319152961714
69.0 84.72319152961713
71.0 85.32319152961713
73.0 85.77875330279001
75.0 86.24498807390717
77.5 86.78977733405313
80.0 87.44498807390717
82.5 87.98977733405313
85.0 88.24498807390717
87.5 88.35662093398625
90.0 88.26770121715172
92.5 88.09056469391147
95.0 87.82371840225859
97.5 87.51383678863253
100.0 87.21383678863252
103.0 86.91383678863252
106.0 86.64681398573114
109.0 86.34681398573116
112.0 86.1031294147389
115.0 85.81510613405683
118.0 85.52655293170547
122.0 85.22655293170547
125.0 84.84988614784304
128.0 84.50537719332613
132.0 84.15136920400447
136.0 83.9730251377091
140.0 83.92647644578221
145.0 84.01529034765105
150.0 84.1928253731937
155.0 84.39129829693562
160.0 84.56947013379607
165.0 84.71503484445977
170.0 84.75787168620131
175.0 84.75787168620131
180.0 84.69002197288079
185.0 84.54574765970297
190.0 84.30204066493431
195.0 84.00204066493431
200.0 83.65838274236518
206.0 83.31300581665408
212.0 82.967941235565
218.0 82.6236887632722
224.0 82.32593872146717
230.0 82.17265892156055
236.0 82.23367803280894
240.0 82.47204734208059
250.0 82.82755292540489
258.0 83.36011111774506
265.0 83.85968836933444
272.0 84.43640789917268
280.0 85.01242190683813
290.0 85.49773096121271
300.0 85.90689297146231
307.0 86.2725798929281
315.0 86.51508789904905
325.0 86.7807981234771
335.0 86.94675460676936
345.0 87.00458656127427
355.0 86.91935920965311
365.0 86.70387953821579
375.0 86.52628162836044
387.0 86.44514939715441
400.0 86.38747997941911
412.0 86.1777974570182
425.0 85.76016001642685
437.0 85.02251940262259
450.0 84.09979707362837
462.0 83.31468599344566
475.0 82.85249305961412
487.0 82.78007644738354
500.0 83.06145444580929
515.0 83.4447905129181
530.0 83.71404206811408
545.0 83.90507967107197
560.0 83.95167167341222
580.0 83.92105595271434
600.0 83.82105595271435
615.0 83.6890057992765
630.0 83.74791191195025
650.0 84.07548232501999
670.0 84.61960187042872
690.0 85.2793301859314
710.0 85.75204238738894
730.0 85.93248556444999
750.0 85.8738036854333
775.0 85.48095250487019
800.0 84.93217000698044
825.0 84.3214288131613
850.0 83.59758354483881
875.0 82.95350052360155
900.0 82.56020008293976
925.0 82.3405643061118
950.0 82.53009879070011
975.0 83.04603951954856
1000.0 83.50995208105505
1030.0 83.9234333114444
1060.0 84.2211782704322
1090.0 84.34296368531878
1120.0 84.44250285956717
1150.0 84.55775984301005
1180.0 84.57374141115339
1220.0 84.51847484184465
1250.0 84.54195207633238
1280.0 84.64022125726318
1320.0 84.73612000624578
1360.0 84.7821044565401
1400.0 84.64625376324597
1450.0 84.43845996146196
1500.0 84.23250470533476
1550.0 84.08044987608756
1600.0 84.11557474881042
1650.0 84.26745769217982
1700.0 84.6582812109701
1750.0 85.2237019938284
1800.0 85.85069754275125
1850.0 86.4449105269097
1900.0 86.84982219923934
1950.0 87.04884013340462
2000.0 86.98898061586281
2060.0 86.64927142327231
2120.0 86.08785395302012
2180.0 85.29787304988706
2240.0 84.54170731379922
2300.0 83.94369652545265
2360.0 83.52478289875467
2400.0 83.28151985334217
2500.0 83.23521839876003
2580.0 83.1792094765826
2650.0 83.15008523515839
2720.0 82.98038454778333
2800.0 82.8381064925627
2900.0 82.66012145456546
3000.0 82.48781961499313
3070.0 82.44253653388813
3150.0 82.43141959202647
3250.0 82.52628385668847
3350.0 82.82742679551197
3450.0 83.20521783067984
3550.0 83.68140521820985
3650.0 84.16989174717126
3750.0 84.52421467408091
3870.0 84.7240067129737
4000.0 84.74047656532066
4120.0 84.51131137897383
4250.0 84.19387612747018
4370.0 83.90651650094726
4500.0 83.67145587942036
4620.0 83.706386141926
4750.0 83.95613475579343
4870.0 84.19268135031818
5000.0 84.49993899537962
5150.0 84.79073042506138
5300.0 84.85901968272411
5450.0 84.90684693722298
5600.0 84.9356266665141
5800.0 84.90854341602807
6000.0 84.92899839283174
6150.0 84.82162682973798
6300.0 84.59204254033236
6500.0 84.26058349399223
6700.0 83.81459955891424
6900.0 83.39563302787455
7100.0 83.06942625411779
7300.0 82.91917717809457
7500.0 82.89222308377487
7750.0 82.99947471307884
8000.0 83.20186458847559
8250.0 83.5126230974333
8500.0 83.81501186288824
8750.0 84.08014522553255
9000.0 84.2199535984686
9250.0 84.14701398687416
9500.0 83.90142457721662
9750.0 83.63491985695202
10000.0 83.35393054655219
10300.0 83.28497761235397
10600.0 83.26063609279501
10900.0 83.17284758090598
11200.0 82.62026243399039
11500.0 81.43123205726494
11800.0 79.73022643243502
12200.0 78.23140502414219
12500.0 77.53938081185805
12800.0 78.06148479543933
13200.0 79.59309743037906
13600.0 81.31438549013619
14000.0 82.63739326875286
14500.0 83.45203704762895
15000.0 83.68644537473278
15500.0 83.42413899266825
16000.0 82.78603737841553
16500.0 81.84327581637835
17000.0 80.40000655937259
17500.0 78.64118885271176
18000.0 76.65808578375555
18500.0 74.52488754432738
19000.0 72.57080659026609
19500.0 71.05832181831136
