Freq "On Axis"
22.4 50.689873417721515
23.0 50.689873417721515
23.6 50.689873417721515
24.0 50.689873417721515
25.0 50.58987341772152
25.8 50.58987341772152
26.5 50.4898734177215
27.2 50.28987341772151
28.0 49.78987341772151
29.0 48.689873417721515
30.0 47.4898734177215
30.7 46.189873417721515
31.5 44.58987341772152
32.5 43.78987341772151
33.5 46.28987341772151
34.5 49.4898734177215
35.5 52.78987341772151
36.5 56.189873417721515
37.5 58.9898734177215
38.7 61.4898734177215
40.0 63.689873417721515
41.2 65.68987341772151
42.5 67.3898734177215
43.7 69.38987341772152
45.0 71.18987341772151
46.2 72.48987341772151
47.5 73.88987341772152
48.7 75.38987341772152
50.0 76.48987341772151
51.5 77.68987341772151
53.0 78.78987341772151
54.5 79.58987341772152
56.0 80.28987341772151
58.0 80.9898734177215
60.0 81.78987341772151
61.5 82.3898734177215
63.0 82.88987341772152
65.0 83.28987341772151
67.0 83.88987341772152
69.0 84.38987341772152
71.0 84.98987341772151
73.0 85.38987341772152
75.0 85.88987341772153
77.5 86.38987341772152
80.0 87.08987341772152
82.5 87.58987341772152
85.0 87.88987341772152
87.5 87.98987341772151
90.0 87.88987341772152
92.5 87.78987341772151
95.0 87.48987341772151
97.5 87.18987341772151
100.0 86.88987341772152
103.0 86.58987341772152
106.0 86.38987341772152
109.0 86.08987341772152
112.0 85.88987341772153
115.0 85.58987341772152
118.0 85.38987341772152
122.0 85.08987341772152
125.0 84.78987341772151
128.0 84.38987341772152
132.0 84.08987341772152
136.0 83.88987341772152
140.0 83.78987341772151
145.0 83.88987341772152
150.0 83.98987341772151
155.0 84.18987341772151
160.0 84.28987341772151
165.0 84.38987341772152
170.0 84.48987341772153
175.0 84.48987341772153
180.0 84.38987341772152
185.0 84.28987341772151
190.0 84.08987341772152
195.0 83.78987341772151
200.0 83.4898734177215
206.0 83.08987341772152
212.0 82.78987341772151
218.0 82.3898734177215
224.0 82.08987341772152
230.0 81.78987341772151
236.0 81.78987341772151
240.0 81.98987341772153
250.0 82.3898734177215
258.0 82.88987341772152
265.0 83.4898734177215
272.0 84.08987341772152
280.0 84.78987341772151
290.0 85.18987341772151
300.0 85.58987341772152
307.0 85.88987341772153
315.0 86.08987341772152
325.0 86.38987341772152
335.0 86.68987341772151
345.0 86.88987341772152
355.0 86.88987341772152
365.0 86.88987341772152
375.0 86.68987341772151
387.0 86.58987341772152
400.0 86.48987341772151
412.0 86.28987341772151
425.0 85.9898734177215
437.0 85.38987341772152
450.0 84.58987341772152
462.0 83.88987341772152
475.0 83.28987341772151
487.0 83.08987341772152
500.0 83.28987341772151
515.0 83.78987341772151
530.0 84.18987341772151
545.0 84.48987341772153
560.0 84.68987341772151
580.0 84.78987341772151
600.0 84.68987341772151
615.0 84.48987341772153
630.0 84.28987341772151
650.0 84.08987341772152
670.0 84.08987341772152
690.0 84.38987341772152
710.0 84.68987341772151
730.0 85.08987341772152
750.0 85.38987341772152
775.0 85.58987341772152
800.0 85.48987341772151
825.0 85.38987341772152
850.0 84.98987341772151
875.0 84.38987341772152
900.0 83.78987341772151
925.0 83.08987341772152
950.0 82.3898734177215
975.0 82.08987341772152
1000.0 82.18987341772151
1030.0 82.78987341772151
1060.0 83.68987341772151
1090.0 84.68987341772151
1120.0 85.28987341772151
1150.0 85.88987341772153
1180.0 85.9898734177215
1220.0 85.68987341772151
1250.0 85.18987341772151
1280.0 84.58987341772152
1320.0 84.08987341772152
1360.0 83.98987341772151
1400.0 84.08987341772152
1450.0 84.38987341772152
1500.0 84.68987341772151
1550.0 84.8898734177215
1600.0 84.78987341772151
1650.0 84.48987341772153
1700.0 84.28987341772151
1750.0 84.48987341772153
1800.0 84.98987341772151
1850.0 85.88987341772153
1900.0 86.78987341772151
1950.0 87.3898734177215
2000.0 87.3898734177215
2060.0 86.88987341772152
2120.0 85.9898734177215
2180.0 85.18987341772151
2240.0 84.68987341772151
2300.0 84.48987341772153
2360.0 84.38987341772152
2400.0 84.08987341772152
2500.0 83.78987341772151
2580.0 83.58987341772152
2650.0 83.58987341772152
2720.0 83.68987341772151
2800.0 83.78987341772151
2900.0 83.78987341772151
3000.0 83.68987341772151
3070.0 83.78987341772151
3150.0 83.88987341772152
3250.0 83.98987341772151
3350.0 84.08987341772152
3450.0 84.18987341772151
3550.0 84.48987341772153
3650.0 84.78987341772151
3750.0 84.8898734177215
3870.0 84.8898734177215
4000.0 84.68987341772151
4120.0 84.18987341772151
4250.0 83.68987341772151
4370.0 83.38987341772153
4500.0 83.28987341772151
4620.0 83.4898734177215
4750.0 83.88987341772152
4870.0 84.18987341772151
5000.0 84.38987341772152
5150.0 84.68987341772151
5300.0 84.68987341772151
5450.0 84.78987341772151
5600.0 84.98987341772151
5800.0 85.08987341772152
6000.0 85.28987341772151
6150.0 85.28987341772151
6300.0 85.08987341772152
6500.0 84.68987341772151
6700.0 84.18987341772151
6900.0 83.78987341772151
7100.0 83.58987341772152
7300.0 83.58987341772152
7500.0 83.78987341772151
7750.0 83.88987341772152
8000.0 83.88987341772152
8250.0 83.98987341772151
8500.0 83.98987341772151
8750.0 84.18987341772151
9000.0 84.38987341772152
9250.0 84.48987341772153
9500.0 84.48987341772153
9750.0 84.18987341772151
10000.0 83.88987341772152
10300.0 83.68987341772151
10600.0 83.68987341772151
10900.0 83.78987341772151
11200.0 83.28987341772151
11500.0 81.88987341772152
11800.0 79.78987341772151
12200.0 77.68987341772151
12500.0 76.68987341772151
12800.0 77.3898734177215
13200.0 79.38987341772152
13600.0 81.58987341772152
14000.0 83.28987341772151
14500.0 84.48987341772153
15000.0 84.98987341772151
15500.0 85.08987341772152
16000.0 84.48987341772153
16500.0 83.38987341772153
17000.0 81.78987341772151
17500.0 79.8898734177215
18000.0 77.88987341772152
18500.0 75.88987341772153
19000.0 73.98987341772151
19500.0 72.68987341772151
