Freq,On Axis,Listening Window,Sound Power,Early Reflections,Early Reflections DI,Sound Power DI,DI offset
22.4,41.79999999999998,41.77365410819712,40.62238307591579,41.111529378858705,40.662124729338416,41.15127103228133,40
23.0,43.0,43.03417670498061,41.863556563941614,42.36692852243675,40.66724818254386,41.170620141038995,40
23.6,44.20000000000002,44.265571994379144,43.10653311142343,43.61712882245834,40.6484431719208,41.15903888295571,40
24.0,45.5,45.496124075812304,44.33496237426945,44.857058131883235,40.63906594392907,41.16116170154285,40
25.0,46.70000000000002,46.74980511618088,45.55683211516353,46.096228100985286,40.653577015195594,41.19297300101735,40
25.8,47.900000000000006,47.97072358877017,46.75408448315736,47.30950644978151,40.66121713898866,41.21663910561281,40
26.5,49.099999999999994,49.13637640049279,47.941328794605425,48.509508019232754,40.62686838126004,41.19504760588737,40
27.2,50.29999999999998,50.31402618815645,49.09890791308126,49.67883513917727,40.63519104897918,41.215118275075184,40
28.0,51.400000000000006,51.46923593171053,50.26073659127354,50.84828742348313,40.6209485082274,41.20849934043699,40
29.0,52.599999999999994,52.625511518350464,51.40765289048332,52.00828393017986,40.61722758817061,41.217858627867145,40
30.0,53.70000000000002,53.74680177910514,52.52521927871385,53.12653686891892,40.62026491018622,41.22158250039129,40
30.7,54.79999999999998,54.85790711047278,53.61860296667223,54.22521008774564,40.63269702272714,41.23930414380055,40
31.5,56.0,55.91302337147599,54.697891310006156,55.304767215415495,40.60825615606049,41.21513206146983,40
32.5,57.0,56.9802899678491,55.762511121777095,56.37682542975375,40.60346453809535,41.21777884607201,40
33.5,58.099999999999994,58.035384377171,56.79773712597307,57.40569970533517,40.62968467183583,41.23764725119793,40
34.5,59.099999999999994,59.012507223041155,57.788317961602715,58.37801267742795,40.63449454561321,41.22418926143844,40
35.5,60.099999999999994,59.99003378352644,58.75951410225187,59.347475320240235,40.64255846328621,41.23051968127457,40
36.5,61.0,60.91303539338648,59.71488370299525,60.3038944523676,40.60914094101888,41.19815169039123,40
37.5,62.0,61.846277699607015,60.63989356652314,61.225774695895126,40.62050300371189,41.20638413308387,40
38.7,62.900000000000006,62.70231994589774,61.52269731782242,62.09533826566714,40.606981680230604,41.17962262807532,40
40.0,63.7,63.569241797058254,62.375691300679335,62.94826615468125,40.620975642377005,41.19355049637892,40
41.2,64.5,64.34833265439909,63.17854704932098,63.732178453406775,40.61615420099231,41.169785605078104,40
42.5,65.30000000000001,65.11609132694109,63.94984492999474,64.49642444118084,40.61966688576025,41.16624639694635,40
43.7,66.0,65.85258402083215,64.67826960779502,65.21586790780967,40.63671611302249,41.17431441303714,40
45.0,66.70000000000002,66.55258402083214,65.37362574111174,65.9081874822052,40.64439653862695,41.178958279720405,40
46.2,67.4,67.16554773527454,66.0158334919153,66.53811436390859,40.62743337136595,41.14971424335924,40
47.5,68.0,67.78115545657181,66.61909261013822,67.14008668617916,40.64106877039265,41.162062846433585,40
48.7,68.5,68.35876517490023,67.18941499593404,67.70876658391133,40.6499985909889,41.169350178966184,40
50.0,69.0,68.8612030065581,67.71194037583192,68.22255742636969,40.63864558018841,41.149262630726184,40
51.5,69.5,69.33777585397881,68.19202426587982,68.70601473860663,40.631761115372186,41.14575158809899,40
53.0,69.9,69.79370316603246,68.63144500452853,69.14322008586895,40.65048308016351,41.16225816150393,40
54.5,70.30000000000001,70.25935515868413,69.0593061450777,69.5860854698216,40.67326968886253,41.20004901360643,40
56.0,70.69999999999999,70.6795319607565,69.48790948409612,70.01759913938116,40.661932821375345,41.191622476660385,40
58.0,71.1,71.06820809693792,69.87711956876353,70.41030431961185,40.65790377732607,41.19108852817439,40
60.0,71.5,71.47662949297646,70.29929168822294,70.83970515028159,40.63692434269487,41.17733780475352,40
61.5,71.9,71.95313166861521,70.73002054046607,71.28560995817492,40.6675217104403,41.22311112814914,40
63.0,72.4,72.40779742421063,71.18163828323438,71.74545297373612,40.66234445047451,41.22615914097625,40
65.0,72.80000000000001,72.91701268650758,71.67477695954474,72.25535594349776,40.661656743009814,41.24223572696283,40
67.0,73.4,73.45073636470961,72.21180054629689,72.786648812435,40.66408755227461,41.23893581841273,40
69.0,73.9,74.03812977702312,72.77368281787162,73.37187325429905,40.66625652272407,41.2644469591515,40
71.0,74.5,74.58228780986741,73.35707790101276,73.9428176574435,40.63947015242391,41.22520990885465,40
73.0,75.1,75.14829727672536,73.91537464610796,74.5141321039515,40.63416517277386,41.232922630617395,40
75.0,75.6,75.69256854488452,74.44516983289087,75.0375119019309,40.655056642953625,41.247398711993654,40
77.5,76.2,76.15711408425366,74.94006580435843,75.52493958781692,40.63217449643675,41.21704827989524,40
80.0,76.6,76.56845083805433,75.36678375996891,75.94396837166447,40.624482466389864,41.20166707808542,40
82.5,77.0,76.95660314969004,75.73356117842289,76.31336679843403,40.64323635125601,41.22304197126715,40
85.0,77.4,77.26794123556499,76.06218112159719,76.63845180504859,40.6294894305164,41.2057601139678,40
87.5,77.7,77.59053496374992,76.35560084178664,76.93448253986215,40.65605242388777,41.23493412196328,40
90.0,78.0,77.9130058166541,76.64530787989116,77.2354472447706,40.67755857188351,41.26769793676294,40
92.5,78.4,78.2573843694654,76.95915864014682,77.55779952981945,40.69958483964595,41.298225729318574,40
95.0,78.8,78.63614605110727,77.28575335410886,77.91432763266207,40.72181841844521,41.35039269699841,40
97.5,79.20000000000002,79.03614605110728,77.61012611763913,78.2611746723287,40.774971378778574,41.426019933468154,40
100.0,79.5,79.38002695526929,77.90205654725753,78.58108538943569,40.7989415658336,41.47797040801176,40
103.0,79.8,79.63614605110729,78.09763581861476,78.81020000323323,40.825946047874055,41.53851023249253,40
106.0,79.9,79.80204066493431,78.19036422035123,78.94353230976445,40.85850835516986,41.61167644458308,40
109.0,80.0,79.88102013714312,78.19287481396259,78.98898323079982,40.89203690634331,41.688145323180535,40
112.0,80.1,79.92445814420117,78.16855401422463,79.0010852604352,40.923372883765964,41.75590412997654,40
115.0,80.1,79.98102013714312,78.16092459804155,79.0377993640505,40.94322077309262,41.82009553910157,40
118.0,80.2,80.05889934695256,78.19936749413583,79.09780970063579,40.961089646316765,41.85953185281673,40
122.0,80.30000000000001,80.2130058166541,78.32371830564767,79.23745675946896,40.97554905718515,41.88928751100643,40
125.0,80.5,80.33614605110728,78.47346598986553,79.38867053293862,40.94747551816866,41.86268006124175,40
128.0,80.6,80.43614605110727,78.60411874496165,79.50171905694964,40.93442699415763,41.83202730614562,40
132.0,80.6,80.5130058166541,78.70317774194585,79.57640176394933,40.936604052704766,41.80982807470825,40
136.0,80.6,80.5130058166541,78.73800621520081,79.58704224462576,40.92596357202834,41.77499960145329,40
140.0,80.6,80.5130058166541,78.73044597894528,79.56680255570187,40.94620326095223,41.78255983770882,40
145.0,80.6,80.49203842311863,78.67590105474808,79.53120027275978,40.96083815035885,41.81613736837055,40
150.0,80.69999999999999,80.50354610191523,78.55413710019666,79.44659171420184,41.05695438771339,41.94940900171858,40
155.0,80.69999999999999,80.46090170960878,78.33895804773968,79.3018861884069,41.15901552120188,42.121943661869096,40
160.0,80.6,80.37276168478319,77.99238560245672,79.10524080011898,41.26752088466421,42.380376082326464,40
165.0,80.6,80.26443609510353,77.56739012252706,78.85090073268805,41.41353536241549,42.697045972576475,40
170.0,80.5,80.12285256657299,77.07690031722113,78.55818572126086,41.56466684531213,43.045952249351856,40
175.0,80.30000000000001,79.9659838399555,76.62967474330334,78.31366250656951,41.652321333385984,43.33630909665216,40
180.0,80.2,79.88756720128137,76.35508810927396,78.16481802414246,41.72274917713891,43.53247909200741,40
185.0,80.2,79.88756720128137,76.25563418512158,78.13528614995012,41.75228105133125,43.63193301615979,40
190.0,80.1,79.84063796503013,76.15860779547874,78.06730547492617,41.773332490103954,43.68203016955138,40
195.0,79.9,79.59882484139399,75.95253949579661,77.8521188729043,41.74670596848969,43.64628534559738,40
200.0,79.6,79.34063796503014,75.73507464147295,77.63423859961787,41.70639936541227,43.60556332355719,40
206.0,79.6,79.38378881309228,75.82651828320212,77.74041444089976,41.643374372192525,43.55727052989016,40
212.0,79.7,79.59203842311862,76.05349931028532,77.9847998308063,41.60723859231233,43.538539112833305,40
218.0,79.8,79.76919486783488,76.26093969450088,78.20580237924673,41.56339248858815,43.50825517333401,40
224.0,80.0,79.91300581665409,76.43112161496569,78.3506231076493,41.562382709004794,43.4818842016884,40
230.0,80.1,79.96945253554453,76.53445595354408,78.40413761015989,41.56531492538464,43.43499658200045,40
236.0,80.2,80.00354610191523,76.5738141407878,78.38704908149974,41.616497020415494,43.42973196112743,40
240.0,80.30000000000001,80.04928032556396,76.53445719950967,78.36374420285526,41.6855361227087,43.51482312605428,40
250.0,80.4,80.16063752019828,76.48232958265726,78.37646259937341,41.78417492082487,43.67830793754102,40
258.0,80.5,80.24037254002035,76.39734265988312,78.36588395260804,41.8744885874123,43.84302988013722,40
265.0,80.6,80.31752171595781,76.34578583670299,78.37199872363315,41.945522992324655,43.97173587925482,40
272.0,80.6,80.28703592431403,76.28732935343247,78.32383741443263,41.963198509881394,43.99970657088156,40
280.0,80.69999999999999,80.29909905952863,76.22368579772403,78.24464251835666,42.05445654117197,44.0754132618046,40
290.0,80.69999999999999,80.3027905394419,76.1513993687762,78.1825092160019,42.12028132344,44.151391170665704,40
300.0,80.8,80.36816957326,76.04892215651611,78.15861844944769,42.20955112381232,44.31924741674389,40
307.0,80.8,80.44465080786826,75.91689668187189,78.15591337691716,42.2887374309511,44.52775412599637,40
315.0,80.69999999999999,80.38000361795669,75.73290229773137,78.04622859457501,42.333775023381676,44.64710132022532,40
325.0,80.69999999999999,80.3156049034637,75.52459211759907,77.8817876522604,42.433817251203294,44.79101278586462,40
335.0,80.69999999999999,80.22109690438573,75.34125198706431,77.71692738248584,42.5041695218999,44.87984491732142,40
345.0,80.6,80.20881484048309,75.22504910126615,77.6164290134463,42.59238582703679,44.983765739216935,40
355.0,80.6,80.16180826037765,75.14777969899023,77.57055628854654,42.59125197183111,45.01402856138742,40
365.0,80.5,80.06668968778972,74.9824620924216,77.45405709329049,42.61263259449923,45.08422759536812,40
375.0,80.4,79.92645719070954,74.70395434801883,77.24515193976306,42.68130525094648,45.222502842690716,40
387.0,80.30000000000001,79.83761460028052,74.41075732318455,77.04734513403362,42.7902694662469,45.42685727709596,40
400.0,80.30000000000001,79.79541528459634,74.17904002005942,76.89433074099591,42.90108454360043,45.61637526453693,40
412.0,80.2,79.70082628831332,73.89456393326385,76.70058390140669,43.000242386906635,45.80626235504947,40
425.0,80.2,79.59833286332203,73.50629673038588,76.45256251611315,43.14577034720888,46.092036132936144,40
437.0,80.30000000000001,79.58210488240232,73.21658790444425,76.31667522712435,43.26542965527797,46.365516977958066,40
450.0,80.30000000000001,79.66912695527688,73.26899104153047,76.44191701496487,43.22720994031201,46.40013591374641,40
462.0,80.30000000000001,79.76146340619725,73.59724958501442,76.75660592198727,43.00485748420998,46.16421382118283,40
475.0,80.30000000000001,79.8303463730986,73.88364666074054,76.96997737211228,42.860369000986324,45.94669971235807,40
487.0,80.2,79.78848397296758,73.92937885551835,76.95799785023156,42.83048612273602,45.85910511744923,40
500.0,80.1,79.65933905800358,73.82964112317174,76.76355016614676,42.895788891856824,45.82969793483184,40
515.0,80.0,79.43336004515527,73.71552847181151,76.51450127939412,42.918858765761144,45.71783157334376,40
530.0,79.9,79.24963023374507,73.81349734472144,76.45404780751993,42.79558242622514,45.436132889023625,40
545.0,79.8,79.20707188609452,74.1649397225524,76.65342734332471,42.55364454276982,45.04213216354212,40
560.0,79.8,79.18925122823633,74.39748218940395,76.88937710070367,42.29987412753266,44.791769038832385,40
580.0,79.9,79.18249586674645,74.29152403639785,76.97014995552723,42.21234591121922,44.890971830348604,40
600.0,80.0,79.24356892742439,73.93485002298863,76.97162723150552,42.27194169591887,45.308718904435764,40
615.0,80.2,79.41500399663741,73.45302665791313,76.90185547002646,42.51314852661095,45.96197733872428,40
630.0,80.4,79.58037239301058,73.19834522608363,76.90635615892896,42.67401623408162,46.382027166926946,40
650.0,80.4,79.74727684476886,73.11585666315356,76.99173197384805,42.755544870920815,46.6314201816153,40
670.0,80.4,79.66013909823234,72.74537145280331,76.79366955479908,42.866469543433254,46.91476764542902,40
690.0,80.30000000000001,79.49262107379687,72.19420012701065,76.4086877509341,43.08393332286276,47.29842094678622,40
710.0,80.1,79.28160426781488,71.66678939288826,76.036777047191,43.24482722062389,47.61481487492662,40
730.0,79.9,79.05510696813957,71.05317176466997,75.61260725809478,43.442499710044785,48.0019352034696,40
750.0,79.9,78.99028363835853,70.56806817979323,75.3426757437083,43.647607894650235,48.422215458565304,40
775.0,80.1,79.15826452429224,70.41364362385147,75.13867767742919,44.01958684686305,48.744620900440765,40
800.0,80.4,79.37815126472078,70.31591397108978,74.86610493303243,44.51204633168835,49.062237293631,40
825.0,80.69999999999999,79.47966388089309,70.47644600814417,74.75441562891075,44.725248251982336,49.00321787274892,40
850.0,80.9,79.3684582545904,70.83588710376456,74.91343629224303,44.45502196234736,48.53257115082583,40
875.0,80.9,79.47601599016924,71.30421869922282,75.16883244342249,44.30718354674676,48.17179729094643,40
900.0,80.6,79.48156217724589,71.46209457526416,75.18294611794413,44.298616059301764,48.01946760198173,40
925.0,80.2,79.27360504730261,71.26770067820043,74.92074224814137,44.352862799161244,48.00590436910218,40
950.0,79.9,78.88356748028022,70.66707369680113,74.30951148607636,44.57405599420386,48.216493783479095,40
975.0,79.9,78.62169339664243,70.03274648753725,73.68989263480245,44.93180076183998,48.588946909105175,40
1000.0,80.0,78.63753292021254,69.86734475456794,73.51283613044377,45.12469678976876,48.7701881656446,40
1030.0,80.0,78.93210057833686,70.31439093857603,73.85005755134075,45.082043026996104,48.61770963976083,40
1060.0,80.1,79.31435856950851,70.74741260137951,74.19193661502764,45.12242195448087,48.566945968129005,40
1090.0,80.4,79.45145279066158,70.3654511536982,74.11959889501296,45.33185389564862,49.086001636963374,40
1120.0,80.6,79.30292598145832,69.63912015911107,73.8149377472484,45.48798823420992,49.66380582234724,40
1150.0,80.6,79.23450529317219,69.72886032650794,73.79900926466792,45.435496028504275,49.50564496666425,40
1180.0,80.6,79.22571410065297,70.13453033296447,73.96193283588356,45.263781264769406,49.09118376768849,40
1220.0,80.30000000000001,78.78822128700224,70.02984555878912,73.89508527070467,44.893136016297575,48.758375728213124,40
1250.0,80.0,78.65918402596104,70.13500791211742,74.02678682483214,44.632397201128896,48.52417611384362,40
1280.0,79.9,78.78469694671222,70.29109489436118,74.21447645857131,44.570220488140905,48.49360205235104,40
1320.0,80.0,79.1281339761025,70.70101748818517,74.59456255064183,44.53357142546068,48.42711648791733,40
1360.0,80.30000000000001,79.66698811232294,71.25309797550565,75.16844564214205,44.498542470180894,48.41389013681729,40
1400.0,80.6,79.90526607172964,71.392738263357,75.33934729244865,44.56591877928099,48.51252780837264,40
1450.0,80.8,80.31370540165568,71.6353843159401,75.72371660326456,44.58998879839112,48.67832108571558,40
1500.0,81.0,80.1568548131328,71.22969759065833,75.5337471813235,44.62310763180929,48.92715722247446,40
1550.0,81.3,80.55261582275266,71.7306893552337,75.88744877076067,44.665167051991986,48.82192646751896,40
1600.0,81.4,80.71458840598866,72.29093081931589,76.1639012515064,44.55068715448226,48.423657586672775,40
1650.0,80.69999999999999,79.74737820799814,71.38324955836343,75.36997957910434,44.3773986288938,48.36412864963471,40
1700.0,79.9,79.10208919221989,71.2825954783864,75.1330526378535,43.9690365543664,47.819493713833495,40
1750.0,79.8,79.23909789810003,71.77283792811546,75.50991900892024,43.72917888917979,47.46625996998456,40
1800.0,80.2,79.3355010144017,71.61826553085822,75.60951883532584,43.72598217907586,47.717235483543476,40
1850.0,80.2,79.23728100838362,71.52556451456174,75.43008360300283,43.80719740538079,47.71171649382188,40
1900.0,80.1,79.12429464574154,71.32722671420984,75.04104755929703,44.083247086444516,47.7970679315317,40
1950.0,80.6,79.70992248502984,71.96345102307491,75.7108928030995,43.99902968193034,47.746471461954926,40
2000.0,81.3,80.60697325697409,72.8223354454548,76.66040825842956,43.94656499854453,47.78463781151929,40
2060.0,82.0,81.15185727696088,73.27771212527486,77.12062250607073,44.03123477089015,47.87414515168602,40
2120.0,82.0,81.14321385891549,72.962958568335,76.96542185010998,44.17779200880551,48.18025529058049,40
2180.0,81.70000000000002,80.71933432354763,72.78176231688515,76.521768564063,44.19756575948463,47.93757200666248,40
2240.0,81.0,79.90824951149496,72.04489564742826,75.58421786335327,44.324031648141684,47.863353864066696,40
2300.0,81.2,80.15780232606033,72.52267961553147,76.1352760252633,44.02252630079704,47.63512271052886,40
2360.0,81.5,80.13919969882082,72.20367335174859,76.2111432946952,43.92805640412561,47.935526347072226,40
2400.0,81.2,79.8049199596203,71.53730911298646,75.70715377778888,44.09776618183143,48.26761084663384,40
2500.0,80.9,79.2314725673614,70.74802843257616,75.080122878752,44.1513496886094,48.48344413478523,40
2580.0,81.0,79.25686296109382,70.5318962661398,75.03000591728106,44.22685704381276,48.72496669495402,40
2650.0,81.3,79.41673242533584,70.33738842829587,74.91011925773736,44.50661316759847,49.07934399703997,40
2720.0,81.4,79.44301782191204,70.17847214836338,74.83224667103917,44.610771150872864,49.26454567354865,40
2800.0,82.0,79.9197367662401,70.438659987151,75.08074746935222,44.83898929688789,49.48107677908911,40
2900.0,82.4,80.32203301810564,70.60170510527544,75.13276632378985,45.18926669431579,49.7203279128302,40
3000.0,82.5,80.40136919650101,70.56282383710942,74.91216702372262,45.48920217277839,49.83854535939159,40
3070.0,82.3,80.21566987528094,70.4698057146689,74.50696278931649,45.70870708596445,49.745864160612044,40
3150.0,82.6,80.37578998893343,71.2583304350898,75.24777240924041,45.12801757969302,49.11745955384363,40
3250.0,81.70000000000002,79.57302675841919,71.30941000775702,75.35556078061842,44.21746597780077,48.263616750662166,40
3350.0,82.0,80.09797939984693,71.76767857855705,76.02193240748159,44.07604699236535,48.33030082128988,40
3450.0,81.9,79.7388915748363,71.33192505203397,75.8082615273218,43.9306300475145,48.406966522802335,40
3550.0,81.5,79.1847876367792,70.1192663181348,74.59221123479387,44.59257640198534,49.0655213186444,40
3650.0,81.6,79.11191836769336,69.57165080098595,74.0076062644495,45.104312103243856,49.54026756670741,40
3750.0,81.70000000000002,79.36921195294582,69.49299351021963,73.9601421426324,45.40906981031341,49.876218442726184,40
3870.0,82.1,79.83824323365317,69.43427645696028,74.13894040852529,45.69930282512789,50.4039667766929,40
4000.0,82.6,80.4335510904004,69.58726341531234,74.52262436210243,45.910926728297966,50.846287675088064,40
4120.0,82.7,80.33089004535225,69.31750526627336,74.34102126303846,45.98986878231379,51.01338477907889,40
4250.0,81.79999999999998,79.07616682738418,68.33898640921393,73.25169746040959,45.8244693669746,50.737180418170254,40
4370.0,81.0,78.20603586546115,67.65862856096633,72.71322754142405,45.4928083240371,50.54740730449481,40
4500.0,80.2,77.27952136654291,66.8489676727651,72.01527869243175,45.26424267411116,50.43055369377781,40
