Freq "Ceiling Bounce"
22.4 3.9379006759233164
23.0 4.637900675923333
23.6 5.253152979242117
24.0 5.868705299591369
25.0 6.540363060938972
25.8 7.140363060938995
26.5 8.128549475751441
27.2 11.844925720569705
28.0 14.601234651081398
29.0 16.61771402261226
30.0 18.61771402261226
30.7 20.90785835169018
31.5 22.707858351690163
32.5 24.281651661186743
33.5 26.098983964074307
34.5 27.598983964074307
35.5 29.016648669852913
36.5 30.79109221149477
37.5 32.30920033289934
38.7 33.88418429607714
40.0 35.8595976856289
41.2 37.378261270128775
42.5 39.254202990353775
43.7 40.99727691609601
45.0 42.573324035956006
46.2 44.24978806046886
47.5 45.66937334571011
48.7 47.11264707527971
50.0 48.35648687916908
51.5 49.72163211391481
53.0 50.966872518488884
54.5 52.288258606231324
56.0 53.58825860623131
58.0 55.03433788090703
60.0 56.228215089910265
61.5 57.22438898278881
63.0 58.349426366641865
65.0 59.45081528908938
67.0 60.52671908551528
69.0 61.53209585314548
71.0 62.5143448143247
73.0 63.37932883471325
75.0 64.14942181474028
77.5 64.86563268960988
80.0 65.45647994661607
82.5 65.87662798253905
85.0 66.17082970284298
87.5 66.29485705883171
90.0 66.32104166298748
92.5 66.34935766478273
95.0 66.31430637862282
97.5 66.24576719438468
100.0 66.21227178315618
103.0 66.07928732607431
106.0 66.01007799780292
109.0 65.9778308059457
112.0 66.04608461666675
115.0 66.10934661896388
118.0 66.00934661896389
122.0 65.9093466189639
125.0 66.14136150423586
128.0 66.64136150423587
132.0 66.94136150423586
136.0 66.97314211136083
140.0 67.20542400732661
145.0 67.57001488257475
150.0 67.93746771551314
155.0 68.20231994589776
160.0 68.30231994589775
165.0 68.46769521305296
170.0 68.53513059177982
175.0 68.30076749445563
180.0 68.00076749445562
185.0 68.16845083805433
190.0 67.86845083805433
195.0 67.76845083805433
200.0 68.56845083805433
206.0 68.60306957104252
212.0 68.50306957104252
218.0 68.57150800786937
224.0 68.07150800786937
230.0 67.80690501035458
236.0 67.6760917544922
240.0 67.77609175449221
250.0 67.94576719438469
258.0 67.98219967332307
265.0 67.58219967332303
272.0 67.78982856673473
280.0 67.56096514237183
290.0 68.53257218046558
300.0 69.17082970284298
307.0 68.64314826109435
315.0 68.8096325668162
325.0 68.98219812790056
335.0 68.78219812790057
345.0 68.88219812790055
355.0 69.04898359150843
365.0 69.14898359150841
375.0 69.4096325668162
387.0 69.50963256681621
400.0 69.73752777300028
412.0 70.36096514237182
425.0 70.65260953202218
437.0 71.0457671943847
450.0 70.7404416794549
462.0 70.47150800786939
475.0 69.53663575667186
487.0 68.16845083805433
500.0 67.90306957104252
515.0 67.80306957104251
530.0 67.27387961222819
545.0 66.57928732607432
560.0 65.9862351245524
580.0 65.82758719283592
600.0 66.02758719283592
615.0 66.39897445130924
630.0 66.87082970284297
650.0 67.38219812790055
670.0 67.97082970284299
690.0 68.56096514237181
710.0 68.80986628672329
730.0 69.7022846139602
750.0 70.40076749445562
775.0 68.93435140868502
800.0 67.06845083805433
825.0 65.93331023801674
850.0 65.6857391564897
875.0 65.69664781293233
900.0 65.56226741403313
925.0 65.0165581917717
950.0 64.07245249207645
975.0 63.02643297742509
1000.0 62.80473949550549
1030.0 63.662513220655185
1060.0 64.9888886353865
1090.0 65.88888863538651
1120.0 66.08888863538652
1150.0 66.10432912249857
1180.0 66.17277674488686
1220.0 65.84171952330976
1250.0 65.00146480937386
1280.0 64.94465953615895
1320.0 65.34273297424512
1360.0 64.7795147828385
1400.0 64.97211025799336
1450.0 66.23403046914814
1500.0 66.23403046914814
1550.0 65.83403046914816
1600.0 65.21798740949018
1650.0 64.0114589804255
1700.0 63.326804265156085
1750.0 62.28127869327915
1800.0 59.74412887807499
1850.0 57.9765793831768
1900.0 56.98681963215331
1950.0 56.02332853367798
2000.0 56.27940843630549
2060.0 53.350788592131124
2120.0 50.7593427130673
2180.0 48.40689982370962
2240.0 48.37613005450528
2300.0 52.507642604845785
2360.0 55.97873585443175
2400.0 57.18021043702585
2500.0 59.49340724183763
2580.0 60.86878033996791
2650.0 63.186918060203965
2720.0 62.839209821111425
2800.0 63.31474525820005
2900.0 65.09393259456333
3000.0 66.04583147157396
3070.0 67.37506303171668
3150.0 65.94881886471627
3250.0 63.70500125539948
3350.0 61.70920925226939
3450.0 63.0796012143346
3550.0 62.63546263134681
3650.0 63.738334996840734
3750.0 65.80497668676807
3870.0 66.19780984381858
4000.0 65.95522649358168
4120.0 68.38277856723788
4250.0 70.0566936786015
4370.0 69.42457993687897
4500.0 68.95353095838949
4620.0 67.50089281776597
4750.0 67.2535309583895
4870.0 68.88888547155003
5000.0 69.38910480561007
5150.0 68.95603736524559
5300.0 69.4778308059457
5450.0 70.02432154763821
5600.0 69.37397365253001
5800.0 69.21249723664475
6000.0 68.01471033977958
6150.0 68.2599996174499
6300.0 67.09647983009637
6500.0 66.34186174880313
6700.0 66.20807851055697
6900.0 66.54915680671036
7100.0 65.91664590330461
7300.0 66.0529063443759
7500.0 65.46174986056533
7750.0 65.36443680503089
8000.0 63.55550966256153
8250.0 61.16078125161695
8500.0 59.84197289094128
8750.0 59.75648687916909
9000.0 61.081739286685206
9250.0 61.77107349090285
9500.0 61.394846644554605
9750.0 60.6643368818294
10000.0 62.29500059240537
10300.0 64.19265755490994
10600.0 67.56786008726846
10900.0 67.50996605888054
11200.0 65.89641043056626
11500.0 65.72068825021472
11800.0 65.88583171242583
12200.0 64.71355929945652
12500.0 62.04049153814307
12800.0 60.72778024795143
13200.0 60.13774995294432
13600.0 58.92863337885808
14000.0 55.34553278946595
14500.0 52.35094928304129
15000.0 48.73836246864629
15500.0 45.26512351383323
16000.0 47.03969464565385
16500.0 48.800529610544885
17000.0 47.02081894554057
17500.0 44.53052688930845
18000.0 45.899879089102
18500.0 45.41853025325685
19000.0 43.02129597378644
19500.0 43.36769521305291
