Freq "Rear Wall Bounce"
22.4 2.7777169255772094
23.0 3.3861303963303726
23.6 3.9924487803308466
24.0 4.6441067143000225
25.0 5.292852186908732
25.8 5.849678127621161
26.5 6.821642837922184
27.2 10.531047062513665
28.0 13.25296653238317
29.0 15.264149473011287
30.0 17.265919881999196
30.7 19.537062239125248
31.5 21.345564860402305
32.5 22.876773719479246
33.5 24.64459083448446
34.5 26.177359238382223
35.5 27.59062363530697
36.5 29.41401016150138
37.5 30.974436862628494
38.7 32.565102128092235
40.0 34.559660589529216
41.2 36.173019322902235
42.5 38.061424170976636
43.7 39.79572853131924
45.0 41.41219031196056
46.2 43.09366680708729
47.5 44.56121275659609
48.7 46.085952246803814
50.0 47.441614659034656
51.5 48.873261328568304
53.0 50.18204517306637
54.5 51.591684946362236
56.0 52.885242562502896
58.0 54.371210328576055
60.0 55.641134813341225
61.5 56.78306784517832
63.0 57.963759116968134
65.0 59.139230218082986
67.0 60.28187609993073
69.0 61.35742445149798
71.0 62.37183368918889
73.0 63.31583017541385
75.0 64.16807010738759
77.5 64.92835958870454
80.0 65.53964731183771
82.5 66.0305832298613
85.0 66.30441428629273
87.5 66.46662436821143
90.0 66.517482272512
92.5 66.56562212602505
95.0 66.54928186524538
97.5 66.47787862086679
100.0 66.39188975213725
103.0 66.33128174847539
106.0 66.22452557732292
109.0 66.18721735468657
112.0 66.26453125022792
115.0 66.32125368051301
118.0 66.20922922271762
122.0 66.09269753352304
125.0 66.30251115402275
128.0 66.77601609802883
132.0 67.06567646666045
136.0 67.06567646666045
140.0 67.24443282321815
145.0 67.62713198880505
150.0 67.94774467209986
155.0 68.19591959711633
160.0 68.34774467209985
165.0 68.44774467209984
170.0 68.45305987118853
175.0 68.21715732630551
180.0 67.87353931707753
185.0 68.03121038889427
190.0 67.72599287150523
195.0 67.55722674691071
200.0 68.35722674691071
206.0 68.3414771009582
212.0 68.23129233121085
218.0 68.25756411747223
224.0 67.76818051379556
230.0 67.48454082246526
236.0 67.2955710399705
240.0 67.37078291508203
250.0 67.53109925494452
258.0 67.52166102999655
265.0 67.09159166281816
272.0 67.26400506260242
280.0 66.99755171568798
290.0 67.83869824490868
300.0 68.35120355732641
307.0 67.67118516738347
315.0 67.69067398311438
325.0 67.67490739671445
335.0 67.32953915343089
345.0 67.29731611073194
355.0 67.32587369547669
365.0 67.26647623426774
375.0 67.33929376957687
387.0 67.22840106366196
400.0 67.13052374313608
412.0 67.31907732735466
425.0 67.0595282663668
437.0 66.9076216599227
450.0 66.04526130579384
462.0 65.3472859021242
475.0 64.05793243122773
487.0 62.51015887678891
500.0 61.98002486462403
515.0 61.54288309585898
530.0 60.69738448422038
545.0 59.780825659389635
560.0 59.37185957448693
580.0 59.54241540880935
600.0 60.19827924343318
615.0 60.87303187642814
630.0 61.41860676343825
650.0 61.563872996022155
670.0 61.24298973607068
690.0 60.180932435926906
710.0 58.15476358943067
730.0 56.8333072505101
750.0 58.37793046133967
775.0 60.38953800285593
800.0 61.306414084850104
825.0 61.47999394660461
850.0 61.25065503329681
875.0 60.632928779126814
900.0 59.77513202407751
925.0 58.95956274102244
950.0 58.09971570464555
975.0 57.109446644157146
1000.0 56.61200729249387
1030.0 57.133967130763665
1060.0 58.3216118147937
1090.0 59.2002708900895
1120.0 59.443923186137454
1150.0 59.3378722240316
1180.0 58.869753318727845
1220.0 57.610412198941845
1250.0 56.527581761239574
1280.0 57.119399764286996
1320.0 57.35389196152313
1360.0 56.63246342573595
1400.0 56.97585082049346
1450.0 57.51726767165874
1500.0 57.06247968470464
1550.0 56.89973796442132
1600.0 56.96795081498348
1650.0 55.89161914272918
1700.0 54.93071919225838
1750.0 54.6300026031429
1800.0 53.85866542445754
1850.0 54.66565966816371
1900.0 55.45333959539872
1950.0 54.35520534139522
2000.0 54.296605241731484
2060.0 54.73128044808932
2120.0 55.34561955499869
2180.0 55.02303117169329
2240.0 55.38130577652355
2300.0 55.94149743923822
2360.0 55.543081115144886
2400.0 55.61226967673824
2500.0 56.05863995921061
2580.0 55.66657607391282
2650.0 56.15698302217004
2720.0 55.41465824013804
2800.0 57.77928911068207
2900.0 57.90611386444117
3000.0 57.174882918922066
3070.0 57.0204542368333
3150.0 58.50732785745626
3250.0 57.76165930028111
3350.0 55.485256630429205
3450.0 55.62123597584406
3550.0 55.07562238742557
3650.0 54.32341519189441
3750.0 55.1827152600213
3870.0 58.29368618808965
4000.0 59.865297805552785
4120.0 61.7279376418917
4250.0 62.565008865426776
4370.0 60.195201079541334
4500.0 58.0953953283193
4620.0 56.466458901504154
4750.0 57.22952762322262
4870.0 56.94773635649685
5000.0 57.12131548121779
5150.0 56.47160408585373
5300.0 56.01631064568733
5450.0 57.19870560751187
5600.0 57.05973294386443
5800.0 57.006875546054914
6000.0 55.018774147754314
6150.0 53.985188358862644
6300.0 53.495948181481154
6500.0 52.5481228251778
6700.0 52.10340881855177
6900.0 52.03183184834647
7100.0 51.66453405835455
7300.0 51.394251326771055
7500.0 51.30813414580014
7750.0 49.37899593084718
8000.0 47.898215297499306
8250.0 46.21301681080132
8500.0 43.289357786565915
8750.0 43.69450733144458
9000.0 44.71509231560873
9250.0 45.519440121746214
9500.0 45.05506966949213
9750.0 43.684665229536506
10000.0 42.89089179606225
10300.0 45.81235710869362
10600.0 47.00205406637794
10900.0 47.05607619955548
11200.0 44.75596311366459
11500.0 43.37920439293691
11800.0 41.88148566405198
12200.0 37.486453979544166
12500.0 29.934834483526487
12800.0 27.994388283146804
13200.0 27.809969213671707
13600.0 28.77268480076964
14000.0 32.3255119115918
14500.0 32.86146987824998
15000.0 30.79386348947736
15500.0 31.547284566193923
16000.0 35.46910945315122
16500.0 38.17028346423541
17000.0 36.94051939366696
17500.0 36.18069332626092
18000.0 37.43735437231692
18500.0 35.99200388410432
19000.0 33.98754275404778
19500.0 36.139399994350015
