Freq "Floor Bounce"
20.5078 56.07253996537398
21.9727 61.90827225181374
23.4375 62.9551367062013
24.9023 63.83915274902455
26.3672 66.81112571638931
27.832 69.90088176359708
29.2969 74.03236335714031
30.7617 76.72016873074813
32.2266 79.38264123390896
33.6914 81.67208668506998
35.1562 83.57916636944606
36.6211 85.41100925174004
38.0859 87.02422754981617
39.5508 88.48754694599857
41.0156 89.63035396951854
42.4805 90.58111810278444
43.9453 91.4241944900272
45.4102 92.13569747981623
46.875 92.69692156304254
48.3398 93.113469960366
51.2695 93.41912471131343
52.7344 93.44917464068227
54.1992 93.44275041336348
55.6641 93.50404243429354
58.5938 93.44938741946356
60.0586 93.4298578241634
62.9883 93.33041878401234
64.4531 93.36915109697833
67.3828 93.22293490652315
68.8477 93.16057055252949
71.7773 93.24391737366128
74.707 93.39382421409458
77.6367 93.43559044807887
79.1016 93.52101297100391
82.0312 93.55987093257738
84.9609 93.62685685026688
87.8906 93.76546516166633
90.8203 93.89916277652945
95.2148 94.24832000981814
98.1445 94.25790281687097
101.074 94.22903041603618
105.469 94.30775630851154
108.398 94.53768176672087
112.793 94.71839449138798
117.188 94.58321352148252
120.117 94.70589977389241
124.512 94.87074118921659
128.906 94.68341437307527
133.301 94.80625887048154
139.16 94.9400801083761
143.555 95.0234764116524
147.949 95.11844282715843
153.809 94.79457604641208
159.668 95.01572128169158
165.527 95.05960686010059
171.387 95.00537860020037
177.246 95.08166350382415
183.105 95.04750851255787
188.965 94.69008591612425
196.289 95.01625928522924
203.613 95.01840707836732
210.938 94.69658199671757
218.262 94.78227295708513
225.586 95.24726919121332
232.91 95.23560229328571
241.699 95.17893549424637
250.488 95.55044954222947
259.277 95.5632742720306
268.066 94.90953028185385
276.855 95.02757981256065
287.109 95.08781670356787
297.363 95.9987286452468
307.617 96.03154167655968
319.336 96.09151666450644
329.59 96.21420005076203
341.309 96.85584934835491
353.027 96.68993151575431
366.211 96.89629327218529
379.395 97.00146585350325
392.578 96.38774470649057
405.762 96.38981376651951
420.41 96.16077553942903
435.059 96.17826885016471
451.172 96.51424026116402
465.82 96.00738279667169
483.398 95.83898010968534
499.512 96.1209788633299
517.09 95.06458553556331
536.133 95.32464490643332
555.176 95.4583292441198
574.219 95.58398743902094
594.727 94.33761181443965
615.234 95.03233806456998
637.207 96.33672991683743
659.18 95.92900733499056
682.617 96.4137584844042
707.52 97.66619957622731
732.422 96.64572766204842
757.324 97.16818880969808
785.156 97.14560021591137
811.523 96.95798072486045
840.82 96.75432192400245
870.117 96.05611443312286
900.879 96.61400910807752
933.105 96.13416592530456
965.332 96.50658925334963
1000.49 96.99723205564243
1035.64 96.81109347878427
1072.27 95.88363873361588
1108.89 96.33797931907812
1148.44 94.76516566206864
1189.45 94.59022745422314
1230.47 93.54462190899086
1274.41 93.0066505509534
1319.82 93.57150654634653
1366.7 93.32935307295986
1413.57 93.23195601531141
1463.38 92.9251255467027
1516.11 91.5472116729677
1568.85 90.74260169933862
1624.51 90.40649284621652
1681.64 91.53299596610888
1741.7 91.2766108971253
1803.22 90.34987277955165
1866.21 89.84062401380801
1932.13 87.13494082512872
1999.51 87.13535954212747
2069.82 87.48055549496041
2143.07 88.5680726774419
2219.24 88.31106598265067
2296.88 88.36666674744554
2378.91 88.5802528072549
2462.4 89.47675964307228
2548.83 90.62235599840544
2639.65 92.24086121734464
2731.93 91.66176739048485
2828.61 91.29340369500031
2928.22 92.4609420254472
3030.76 93.2187443992973
3137.7 93.33010261848472
3249.02 93.97905118381098
3363.28 94.11822426347348
3481.93 95.31323157879969
3604.98 96.05216888404755
3732.42 96.21782602749019
3864.26 96.53240988180552
4000.49 95.72480507853494
4141.11 96.48303887467617
4287.6 96.61239306986518
4438.48 96.05545453339099
4595.21 95.9745362661566
4756.35 96.35071193101912
4924.8 96.6252252675111
5097.66 97.29205431364038
5277.83 97.25227684595694
5463.87 96.79979773557963
5657.23 97.29693750140778
5856.45 97.23699031434305
6062.99 95.8800424713905
6276.86 94.29318203777464
6498.05 94.0336811549644
6726.56 93.79732412395886
6963.87 93.66544542133046
7209.96 93.80264161886612
7464.84 95.04766939135365
7727.05 96.03163785664516
7999.51 96.41368513071154
8282.23 94.84402213646825
8573.73 93.26416101743445
8876.95 94.43152648395454
9188.96 94.10694586325714
9514.16 94.20625084798829
9849.61 94.05767644756006
10196.8 94.53555620597791
10555.7 94.47072153118351
10927.7 94.62448337075865
11313.0 94.87294107012207
11712.9 94.96805990331426
12126.0 95.22286685837497
12553.7 94.88099196263921
12996.1 93.94584904008053
13454.6 93.79050933122824
13929.2 93.02951098002312
14419.9 92.41403509651524
14928.2 91.8021836648253
15455.6 91.25380830417899
16000.5 90.69692763076442
16564.5 89.7077733388733
17148.9 88.67216881756757
17752.4 86.9520487171692
18379.4 85.41118536149486
19026.9 83.77456422357174
19697.8 82.18090992399249
19999.5 81.59677333542729
