Freq "Listening Window"
20.5078 52.04430532614421
21.9727 54.67892360552253
23.4375 56.54298239218949
24.9023 58.60157695194144
26.3672 61.16674944953883
27.832 62.415014680073824
29.2969 64.15770589118065
30.7617 65.87175368798722
32.2266 67.22427457227813
33.6914 68.81838606304333
35.1562 70.20146281801068
36.6211 71.38386192597264
38.0859 72.82055536621449
39.5508 74.1283585584115
41.0156 75.39849323455027
42.4805 76.68249273082513
43.9453 77.84496076093879
45.4102 78.92701835434093
46.875 79.91271807263831
48.3398 80.73296503880908
51.2695 82.11216641090843
52.7344 82.62461275447106
54.1992 83.01881035913773
55.6641 83.1834065010659
58.5938 83.4707614273226
60.0586 83.58119473765541
62.9883 83.56746061312185
64.4531 83.51334378070494
67.3828 83.33572447923021
68.8477 83.26001804170066
71.7773 83.22578755265175
74.707 83.2625978993935
77.6367 83.19480516312669
79.1016 83.13131687211259
82.0312 82.9691976843165
84.9609 82.95364100577387
87.8906 82.78544639295464
90.8203 83.32184584626427
95.2148 82.5927223246984
98.1445 82.71270261430135
101.074 82.46114468569293
105.469 82.77867112675044
108.398 82.92712842740113
112.793 82.93322936052735
117.188 82.88125679746847
120.117 83.04402962625437
124.512 82.68030236481951
128.906 82.5664722938867
133.301 82.514993043834
139.16 82.48981530037267
143.555 82.40593218809128
147.949 82.33581038460642
153.809 82.25065847359176
159.668 82.2215358007621
165.527 82.19240452913067
171.387 82.31066499764137
177.246 82.14829943371583
183.105 81.6453691249097
188.965 81.70546725893303
196.289 81.85618535493474
203.613 81.66473941809528
210.938 81.69189579988013
218.262 81.32893815422199
225.586 81.30261775654866
232.91 81.48359553287271
241.699 80.81533437087768
250.488 79.84953381613869
259.277 78.7182543671916
268.066 83.16295488529286
276.855 83.02021161513373
287.109 82.71273969684162
297.363 82.87593878354802
307.617 83.19488776761537
319.336 82.90773527540252
329.59 83.27772664933148
341.309 83.53262997089153
353.027 84.52238248625403
366.211 84.23052143702917
379.395 75.02565948846699
392.578 77.10495588205777
405.762 78.40414152251685
420.41 79.617532936906
435.059 79.32749401692797
451.172 80.21691703696447
465.82 80.39274323099463
483.398 80.50963673655906
499.512 80.60942752266922
517.09 81.71063398592912
536.133 81.46726374854337
555.176 81.92324990120716
574.219 82.09851611838559
594.727 81.91647791614092
615.234 82.40204962344428
637.207 82.34143856599059
659.18 83.73660227744911
682.617 85.27251422598813
707.52 84.89165388630765
732.422 84.10182445711234
757.324 82.00928737827556
785.156 83.0358118733761
811.523 80.47631938071078
840.82 81.06144176230549
870.117 77.84754952133713
900.879 79.34479802417455
933.105 78.54195667027885
965.332 81.19448589138547
1000.49 80.35110592705023
1035.64 79.9309977496527
1072.27 79.82627638767144
1108.89 79.83027553349694
1148.44 79.04704853885454
1189.45 78.71130062740319
1230.47 81.1964930331562
1274.41 80.97742858142504
1319.82 83.23669566259396
1366.7 84.06718471966305
1413.57 83.09999116441095
1463.38 81.99978820018129
1516.11 80.53768560937839
1568.85 79.10501383255914
1624.51 81.49748411019763
1681.64 83.05536507640107
1741.7 83.51446561422898
1803.22 84.26393482369058
1866.21 84.04870613599248
1932.13 82.56185144540612
1999.51 82.55816262739835
2069.82 82.07833044470759
2143.07 80.94140081826345
2219.24 78.42754001790283
2296.88 81.45115813429119
2378.91 83.25903732022104
2462.4 84.69354082785682
2548.83 83.50052317203091
2639.65 80.11626967803701
2731.93 81.9157234731938
2828.61 83.73948904971333
2928.22 84.8793790935518
3030.76 84.97893396132984
3137.7 84.28435374148259
3249.02 83.21562372589872
3363.28 82.76667134658489
3481.93 82.30446799279548
3604.98 81.84001690335512
3732.42 80.89131918600299
3864.26 81.98417576685262
4000.49 83.10702205447903
4141.11 83.43852491698732
4287.6 83.73662161176901
4438.48 83.19956599742059
4595.21 82.20182935599087
4756.35 82.518439096478
4924.8 82.1530859676894
5097.66 83.08053107132409
5277.83 84.03372871874953
5463.87 84.07522234534733
5657.23 83.4009230595374
5856.45 83.79767798296123
6062.99 85.0194267478216
6276.86 83.39022959323836
6498.05 81.51724618538694
6726.56 81.07651919632212
6963.87 86.13704868649741
7209.96 88.36951051631002
7464.84 87.51220558024363
7727.05 83.61425034034373
7999.51 85.60231065191476
8282.23 87.62550392410849
8573.73 88.08189013460566
8876.95 86.20661343968837
9188.96 88.15000981612603
9514.16 89.58237453835832
9849.61 88.87287953180243
10196.8 88.42597231456281
10555.7 87.36186302605358
10927.7 86.41047620148957
11313.0 87.21486689741798
11712.9 87.69668453363492
12126.0 89.34490276282096
12553.7 89.6092099474805
12996.1 89.69533172564557
13454.6 89.2802541971531
13929.2 90.86833505245939
14419.9 90.84417475804682
14928.2 90.82184590913974
15455.6 90.77059571666834
16000.5 90.09775420017843
16564.5 90.303756108743
17148.9 89.35927809868237
17752.4 88.3701204345768
18379.4 87.09286674633358
19026.9 85.8687285770485
19697.8 85.77109020304437
19999.5 86.08789063083469
