Freq "Sound Power"
20.5078 52.94483563764777
21.9727 55.27348108424749
23.4375 57.010773391886175
24.9023 59.02054222847737
26.3672 61.41446943889284
27.832 62.65681882166149
29.2969 64.33744655926436
30.7617 66.04331773277346
32.2266 67.37188206010082
33.6914 68.82304228473623
35.1562 70.21177322935627
36.6211 71.37992723908724
38.0859 72.75114328365336
39.5508 74.04826954720068
41.0156 75.2670850441412
42.4805 76.52323710873935
43.9453 77.65936432025484
45.4102 78.71109623008192
46.875 79.69502475932238
48.3398 80.51814793903225
51.2695 81.86487681391603
52.7344 82.34053721704359
54.1992 82.70945249748326
55.6641 82.89051663952728
58.5938 83.09261517756168
60.0586 83.17763030815304
62.9883 83.18696092690948
64.4531 83.13677427542194
67.3828 82.9684753850192
68.8477 82.92595005311313
71.7773 82.85272126381446
74.707 82.8471381842231
77.6367 82.80251136633336
79.1016 82.73414127497075
82.0312 82.5608698665051
84.9609 82.47188057114977
87.8906 82.41193337213085
90.8203 82.5483713214935
95.2148 82.2139208778149
98.1445 82.18539081281766
101.074 82.10212799400153
105.469 82.11600424821
108.398 82.16777478628643
112.793 82.16561207747098
117.188 82.02998400749286
120.117 82.07431905306468
124.512 81.92232862720854
128.906 81.96186851384296
133.301 81.82881945750844
139.16 81.68370850722987
143.555 81.56709614110494
147.949 81.43892002965316
153.809 81.25494251657305
159.668 81.26557479635768
165.527 81.31463605589055
171.387 81.20917965318776
177.246 80.9004389463026
183.105 80.65018614293506
188.965 80.53090430028249
196.289 80.51583409508657
203.613 80.19829778706074
210.938 80.17041187746415
218.262 80.09989561761584
225.586 80.02493360094347
232.91 79.86357415677512
241.699 79.46115291357413
250.488 79.23532331185848
259.277 79.6234573114128
268.066 80.65314151305071
276.855 80.31705522144563
287.109 80.09338588972764
297.363 80.26213061408967
307.617 80.32763904227554
319.336 80.16568155023641
329.59 80.41732912194306
341.309 80.93171610685465
353.027 81.7289383468306
366.211 81.98587448666244
379.395 75.379095079166
392.578 75.13339007581735
405.762 75.85789840618136
420.41 76.57730413791619
435.059 76.49388023598706
451.172 76.94609229286132
465.82 77.3284864679722
483.398 77.6992149246386
499.512 77.51582328922578
517.09 78.32920116952658
536.133 77.83060766076464
555.176 78.06391905190783
574.219 78.38888904042213
594.727 78.33158436113862
615.234 78.27006304842588
637.207 78.38233485781429
659.18 79.01867751452788
682.617 80.31792116402973
707.52 80.1261708781347
732.422 79.003876905922
757.324 76.7525032043089
785.156 81.54738340024288
811.523 76.99091486259795
840.82 78.78881415477223
870.117 76.90631655513545
900.879 77.31875337296263
933.105 75.77081742981397
965.332 78.60343614746004
1000.49 77.98026921306558
1035.64 76.46109416558593
1072.27 77.02110763150984
1108.89 77.35680389869935
1148.44 76.98409059690333
1189.45 78.41634457768718
1230.47 77.81444030151391
1274.41 76.5691040401799
1319.82 77.59216222536
1366.7 78.20842491133162
1413.57 77.62481035949705
1463.38 78.12913102391755
1516.11 77.53763583919391
1568.85 77.31402483023149
1624.51 77.50545729124077
1681.64 78.857109574327
1741.7 77.3967549844441
1803.22 77.89358895883608
1866.21 77.69865024456152
1932.13 76.78523693496855
1999.51 76.3381859380001
2069.82 75.5097766463941
2143.07 74.11006338775769
2219.24 72.21776113391435
2296.88 75.08182861407013
2378.91 76.64792321258116
2462.4 77.55798250627164
2548.83 76.15324883192551
2639.65 72.63875054792528
2731.93 74.93603502832559
2828.61 77.02169658416658
2928.22 78.02799482002413
3030.76 78.13626558058658
3137.7 77.32955057464787
3249.02 76.56083420760217
3363.28 76.0776107461199
3481.93 75.49828048163008
3604.98 75.27773797505398
3732.42 73.99583993625268
3864.26 74.7427016417659
4000.49 76.26095132628554
4141.11 76.30897337077465
4287.6 76.32004266788883
4438.48 75.8353039782222
4595.21 74.94680628308251
4756.35 75.2541255311819
4924.8 74.83101242906227
5097.66 75.8727450216167
5277.83 76.50637156899775
5463.87 76.63185760707756
5657.23 75.64495145210083
5856.45 76.30989253111181
6062.99 77.41458923700336
6276.86 75.9832602016245
6498.05 74.86374546532899
6726.56 74.26231979511431
6963.87 78.36999725059441
7209.96 80.08956524294223
7464.84 78.96018618825678
7727.05 76.01115766578167
7999.51 77.12164787834602
8282.23 78.72795832371891
8573.73 78.9546911585151
8876.95 77.18894614386734
9188.96 78.86355225262176
9514.16 80.04387890589398
9849.61 79.32265238799566
10196.8 78.80529474858213
10555.7 77.73559994666753
10927.7 76.71720714788196
11313.0 77.50314645333502
11712.9 78.02941688051447
12126.0 79.28367468425846
12553.7 79.83424750616236
12996.1 80.36000024558226
13454.6 79.99331103819384
13929.2 80.81607431747258
14419.9 80.65191865450578
14928.2 80.44752189572174
15455.6 80.34414014104149
16000.5 79.73401114194516
16564.5 79.80055674004554
17148.9 78.86638110522989
17752.4 77.98373836766046
18379.4 77.00686548083328
19026.9 75.70221815704134
19697.8 75.36519358256217
19999.5 75.642036631529
