Freq "Estimated In-Room Response"
20.5078 62.424588862638316
21.9727 65.69800549371972
23.4375 66.69579248961433
24.9023 69.124596883846
26.3672 70.58890434859099
27.832 72.75168843847818
29.2969 74.81139783250568
30.7617 75.91813932634797
32.2266 77.76312352276538
33.6914 79.32533963455467
35.1562 80.6521702736222
36.6211 82.04972589707593
38.0859 83.24944603380034
39.5508 84.29965793646406
41.0156 85.20977450693498
42.4805 86.06937684708483
43.9453 86.855975418885
45.4102 87.49545421747936
46.875 88.13669476838061
48.3398 88.665119608883
51.2695 89.48294350155778
52.7344 89.90122668356999
54.1992 90.25096813768904
55.6641 90.51455859154649
58.5938 91.06985056494237
60.0586 91.37517680345417
62.9883 91.85694402414885
64.4531 92.08450671089433
67.3828 92.51182331381882
68.8477 92.72692309936123
71.7773 93.17209848797204
74.707 93.61325740837748
77.6367 93.98155621036705
79.1016 94.15462660553241
82.0312 94.50519900622838
84.9609 94.85001825031225
87.8906 95.0659647447237
90.8203 95.35572185700987
95.2148 95.586212488089
98.1445 95.66219537616976
101.074 95.74723940263839
105.469 96.00441984300507
108.398 96.25451185668094
112.793 96.59160214223955
117.188 96.78302925712981
120.117 96.979747725886
124.512 97.43827425622003
128.906 97.34168410734107
133.301 97.19583054913467
139.16 96.67067184631313
143.555 96.36520584424495
147.949 95.85230641163731
153.809 95.67652384279525
159.668 95.55972893593588
165.527 95.37508397808726
171.387 94.98967068555802
177.246 94.2049736024411
183.105 94.148236483195
188.965 94.74486016872568
196.289 96.36871946427716
203.613 97.0347959572399
210.938 96.88591439626641
218.262 95.5592227818024
225.586 95.69523688714496
232.91 96.75062161733982
241.699 96.39956609182167
250.488 96.3715302418645
259.277 96.74736254851398
268.066 95.8818695074116
276.855 95.39447243690805
287.109 95.17472763228703
297.363 95.35907911671843
307.617 95.49062530357045
319.336 96.59437219069245
329.59 97.24437260970721
341.309 96.78492173611883
353.027 96.72655064655864
366.211 96.05896561381165
379.395 95.47996135468307
392.578 96.67960777065001
405.762 95.79850557389295
420.41 96.57736095333112
435.059 95.11926605178762
451.172 95.34971381100735
465.82 94.66596999743675
483.398 95.28253455982207
499.512 95.18810572243734
517.09 95.32653437766741
536.133 95.86945384272707
555.176 95.0659566465728
574.219 94.73165565725876
594.727 93.32646493708181
615.234 94.07082264756954
637.207 93.29003865043795
659.18 93.08767630374511
682.617 93.35678812950938
707.52 93.60154302958568
732.422 93.83428607190002
757.324 94.42174569576532
785.156 94.1597250990831
811.523 93.86885056947281
840.82 94.91664501588771
870.117 96.08708860882498
900.879 95.70884528150602
933.105 95.2095301972366
965.332 95.81441584859861
1000.49 95.1337722580471
1035.64 94.47263878939215
1072.27 93.33313950143867
1108.89 92.5035641115247
1148.44 91.68906609770391
1189.45 91.17368586802795
1230.47 91.90765129766515
1274.41 91.8352799239955
1319.82 92.27071434118783
1366.7 92.02602039042547
1413.57 91.94892051896555
1463.38 92.21454341349136
1516.11 92.37251922850696
1568.85 92.31462043632538
1624.51 92.10037462400973
1681.64 91.6691774476841
1741.7 91.58606375976503
1803.22 92.06947936127673
1866.21 91.96002538527563
1932.13 91.327323822302
1999.51 91.01138150940814
2069.82 91.03849242131388
2143.07 91.00275928165243
2219.24 90.37963020956019
2296.88 90.37707881874393
2378.91 90.74156803041869
2462.4 90.78232593510214
2548.83 90.47811562778134
2639.65 91.40843624383963
2731.93 91.51643801120868
2828.61 91.22027804768491
2928.22 91.64392448893538
3030.76 92.05781137575907
3137.7 92.22818433732502
3249.02 92.40948429959992
3363.28 92.83392002354098
3481.93 92.6874621804395
3604.98 92.7274371697404
3732.42 93.0204670943451
3864.26 93.12039529674372
4000.49 93.00575202646681
4141.11 93.5237405370823
4287.6 93.08285791495817
4438.48 93.0032803562178
4595.21 92.81818429661325
4756.35 92.28301577987388
4924.8 92.55582564540693
5097.66 91.79807067501667
5277.83 91.87843388552739
5463.87 90.86758388841466
5657.23 90.70412745285425
5856.45 90.31432396419402
6062.99 89.82639854952487
6276.86 89.13529310298769
6498.05 88.94351522712944
6726.56 88.60086916493081
6963.87 88.03689001790067
7209.96 88.1707129847711
7464.84 88.30052531945238
7727.05 87.69260847926941
7999.51 87.79389384343301
8282.23 87.84023886877299
8573.73 87.63637346329173
8876.95 87.43699755966452
9188.96 87.28971227446117
9514.16 86.85530937248409
9849.61 86.40371219657554
10196.8 86.80935685027815
10555.7 86.47143265270365
10927.7 86.44612871280744
11313.0 86.55356581080287
11712.9 87.37601902469054
12126.0 88.53173267833878
12553.7 88.80942540293997
12996.1 89.07211223061924
13454.6 87.65971648604467
13929.2 86.93435936439758
14419.9 86.60834919601774
14928.2 86.94523051859493
15455.6 87.17890955665088
16000.5 87.60048440754473
16564.5 89.3348222191258
17148.9 90.42564846924697
17752.4 91.36804913587655
18379.4 90.73214801553274
19026.9 94.22135689534123
19697.8 91.26578035969236
19999.5 89.40487098459012
