Freq "Estimated In-Room Response"
22.4 23.6140959569816
23.0 26.037462869977503
23.6 29.324194947832524
24.0 31.617467142058246
25.0 33.92563368725013
25.8 36.45153020007609
26.5 39.68818479474655
27.2 41.5098176803819
28.0 42.86744214666584
29.0 44.255475030522405
30.0 46.00415159540776
30.7 48.03115965566673
31.5 49.612142885332304
32.5 50.976317821648365
33.5 52.71663955209672
34.5 54.09292690284775
35.5 55.27339032189232
36.5 57.506286126021735
37.5 59.58134804687562
38.7 61.479735699483996
40.0 63.29201223684046
41.2 64.85300739411451
42.5 66.29750330269525
43.7 67.57728254054022
45.0 68.74121538096645
46.2 70.07993312734595
47.5 71.42586516776649
48.7 73.04037139003069
50.0 74.81242637329856
51.5 74.04530679314016
53.0 74.2800082991699
54.5 74.80229594662929
56.0 75.60022893960058
58.0 76.58620276579609
60.0 77.4910916479095
61.5 78.37664552219167
63.0 79.26246682851344
65.0 80.08174423588804
67.0 80.64976280275056
69.0 81.18231374190678
71.0 81.68709398667643
73.0 82.09927244834427
75.0 82.42497007119607
77.5 82.63560614566725
80.0 82.77638384451689
82.5 82.90077633900506
85.0 82.96968628137918
87.5 82.99005179812532
90.0 83.06428059241696
92.5 83.08088201127504
95.0 83.0577134655787
97.5 83.05412892984177
100.0 82.9927811695604
103.0 82.84821318534865
106.0 82.65180856937332
109.0 82.39200925376038
112.0 82.1338842409299
115.0 81.84721640865925
118.0 81.56246221529086
122.0 81.33701641608405
125.0 81.08970379602684
128.0 80.81414591028408
132.0 80.59760606425917
136.0 80.33337015283394
140.0 80.0948083656298
145.0 79.85486856154232
150.0 79.61076955610076
155.0 79.43032098462365
160.0 79.25353081351673
165.0 79.07792805520859
170.0 78.89337438747548
175.0 78.70128599244188
180.0 78.47915689346736
185.0 78.20939100613772
190.0 77.84461252528978
195.0 77.33318105286286
200.0 76.94325845428529
206.0 76.91040883861768
212.0 77.02390277474132
218.0 77.19673862381134
224.0 77.33537229556933
230.0 77.36588444196644
236.0 77.57438118638237
240.0 77.80853716589193
250.0 77.12787586030899
258.0 76.81961619823637
265.0 76.66761903600737
272.0 76.60259097692125
280.0 76.46323574017413
290.0 76.36608040059622
300.0 76.24456724575444
307.0 76.13744190002848
315.0 75.9695457678389
325.0 75.9271999718857
335.0 76.05280730870818
345.0 76.14278147072193
355.0 76.15581654634167
365.0 76.0758854408742
375.0 75.94029367233603
387.0 75.59386121875914
400.0 74.97066332264743
412.0 74.29287363922643
425.0 73.95450542176569
437.0 74.53725348265466
450.0 75.40332539187253
462.0 75.86558892436955
475.0 76.12648999767158
487.0 76.11180422629073
500.0 76.40932963942541
515.0 76.57907005578136
530.0 76.82426211930004
545.0 77.55051799961612
560.0 76.83353360717616
580.0 76.06416691392997
600.0 76.26616710768003
615.0 76.19722659605593
630.0 75.0933521800747
650.0 73.97875881803472
670.0 73.65097836527781
690.0 74.02333502601238
710.0 74.4837042850874
730.0 74.40796349896361
750.0 74.65191831965662
775.0 75.4301460881922
800.0 75.96720406879756
825.0 75.81676260224029
850.0 75.24521033392173
875.0 75.03196025840383
900.0 75.21748378469186
925.0 74.9794226465287
950.0 74.67715219816996
975.0 74.94670230662452
1000.0 74.42593307582626
1030.0 74.02616697833231
1060.0 74.43231590051505
1090.0 74.28793048827646
1120.0 75.05063051129518
1150.0 74.87254532810368
1180.0 74.17639016229555
1220.0 73.77005437411158
1250.0 72.90011000253918
1280.0 73.02791659121182
1320.0 72.6060594983039
1360.0 72.42156310116019
1400.0 72.95790876088675
1450.0 70.7492054468494
1500.0 70.92496038643085
1550.0 71.15470086283112
1600.0 70.42037755018035
1650.0 70.83499221283384
1700.0 70.86890021344655
1750.0 70.78030005699358
1800.0 70.72416660047392
1850.0 71.75059580944584
1900.0 72.4935854064311
1950.0 72.2169747580631
2000.0 71.00065403307133
2060.0 69.94836777072452
2120.0 69.21318492515995
2180.0 68.84146470088587
2240.0 68.40306775606946
2300.0 70.86825720314279
2360.0 72.77697248383458
2400.0 73.7220593078548
2500.0 73.50911224153239
2580.0 73.88651859737283
2650.0 73.99283160567225
2720.0 74.09776140769057
2800.0 73.3479876702669
2900.0 73.36238751517212
3000.0 72.46207651920423
3070.0 71.32647214517588
3150.0 72.11828717769393
3250.0 72.8358961130821
3350.0 71.71045961647744
3450.0 71.6264914480687
3550.0 71.67171774219418
3650.0 71.55553938967182
3750.0 71.29036360903817
3870.0 71.14751285466187
4000.0 71.29272866924984
4120.0 71.9366653233424
4250.0 71.65610724209222
4370.0 71.02179568743081
4500.0 70.96404965460383
4620.0 70.8461669606485
4750.0 72.53061084257546
4870.0 73.3903145404611
5000.0 74.41948700971676
5150.0 74.41725439893571
5300.0 73.37620524678242
5450.0 72.19972387153047
5600.0 72.3116798871601
5800.0 72.45604770550246
6000.0 72.66336575487205
6150.0 72.25481837520037
6300.0 71.88629537364115
6500.0 72.24945350028575
6700.0 72.5339361348761
6900.0 72.78000013219896
7100.0 72.95879031553207
7300.0 72.67897257545403
7500.0 71.96729441544952
7750.0 71.64447573655785
8000.0 72.00687643661311
8250.0 72.78061897389898
8500.0 73.5915037222727
8750.0 73.81857355244264
9000.0 73.58616148457132
9250.0 72.6791239900699
9500.0 73.4395299494008
9750.0 75.6241357877172
10000.0 74.89847553341171
10300.0 75.52355542783286
10600.0 75.7364619575727
10900.0 75.40171569838365
11200.0 76.93286492176752
11500.0 75.55364330101669
11800.0 74.61850932333356
12200.0 74.8679136010363
12500.0 74.28555934773351
12800.0 73.1790582148422
13200.0 73.69561026361227
13600.0 74.49540584113808
14000.0 76.03172900979138
14500.0 71.09263962591501
15000.0 67.50683439156597
15500.0 69.25368743176185
16000.0 71.3287039805592
16500.0 75.96095093251563
17000.0 74.33426868091581
17500.0 69.325837687326
18000.0 70.02886025047934
18500.0 69.3568395826556
19000.0 66.09455067833422
19500.0 64.77759314376368
