Freq "Sound Power"
20.5078 48.807028426905106
21.9727 49.36529173343408
23.4375 51.55060461398017
24.9023 52.96299369302827
26.3672 54.24852298152848
27.832 55.29266667768022
29.2969 58.15198679769736
30.7617 59.55224287865144
32.2266 60.58634615714129
33.6914 61.7542689449686
35.1562 63.693830198584806
36.6211 65.03865985791717
38.0859 66.41299655087295
39.5508 67.70733571966642
41.0156 68.83060882627589
42.4805 70.2707887544687
43.9453 71.62699666288432
45.4102 72.82375685545408
46.875 75.95751584411516
48.3398 77.02521391968608
51.2695 79.03717436669918
52.7344 79.97143696476567
54.1992 80.84479207090814
55.6641 81.61383466265666
58.5938 82.88349302508857
60.0586 83.38932380555244
62.9883 84.16366342132709
64.4531 84.42171732025064
67.3828 84.73189860359827
68.8477 84.81008504111473
71.7773 84.97805500990589
74.707 85.07902145362996
77.6367 85.06890532931854
79.1016 85.06618296756155
82.0312 84.91070917009807
84.9609 84.89665762641079
87.8906 84.91159635336732
90.8203 84.99211494354986
95.2148 85.00099281096499
98.1445 85.01924486703862
101.074 85.062789122993
105.469 85.13996127705246
108.398 85.24106021624392
112.793 85.37937069315115
117.188 85.59072777576293
120.117 85.65803209334912
124.512 85.72128118952685
128.906 85.70523292748736
133.301 85.68400437477554
139.16 85.63130754435905
143.555 85.6464300487447
147.949 85.69940055199999
153.809 85.61890665762066
159.668 85.64881501636901
165.527 85.70485886314103
171.387 85.56918168964368
177.246 85.43132143071847
183.105 85.36369236729502
188.965 85.13915552706109
196.289 85.10118629732513
203.613 84.87422524000395
210.938 84.31582408391353
218.262 84.4075425632291
225.586 84.50044018578913
232.91 84.21917394561605
241.699 84.00745576453679
250.488 83.77995384578367
259.277 83.95097561620184
268.066 83.52898630138664
276.855 83.49513555663688
287.109 83.32089389506473
297.363 83.19109844725476
307.617 83.15429403810236
319.336 82.7493485795479
329.59 82.36247267892044
341.309 82.25607436363855
353.027 82.1065948581442
366.211 82.09630490463158
379.395 82.2719637779343
392.578 81.88568245896336
405.762 81.5944025159994
420.41 81.5937830060341
435.059 81.43123990796981
451.172 81.51882091532303
465.82 81.3277097089742
483.398 81.24042782608953
499.512 81.19746815894737
517.09 81.21584319005959
536.133 80.8790586962898
555.176 81.25738344575714
574.219 81.32718026455645
594.727 81.04334670661426
615.234 80.9272471699973
637.207 81.00300289894182
659.18 80.3349848498959
682.617 80.41471928070787
707.52 80.57060785826155
732.422 80.56358069366004
757.324 80.98466135520147
785.156 80.85627018408792
811.523 81.32949301804837
840.82 82.22316118348279
870.117 82.36807475718929
900.879 82.37505571939623
933.105 82.09387266689305
965.332 81.88818454972912
1000.49 81.72818783621183
1035.64 81.7356676603394
1072.27 81.30675447044692
1108.89 81.60997259444954
1148.44 81.54701413417254
1189.45 81.10237743081018
1230.47 81.3245591556743
1274.41 81.5767856490653
1319.82 82.24673283431117
1366.7 82.2957955416925
1413.57 81.6755522302341
1463.38 80.72619372385813
1516.11 79.91970576554164
1568.85 79.69143352324895
1624.51 79.23967076747832
1681.64 80.1997142297805
1741.7 80.13986473097091
1803.22 79.04761714744372
1866.21 78.6492520994021
1932.13 78.46258946373293
1999.51 78.39701427688576
2069.82 78.7755959073852
2143.07 78.6142808410655
2219.24 77.92307873537221
2296.88 77.5120914990119
2378.91 78.34463264921584
2462.4 79.23570889710803
2548.83 79.25027370522233
2639.65 78.41170691421615
2731.93 77.71697528708397
2828.61 77.77364260760874
2928.22 78.09988738086948
3030.76 78.04632673243299
3137.7 77.8400392249959
3249.02 77.44209236408409
3363.28 77.24627320397013
3481.93 77.40743612677161
3604.98 77.89442487151686
3732.42 78.28273106246343
3864.26 77.82262966271844
4000.49 77.66777595508498
4141.11 77.88067576358029
4287.6 77.97860038795118
4438.48 78.03435965882554
4595.21 77.57528992518448
4756.35 77.64890474643028
4924.8 77.75173331428442
5097.66 77.57257048150417
5277.83 77.7797394997223
5463.87 77.83942437496745
5657.23 77.82800243838787
5856.45 77.35341679079716
6062.99 77.37558474814102
6276.86 76.93397611749387
6498.05 77.06804275721112
6726.56 77.03545976370197
6963.87 76.95020121620688
7209.96 77.23311672325477
7464.84 76.85644741437851
7727.05 77.0006237058565
7999.51 76.52549625081934
8282.23 76.41693402993565
8573.73 76.22951952063079
8876.95 76.19530830461628
9188.96 75.8654468075959
9514.16 75.66522938948968
9849.61 75.11762577795552
10196.8 74.88199115221568
10555.7 74.73808807418521
10927.7 75.13824474964193
11313.0 75.52948933257773
11712.9 75.59891916361666
12126.0 75.54383455388788
12553.7 75.87305725814161
12996.1 76.45443530471542
13454.6 77.33337930517115
13929.2 79.02157286424153
14419.9 80.8241333703806
14928.2 82.0041005814367
15455.6 81.02205404597746
16000.5 78.23259892306871
16564.5 75.36511982039022
17148.9 73.31283370100331
17752.4 71.33463145649206
18379.4 69.6602693911477
19026.9 68.43116899193846
19697.8 67.55935762501002
19999.5 67.25048027705972
