Freq "Listening Window"
22.4 7.915962556089184
23.0 11.116682541191935
23.6 15.027165928427834
24.0 17.571917650768412
25.0 19.47470880664666
25.8 20.992369270811636
26.5 21.5931776694503
27.2 20.33740944519967
28.0 21.270586484152986
29.0 22.797594613495576
30.0 25.192390958448627
30.7 28.93123475944425
31.5 32.41176214200577
32.5 35.72641926917565
33.5 38.17094572065916
34.5 39.95794501995404
35.5 41.45439502080269
36.5 43.64953053415131
37.5 46.03233955336033
38.7 48.79091765488418
40.0 52.83351320130926
41.2 56.30144039138612
42.5 58.6226418620132
43.7 60.22136613974453
45.0 62.14794715084035
46.2 65.2845785438394
47.5 68.2556436535214
48.7 71.16653975367238
50.0 76.6201989829624
51.5 75.71030668809796
53.0 75.40472229435183
54.5 76.22628807039789
56.0 77.18306480951053
58.0 77.90712904888714
60.0 78.40554744357604
61.5 78.71879086111373
63.0 78.84798731303265
65.0 78.9659278134395
67.0 79.0740422453266
69.0 79.24814353765574
71.0 79.47010426152404
73.0 79.73986645396606
75.0 79.98201335514834
77.5 80.13819370492182
80.0 80.25660903212372
82.5 80.3452412839341
85.0 80.27976991419725
87.5 80.34797456762168
90.0 80.49150849926947
92.5 80.33537860047517
95.0 80.37015679532892
97.5 80.30568761656278
100.0 80.28853021896397
103.0 80.22643957443363
106.0 80.08476343897209
109.0 80.0282094626276
112.0 79.92281788024489
115.0 79.84646785915457
118.0 79.62006662479708
122.0 79.61552827887353
125.0 79.55810115699573
128.0 79.49051745064966
132.0 79.41426973223308
136.0 79.31476245148907
140.0 79.26161269786733
145.0 79.13887271586715
150.0 79.17828455909851
155.0 79.113841120683
160.0 79.06339119164579
165.0 78.96844124804232
170.0 79.05999741128942
175.0 79.13599994641443
180.0 79.24294300488557
185.0 79.39523017250069
190.0 79.56563446837502
195.0 79.74046309888085
200.0 80.05936182290316
206.0 80.30664412800785
212.0 80.55296093794328
218.0 80.88122135627347
224.0 81.15685539394495
230.0 81.35409306240275
236.0 81.3713889899492
240.0 81.50794149632995
250.0 81.70411964518814
258.0 81.75533620138678
265.0 81.62268477546145
272.0 81.28109455506248
280.0 80.81726979416075
290.0 80.1108429113323
300.0 79.30125636351512
307.0 78.61167413085556
315.0 78.04799209004848
325.0 77.58727672362511
335.0 77.56953343635297
345.0 78.25099702780163
355.0 79.27866244538687
365.0 80.29289418548764
375.0 80.99289418548764
387.0 81.32257184611926
400.0 81.23844216334294
412.0 80.856545013945
425.0 80.44774238858626
437.0 80.1808939086454
450.0 80.1725805481923
462.0 80.31311745747462
475.0 80.61510613405682
487.0 80.83068812774151
500.0 80.92762704669748
515.0 81.0954684443987
530.0 81.49792205465133
545.0 81.8120054161297
560.0 81.92293808597165
580.0 81.52517387993572
600.0 81.13343605223847
615.0 80.80919935115459
630.0 80.61690967235539
650.0 80.53602358208992
670.0 80.53681689430356
690.0 80.4935943320253
710.0 80.45430393184562
730.0 80.31276749062509
750.0 79.9313383396019
775.0 79.56956484384523
800.0 79.54604835028142
825.0 79.75291099088487
850.0 79.87376468070754
875.0 80.31462382298027
900.0 80.71280904305381
925.0 80.67418341063974
950.0 80.38003326949251
975.0 80.00334106515655
1000.0 79.50683224934532
1030.0 78.854856540057
1060.0 79.2306632854975
1090.0 79.83852907309189
1120.0 80.05033956657691
1150.0 79.90287137378051
1180.0 79.41468472827631
1220.0 79.1040603592571
1250.0 79.18593450077049
1280.0 79.11754236357864
1320.0 79.0617444408501
1360.0 79.22119360518882
1400.0 78.9411577300382
1450.0 78.93862855127601
1500.0 78.86461485869769
1550.0 78.44509895956435
1600.0 78.27581645369209
1650.0 78.0078586043373
1700.0 77.39419319247787
1750.0 77.49841122513561
1800.0 78.2135649573457
1850.0 79.2515427576479
1900.0 79.97983096448563
1950.0 80.22204510155724
2000.0 79.41391136997025
2060.0 78.1651470372103
2120.0 77.62578955702753
2180.0 78.11810505824869
2240.0 78.55817152131749
2300.0 79.11338053930696
2360.0 79.05360595968483
2400.0 78.67156998752363
2500.0 78.37403110126112
2580.0 78.99028082354508
2650.0 80.3120681204821
2720.0 81.43916030659648
2800.0 81.40656924919203
2900.0 79.95604282476724
3000.0 79.48791036073423
3070.0 79.42024599120366
3150.0 79.87861606612886
3250.0 80.19867980662804
3350.0 80.23975466781191
3450.0 80.38558648929796
3550.0 81.04471865440946
3650.0 81.51008433983637
3750.0 80.6886199983434
3870.0 80.06254067969394
4000.0 81.03545667873357
4120.0 82.38396149915492
4250.0 82.00698981219072
4370.0 81.60874443821133
4500.0 81.21506018061596
4620.0 80.03221131411941
4750.0 80.08710081485539
4870.0 80.57843242179831
5000.0 82.263859522198
5150.0 81.55290797656983
5300.0 80.41713148390934
5450.0 80.80115401758131
5600.0 80.43667442637148
5800.0 81.88531011838985
6000.0 82.45285390137852
6150.0 80.73726603181088
6300.0 81.24048086477374
6500.0 81.51319868357754
6700.0 82.39784593417887
6900.0 82.32893125687256
7100.0 81.79211134083836
7300.0 81.95095293091192
7500.0 82.03092292495406
7750.0 82.42848339228912
8000.0 82.05810012866156
8250.0 83.53288904535056
8500.0 83.08964245493904
8750.0 83.10558073780412
9000.0 83.88348556261217
9250.0 83.92654450063732
9500.0 83.51648643488768
9750.0 84.53268936345098
10000.0 84.65431480606917
10300.0 84.56686771334881
10600.0 84.72868909539798
10900.0 84.13903509837766
11200.0 83.49895657324541
11500.0 83.32318439364664
11800.0 83.1394074425368
12200.0 82.26668977176936
12500.0 83.57938519147143
12800.0 82.40847347418263
13200.0 83.30375742546113
13600.0 84.40210424517609
14000.0 83.99315177050975
14500.0 83.01196228924688
15000.0 80.20619225300688
15500.0 79.06284037556595
16000.0 77.23408527132104
16500.0 73.50798997405761
17000.0 73.50802421340877
17500.0 74.46268765272394
18000.0 73.98183593575853
18500.0 70.27345895184224
19000.0 63.83927112262357
19500.0 56.731110411493304
