Freq "Front Wall Bounce"
22.4 -14.56908015674702
23.0 -13.369080156747032
23.6 -11.997771887877974
24.0 -9.822101915681742
25.0 -7.705456707953715
25.8 -5.749414079164467
26.5 -3.889619991231598
27.2 -2.132664064482185
28.0 -0.48961999123159217
29.0 1.1540362069617913
30.0 2.9797113297807982
30.7 5.188617817430838
31.5 7.199514434544426
32.5 9.096478118599606
33.5 10.823717050177123
34.5 12.493809314473424
35.5 14.178628697158302
36.5 16.33508205956653
37.5 18.348439870321556
38.7 20.233449344123756
40.0 21.96206642493459
41.2 23.63344934412376
42.5 25.81805589059391
43.7 28.059409827879847
45.0 30.058413405029512
46.2 31.90132328177694
47.5 33.70132328177695
48.7 35.88651449586098
50.0 37.90132328177697
51.5 39.729794997559054
53.0 41.486514495860945
54.5 43.51508314243884
56.0 45.44313939533782
58.0 47.17199384997417
60.0 48.929133924942875
61.5 50.828807156745285
63.0 52.54313939533782
65.0 54.15742449135814
67.0 55.87166275391891
69.0 57.471662753918906
71.0 58.971662753918906
73.0 60.48585448910238
75.0 61.98585448910238
77.5 63.35742449135816
80.0 64.75742449135815
82.5 66.05742449135813
85.0 67.37166275391891
87.5 68.6
90.0 69.78585448910238
92.5 70.94313939533782
95.0 71.95742449135815
97.5 72.84313939533781
100.0 73.5147553152921
103.0 73.94346508697899
106.0 74.14346508697898
109.0 74.14346508697898
112.0 74.08683695097147
115.0 73.94346508697899
118.0 73.77231738497822
122.0 73.55808127197247
125.0 73.38683695097147
128.0 73.2297799508283
132.0 73.10130813607779
136.0 73.01573126164821
140.0 73.0297799508283
145.0 72.9726484311316
150.0 72.90163697981933
155.0 72.85905509047517
160.0 72.87361898907655
165.0 72.88813421139207
170.0 72.75905509047516
175.0 72.57361898907655
180.0 72.54572993968823
185.0 72.5317328344666
190.0 72.5317328344666
195.0 72.51769047133516
200.0 72.41769047133513
206.0 72.24638849111075
212.0 72.17622924621439
218.0 72.17622924621439
224.0 72.23433121630158
230.0 72.30454428904085
236.0 72.19073576156003
240.0 72.13467294907281
250.0 72.26391523505612
258.0 72.27780916640859
265.0 72.22061722241048
272.0 72.2365655624132
280.0 72.16391523505614
290.0 72.12285863338771
300.0 72.12285863338771
307.0 72.17980113017339
315.0 72.23874793859183
325.0 72.18170461979825
335.0 72.15120494709463
345.0 72.21031993444983
355.0 72.3228586333877
365.0 72.36933491228605
375.0 72.29803157706357
387.0 72.11213754547688
400.0 71.75718203118218
412.0 71.41031993444984
425.0 71.21031993444983
437.0 71.4538369797517
450.0 71.39396633921857
462.0 71.36653957825426
475.0 71.66880906606747
487.0 71.51172131174852
500.0 71.16910435091776
515.0 71.1044796986526
530.0 71.08968169008196
545.0 70.88187660393795
560.0 71.09460907312815
580.0 70.8203857253813
600.0 70.49460907312816
615.0 70.37129196116675
630.0 69.87869016189387
650.0 69.93658445725345
670.0 69.7252186901643
690.0 69.71824270116352
710.0 69.45817721493839
730.0 69.13031667680318
750.0 68.73472676911969
775.0 68.2621385362108
800.0 67.85891400040877
825.0 68.24425287945739
850.0 69.48792700659544
875.0 69.59264569830047
900.0 69.15777830130799
925.0 69.04007151053541
950.0 69.00515498502752
975.0 68.86927374151159
1000.0 68.15235079177913
1030.0 67.66310486676142
1060.0 68.03554641968782
1090.0 69.51511554899433
1120.0 71.016334982579
1150.0 71.69206067600878
1180.0 71.60474073255739
1220.0 71.31128990683743
1250.0 70.83783327812834
1280.0 70.57386494003606
1320.0 70.2949489461837
1360.0 70.10100061008852
1400.0 69.67239821889305
1450.0 68.41033354046938
1500.0 66.77846503180126
1550.0 65.6740782678934
1600.0 65.59839784252495
1650.0 66.56673495514322
1700.0 67.71421670567557
1750.0 68.54016964960536
1800.0 69.6147609556549
1850.0 70.80813857086262
1900.0 71.48423149302853
1950.0 71.5116020290845
2000.0 71.94493992882309
2060.0 72.82929789910101
2120.0 73.34358115331533
2180.0 73.37520161498435
2240.0 73.08729606817474
2300.0 72.39107903201133
2360.0 71.69334323923674
2400.0 71.25420846449573
2500.0 70.44294109670878
2580.0 69.779644118461
2650.0 69.88527449380265
2720.0 69.5300927292462
2800.0 69.4862712153991
2900.0 69.65104000904036
3000.0 69.80406393974988
3070.0 70.23123757404943
3150.0 70.72401879622056
3250.0 70.78709972608397
3350.0 70.40831635936543
3450.0 70.18391564737462
3550.0 69.66971756472213
3650.0 69.62177372209419
3750.0 69.70264932745931
3870.0 70.27922338318189
4000.0 70.8923169082552
4120.0 70.82674045512061
4250.0 71.14656917160426
4370.0 71.41109140039514
4500.0 72.35916659788757
4620.0 73.07498039844069
4750.0 73.11143045970812
4870.0 72.80149128271823
5000.0 72.78322822388029
5150.0 72.24682202991916
5300.0 70.90425111022716
5450.0 69.06063323974338
5600.0 67.41841197663837
5800.0 66.64702080583056
6000.0 66.3640545527546
6150.0 66.5348272543994
6300.0 67.62268550996373
6500.0 68.71885193413677
6700.0 69.29250971445747
6900.0 69.59321686639932
7100.0 69.41092726734314
7300.0 69.25240875504934
7500.0 70.15876168226069
7750.0 71.36326425973061
8000.0 71.78825980879013
8250.0 71.19465969963443
8500.0 72.29179946351418
8750.0 73.23734806033852
9000.0 73.32522469468913
9250.0 72.7103995899611
9500.0 71.36803067354876
9750.0 69.4931560277787
10000.0 69.75060908508364
10300.0 71.76518114591745
10600.0 72.93121490181525
10900.0 73.65807799563508
11200.0 73.34961728723817
11500.0 72.74613074595727
11800.0 72.70963502444305
12200.0 72.0537251864137
12500.0 71.16828560102194
12800.0 71.25354100469377
13200.0 72.73355886999143
13600.0 73.45169116038588
14000.0 72.45315455003038
14500.0 69.70861167876518
15000.0 67.34923942588047
15500.0 69.85825489205037
16000.0 74.22876943883671
16500.0 75.8949060574395
17000.0 73.1793827080862
17500.0 70.49750966385903
18000.0 65.92492291080869
18500.0 59.71897984332038
19000.0 56.2507137510633
19500.0 55.95284455237112
