Freq "On Axis"
22.4 22.80000000000001
23.0 23.599999999999994
23.6 24.400000000000006
24.0 25.30000000000001
25.0 26.19999999999999
25.8 27.30000000000001
26.5 28.5
27.2 30.0
28.0 31.5
29.0 33.19999999999999
30.0 34.69999999999999
30.7 36.19999999999999
31.5 37.80000000000001
32.5 39.400000000000006
33.5 41.099999999999994
34.5 42.69999999999999
35.5 44.30000000000001
36.5 45.80000000000001
37.5 47.19999999999999
38.7 48.69999999999999
40.0 50.400000000000006
41.2 51.900000000000006
42.5 53.2
43.7 54.5
45.0 55.8
46.2 57.2
47.5 58.599999999999994
48.7 59.80000000000001
50.0 61.0
51.5 62.2
53.0 63.2
54.5 64.2
56.0 65.1
58.0 66.0
60.0 67.0
61.5 67.8
63.0 68.6
65.0 69.2
67.0 69.80000000000001
69.0 70.4
71.0 70.8
73.0 71.20000000000002
75.0 71.6
77.5 71.9
80.0 72.1
82.5 72.30000000000001
85.0 72.4
87.5 72.4
90.0 72.4
92.5 72.5
95.0 72.5
97.5 72.6
100.0 72.6
103.0 72.69999999999999
106.0 72.9
109.0 73.1
112.0 73.4
115.0 73.6
118.0 73.79999999999998
122.0 73.9
125.0 74.0
128.0 73.9
132.0 73.9
136.0 73.70000000000002
140.0 73.5
145.0 73.3
150.0 73.2
155.0 73.3
160.0 73.4
165.0 73.6
170.0 73.9
175.0 74.2
180.0 74.3
185.0 74.3
190.0 74.2
195.0 74.0
200.0 73.79999999999998
206.0 73.6
212.0 73.4
218.0 73.2
224.0 72.8
230.0 72.2
236.0 71.6
240.0 71.0
250.0 70.8
258.0 71.1
265.0 71.7
272.0 72.2
280.0 72.6
290.0 72.69999999999999
300.0 72.69999999999999
307.0 72.69999999999999
315.0 72.9
325.0 72.8
335.0 72.9
345.0 73.3
355.0 73.9
365.0 74.2
375.0 74.1
387.0 73.79999999999998
400.0 73.79999999999998
412.0 73.79999999999998
425.0 73.79999999999998
437.0 73.9
450.0 73.70000000000002
462.0 73.3
475.0 73.0
487.0 72.8
500.0 72.4
515.0 72.5
530.0 73.0
545.0 73.79999999999998
560.0 74.5
580.0 74.7
600.0 74.6
615.0 74.5
630.0 74.4
650.0 74.5
670.0 74.4
690.0 74.3
710.0 74.2
730.0 74.2
750.0 74.2
775.0 74.6
800.0 74.9
825.0 74.9
850.0 75.0
875.0 74.9
900.0 74.9
925.0 74.80000000000001
950.0 74.80000000000001
975.0 75.1
1000.0 75.3
1030.0 75.5
1060.0 75.4
1090.0 75.1
1120.0 74.6
1150.0 74.2
1180.0 73.9
1220.0 73.70000000000002
1250.0 73.6
1280.0 73.6
1320.0 73.9
1360.0 74.2
1400.0 74.80000000000001
1450.0 74.9
1500.0 75.0
1550.0 74.9
1600.0 74.6
1650.0 74.3
1700.0 73.9
1750.0 73.5
1800.0 73.2
1850.0 73.0
1900.0 72.9
1950.0 73.5
2000.0 73.79999999999998
2060.0 74.2
2120.0 74.6
2180.0 74.80000000000001
2240.0 74.7
2300.0 74.7
2360.0 75.6
2400.0 76.6
2500.0 76.8
2580.0 76.1
2650.0 75.1
2720.0 74.7
2800.0 74.6
2900.0 74.2
3000.0 73.79999999999998
3070.0 73.79999999999998
3150.0 74.4
3250.0 74.7
3350.0 74.9
3450.0 75.0
3550.0 74.7
3650.0 73.6
3750.0 72.2
3870.0 72.5
4000.0 74.3
4120.0 75.1
4250.0 75.5
4370.0 75.6
4500.0 75.19999999999999
4620.0 74.2
4750.0 74.2
4870.0 75.5
5000.0 75.9
5150.0 75.0
5300.0 74.5
5450.0 74.2
5600.0 73.79999999999998
5800.0 73.5
6000.0 73.6
6150.0 74.3
6300.0 74.7
6500.0 74.7
6700.0 74.0
6900.0 72.9
7100.0 71.8
7300.0 71.5
7500.0 72.4
7750.0 74.5
8000.0 75.8
8250.0 75.7
8500.0 75.19999999999999
8750.0 74.5
9000.0 73.9
9250.0 72.4
9500.0 72.5
9750.0 73.2
10000.0 73.5
10300.0 74.0
10600.0 73.79999999999998
10900.0 74.4
11200.0 75.3
11500.0 75.6
11800.0 74.5
12200.0 75.4
12500.0 74.7
12800.0 71.6
13200.0 70.0
13600.0 70.1
14000.0 72.2
14500.0 72.4
15000.0 70.3
15500.0 70.19999999999999
16000.0 78.0
16500.0 77.2
17000.0 73.1
17500.0 72.2
18000.0 71.6
18500.0 69.9
19000.0 68.5
19500.0 69.6
