Freq,Floor Bounce,Ceiling Bounce,Front Wall Bounce,Side Wall Bounce,Rear Wall Bounce,Total Early Reflection
20.5078,50.78391446554269,48.6312716017257,49.80563747559327,50.06615914468543,50.639193322996306,50.04977593448518
21.9727,52.55939646861293,50.6669667284651,51.684375108736646,51.90422124814572,52.41141429895268,51.895046634891514
23.4375,54.67208831339815,52.705204994210135,53.79047333090736,53.98141377259566,54.43940255374076,53.969204804605056
24.9023,55.43673254392138,53.29834318721578,54.502031354694964,54.566014683605545,54.68991278891082,54.55136769274918
26.3672,57.83031918464357,55.91905734818394,56.987806621725895,57.04794992252451,57.1735230698722,57.034097273850705
27.832,59.57429200233628,57.854118230192995,58.81819539770126,58.844372519884985,58.88683719513364,58.829536718716014
29.2969,61.23369990705004,59.52425080414375,60.452940181109966,60.56371341560494,60.86786584441505,60.56485072093041
30.7617,63.706341524771005,62.20160528727811,63.043610736049715,63.07362998507091,63.14879674789489,63.061006414423986
32.2266,65.78788730695727,64.54003472352119,65.24872096745135,65.22926207089783,65.18090188477076,65.21528675367651
33.6914,66.96468460650746,65.73712975208905,66.41533809961687,66.4379289064148,66.50728574439083,66.42996851792441
35.1562,68.26853460395324,67.07337821463754,67.71786609217781,67.77996964809262,67.97263403067441,67.78003783032935
36.6211,69.9472107184799,68.65067634528603,69.39951305085432,69.38578767518649,69.34122165397369,69.3642287366003
38.0859,71.81849467469398,70.77910157019215,71.37311526107072,71.34811472658085,71.29591916594134,71.33543115003853
39.5508,72.68936774218568,71.64109040505666,72.25985124986502,72.19727687003132,72.04484218456204,72.17969035848357
41.0156,73.46552421094943,72.45976705981926,73.05665342999961,72.98625619439241,72.81524257859807,72.96905536175854
42.4805,74.16552532057658,73.18970595488315,73.77459668016932,73.69344398913442,73.49522543067089,73.67565277791846
43.9453,74.755007122327,73.80332529802438,74.3801862374657,74.28697372788312,74.0573408864433,74.26834304297003
45.4102,75.22300482556497,74.29999350887147,74.86091429770654,74.76666261316119,74.53492990853107,74.74829027764497
46.875,75.61379177558467,74.70847094036972,75.2599141492135,75.16565888154383,74.93763944362804,75.14787694415017
48.3398,75.99735820628416,75.0999658049414,75.65203062338922,75.54690560946449,75.29339382189175,75.52888511616926
51.2695,76.54146566549592,75.64723214392272,76.21329299118815,76.0664315816123,75.72277596965418,76.05067226839225
52.7344,76.84651345782314,75.95347570254818,76.52082511050989,76.37122579239282,76.02445180493385,76.35577799331104
54.1992,77.17568695052206,76.28678676856612,76.85428556097207,76.70112183409017,76.34965278023971,76.68600629059411
55.6641,77.5022802715025,76.6327011436226,77.19012831172367,77.03524240861248,76.68474341098857,77.02113528529219
58.5938,78.15492720221896,77.30124146464618,77.85314925296119,77.69095427201988,77.32884498277758,77.67788709093759
60.0586,78.46988897568478,77.61723758209087,78.16912600799094,78.00779055466379,77.6547249000693,77.99564269820875
62.9883,79.05210421486109,78.21557875581632,78.76276124476044,78.59721098714935,78.24656703042271,78.58641953277163
64.4531,79.3012212657473,78.48169771198884,79.02339248593344,78.84822134197458,78.4798319753031,78.83851845190392
67.3828,79.89144095000236,79.11073804732007,79.6284082409914,79.44757741848024,79.06126932521784,79.43922012883166
68.8477,80.19144697335115,79.40666529862098,79.92640783588863,79.74747372431601,79.37442431562951,79.74044322598087
71.7773,80.7960975661794,80.01516611123641,80.53451020681736,80.35311362411541,79.98836232093507,80.34843415677733
74.707,81.25834071651494,80.48397379643278,81.00230048977735,80.81567128180147,80.45279685338818,80.81351843448154
77.6367,81.63898665795341,80.86921874525936,81.3875916202621,81.19475396804012,80.83010486371022,81.19506126415936
79.1016,81.87251261358998,81.10498699695633,81.62309340607679,81.42844602621835,81.06669528098024,81.43001321973864
82.0312,82.30036569236363,81.53283674752569,82.05372519879646,81.85457096764748,81.49701174623172,81.85855465266592
84.9609,82.55515094463719,81.78281546785654,82.31099167258625,82.10392358784148,81.74799836854574,82.11118363207643
87.8906,82.76899549119699,82.05348763472806,82.55000171759843,82.3344186126878,81.97720792265923,82.34702723540359
90.8203,83.11962484369367,82.41657223128314,82.91378879001957,82.67332648903641,82.28710480148641,82.69296639964536
95.2148,83.28536132466044,82.55278776972469,83.07228088469304,82.82211862942168,82.42776868790465,82.84371152669165
98.1445,83.32305589763003,82.58508497960115,83.11065877346643,82.85456936436918,82.46416425859434,82.87926175339322
101.074,83.41148036399343,82.66411679529432,83.20062815074648,82.93218429035333,82.53001904556501,82.96001298434419
105.469,83.38512708434506,82.6498172831372,83.18667382778705,82.8990266441844,82.45971307359898,82.92926452859376
108.398,83.33689186201774,82.61764035888895,83.14106026987838,82.85581297801386,82.4340934116018,82.88966242401128
112.793,83.27086987348537,82.51320238303849,83.05920884604939,82.77068476171519,82.3799679223944,82.8114520484857
117.188,83.04942346467023,82.18600276781189,82.80976647149338,82.50184485404752,82.1147923042163,82.54715970065755
120.117,82.98634261049507,82.1978085209445,82.7936767258003,82.45312265875017,82.00877589782229,82.50308867788712
124.512,83.02004333238615,82.2502195479174,82.82501128509706,82.48536631540185,82.05109592191633,82.54102896508354
128.906,82.85971187421276,82.02817875632124,82.65011215307203,82.28712333332851,81.83988782778302,82.34952990073239
133.301,82.71157561595143,81.86832116661677,82.506165818473,82.12347627444784,81.61183017693742,82.18294197390034
139.16,82.42081431731096,81.53836645787533,82.19787262638555,81.81547242607388,81.34862659127228,81.88259520910651
143.555,82.28471173379056,81.35709723544272,82.05775341202167,81.64906675620585,81.17258361314012,81.72429241073505
147.949,82.21168170238934,81.33250953985791,82.02049345309312,81.57489447143041,81.08102905304285,81.66447147904148
153.809,82.10648061125232,81.18084409776507,81.9028697708555,81.43883705239051,80.87075669877578,81.52369306019216
159.668,81.79358521366427,80.93275416269897,81.6081667491136,81.16142341312596,80.62737274274258,81.24574793368653
165.527,81.52798436071924,80.52652026504919,81.30694016893207,80.79182428713777,80.28937709227598,80.9135633264282
171.387,81.40215603304001,80.51903027978126,81.25053796629403,80.66567950948942,79.96268260049371,80.79094068850041
177.246,81.3475583137446,80.39418067584599,81.15804564323157,80.59168290783026,79.93896240714555,80.71617680199878
183.105,81.23818383016942,80.27267126782462,81.05549927334614,80.47006482631288,79.85110395999442,80.60729579175299
188.965,81.19906748987077,80.2076427947487,81.02624531460152,80.4015126380856,79.71763179604379,80.54414941455448
196.289,81.04091916191395,80.0224418406019,80.86441111701937,80.20245769029158,79.65280915828437,80.38790338259136
203.613,80.98232966029578,79.97270151700585,80.85047577990565,80.09231149708809,79.25801499010998,80.27618601236662
210.938,80.83676694580397,79.89251042258248,80.7423765864756,79.95661074512202,79.01374594212879,80.1379435398199
218.262,80.8497246443317,79.96045861694893,80.73721435499586,80.0060972185907,79.0552534981886,80.16862721794965
225.586,80.6353516201294,79.58087383225964,80.45052120138409,79.69704662692752,79.04561797952331,79.92127809699028
232.91,80.67986378399067,79.40323855621413,80.48761923376668,79.58513876542808,78.6838366005479,79.82935931095368
241.699,80.61466728356874,79.26716551326791,80.41787879680085,79.42936871628952,78.29763927577785,79.68516148307707
250.488,80.60285093364811,79.14590540935237,80.4149883643062,79.40183411905268,78.05638355870792,79.62007171674472
259.277,80.8262835797114,79.7325885953509,80.78885657377933,79.72730704531996,78.03630533515887,79.93385484106133
268.066,80.81705397199782,79.78658319523161,80.71770239449651,79.77738679644018,78.68071257689564,80.02321281642446
276.855,80.67947779220452,79.02786981805654,80.3990950131864,79.2481736919934,77.97931845460386,79.57516467717903
287.109,80.71471376909044,79.3157902109765,80.56332174052059,79.4911018711638,77.92386718954734,79.71372392962675
297.363,80.99509793459904,79.59082419197532,80.87074382522337,79.59669731815303,77.57975114106827,79.88887084113465
307.617,80.78481581161898,79.42231004051222,80.54708308856596,79.59789467268126,78.17657219396602,79.80137428709838
319.336,80.62443135985504,78.6949796179529,80.26330688313372,79.0864456427397,77.35697791947933,79.35709792870881
329.59,80.40480576370953,78.1444664369913,80.0107691200416,78.79965413111039,77.01133824882527,79.04552010123791
341.309,80.74200813618916,78.54490198374867,80.65100488636419,79.13320814513071,76.91599435120008,79.41908112280011
353.027,80.53913178957143,79.21729453420042,80.86121313972656,79.04331864334948,76.76956002910458,79.50770210927428
366.211,80.678354552623,79.96034401731316,81.12591918563226,79.46413554529558,77.70827186076659,79.93860639999278
379.395,80.15813374079114,79.8815578920312,80.69550485141863,78.97359924746056,77.37815401957775,79.56183675258453
392.578,80.77858987914541,80.26412055058991,81.16346022335613,79.13257700006153,76.66665129605994,79.86715783206783
405.762,81.11279878194532,80.38757595895643,81.13296218451353,79.40342240990161,77.09945375028079,80.058588062725
420.41,81.55372073955867,80.01877322819446,81.22551972654874,79.18758621388591,76.8860636530922,80.06729177938466
435.059,81.86228294229757,79.79305709359065,81.49477566005031,79.70254156649644,76.88778826699,80.27099522938819
451.172,81.76937197427436,79.56156173143201,81.45034611700748,79.62523542343706,76.50339127141964,80.14330393992522
465.82,81.8857959366546,79.79002264743029,81.57968153347646,79.8348920395772,76.20709431979637,80.26574160715755
483.398,81.97460595966132,79.92556069014668,81.81732174898455,80.24582061879202,76.42220848508916,80.47294930520069
499.512,82.11541092517223,80.42024498661559,82.00997235627293,80.49628596567395,76.58721502261659,80.71478241706033
517.09,81.88402587391793,80.31122387122133,81.7722432913282,80.27796631090213,76.2742666351693,80.50108739634496
536.133,82.04058785053923,80.08297865560786,81.8080800512301,80.27573565986,76.4500461081041,80.52506883873966
555.176,82.02431872395921,80.10079021691988,81.86370350608766,80.45779046685148,76.51764865237304,80.57884109968718
574.219,82.19042438015263,79.79929381495725,82.22910166901725,80.53102060133746,75.45566238389426,80.6166241313158
594.727,82.39543718346437,80.5416356177899,82.53322916740574,81.46372843161315,75.80477016111291,81.10059970522425
615.234,82.14237650168891,80.04122321768854,82.21895741030761,81.03609776596545,76.23726667687242,80.7947006776819
637.207,81.70476984979473,79.87352742993728,81.8634754740681,82.09092590174706,76.95511853720572,80.86526212746239
659.18,81.09388007282413,78.47960021591886,81.29537065774846,81.47531750433642,78.8617203523105,80.42383083998018
682.617,82.87015913713697,78.863192753509,82.60930223383076,80.99033294295167,78.14879988846435,81.09839520378335
707.52,83.69038984325562,80.15072630209347,83.72614662050918,81.6080566663979,77.33031229850027,81.88740906113236
732.422,83.84235407557163,79.5187683900811,83.53638791497438,81.92667829965713,77.533795087942,81.87526608931307
757.324,84.52250542407438,79.63426925660238,84.05040932014188,81.76175046945104,78.3719989067091,82.29484639860003
785.156,85.73723663924378,78.27962174230024,84.24342191645508,81.89252553597237,77.93625807655538,82.66931207295782
811.523,84.0556327189107,68.43246525901768,80.33506445942984,78.13252438676493,76.54482229459617,79.81909491693503
840.82,78.83470719146389,74.51942324202119,71.5070436358879,68.73675224183985,70.21531615905454,74.37462812995484
870.117,74.4088207521925,79.07819891210723,77.65137923911632,73.83987761828004,67.5912935457549,75.94736358869424
900.879,78.31680752486001,81.44896503798984,82.23389554944985,78.52701333843217,72.36158982754431,79.66793227053833
933.105,81.04412368083737,82.90633012273392,84.52223145962157,80.80165457829477,74.80626670983281,81.79693705934399
965.332,82.38418918532881,82.56441990128756,84.88475905937798,81.66099551179755,74.79727866615406,82.24455296429097
1000.49,82.05459973526743,82.49331707368435,84.56570292516757,80.96902447480552,75.66623788305083,81.9647857680769
1035.64,82.00604168912619,82.3452969968186,84.47077872397637,81.08964326916976,74.37119665606998,81.85338994436832
1072.27,81.78844309302919,82.45691569728979,84.54400444674016,81.22206525477951,74.81904246436582,81.90087462653933
1108.89,81.59797552380526,82.72427466862,84.88912854870014,81.44091104033727,74.14511619800457,82.06989452858772
1148.44,82.55646529787235,82.94662922058579,85.64830674306162,82.09970405981534,75.48330216904374,82.75034147237247
1189.45,82.65851739026262,82.17031160927951,85.53658719471399,81.8980087279894,74.82393908058582,82.51520876224781
1230.47,82.31776998438774,81.1862728135874,84.9878997422393,81.20459675006295,74.27205288214539,81.90884002781273
1274.41,81.82441426215405,80.56737004828312,84.63752024897624,80.5579606472513,73.43131961173079,81.41648014064526
1319.82,81.24120276823464,79.06762446581034,84.2453471186212,79.77583915300848,72.72866611591921,80.74277176591592
1366.7,81.32747379694841,77.0357701869054,84.57786197762883,80.19389403871091,72.07091786243492,80.74741818738158
1413.57,81.6442550241348,73.12258409317468,84.5245910048579,79.83975855795053,72.57425451586336,80.52658490271921
1463.38,81.68495438257577,72.37932229087684,83.29096523772904,79.06900264468612,72.13606153866652,79.77819569166762
1516.11,79.86388533026037,77.64985121708645,81.93133915997808,78.14051002839749,71.78899493473187,78.93644074779999
1568.85,77.82450465270564,78.9299268933984,81.00317801797163,77.5621698050391,71.38463332399014,78.26778280953428
1624.51,75.5168908195952,80.92631500879037,80.50456007841022,77.75336102888195,70.95133629919522,78.37304565065212
1681.64,72.35700584199614,82.6905553715188,79.96579075031536,77.41147476906065,71.58958760177127,78.7127592781676
1741.7,65.09772464614954,82.82475622004375,82.01475034299364,78.09789493741226,71.28593163066796,79.3639133233122
1803.22,70.81454727072675,79.38001325925734,83.05873832688474,78.56442965832856,71.16283244349434,78.87533471811045
1866.21,72.91780618737121,76.95430948632853,83.73051480599757,78.88084627145278,70.72968022338266,78.96924205728587
1932.13,74.07693692608697,73.53043170866326,84.16019357269549,79.27644399158497,70.26548370379983,79.07436291592118
1999.51,75.20383063023382,76.32832971087583,83.3894162428395,78.93698911585184,70.35223991239934,78.84746260742097
2069.82,75.00802835167039,74.92985369649875,82.04156483879011,76.8966104826645,69.40265373567922,77.48909414938257
2143.07,76.03729858302187,76.07584901912819,82.33072485777438,78.14706395231794,70.32551536652564,78.16564124997026
2219.24,75.40219235882088,76.78109591941221,83.067358803458,79.44067563556438,71.14956504191589,78.87547088045056
2296.88,75.674652749388,76.63626915003805,82.26996687120041,79.01672123318889,70.70942534024772,78.36573755434237
2378.91,76.37282162634827,75.22006491193791,82.41084461607748,79.55103828077716,71.39282933769074,78.51038112309678
2462.4,76.66932134273242,71.9827973156064,82.23068731702477,79.97711561777633,71.23380806316786,78.35216201531247
2548.83,76.75589833847647,69.23894912592927,81.54818675422354,79.49098395926327,71.29675624866864,77.79627606848013
2639.65,78.09402914224158,69.17689947805948,82.84026342175183,79.75696456611034,69.91170746333131,78.6855912541549
2731.93,78.76351208083037,71.16704102305076,83.27682935890829,79.96885771997732,69.99540138522929,79.14067465910398
2828.61,78.92274388386238,73.14111583232938,83.11886574045974,80.11623453130441,70.02263597266469,79.20615114135983
2928.22,79.34587415682783,73.5467128205637,82.8111815540612,80.1558750203047,70.38523358407605,79.18309419597364
3030.76,79.54388899175457,74.1241735474675,83.17999100983911,80.71846864020932,70.73906000215345,79.57791674439065
3137.7,79.3539088394063,75.46583432693829,83.02108168489725,80.84259079386952,71.26473858586795,79.60631698249745
3249.02,79.47169603578703,75.81516574520678,83.10956271400528,80.41515902945285,70.74156037550463,79.5733435785167
3363.28,79.66742551460781,76.19765755171544,83.15375388304614,80.49143096144695,70.33088568426429,79.6734339741744
3481.93,79.52959656629191,77.41530854819395,83.49057070808982,80.50312509048787,70.71383316974064,79.93293641861032
3604.98,79.63541877262563,78.60761076572167,82.9327992923185,80.62710374408901,70.54284347102725,79.89313423637363
3732.42,79.6459802940407,79.41873884877985,83.44798778788811,80.67684223760122,70.29469239611664,80.24008224132157
3864.26,79.83495848071217,79.80690065046404,83.34306006687777,80.18926989404584,69.76429383750292,80.18513199625664
4000.49,80.25947643583112,80.40535549575594,83.20231551205362,80.24588321398198,69.75813492395112,80.3363620939311
4141.11,80.7580653057193,80.35171862463005,82.99826889554232,80.35863480732709,69.53687040735842,80.37068051100938
4287.6,81.17593797089043,80.73336833574513,82.91229041447998,80.36083528617536,69.67944938420405,80.51524697743426
4438.48,81.9409641744592,79.95520189345376,83.3103853653692,80.27434859928432,69.26933930840133,80.67891588861605
4595.21,81.8887841354428,80.30027523465077,83.28773791001593,79.99527973247214,69.45195581180558,80.6710074252389
4756.35,81.77630267379439,79.79139648823237,83.27557712885002,80.51945212166783,68.96996235710708,80.63734136372454
4924.8,82.31837373270493,79.46217114990523,83.06054368530678,80.45317626724002,69.09156140401919,80.64708697328274
5097.66,82.39882597743188,79.63591845425292,83.18167350032454,80.39042848527393,68.25369664954715,80.71761998843888
5277.83,82.44660253134215,79.4863764041797,83.1290982818179,79.9251922850525,67.54099538890627,80.59954151449949
5463.87,82.6469183194717,79.01213382203855,83.13452731721031,79.63166299224008,66.919836087841,80.53995120242544
5657.23,82.67333933201826,78.91515777043813,82.8996254461012,78.6406422244774,66.2091875833728,80.29574587838545
5856.45,82.75552064738194,79.01829246593783,82.99470395084342,78.70369012969803,66.28656426938952,80.38304024184667
6062.99,82.60576293153419,79.00456055728775,83.44869884124421,78.57298321472743,65.93923325489833,80.48357314401173
6276.86,82.37084749786192,78.64975591660622,83.73801294230086,79.17449476732583,67.03239039831857,80.5699495656048
6498.05,82.29795491291728,78.34035715636495,84.5197980975901,80.42308986796436,67.62241262967935,81.05255620171995
6726.56,81.8415835653473,78.86671168075776,83.96935404221554,80.38426481399748,67.15122245701977,80.74602467766375
6963.87,81.65903082969322,79.27985720505228,83.24265583777562,79.85508952383046,66.74769818329459,80.36374322184804
7209.96,81.63643722910494,79.27667825610305,83.32374043874681,79.76324635062682,66.41493393837494,80.36998005599926
7464.84,81.83346399002941,79.36830732386355,83.62084279657553,79.62310524353941,65.81820170400428,80.52835680359175
7727.05,81.93997884598832,79.40513654495348,83.44468571772423,79.2240937574339,65.74963208012788,80.42929280376632
7999.51,81.56741603634603,79.18858404224287,82.87867890144888,78.84383787670772,65.74675684223138,80.00723848533286
8282.23,81.41726045505155,79.07241306765066,82.48518488937108,78.56581056799692,65.21647134176214,79.74767932476227
8573.73,81.40393864563508,78.86660694035635,82.51154165632995,78.32062631026935,64.4303707531566,79.67733903420155
8876.95,81.46486184502129,78.30119389262356,82.89491871516992,78.15983265120062,64.18568060539872,79.73664893016712
9188.96,81.237664736465,78.27836926319448,83.22507325961459,78.0803687699302,63.770455720244726,79.79587014799438
9514.16,81.18897035917988,78.43736908060194,83.4322319972454,78.09355034545804,63.527894678394546,79.89806457655739
