Freq "On Axis"
22.4 -3.4822784810126706
23.0 -2.582278481012665
23.6 -1.6822784810126592
24.0 -0.9822784810126706
25.0 -0.38227848101264783
25.8 1.217721518987318
26.5 2.717721518987318
27.2 3.9177215189873067
28.0 4.917721518987335
29.0 5.817721518987341
30.0 6.617721518987352
30.7 7.717721518987318
31.5 9.01772151898733
32.5 9.917721518987335
33.5 10.617721518987352
34.5 11.01772151898733
35.5 11.51772151898733
36.5 12.617721518987324
37.5 13.51772151898733
38.7 14.217721518987318
40.0 14.717721518987318
41.2 15.917721518987364
42.5 17.717721518987318
43.7 19.217721518987318
45.0 20.417721518987335
46.2 21.81772151898734
47.5 23.217721518987318
48.7 24.417721518987335
50.0 25.51772151898733
51.5 26.617721518987324
53.0 27.617721518987324
54.5 28.417721518987335
56.0 29.51772151898733
58.0 30.81772151898734
60.0 31.81772151898734
61.5 33.01772151898733
63.0 34.51772151898733
65.0 35.81772151898734
67.0 37.71772151898732
69.0 39.617721518987324
71.0 41.31772151898734
73.0 43.51772151898733
75.0 45.31772151898734
77.5 47.01772151898733
80.0 48.617721518987324
82.5 50.417721518987335
85.0 52.31772151898734
87.5 54.01772151898733
90.0 55.617721518987324
92.5 56.81772151898734
95.0 57.917721518987335
97.5 59.21772151898733
100.0 60.617721518987324
103.0 61.81772151898734
106.0 63.01772151898733
109.0 64.41772151898734
112.0 65.61772151898734
115.0 66.51772151898733
118.0 67.31772151898731
122.0 68.11772151898734
125.0 68.71772151898732
128.0 69.11772151898734
132.0 69.51772151898733
136.0 69.91772151898734
140.0 70.21772151898733
145.0 70.41772151898734
150.0 70.61772151898734
155.0 70.71772151898733
160.0 70.81772151898734
165.0 70.81772151898734
170.0 70.81772151898734
175.0 70.91772151898734
180.0 70.91772151898734
185.0 70.91772151898734
190.0 70.91772151898734
195.0 70.91772151898734
200.0 70.81772151898734
206.0 70.71772151898733
212.0 70.61772151898734
218.0 70.51772151898733
224.0 70.41772151898734
230.0 70.31772151898733
236.0 70.21772151898733
240.0 70.21772151898733
250.0 70.21772151898733
258.0 70.21772151898733
265.0 70.31772151898733
272.0 70.31772151898733
280.0 70.51772151898733
290.0 70.61772151898734
300.0 70.61772151898734
307.0 70.71772151898733
315.0 70.81772151898734
325.0 70.91772151898734
335.0 71.01772151898733
345.0 71.21772151898732
355.0 71.31772151898733
365.0 71.41772151898734
375.0 71.51772151898733
387.0 71.51772151898733
400.0 71.61772151898734
412.0 71.61772151898734
425.0 71.41772151898734
437.0 71.41772151898734
450.0 71.31772151898733
462.0 71.21772151898732
475.0 71.11772151898735
487.0 71.11772151898735
500.0 71.21772151898732
515.0 71.31772151898733
530.0 71.41772151898734
545.0 71.51772151898733
560.0 71.61772151898734
580.0 71.51772151898733
600.0 71.51772151898733
615.0 71.41772151898734
630.0 71.21772151898732
650.0 71.01772151898733
670.0 70.81772151898734
690.0 70.71772151898733
710.0 70.71772151898733
730.0 70.81772151898734
750.0 71.11772151898735
775.0 71.31772151898733
800.0 71.41772151898734
825.0 71.41772151898734
850.0 71.31772151898733
875.0 71.11772151898735
900.0 71.01772151898733
925.0 70.91772151898734
950.0 71.01772151898733
975.0 71.21772151898732
1000.0 71.31772151898733
1030.0 71.31772151898733
1060.0 71.31772151898733
1090.0 71.21772151898732
1120.0 71.21772151898732
1150.0 71.21772151898732
1180.0 71.01772151898733
1220.0 70.81772151898734
1250.0 70.81772151898734
1280.0 70.81772151898734
1320.0 70.81772151898734
1360.0 70.51772151898733
1400.0 70.31772151898733
1450.0 70.41772151898734
1500.0 70.41772151898734
1550.0 70.41772151898734
1600.0 70.41772151898734
1650.0 70.51772151898733
1700.0 70.71772151898733
1750.0 71.01772151898733
1800.0 71.21772151898732
1850.0 71.11772151898735
1900.0 71.11772151898735
1950.0 71.11772151898735
2000.0 71.21772151898732
2060.0 71.31772151898733
2120.0 71.41772151898734
2180.0 71.41772151898734
2240.0 71.41772151898734
2300.0 71.61772151898734
2360.0 71.81772151898733
2400.0 71.81772151898733
2500.0 71.71772151898733
2580.0 71.31772151898733
2650.0 71.11772151898735
2720.0 71.21772151898732
2800.0 71.51772151898733
2900.0 71.41772151898734
3000.0 71.31772151898733
3070.0 71.31772151898733
3150.0 71.31772151898733
3250.0 71.41772151898734
3350.0 71.71772151898733
3450.0 72.01772151898733
3550.0 71.91772151898734
3650.0 71.81772151898733
3750.0 71.71772151898733
3870.0 71.81772151898733
4000.0 71.71772151898733
4120.0 71.71772151898733
4250.0 71.71772151898733
4370.0 71.71772151898733
4500.0 71.71772151898733
4620.0 71.81772151898733
4750.0 71.91772151898734
4870.0 71.91772151898734
5000.0 71.91772151898734
5150.0 71.81772151898733
5300.0 71.61772151898734
5450.0 71.51772151898733
5600.0 71.31772151898733
5800.0 71.01772151898733
6000.0 70.61772151898734
6150.0 70.31772151898733
6300.0 70.01772151898733
6500.0 70.11772151898732
6700.0 70.51772151898733
6900.0 70.91772151898734
7100.0 71.21772151898732
7300.0 71.51772151898733
7500.0 71.91772151898734
7750.0 71.91772151898734
8000.0 71.31772151898733
8250.0 70.51772151898733
8500.0 69.71772151898735
8750.0 69.71772151898735
9000.0 70.41772151898734
9250.0 70.91772151898734
9500.0 71.01772151898733
9750.0 71.11772151898735
10000.0 71.51772151898733
10300.0 71.51772151898733
10600.0 70.81772151898734
10900.0 70.11772151898732
11200.0 69.91772151898734
11500.0 69.31772151898733
11800.0 68.71772151898732
12200.0 68.31772151898734
12500.0 67.81772151898733
12800.0 67.11772151898734
13200.0 66.81772151898733
13600.0 66.81772151898733
14000.0 66.61772151898734
14500.0 66.51772151898733
15000.0 64.91772151898734
15500.0 63.71772151898732
16000.0 65.51772151898733
16500.0 66.91772151898734
17000.0 68.51772151898733
17500.0 69.11772151898734
18000.0 68.81772151898733
18500.0 67.71772151898733
19000.0 65.51772151898733
19500.0 62.01772151898733
