Freq "On Axis"
20.5078 51.68651060606064
21.9727 54.930510606060636
23.4375 58.702710606060634
24.9023 61.64781060606063
26.3672 63.80611060606063
27.832 66.08181060606063
29.2969 68.45021060606064
30.7617 70.76521060606063
32.2266 72.88701060606063
33.6914 74.54651060606064
35.1563 76.30621060606063
36.6211 77.63231060606063
38.0859 79.91471060606064
39.5508 80.76321060606062
41.0156 81.74721060606063
42.4805 82.56331060606063
43.9453 83.34711060606062
45.4102 83.96441060606062
46.875 84.55991060606063
48.3398 85.12841060606063
51.2695 86.00931060606064
52.7344 86.40751060606063
54.1992 86.84011060606063
55.6641 87.28981060606063
58.5938 88.07831060606063
60.0586 88.47021060606063
62.9883 89.17511060606063
64.4531 89.53421060606061
67.3828 90.28201060606064
68.8477 90.56661060606064
71.7773 91.12871060606064
74.707 91.70971060606063
77.6367 92.27241060606062
79.1016 92.47061060606063
82.0313 92.81231060606063
84.9609 93.17811060606061
87.8906 93.50681060606063
90.8203 93.71681060606063
95.2148 93.99231060606064
98.1445 94.12821060606063
101.074 94.09411060606064
105.469 94.11261060606063
108.398 94.14631060606064
112.793 93.93151060606063
117.188 93.76671060606063
120.117 93.78221060606063
124.512 93.73011060606063
128.906 93.60811060606063
133.301 93.48711060606063
139.16 93.15321060606063
143.555 92.95351060606063
147.949 92.87561060606063
153.809 92.71911060606064
159.668 92.37321060606064
165.527 92.09361060606065
171.387 92.33621060606063
177.246 92.19761060606064
183.105 92.08241060606065
188.965 91.89751060606065
196.289 91.75241060606064
203.613 91.53631060606064
210.938 91.69701060606063
218.262 91.62341060606063
225.586 91.15321060606063
232.91 91.13651060606063
241.699 91.24281060606063
250.488 90.83541060606063
259.277 91.31661060606064
268.066 91.35631060606063
276.855 90.74031060606063
287.109 90.81711060606064
297.363 91.05131060606064
307.617 90.50871060606065
319.336 90.44101060606063
329.59 90.33901060606064
341.309 90.60251060606063
353.027 90.86501060606064
366.211 90.64641060606063
379.395 91.09181060606062
392.578 90.60851060606063
405.762 91.48891060606061
420.41 90.83501060606064
435.059 90.81421060606061
451.172 90.42501060606065
465.82 90.45561060606062
483.398 90.52021060606063
499.512 90.67951060606063
517.09 90.29401060606062
536.133 90.17421060606063
555.176 90.15021060606063
574.219 90.42901060606064
594.727 89.96781060606064
615.234 89.83051060606063
637.207 90.23081060606063
659.18 89.75221060606063
682.617 90.37521060606063
707.52 91.49991060606064
732.422 91.00241060606064
757.324 91.32701060606063
785.156 91.57771060606063
811.523 87.03741060606063
840.82 78.86101060606063
870.117 84.96481060606064
900.879 90.12841060606063
933.105 92.92311060606063
965.332 92.61131060606061
1000.49 92.01651060606063
1035.64 91.82091060606064
1072.27 92.09111060606062
1108.89 92.46791060606063
1148.44 92.30541060606063
1189.45 92.26981060606063
1230.47 91.32881060606063
1274.41 90.53601060606064
1319.82 90.63971060606063
1366.7 90.69011060606063
1413.57 89.82551060606065
1463.38 88.61401060606065
1516.11 85.17381060606064
1568.85 79.95841060606062
1624.51 76.30291060606064
1681.64 81.37071060606061
1741.7 85.82951060606064
1803.22 86.51471060606065
1866.21 86.09581060606064
1932.13 85.06541060606064
1999.51 82.63281060606062
2069.82 82.93571060606064
2143.07 83.92301060606063
2219.24 84.26751060606063
2296.88 85.08561060606064
2378.91 86.28801060606064
2462.4 87.04411060606063
2548.83 87.12841060606063
2639.65 88.25541060606065
2731.93 88.65251060606064
2828.61 88.37671060606064
2928.22 87.93651060606064
3030.76 88.40571060606064
3137.7 88.64561060606063
3249.02 89.32551060606063
3363.28 89.60891060606063
3481.93 90.37911060606064
3604.98 89.10121060606063
3732.42 90.25561060606063
3864.26 90.21811060606063
4000.49 90.42761060606063
4141.11 89.29971060606063
4287.6 89.75491060606063
4438.48 90.24311060606063
4595.21 90.97191060606063
4756.35 91.11101060606063
4924.8 90.91231060606063
5097.66 91.09291060606063
5277.83 90.59701060606064
5463.87 90.56261060606062
5657.23 91.38011060606061
5856.45 91.48401060606062
6062.99 91.28831060606063
6276.86 91.12781060606063
6498.05 90.38961060606064
6726.56 91.51181060606064
6963.87 92.84081060606064
7209.96 93.35651060606064
7464.84 93.45711060606064
7727.05 93.37751060606062
7999.51 93.41121060606065
8282.23 93.55151060606062
8573.73 93.49391060606064
8876.95 94.04311060606062
9188.96 94.47971060606064
9514.16 94.84531060606064
9849.61 94.85411060606063
10196.8 94.75131060606063
10555.7 94.93461060606063
10927.7 95.12301060606063
11313.0 95.21781060606064
11712.9 95.54061060606062
12126.0 95.93151060606061
12553.7 96.16821060606063
12996.1 96.29261060606063
13454.6 96.22741060606063
13929.2 96.06261060606063
14419.9 95.13211060606064
14928.2 93.78401060606063
15455.6 97.27881060606063
16000.5 96.45361060606064
16564.5 95.62071060606063
17148.9 94.53571060606063
17752.4 93.33641060606064
18379.4 89.38511060606064
19026.9 62.96191060606063
19697.8 46.85841060606063
19999.5 64.53631060606062
