Freq,On Axis,Listening Window,Sound Power,Early Reflections,Early Reflections DI,Sound Power DI,DI offset
20.5078,53.74430000000001,53.329797050300556,52.91180685011969,52.81849304177186,40.5113040085287,40.41799020018087,40
21.9727,55.872799999999984,55.50157362398605,53.82059364459104,54.45447710636529,41.04709651762076,41.680979979395005,40
23.4375,57.13300000000001,56.76157412251348,55.54572302092194,55.90188867815499,40.85968544435849,41.21585110159154,40
24.9023,57.11340000000001,56.68213907971841,56.54357525175237,56.30487093027574,40.37726814944267,40.13856382796604,40
26.3672,57.95750000000001,57.54504309844077,58.53883880719491,57.79354667199368,39.75149642644709,39.006204291245865,40
27.832,59.387100000000004,59.00562193060529,59.73774132458138,59.12257709777839,39.8830448328269,39.26788060602391,40
29.2969,60.016400000000004,59.640285312083364,61.13298436888047,60.20054923136544,39.43973608071792,38.50730094320289,40
30.7617,61.23169999999999,60.88797231459023,62.35012074661921,61.44754993093824,39.44042238365199,38.53785156797102,40
32.2266,62.25040000000001,61.933385599113876,63.64840543979979,62.66033097419583,39.273054624918046,38.28498015931409,40
33.6914,63.13069999999999,62.85001094247065,64.95440784764509,63.836241989574404,39.01376895289624,37.89560309482556,40
35.1562,64.3383,64.09477851486571,66.02764576726847,64.99097740136214,39.103801113503565,38.06713274759724,40
36.6211,65.0875,64.88873007755295,67.18257166922753,66.03746793753632,38.85126214001663,37.70615840832542,40
38.0859,66.5815,66.40985264093752,68.31437993538195,67.33059840133737,39.07925423960015,38.095472705555565,40
39.5508,67.6101,67.45834171816392,69.30231613154048,68.35160035242677,39.10674136573715,38.15602558662344,40
41.0156,68.3932,68.26183784994441,70.16920931926879,69.20222275456698,39.05961509537744,38.092628530675626,40
42.4805,69.29680000000002,69.1975539425134,71.1837385478128,70.20546925313694,38.992084689376455,38.0138153947006,40
43.9453,70.40369999999999,70.31958453422455,72.15056293326425,71.24188047703643,39.077704057188114,38.16902160096029,40
45.4102,71.3798,71.31070051990778,73.07636888194496,72.20150440657622,39.10919611333156,38.234331637962825,40
46.875,72.3847,72.33291347759136,74.05899611815354,73.2081636851673,39.124749792424055,38.27391735943782,40
48.3398,73.20679999999999,73.16788400802004,74.88261634682628,74.0433829031082,39.12450110491184,38.28526766119376,40
51.2695,74.8773,74.85761872118503,76.43443647554687,75.66267220800825,39.19494651317679,38.42318224563816,40
52.7344,75.6335,75.62255660982598,77.13689584522642,76.39631435626697,39.22624225355901,38.48566076459956,40
54.1992,76.462,76.45398267677491,77.82797931411757,77.1505889958147,39.30339368096021,38.62600336265734,40
55.6641,77.10409999999999,77.1004262635091,78.5225160002414,77.82463081130352,39.275795452205585,38.57791026326771,40
58.5938,78.2284,78.24449210598935,79.64885623886943,78.97086398196231,39.27362812402704,38.595635867119924,40
60.0586,78.9293,78.94873819827076,80.28185475528429,79.6368717268027,39.311866471468065,38.666883442986475,40
62.9883,80.1245,80.14956715263183,81.36560045641875,80.775464670549,39.37410248208283,38.783966696213085,40
64.4531,80.64930000000001,80.6769302464381,81.84562126944377,81.27790556742445,39.39902467901365,38.831308976994336,40
67.3828,81.60470000000001,81.63665963484279,82.71756823353766,82.19150300363287,39.44515663120991,38.919091401305124,40
68.8477,82.0453,82.0791471980789,83.12051373005049,82.61335714508904,39.46579005298986,38.95863346802841,40
71.7773,82.9477,82.98445466534295,83.94795336651569,83.47766473035503,39.50678993498792,39.03650129882726,40
74.707,83.7429,83.78187950019581,84.67083595503345,84.23622918002393,39.54565032017189,39.11104354516236,40
77.6367,84.3287,84.36950267592424,85.19506704873743,84.79127415356741,39.578228522356824,39.17443562718681,40
79.1016,84.6241,84.66566327507338,85.46042537565937,85.07150828486013,39.594154990213255,39.205237899414016,40
82.0312,85.2422,85.28470243464866,86.01845361635584,85.65909218339591,39.62561025125275,39.26624881829282,40
84.9609,85.7184,85.7619221792514,86.44564457409821,86.11055931541615,39.651362863835246,39.31627760515319,40
87.8906,86.0393,86.08405674111415,86.73091015045885,86.41407150359306,39.66998523752109,39.3531465906553,40
90.8203,86.4728,86.51720308775366,87.11152297695358,86.8186328125057,39.69857027524796,39.40568011080008,40
95.2148,86.9596,87.00293946723238,87.51622011456536,87.26242166621823,39.74051780101415,39.48671935266702,40
98.1445,87.12450000000001,87.16756868839337,87.64041215645342,87.40646807505098,39.76110061334239,39.52715653193995,40
101.074,87.2716,87.31419686307687,87.75140461535706,87.53463355941376,39.77956330366311,39.56279224771981,40
105.469,87.4399,87.48112966499508,87.86005082480418,87.67119148572057,39.80993817927451,39.621078840190904,40
108.398,87.4623,87.50216708020297,87.8427811960327,87.67176932430039,39.83039775590258,39.65938588417026,40
112.793,87.4758,87.5142499544765,87.8074220625639,87.65854750891691,39.85570244555959,39.706827891912596,40
117.188,87.41910000000001,87.45486106996692,87.68589744424784,87.56478549590219,39.89007557406474,39.76896362571908,40
120.117,87.4213,87.45489659849277,87.63597756968473,87.53793750967696,39.9169590888158,39.81891902880804,40
124.512,87.4939,87.52678306246918,87.71501070173295,87.61513186976357,39.911651192705605,39.81177236073623,40
128.906,87.3523,87.38381639583714,87.55305369912092,87.4619596711214,39.92185672471574,39.83076269671622,40
133.301,87.1835,87.21212073765923,87.33292127031028,87.2652149228465,39.94690581481274,39.879199467348954,40
139.16,87.0367,87.05922698107034,87.09968520389133,87.06740634313763,39.991820637932705,39.95954177717901,40
143.555,86.9975,87.01529209956199,86.96190784280813,86.97272507905208,40.04256702050991,40.05338425675386,40
147.949,87.0779,87.09326123898802,87.01767895112505,87.03876341056954,40.05449782841848,40.07558228786297,40
153.809,87.14870000000002,87.1607148678575,87.06778413968387,87.10022289327782,40.060491974579676,40.09293072817363,40
159.668,86.8654,86.87658888924979,86.79748932378955,86.82103059253153,40.05555829671826,40.07909956546024,40
165.527,86.7197,86.72119476709,86.49383536518403,86.58804049340135,40.133154273688646,40.22735940190597,40
171.387,86.6814,86.6812304809079,86.41414123488282,86.52872651176384,40.152503969144064,40.26708924602508,40
177.246,86.46370000000002,86.46344286924611,86.25902063642172,86.33973540398415,40.12370746526196,40.204422232824385,40
183.105,86.3066,86.29669587285193,85.98539817702726,86.11723853610303,40.1794573367489,40.31129769582466,40
188.965,86.2917,86.2732597657498,85.8309863721933,86.02738026369272,40.24587950205708,40.442273393556505,40
196.289,86.25879999999998,86.2372182285959,85.73676345673518,85.95705637899664,40.28016184959927,40.50045477186073,40
203.613,86.1271,86.10651528885765,85.66620560931443,85.85610165600576,40.25041363285189,40.44030967954322,40
210.938,85.99360000000001,85.9588016870736,85.400456334347,85.64470346834234,40.31409821873126,40.558345352726604,40
218.262,86.00660000000002,85.96993316660722,85.3423767814744,85.62796905479829,40.341964111808934,40.62755638513282,40
225.586,85.6415,85.59264144674464,84.94118342058016,85.22477094470034,40.3678705020443,40.65145802616448,40
232.91,85.6865,85.62152238277258,84.70973757678846,85.12497776260523,40.496544620167356,40.91178480598413,40
241.699,85.6628,85.58520562748365,84.38101318040852,84.93988203213715,40.6453235953465,41.20419244707513,40
250.488,86.1291,86.05814613463856,84.52052100241028,85.2818329774417,40.77631315719687,41.537625132228285,40
259.277,85.96019999999999,85.8879882203995,84.81768273323013,85.31851737876495,40.569470841634555,41.07030548716938,40
268.066,85.9493,85.87722025114945,84.60148630208474,85.22223581013151,40.654984441017945,41.275733949064715,40
276.855,85.6045,85.53693793361549,84.53025025919372,85.00682464887548,40.53011328474001,41.00668767442177,40
287.109,85.9425,85.83054962409109,84.27625920844855,85.01671201564167,40.81383760844942,41.55429041564254,40
297.363,85.55279999999999,85.47237111678102,84.19344143129608,84.8060998477569,40.66627126902412,41.27892968548494,40
307.617,84.9783,84.86464864366637,83.870916506068,84.28871537661608,40.57593326705029,40.99373213759837,40
319.336,85.959,85.76095909922975,83.59153973689688,84.57605804373455,41.1849010554952,42.169419362332874,40
329.59,86.7814,86.63268025970284,84.32982140874785,85.48200994993141,41.15067030977143,42.30285885095499,40
341.309,86.36700000000002,86.23375893618062,84.13995398658386,85.20652220481465,41.027236731365974,42.09380494959676,40
353.027,86.0692,85.93103094400858,83.82745086083773,84.8923055238836,41.038725420124976,42.103580083170854,40
366.211,86.3557,86.21772793918876,83.62202742113581,84.98102855711828,41.23669938207048,42.59570051805295,40
379.395,86.46280000000002,86.32406204681878,83.60007558769895,85.03718840711711,41.28687363970167,42.72398645911983,40
392.578,86.9749,86.84769992718304,84.1037954073332,85.591145606091,41.25655432109204,42.74390451984985,40
405.762,86.87039999999999,86.7403339572609,83.99868136254037,85.45393946226827,41.286394494992635,42.741652594720534,40
420.41,86.3551,86.28494112327319,84.03292320564321,85.27517237512387,41.00976874814931,42.25201791762997,40
435.059,85.6265,85.50206841414777,83.28396677130226,84.41803410433323,41.08403430981454,42.21810164284551,40
451.172,85.114,84.95188219033494,82.72149856305805,83.84204507941858,41.10983711091636,42.23038362727689,40
465.82,86.2429,86.05494432520729,82.89349330916255,84.57048579520544,41.484458530001845,43.16145101604474,40
483.398,86.7525,86.62459429515435,83.39176262827421,85.17836750884425,41.446226786310106,43.232831666880145,40
499.512,86.1414,86.02262032791313,83.47122207361231,84.85750853983424,41.16511178807889,42.55139825430082,40
517.09,85.1482,85.00031939140212,82.65161650616223,83.86071545621759,41.139603935184525,42.34870288523989,40
536.133,85.36410000000001,85.16260401807824,82.20950745770922,83.73273304150393,41.42987097657431,42.95309656036902,40
555.176,85.49350000000001,85.25277952350618,82.09693232044455,83.69617023048923,41.55660929301695,43.155847203061626,40
574.219,85.75379999999998,85.4597746223082,81.97813945319072,83.60192363729954,41.85785098500867,43.48163516911748,40
594.727,86.4357,86.20237347991588,82.39197336109243,84.29493490797681,41.90743857193907,43.81040011882345,40
615.234,86.4665,86.24411198794634,82.46106335285458,84.358715876673,41.88539611127334,43.78304863509176,40
637.207,85.5554,85.34396264086894,81.73005436923218,83.57401430888225,41.76994833198668,43.61390827163676,40
659.18,85.6892,85.45313462185213,81.51803990459933,83.54021678600591,41.912917835846216,43.935094717252795,40
682.617,85.4614,85.26062343950043,81.754963922334,83.5486750511713,41.711948388329134,43.505659517166436,40
707.52,85.5284,85.22359520964018,81.60303946736971,83.32722574475852,41.89636946488166,43.62055574227047,40
732.422,85.614,85.43733780579188,81.671970663785,83.69171817768824,41.74561962810364,43.76536714200688,40
757.324,84.8196,84.6029283214758,81.44280543168935,83.22469419828147,41.37823412319433,43.16012288978645,40
785.156,83.7756,83.27569267482316,82.42890664268215,83.22684011293903,40.04885256188413,40.84678603214101,40
811.523,87.1943,86.37254059002689,83.96093706373932,85.25248902269611,41.120051567330776,42.411603526287564,40
840.82,88.932,88.22339405632688,84.49592320138319,86.32128067546961,41.90211338085727,43.72747085494369,40
870.117,89.026,88.31367782830986,83.91637363034873,85.84848741726918,42.46519041104068,44.397304197961134,40
900.879,88.924,88.43467151543365,84.05919963306238,85.86668200761515,42.567989507818496,44.37547188237127,40
933.105,87.888,87.69956579377077,84.269273950459,85.34945692468419,42.35010886908658,43.43029184331178,40
965.332,87.0087,87.07959969589893,83.80676448312188,84.8736819950094,42.20591770088953,43.27283521277705,40
1000.49,86.15089999999998,86.18897051632347,82.3802664026198,83.92884714036589,42.260123375957576,43.80870411370367,40
1035.64,86.2843,86.03071410962683,81.65887391505865,83.65185963155702,42.37885447806981,44.37184019456818,40
1072.27,86.5285,86.16413344543756,81.22430361838528,83.77846181406822,42.385671631369334,44.93982982705228,40
1108.89,86.4645,85.98724667221958,81.07158091157672,83.62513561550962,42.36211105670996,44.91566576064287,40
1148.44,86.99960000000002,86.43296552489929,80.78680523929023,83.60862497627065,42.82434054862864,45.64616028560906,40
1189.45,86.7973,86.3396191484753,80.8908438050851,83.55404705482515,42.785572093650146,45.448775343390196,40
1230.47,87.0785,86.51083386768644,81.01809700753863,83.74482350604953,42.766010361636916,45.492736860147815,40
1274.41,87.6327,86.98922931890918,81.21057062505255,84.2104810783708,42.77874824053838,45.77865869385663,40
1319.82,88.2085,87.6946700022355,81.74931214383575,84.81220519622347,42.882464806012024,45.945357858399746,40
1366.7,87.23240000000001,86.67140322847308,80.97755691476293,84.09585347274279,42.57554975573029,45.693846313710154,40
1413.57,87.05960000000002,86.39486728656208,80.62998621308526,83.96156334118993,42.433303945372145,45.764881073476815,40
1463.38,87.4709,86.78727443916345,80.47330918537334,83.98747949562039,42.79979494354306,46.313965253790116,40
1516.11,87.2054,86.58827200045951,80.2277615720004,83.84319508113079,42.745076919328724,46.36051042845911,40
1568.85,86.7819,86.18173451285102,79.81816143533672,83.47098493094424,42.71074958190678,46.3635730775143,40
1624.51,86.23670000000001,85.44969000302663,78.9026017633924,82.67815725508615,42.77153274794048,46.547088239634235,40
1681.64,85.7533,85.1956256375727,78.52015334522153,82.19157473405008,43.004050903522625,46.675472292351174,40
1741.7,85.319,85.03120217976712,78.61644926816204,81.91472249504992,43.116479684717206,46.41475291160508,40
1803.22,85.68290000000002,85.33968434880998,79.06385384593958,82.23092648480494,43.10875786400504,46.275830502870406,40
1866.21,85.8228,84.88214864861462,78.38723191697866,82.0990494956799,42.78309915293471,46.49491673163595,40
1932.13,86.03970000000001,84.85029485562976,77.29705108398096,81.4376310418298,43.41266381379995,47.553243771648795,40
1999.51,86.4574,85.31115846422367,76.99458903710752,81.32380105262214,43.98735741160152,48.31656942711615,40
2069.82,85.8603,84.90332176440708,76.68612283874185,80.884241997628,44.019079766779086,48.21719892566523,40
2143.07,85.6072,84.50152109001391,76.14905204891407,80.24717475943531,44.2543463305786,48.35246904109984,40
2219.24,86.04600000000002,84.857625524927,76.78390526028197,80.37912930241089,44.478496222516114,48.07372026464503,40
2296.88,87.10930000000002,85.98852115866552,77.44099122608921,81.10666341307541,44.88185774559011,48.54752993257631,40
2378.91,86.923,85.73170406720413,77.65495293132992,81.01577192790833,44.7159321392958,48.07675113587422,40
2462.4,85.8083,84.77997532664453,77.07575773293064,80.25263746439256,44.52733786225197,47.70421759371389,40
2548.83,86.96600000000001,85.73392369382886,77.73391723610045,81.10223426442494,44.63168942940392,48.000006457728404,40
2639.65,87.0336,85.89458889121404,78.13420091679572,81.42238192149091,44.47220696972313,47.76038797441832,40
2731.93,86.6418,85.51711941231419,77.82836675669557,81.08769377013263,44.429425642181556,47.688752655618615,40
2828.61,86.6936,85.55427576066789,77.97643962752508,81.24099426856657,44.313281492101325,47.57783613314281,40
2928.22,86.7121,85.66911045194381,78.13556785398876,81.4380526318472,44.23105782009661,47.53354259795505,40
3030.76,86.7581,85.77305558238878,78.26314384445806,81.6250300373264,44.14802554506238,47.50991173793072,40
3137.7,86.5093,85.51573353715989,78.22487913977766,81.58753945571412,43.92819408144577,47.29085439738223,40
3249.02,86.9133,86.05031093856653,78.67305928023737,82.12133281328285,43.92897812528368,47.37725165832916,40
3363.28,87.068,86.2249269092523,79.06501816972155,82.47537611197701,43.74955079727529,47.15990873953075,40
3481.93,87.027,86.38435924786528,79.20381392951575,82.63690612872323,43.74745311914205,47.18054531834953,40
3604.98,87.0743,86.362311508077,79.03655140784024,82.59361559725949,43.76869591081751,47.325760100236764,40
3732.42,87.1804,86.42924560451465,79.03617058158949,82.55504796848257,43.87419763603208,47.39307502292516,40
3864.26,86.9633,86.32377437509044,79.06400649690679,82.62156836456961,43.702206010520825,47.25976787818365,40
4000.49,88.3615,87.34746698394108,79.78453962568778,83.40893400357233,43.93853298036875,47.56292735825329,40
4141.11,88.4067,87.60193477640473,80.24113981356848,83.75300867198065,43.84892610442408,47.36079496283625,40
4287.6,87.72800000000001,87.1998399987322,80.05623425353555,83.52723880300273,43.67260119572947,47.14360574519665,40
4438.48,87.716,87.45206826852046,80.39815819734713,83.88665814405115,43.56541012446931,47.053910071173334,40
4595.21,87.4637,87.38156578923284,80.59316298796219,84.01765063103234,43.3639151582005,46.78840280127065,40
4756.35,87.494,87.61949340776223,80.77805974271241,84.28229713315795,43.33719627460428,46.84143366504982,40
4924.8,87.2344,87.45761157383618,80.83002405204823,84.2174764885605,43.24013508527568,46.627587521787945,40
5097.66,87.4975,87.61069191951024,80.8429655868901,84.27103786226203,43.33965405724821,46.76772633262014,40
5277.83,88.2463,88.11370404555687,81.03800537348606,84.61955056485363,43.49415348070325,47.075698672070814,40
5463.87,88.1024,88.0575350636868,81.22453978917324,84.67610966210924,43.38142540157756,46.832995274513564,40
5657.23,87.91219999999998,87.94654816446848,81.28629337855658,84.67723041829784,43.26931774617064,46.6602547859119,40
5856.45,88.1118,87.79179590307562,81.1305461558197,84.6005748180834,43.19122108499222,46.66124974725592,40
6062.99,87.50479999999999,87.25322766887336,80.83428598693507,84.3074333311403,42.94579433773306,46.41894168193829,40
6276.86,87.6011,87.19706472673371,80.82916339555746,84.26763811749896,42.92942660923475,46.367901331176256,40
6498.05,87.87220000000002,87.22384803510889,80.83504484312991,84.24748436219659,42.9763636729123,46.38880319197898,40
6726.56,88.0955,87.69390441404035,81.2378589772755,84.54391384270642,43.14999057133393,46.45604543676485,40
6963.87,88.3142,87.87953349351847,81.28453080836846,84.63574386819467,43.2437896253238,46.59500268515001,40
7209.96,88.1469,87.72551209772458,81.04478233912184,84.37925765628854,43.34625444143603,46.68072975860274,40
7464.84,88.0983,87.69666325322903,80.8597307150375,84.16193344781051,43.53472980541852,46.83693253819153,40
7727.05,88.4031,87.90112570735428,80.75817906400829,84.19972166132314,43.70140404603114,47.142946643345994,40
7999.51,88.2257,87.74458946359798,80.34294409685612,83.91442414293064,43.830165320667334,47.40164536674186,40
8282.23,88.07249999999999,87.65050086148362,80.09718458616119,83.76561051792754,43.88489034355608,47.55331627532243,40
8573.73,88.2703,87.74294509559232,80.08600710857478,83.86927037142242,43.8736747241699,47.65693798701754,40
8876.95,88.35750000000002,87.92028646915435,80.3875571157454,84.18106392539927,43.739222543755076,47.53272935340895,40
9188.96,88.76599999999999,88.3097790329205,80.6840466499294,84.53077643854597,43.77900259437453,47.6257323829911,40
9514.16,89.2147,88.58318531675852,80.52904726001768,84.49744387417581,44.0857414425827,48.05413805674084,40
9849.61,89.4436,88.73000960589303,80.24873945726404,84.27584030871145,44.45416929718158,48.481270148628994,40
10196.8,90.186,89.24112927675255,80.37655077309233,84.47731773118933,44.763811545563215,48.86457850366021,40
10555.7,90.49769999999998,89.36024713418524,80.35191215284672,84.54756103197784,44.81268610220741,49.00833498133852,40
10927.7,90.0999,89.12371109490445,80.15220137646097,84.33096671812618,44.79274437677827,48.971509718443485,40
11313.0,89.805,88.97024965997169,79.94349134450223,84.20559456079486,44.76465509917682,49.02675831546945,40
11712.9,90.2064,88.98609258392115,79.82768168929637,84.24680350948964,44.73928907443151,49.15841089462478,40
