Freq "Sound Power"
20.5078 55.90635533354076
21.9727 57.799230352876194
23.4375 59.855823904507545
24.9023 63.65102856283488
26.3672 66.7327380647004
27.832 70.18152405717859
29.2969 71.42342477011763
30.7617 73.22468035542263
32.2266 74.51527215222255
33.6914 75.49427434058958
35.1562 76.48655762695115
36.6211 77.2663720285664
38.0859 77.92403267297163
39.5508 78.55470194885643
41.0156 79.12815188798787
42.4805 79.65969592324097
43.9453 80.13874136699036
45.4102 80.58815837215595
46.875 80.99635830439371
48.3398 81.3620851437018
51.2695 82.03333469533483
52.7344 82.31437564415376
54.1992 82.63785484311315
55.6641 82.87255860789567
58.5938 83.30447495380822
60.0586 83.44783317485799
62.9883 83.76723582609596
64.4531 83.92259298827447
67.3828 84.13668204177402
68.8477 84.19044382586615
71.7773 84.27121755729767
74.707 84.41521886874055
77.6367 84.50636714649393
79.1016 84.48037968568966
82.0312 84.47116903654435
84.9609 84.50789337204019
87.8906 84.48775808682673
90.8203 84.44635309353399
95.2148 84.41110516628434
98.1445 84.36298435354627
101.074 84.26772457370767
105.469 84.17073891987943
108.398 84.12167109009785
112.793 84.1259568428152
117.188 84.11341106149013
120.117 84.0755255698046
124.512 83.99312738338719
128.906 83.8433871793414
133.301 83.81923295823692
139.16 83.74400822719903
143.555 83.64605559482199
147.949 83.55299586610363
153.809 83.47578237237936
159.668 83.52706630757613
165.527 83.50984119555996
171.387 83.43931198163698
177.246 83.35343734198047
183.105 83.23878403809366
188.965 83.16277208498288
196.289 83.07079745967661
203.613 82.93728440694353
210.938 82.88204715606005
218.262 82.8294394683241
225.586 82.72866475751866
232.91 82.66330626605348
241.699 82.628329776931
250.488 82.87914974706023
259.277 82.81634022624728
268.066 82.77980476181772
276.855 82.7041987346759
287.109 82.72740355450341
297.363 82.63981355240581
307.617 82.55304613339891
319.336 82.33715816108506
329.59 82.25382674103973
341.309 82.22929415239177
353.027 82.45592761265824
366.211 82.25465150138972
379.395 82.34221569566236
392.578 82.31532035541824
405.762 82.07963836879212
420.41 81.6779512882396
435.059 81.70894806962116
451.172 81.52015978004012
465.82 81.49850449993217
483.398 81.3301578599281
499.512 81.27553173745869
517.09 80.77039638782897
536.133 80.3470701418483
555.176 80.47942026318455
574.219 80.44071071645116
594.727 80.26292583213585
615.234 79.79216754789473
637.207 79.815248513619
659.18 79.7256310793048
682.617 80.0159991105521
707.52 79.5862595820134
732.422 79.83451027838119
757.324 79.43257554280754
785.156 79.41571210056786
811.523 78.67281601886536
840.82 78.6853204021867
870.117 78.64987361646146
900.879 78.64212861535798
933.105 78.16355919966976
965.332 78.00108048866069
1000.49 78.31486127156323
1035.64 77.39462922944884
1072.27 77.34676955781501
1108.89 77.31228103306873
1148.44 76.94969882232938
1189.45 76.84510609967604
1230.47 77.07376974879908
1274.41 77.42566110061104
1319.82 77.6041593979992
1366.7 78.06240559040721
1413.57 77.96814202585045
1463.38 77.92105224707056
1516.11 77.86917915881912
1568.85 77.41586496275178
1624.51 77.51894537960658
1681.64 77.38364898984564
1741.7 77.93412018760073
1803.22 78.2740511121906
1866.21 78.35863685908602
1932.13 78.09387327739445
1999.51 77.45073647630431
2069.82 76.97514073687958
2143.07 77.00209928453803
2219.24 77.41087995800741
2296.88 77.54127928055776
2378.91 77.48443414413443
2462.4 77.11598252080702
2548.83 77.18591535633142
2639.65 77.44860511333235
2731.93 77.49996149118213
2828.61 77.12065096887385
2928.22 77.12459764655556
3030.76 77.85790485620288
3137.7 77.72127813679509
3249.02 76.5754797850325
3363.28 77.03036558241043
3481.93 77.75820255577837
3604.98 77.18747311188073
3732.42 76.8667817487249
3864.26 76.77477024902426
4000.49 76.91259341620979
4141.11 77.22457109760175
4287.6 76.66561542332495
4438.48 76.34699197379993
4595.21 76.9434057469956
4756.35 76.971655977092
4924.8 76.5917657015112
5097.66 76.57120572113492
5277.83 77.3174866899525
5463.87 77.04552664686388
5657.23 77.23558259263987
5856.45 77.16709780355939
6062.99 76.74073834779684
6276.86 76.73452925063725
6498.05 76.7753104508837
6726.56 76.60035634217859
6963.87 77.00266366856623
7209.96 76.68789654332456
7464.84 76.85794573961593
7727.05 76.82856243833713
7999.51 76.78640572271614
8282.23 76.85973541383554
8573.73 76.87421683856468
8876.95 77.03535797985377
9188.96 77.03954832661401
9514.16 76.94621544945095
9849.61 77.28585745145256
10196.8 76.74244016588239
10555.7 76.82591296887227
10927.7 76.41761531180609
11313.0 75.91928300027706
11712.9 76.13950356637953
12126.0 76.03746835908359
12553.7 75.68550130332376
12996.1 75.554425445575
13454.6 75.78839828872474
13929.2 75.74989175322241
14419.9 75.50518261758921
14928.2 75.40987149863972
15455.6 75.29555597611404
16000.5 75.22653355557635
16564.5 74.96236378547427
17148.9 74.91898718557708
17752.4 74.73118750548373
18379.4 74.68500700908447
19026.9 74.76201456638596
19697.8 74.84752674517955
19999.5 74.6649367462963
