Freq "Side Wall Bounce"
22.4 -31.046120448183373
23.0 -29.16816352985704
23.6 -27.30606983633406
24.0 -25.506069836334078
25.0 -23.66816352985704
25.8 -21.86816352985703
26.5 -20.068163529857046
27.2 -18.268163529857034
28.0 -16.506069836334078
29.0 -14.706069836334066
30.0 -12.968163529857023
30.7 -11.206069836334066
31.5 -9.468163529857051
32.5 -7.768163529857063
33.5 -6.046120448183373
34.5 -4.3681635298570285
35.5 -2.6681635298570114
36.5 -1.0060698363340776
37.5 0.6474533350266967
38.7 2.3318364701429886
40.0 3.9318364701429545
41.2 5.593930163665945
42.5 7.247453335026691
43.7 8.893930163665956
45.0 10.531836470142949
46.2 12.19393016366594
47.5 13.847453335026685
48.7 15.508633983149153
50.0 17.147453335026725
51.5 18.847453335026685
53.0 20.547453335026702
54.5 22.272089938357382
56.0 24.008633983149153
58.0 25.74745333502669
60.0 27.53183647014295
61.5 29.33183647014299
63.0 31.13183647014297
65.0 32.99393016366592
67.0 34.878479830518174
69.0 36.75387955181664
71.0 38.66401098647914
73.0 40.539328379713126
75.0 42.464010986479124
77.5 44.36401098647916
80.0 46.24880840338558
82.5 48.12403899586418
85.0 49.98745245837317
87.5 51.80972139138241
90.0 53.609721391382394
92.5 55.38745245837315
95.0 57.109721391382394
97.5 58.80972139138241
100.0 60.448808403385584
103.0 62.0097213913824
106.0 63.54880840338559
109.0 65.00972139138241
112.0 66.4240389958642
115.0 67.7240389958642
118.0 68.96401098647914
122.0 70.11721112944201
125.0 71.19393016366594
128.0 72.1474533350267
132.0 73.02433435446639
136.0 73.81766248282261
140.0 74.53369458518411
145.0 75.14895007375362
150.0 75.70518385488138
155.0 76.21302084982965
160.0 76.65399999499343
165.0 76.98687024546696
170.0 77.30301621037206
175.0 77.56078282463342
180.0 77.75414486367869
185.0 77.93404706028923
190.0 78.06861815680344
195.0 78.12748023161919
200.0 78.14584105653171
206.0 78.16290663104003
212.0 78.16290663104003
218.0 78.14375414359114
224.0 78.08154190651244
230.0 78.04146473584859
236.0 77.96247160530667
240.0 77.86247160530667
250.0 77.80748902445396
258.0 77.72866047780398
265.0 77.65021876083091
272.0 77.59329946330504
280.0 77.49893228747467
290.0 77.44252219233921
300.0 77.36451124105842
307.0 77.31528790165726
315.0 77.28213237170763
325.0 77.23491922856199
335.0 77.20084576480606
345.0 77.14377612373006
355.0 77.0985414906276
365.0 77.09340199337683
375.0 77.08724624499442
387.0 77.05774696148357
400.0 77.0450874571325
412.0 77.0616155285323
425.0 77.03356375080918
437.0 77.04823415313393
450.0 77.05791489867205
462.0 77.07338405401428
475.0 77.10474779054086
487.0 77.13201994680307
500.0 77.18547271334958
515.0 77.21163661175221
530.0 77.26003699532967
545.0 77.31437754187883
560.0 77.35365056906848
580.0 77.43355047280461
600.0 77.46002809470016
615.0 77.51958996009215
630.0 77.59979343195727
650.0 77.64011156874538
670.0 77.7071758423311
690.0 77.76191222287461
710.0 77.84835892937356
730.0 77.90352471780147
750.0 77.91518269163498
775.0 77.99669151536172
800.0 78.02733627972843
825.0 78.02123076286495
850.0 78.05241072403423
875.0 78.07798405898585
900.0 78.07798405898585
925.0 78.06058082166774
950.0 78.09219767852532
975.0 78.07873871601062
1000.0 77.99219767852533
1030.0 77.96320678317048
1060.0 77.93782209394136
1090.0 77.83782209394134
1120.0 77.78382697466073
1150.0 77.69799928390664
1180.0 77.58682248676227
1220.0 77.53650334106325
1250.0 77.42567780509476
1280.0 77.31507255410565
1320.0 77.19126336396896
1360.0 77.07105640431905
1400.0 76.96126280065134
1450.0 76.85167074230871
1500.0 76.75547755721998
1550.0 76.63732336237874
1600.0 76.52852775272865
1650.0 76.41991511137637
1700.0 76.29838820823916
1750.0 76.20941244029156
1800.0 76.15335719328417
1850.0 76.0457257905729
1900.0 76.00792348591696
1950.0 75.91820407360619
2000.0 75.8737176034336
2060.0 75.83694763092575
2120.0 75.8112544705229
2180.0 75.80469662803964
2240.0 75.78630199310285
2300.0 75.79887290362701
2360.0 75.78101712562247
2400.0 75.78101712562247
2500.0 75.82917523332598
2580.0 75.86656649754771
2650.0 75.86079630367759
2720.0 75.92737074083107
2800.0 75.95489191520177
2900.0 76.00030683081926
3000.0 76.03881925442099
3070.0 76.10660821100758
3150.0 76.14595677091377
3250.0 76.21453347739364
3350.0 76.21453347739364
3450.0 76.28360422954695
3550.0 76.32407792854609
3650.0 76.38360422954695
3750.0 76.38360422954695
3870.0 76.42407792854608
4000.0 76.42407792854608
4120.0 76.49902575604231
4250.0 76.49902575604231
4370.0 76.49902575604231
4500.0 76.50424244737681
4620.0 76.47549688446212
4750.0 76.47549688446212
4870.0 76.41925955513523
5000.0 76.39061354542818
5150.0 76.33457288953625
5300.0 76.3060280406112
5450.0 76.2060280406112
5600.0 76.16538498598648
5800.0 76.037042598768
6000.0 75.94271243864866
6150.0 75.81280719007303
6300.0 75.69742398636154
6500.0 75.51864145454533
6700.0 75.33518554457903
6900.0 75.20131061156783
7100.0 75.00729649406526
7300.0 74.76759448209296
7500.0 74.55205000486822
7750.0 74.28472294315308
8000.0 73.98472294315307
8250.0 73.78472294315308
8500.0 73.4179043992804
8750.0 73.10218072337051
9000.0 72.79101469604099
9250.0 72.4179043992804
9500.0 72.0179043992804
9750.0 71.65207409209943
10000.0 71.24572562969108
10300.0 70.81790439928042
10600.0 70.4179043992804
10900.0 70.00218072337051
11200.0 69.54572562969108
11500.0 69.1021807233705
11800.0 68.61790439928042
12200.0 68.14572562969109
12500.0 67.68472294315306
12800.0 67.18472294315308
13200.0 66.68472294315308
13600.0 66.18472294315306
14000.0 65.68472294315308
14500.0 65.18472294315306
15000.0 64.68472294315308
15500.0 64.18472294315308
16000.0 63.68472294315306
16500.0 63.08472294315308
17000.0 62.584722943153096
17500.0 62.04612579883175
18000.0 61.48472294315307
18500.0 60.88472294315308
19000.0 60.284722943153085
19500.0 59.684722943153076
