Freq "Rear Wall Bounce"
20.5078 60.970941131141004
21.2402 62.41602723989867
21.9727 63.567437957821355
22.7051 64.54012310513183
23.4375 65.96159100289402
24.1699 67.32937396294288
25.6348 68.21068510966249
26.3672 68.71294925707461
27.0996 69.21473363773231
27.832 70.99596457329346
29.2969 72.4355342301
30.0293 72.919784261924
31.4941 74.73650327690001
32.2266 75.25095966368616
33.6914 76.6084654830547
34.4238 77.11571751709833
35.8887 78.05582798147138
37.3535 78.96223502431415
38.8184 79.90251445555835
39.5508 80.36406209381677
41.0156 80.77179466906925
42.4805 81.59551928446416
43.9453 82.44143665226542
45.4102 83.00191645907343
47.6074 83.75925911401822
49.0723 84.27029738422887
50.5371 84.76889905997082
52.7344 85.40421742906182
54.1992 85.79640205590684
56.3965 86.45988531512256
58.5938 86.90870706309958
60.0586 87.3019961225657
62.2559 87.74249677707172
64.4531 88.17739210956218
66.6504 88.51058150307365
69.5801 88.84992356261479
71.7773 89.0769548376028
73.9746 89.22674598118789
76.9043 89.26413964516051
79.834 89.19909793688014
82.7637 89.27979548335269
85.6934 89.23642414950201
88.623 89.31178973932798
91.5527 89.42518249806722
94.4824 89.35331033903005
98.1445 89.34177304971357
101.807 89.16385183491903
105.469 88.94254898107665
109.131 88.80315167725807
112.793 88.69862911860828
116.455 88.63242067375616
120.85 88.63692886452579
125.244 88.66726814896059
129.639 88.73133309691728
134.033 88.61479407827613
138.428 88.60485271289704
143.555 88.46271095779765
148.682 88.31658096634256
153.809 88.20613439366424
159.668 87.88409420000296
164.795 87.19955435788962
170.654 86.46204857836248
176.514 86.14401417853065
183.105 85.33262778307683
189.697 85.74680502404807
196.289 85.2654407589839
202.881 85.05917516816727
210.205 85.04161594902193
217.529 85.33620313574873
225.586 86.54335308766318
232.91 86.62864848363235
241.699 86.39755416514382
249.756 85.64118389645022
258.545 85.18547963265581
268.066 83.96292078218305
277.588 84.42913056612622
287.109 84.5224956441423
297.363 85.08254524877164
307.617 84.48403110132985
318.604 83.58320374499131
329.59 83.52184187601257
341.309 86.46933232323263
353.76 85.91929676316877
366.211 87.00362518353127
378.662 86.10258335341553
392.578 85.13752144505442
405.762 85.44161377290654
420.41 85.00190095985427
435.059 84.68796384364764
450.439 84.2578596386069
466.553 84.89119745334432
482.666 83.99742114041948
500.244 83.02103604476477
517.822 82.85909255313419
536.133 83.34784462473974
554.443 82.91581468057834
574.219 83.44837156406595
594.727 81.07496574261731
615.234 82.3324263906217
637.207 83.7064857860215
659.912 83.4130572338379
683.35 83.87802678408981
706.787 82.14856012581342
731.689 82.24214327589299
758.057 82.57968175649425
784.424 81.11625607490879
812.256 80.18679139433465
840.82 79.5744060247719
870.85 80.85435128003999
901.611 78.84106066669617
933.105 80.58162838205723
966.064 80.61741679726454
999.756 79.71142618870317
1034.91 79.36139891611978
1071.53 79.24371755068177
1109.62 77.89583795988308
1148.44 78.24264772198008
1189.45 79.16396450720619
1231.2 78.83384865546266
1274.41 78.31947642725082
1319.82 78.5950065256187
1365.97 77.65033438843157
1414.31 77.93159087932948
1464.11 77.64042899009162
1515.38 76.87910418524778
1568.85 76.45719962908657
1624.51 76.505800530824
1681.64 75.31854135331817
1740.97 75.23440210500696
1802.49 75.80943596424248
1866.21 75.8855670055563
1932.13 75.50686289954518
2000.24 74.69738593712049
2070.56 74.66587753677
2143.8 75.23775312520812
2219.24 75.42303870031078
2297.61 75.12214374777612
2378.17 75.41601185483918
2462.4 75.45169090081653
2548.83 75.26731962283
2638.92 75.37791760758907
2731.93 76.34860490874088
2828.61 75.97037557918956
2928.22 75.47866719094857
3031.49 75.6319815138127
3138.43 75.21754714798311
3249.02 75.42056688746415
3363.28 74.67632145837783
3481.93 73.94218065135425
3604.98 74.65667427075492
3732.42 73.46938122476821
3863.53 73.84195669629574
3999.76 75.54218342771422
4141.11 75.3307742761801
4286.87 75.62770566897896
4438.48 76.11071148167126
4594.48 76.07406234892736
4757.08 75.16184033246759
4924.8 75.46628450412244
5098.39 73.88036884009473
5277.83 74.05563059673469
5463.87 73.52221379461844
5656.49 72.84395467799581
5856.45 72.99559590495141
6062.99 72.99240485773458
6276.86 73.94868072866866
6498.05 73.64724328234838
6727.29 72.72484860949125
6964.6 70.35503602707182
7209.96 70.00683963659793
7464.11 69.66351761435784
7727.78 69.02598332225094
8000.24 68.97860145295923
8282.23 67.96929534660848
8574.46 68.04361116649189
8876.22 68.25013884819583
9189.7 67.14749191999486
9513.43 65.45843360931131
9848.88 66.43310898318558
10196.8 68.19606217287226
10556.4 68.05594333115245
10928.5 66.61582668180203
11313.7 65.89159740067912
11712.9 66.01211534391804
12126.0 65.75217780947428
12553.7 64.45890445915772
12996.1 61.624627448915376
13454.6 62.45717362237026
13928.5 61.14937923210785
14419.9 59.605609838902026
14928.2 60.36846254788681
15454.8 58.68683019432244
15999.8 59.993173717787315
16564.5 60.0349402154561
17148.2 60.504681567360436
17753.2 60.17227990369385
18379.4 60.862261554585515
19027.6 61.19624350365025
19698.5 61.36069537251559
19999.5 62.01322659883313
