Freq,On Axis,Listening Window,Sound Power,Early Reflections,Early Reflections DI,Sound Power DI,DI offset
20.5078,58.391700000000014,58.077466410984044,59.06340092771663,58.42740115870092,39.65006525228313,39.014065483267416,40
21.9727,58.58940000000001,58.243766432775885,61.19058997416312,59.81250008018236,38.431266352593525,37.05317645861277,40
23.4375,59.970399999999984,59.66922042160493,62.881617821723836,61.4354211696768,38.23379925192813,36.7876025998811,40
24.9023,61.9551,61.74059982859066,64.91903040438032,63.50922214160397,38.23137768698669,36.82156942421034,40
26.3672,63.239900000000006,63.04851055272397,66.19404470816323,64.79955117213856,38.248959380585404,36.854465844560735,40
27.832,64.6776,64.54642976526245,67.74115063610965,66.350323592865,38.19610617239745,36.805279129152794,40
29.2969,66.31900000000002,66.23649200102383,69.20356630757443,67.90596635272858,38.33052564829525,37.0329256934494,40
30.7617,68.1137,68.05299986256625,70.58301978472532,69.44267350973766,38.610326352828594,37.46998007784093,40
32.2266,69.61519999999999,69.57343850343837,71.87613697198856,70.82637063604099,38.74706786739738,37.69730153144981,40
33.6914,70.9776,70.95138425926211,73.08103288642742,72.10234445894099,38.84903980032112,37.87035137283469,40
35.1562,72.3586,72.34612529379051,74.3133747606797,73.4030350653399,38.9430902284506,38.032750533110814,40
36.6211,73.65529999999998,73.65180163223926,75.44221471686822,74.6051913106351,39.04661032160415,38.209586915371034,40
38.0859,74.7818,74.78812808864865,76.49120231601673,75.69299798382072,39.09513010482793,38.29692577263192,40
39.5508,75.8093,75.82287571518057,77.42650140415039,76.67182961480411,39.15104610037646,38.396374311030186,40
41.0156,76.7775,76.79717145790936,78.30381408450319,77.5923088728906,39.20486258501876,38.49335737340617,40
42.4805,77.6851,77.70824773605408,79.10259719285267,78.44043396001271,39.267813776041365,38.605650543201406,40
43.9453,78.477,78.50327399824394,79.81402852845994,79.18910882443313,39.31416517381081,38.689245469784,40
45.4102,79.156,79.18498372819857,80.42441707809412,79.83143643849833,39.353547289700245,38.76056665010445,40
46.875,79.7317,79.76285458528014,80.93775725851432,80.37386424351955,39.38899034176059,38.825097326765814,40
48.3398,80.27180000000001,80.30557474615239,81.43809158365491,80.89407500498056,39.41149974117182,38.86748316249748,40
51.2695,81.275,81.31090139508667,82.31219689818846,81.82720367278725,39.483697722299425,38.99870449689821,40
52.7344,81.7125,81.7482940921798,82.67902343230081,82.22592510140646,39.522368990773344,39.069270659878995,40
54.1992,82.03,82.06627610522355,82.9515429283637,82.51883321917349,39.547442886050064,39.11473317685986,40
55.6641,82.28399999999999,82.32160637100473,83.18288674772182,82.76190739660044,39.5596989744043,39.13871962328291,40
58.5938,82.8599,82.89788141556362,83.66400909364604,83.28752744808205,39.61035396748157,39.23387232191757,40
60.0586,83.1114,83.1481972313092,83.84960506055933,83.50286233859453,39.64533489271467,39.29859217074987,40
62.9883,83.5292,83.56526890315948,84.18347730954733,83.8755953432414,39.68967355991808,39.38179159361215,40
64.4531,83.7203,83.75571030085514,84.32872064360966,84.04172864819718,39.713981652657964,39.426989657245485,40
67.3828,84.0438,84.07771735321268,84.56803170566778,84.31923804901788,39.75847930419479,39.5096856475449,40
68.8477,84.16389999999998,84.19749772069565,84.66024458445177,84.42392236828806,39.77357535240759,39.537253136243876,40
71.7773,84.3669,84.40017559526976,84.81208182356684,84.59962823251804,39.800547362751715,39.588093771702916,40
74.707,84.5778,84.60993031577227,84.96572560230825,84.77907204827224,39.830858267500034,39.64420471346402,40
77.6367,84.75709999999998,84.78748819788963,85.08501001378019,84.92539489295596,39.862093304933666,39.70247818410944,40
79.1016,84.7955,84.82506221369465,85.094602148806,84.94825185924805,39.876810354446604,39.730460064888646,40
82.0312,84.8809,84.90905503510595,85.12966389408166,85.00698074265213,39.90207429245382,39.77939114102429,40
84.9609,84.98229999999998,85.00867779998788,85.18439116130055,85.0819361863066,39.92674161368127,39.824286638687326,40
87.8906,85.05529999999999,85.07957525360457,85.21137984015596,85.12931219790975,39.95026305569482,39.86819541344862,40
90.8203,85.2036,85.22596892997683,85.31299596771079,85.25320966383003,39.972759266146795,39.91297296226604,40
95.2148,85.3415,85.36036574930763,85.36857735167976,85.3474485766392,40.01291717266844,39.99178839762787,40
98.1445,85.364,85.38048606678929,85.33854055670523,85.34217362353456,40.038312443254725,40.04194551008406,40
101.074,85.395,85.40961880408817,85.33234050689434,85.3527519188312,40.056866885256966,40.07727829719383,40
105.469,85.3798,85.39146054370565,85.25603059459254,85.30434382500015,40.0871167187055,40.1354299491131,40
108.398,85.3256,85.33674138917401,85.19719207438607,85.24527479594366,40.09146659323035,40.13954931478794,40
112.793,85.24869999999999,85.25700667511524,85.08230346270574,85.14432282115536,40.11268385395988,40.1747032124095,40
117.188,85.1,85.10388134206224,84.86988546040986,84.95473564208203,40.14914569998021,40.233995881652376,40
120.117,85.1248,85.1252297687392,84.84105721233198,84.94866869480087,40.17656107393833,40.28417255640723,40
124.512,85.2501,85.24923419200101,84.96153154747022,85.07631124955691,40.1729229424441,40.287702644530796,40
128.906,85.1103,85.10672839400878,84.81269585418184,84.93024920706748,40.17647918694131,40.294032539826944,40
133.301,84.9833,84.97347407378003,84.57980520709394,84.74710962717869,40.22636444660134,40.393668866686085,40
139.16,84.9001,84.88300318410418,84.37464824647819,84.5918073681058,40.29119581599838,40.508354937625995,40
143.555,84.9829,84.9621177295821,84.35263346237146,84.61854165682612,40.34357607275598,40.60948426721065,40
147.949,85.1069,85.0877489664976,84.53221190969202,84.77305485280945,40.31469411368815,40.555537056805576,40
153.809,85.1459,85.12501462642479,84.61241600312641,84.83895615070325,40.28605847572153,40.51259862329837,40
159.668,84.868,84.84061823180323,84.256781678706,84.51537291642259,40.32524531538064,40.58383655309723,40
165.527,84.84889999999999,84.8138970861191,84.06885143307667,84.41042299581214,40.40347409030696,40.745045653042425,40
171.387,84.7712,84.73633224983024,83.96550797267987,84.32136599214192,40.41496625768832,40.77082427715037,40
177.246,84.6172,84.57904336675742,83.79903692421186,84.15692940419089,40.42211396256653,40.780006442545556,40
183.105,84.51669999999999,84.47136113706365,83.55610189820612,83.98529020623323,40.48607093083042,40.91525923885753,40
188.965,84.55429999999998,84.50347085020084,83.46235701106099,83.96915643845148,40.534314411749364,41.041113839139854,40
196.289,84.3896,84.33974978232588,83.3284123906937,83.81190281034652,40.52784697197936,41.01133739163218,40
203.613,84.1689,84.11641123721654,83.10584070796912,83.57766200079904,40.5387492364175,41.01057052924742,40
210.938,84.1464,84.08978105742193,83.03268791391362,83.53267662955662,40.55710442786531,41.05709314350831,40
218.262,83.7602,83.70209094964538,82.71602960374176,83.17910834240034,40.52298260724504,40.98606134590362,40
225.586,83.44290000000001,83.36866252541374,82.39549898736429,82.83589518097148,40.53276734444226,40.97316353804945,40
232.91,83.26669999999999,83.17433172827646,82.00612161029079,82.54512371120599,40.62920801707047,41.168210117985666,40
241.699,83.2356,83.11042316990869,81.40985383209421,82.21686754618243,40.89355562372626,41.70056933781447,40
250.488,84.3928,84.26612372276898,81.4570854230193,82.92107931280765,41.34504440996133,42.80903829974969,40
259.277,84.8149,84.76418762088454,82.95200531367206,83.92624985086827,40.83793777001627,41.81218230721248,40
268.066,83.9468,83.88173547810526,82.35061335745354,83.1293316033763,40.752403874728955,41.531122120651716,40
276.855,83.6771,83.59448191265533,82.09558766907824,82.84472704049706,40.74975487215826,41.498894243577084,40
287.109,83.7738,83.67843580650583,81.71841333951336,82.73224937541573,40.9461864310901,41.96002246699247,40
297.363,83.3688,83.29856267567519,81.41786080867212,82.42775133235912,40.87081134331606,41.88070186700307,40
307.617,83.2326,83.13344873211891,81.45941700551958,82.33573321655862,40.797715515560284,41.674031726599324,40
319.336,83.0548,82.94904834714774,80.72072165387053,81.90902452710988,41.04002382003786,42.22832669327721,40
329.59,83.1787,83.08029276181709,80.93399267393326,82.04727829224313,41.033014469573956,42.14630008788383,40
341.309,82.9507,82.87642446476335,81.11949692631784,82.07142544687719,40.80499901788616,41.75692753844551,40
353.027,82.3222,82.19582213944591,80.81507315915417,81.4786096478411,40.71721249160481,41.38074898029174,40
366.211,82.6616,82.4756870124171,80.10816294867018,81.22083239563221,41.25485461678488,42.36752406374691,40
379.395,83.2526,83.08361588081128,80.2462988511473,81.69250605146956,41.391109829341715,42.83731702966398,40
392.578,83.7194,83.55117473052418,80.70622494289881,82.21329321976471,41.33788151075947,42.84494978762537,40
405.762,83.5445,83.37033102518281,80.69686423560513,81.98940865837318,41.38092236680963,42.673466789577674,40
420.41,83.4706,83.27892378446273,80.38345990734139,81.77606865149798,41.502855132964754,42.895463877121344,40
435.059,83.67440000000002,83.40909433994605,80.33211287557084,81.75684112251426,41.65225321743179,43.07698146437521,40
451.172,83.6723,83.44580364116038,80.17400470336983,81.72895624126167,41.71684739989871,43.27179893779055,40
465.82,84.1106,83.94471433345973,80.49401283775052,82.31870242506986,41.62601190838987,43.45070149570921,40
483.398,84.17239999999998,84.11993794657656,80.9712374113522,82.80606731210327,41.31387063447329,43.14870053522435,40
499.512,83.0858,83.00172102144273,81.10323681942387,82.27366151954764,40.72805950189509,41.898484202018864,40
517.09,83.3962,83.0145258890866,80.79243955378305,81.97142177048048,41.043104118606124,42.222086335303544,40
536.133,84.78219999999999,84.31311185406776,80.58586366377875,82.50312312183313,41.80998873223463,43.727248190289004,40
555.176,85.3417,84.90734424587424,81.10820361310363,83.08561599738266,41.82172824849158,43.799140632770616,40
574.219,85.36779999999999,84.89786490991303,80.92036931941905,82.7991788124587,42.09868609745432,43.97749559049397,40
594.727,85.99440000000001,85.49087582078928,81.34111897203668,83.24970842968966,42.24116739109962,44.1497568487526,40
615.234,86.3762,85.98679027329314,81.07525561012456,83.24219445416429,42.74459581912885,44.91153466316858,40
637.207,86.6193,86.41695585873512,81.50448100970607,83.61339442741655,42.80356143131857,44.91247484902905,40
659.18,86.2356,86.12939717933646,81.60324368118205,83.65567644472077,42.473720734615696,44.526153498154414,40
682.617,84.575,84.60528098826691,80.81816842728661,82.52246244333358,42.08281854493333,43.787112560980304,40
707.52,84.5312,84.38407171643317,80.54712885580619,82.35077789894498,42.033293817488186,43.836942860626976,40
732.422,84.3932,84.17684469049287,80.37745443567498,82.46404555825151,41.71279913224136,43.799390254817894,40
757.324,85.8093,85.38400771978591,80.1475811751826,82.8962497333479,42.48775798643801,45.23642654460332,40
785.156,85.903,85.4977642240063,80.52709310492412,83.00036981746118,42.497394406545126,44.97067111908218,40
811.523,84.9471,84.5890845132607,79.56084178944428,81.94816032591012,42.64092418735058,45.02824272381642,40
840.82,85.2031,84.76914062366203,79.56390683357904,82.03052162317724,42.73861900048479,45.205233790082985,40
870.117,86.52599999999998,86.06062936368954,79.84859725927586,82.84277607271449,43.21785329097506,46.21203210441368,40
900.879,86.05170000000001,85.55710728567757,79.66461057482906,82.3208341387666,43.236273146910975,45.89249671084852,40
933.105,85.7283,85.24151628873729,79.340477168564,81.98754099739423,43.25397529134305,45.901039120173294,40
965.332,85.838,85.23850743609032,79.16876616214549,82.06982156889158,43.16868586719873,46.06974127394483,40
1000.49,86.7162,86.21326756268022,79.63690683370297,82.68135909665776,43.53190846602246,46.57636072897725,40
1035.64,86.46630000000002,85.88211940353833,79.5547272509007,82.54585310093547,43.33626630260285,46.32739215263763,40
1072.27,86.5143,85.95124618583174,79.536508210326,82.62454900835182,43.326697177479915,46.41473797550573,40
1108.89,87.2063,86.6034799831289,79.68450868985262,82.97873721669563,43.62474276643327,46.918971293276286,40
1148.44,87.08429999999998,86.54082867351468,79.5327206804915,82.6632269044878,43.87760176902688,47.00810799302319,40
1189.45,86.1602,85.65088270095742,78.72811107376714,81.89212991724142,43.758752783716005,46.922771627190286,40
1230.47,85.2949,84.78059221176541,77.58004877769868,80.724475705279,44.056116506486404,47.20054343406673,40
1274.41,83.6633,83.2939795796943,76.61161815803197,79.26801007649568,44.02596950319861,46.68236142166232,40
1319.82,83.094,82.53754541443061,76.23026212527759,78.61787938722117,43.919666027209445,46.30728328915302,40
1366.7,83.7603,82.90554074174774,76.7433894594495,78.93757338707482,43.96796735467292,46.16215128229824,40
1413.57,84.40370000000001,83.50954311329016,76.78196731469215,78.93931188645492,44.57023122683525,46.72757579859801,40
1463.38,84.9613,84.22574988355535,77.17675776406965,79.61042103605595,44.6153288474994,47.0489921194857,40
1516.11,85.0245,84.45602740181556,77.34006533250613,79.87541284583106,44.580614555984496,47.11596206930943,40
1568.85,84.7594,84.04957223174841,77.3138810160012,79.61197055791355,44.43760167383486,46.73569121574721,40
1624.51,84.6436,84.09851633021566,77.23357592814315,79.44488626232332,44.65363006789234,46.864940402072506,40
1681.64,84.8416,84.10268646599808,77.50723121872022,79.49840367763714,44.60428278836093,46.595455247277854,40
1741.7,85.3071,84.65931106633353,77.87908124784582,79.976071393338,44.683239672995526,46.78022981848771,40
1803.22,85.46939999999998,84.86404505941874,78.28785087312829,80.26353193913816,44.60051312028058,46.57619418629045,40
1866.21,84.904,84.31546193646503,78.28002501266042,80.07992626565314,44.235535670811885,46.03543692380461,40
1932.13,84.58680000000001,84.2837785320835,78.54704103911531,80.2836168544826,44.0001616776009,45.73673749296819,40
1999.51,85.01229999999998,84.4578384675584,78.74153517498111,80.48213328097172,43.97570518658668,45.716303292577294,40
2069.82,85.4813,84.89518577746846,79.13616033830355,81.04429868342464,43.85088709404381,45.7590254391649,40
2143.07,84.113,84.07234828962781,78.81998664778209,80.5769843890588,43.49536390056902,45.252361641845724,40
2219.24,83.85589999999999,83.68304743300556,78.91036833971971,80.68570173563904,42.99734569736651,44.772679093285845,40
2296.88,83.9237,84.0388870562685,79.5932533343046,81.29382304184053,42.74506401442798,44.4456337219639,40
2378.91,83.37459999999999,83.85955645455914,79.38813169457534,81.2553011772047,42.60425527735444,44.471424759983805,40
2462.4,83.088,83.694441613898,79.55749440330828,81.33549566333794,42.358945950560056,44.13694721058971,40
2548.83,83.1459,83.88879360571136,79.84261948998206,81.73511740047441,42.15367620523695,44.0461741157293,40
2639.65,83.5487,84.58001195493128,80.18341963553358,82.32343057969838,42.2565813752329,44.3965923193977,40
2731.93,82.914,83.88538959493759,80.0125396976621,82.38919307865947,41.49619651627812,43.872849897275486,40
2828.61,82.7824,84.0597511269046,80.27181143205439,82.8425204860111,41.217230640893504,43.78793969485021,40
2928.22,84.49860000000001,84.7332223315728,79.9972387532222,82.93735966148313,41.795862670089676,44.7359835783506,40
3030.76,84.83620000000002,85.21783798162892,80.28488795707248,83.30211950808459,41.91571847354433,44.93295002455643,40
3137.7,84.71350000000001,84.97215804285193,80.1051343954149,83.14902036190266,41.82313768094927,44.86702364743704,40
3249.02,86.13230000000001,85.56182510051843,79.88826294016012,83.12905973559675,42.43276536492168,45.673562160358316,40
3363.28,85.8615,85.1728192868016,79.79992461440992,82.8272286891728,42.3455905976288,45.37289467239168,40
3481.93,85.9132,84.89934073783716,79.54623110470922,82.60936457592953,42.28997616190763,45.35310963312794,40
3604.98,86.5092,85.1016555638723,79.312017568127,82.66139979255021,42.440255771322086,45.789637995745295,40
3732.42,86.97220000000002,85.2752123342726,79.34295730462549,82.72492874284397,42.550283591428624,45.93225502964711,40
3864.26,87.1712,85.29513049207631,79.30960811795848,82.51789524736489,42.77723524471142,45.985522374117835,40
4000.49,87.7045,85.4051534085656,79.28267919504574,82.68066220690443,42.724491201661166,46.12247421351985,40
4141.11,88.3447,85.89104539516897,79.57615857224619,83.10185828130065,42.78918711386832,46.31488682292279,40
4287.6,88.0674,85.57191125014012,79.7661469482362,83.03614076050346,42.53577048963666,45.80576430190392,40
4438.48,88.4821,86.09707782177625,80.13210261103964,83.44106412424746,42.65601369752879,45.96497521073661,40
4595.21,87.9295,85.98247366053715,80.30469180825554,83.51530180886863,42.467171851668525,45.67778185228161,40
4756.35,87.6671,85.96316836361349,80.0319250309002,83.37898952228394,42.584178841329546,45.931243332713294,40
4924.8,87.0438,85.52115396238321,79.75232670194718,83.09472718876417,42.42642677361904,45.76882726043603,40
5097.66,86.4061,85.04892396508329,79.12552202097149,82.57690609588818,42.47201786919511,45.9234019441118,40
5277.83,85.5481,84.77636493840603,78.84400681184863,82.36636236118079,42.41000257722524,45.9323581265574,40
5463.87,84.37730000000002,84.32441940406761,78.60951839986782,82.09271052408184,42.231708879985774,45.71490100419979,40
5657.23,83.6649,84.2964928993243,78.52566555642133,81.89204116759998,42.40445173172432,45.770827342902976,40
5856.45,83.4665,84.19589362249855,78.43794771276768,81.800776448213,42.395117174285545,45.757945909730864,40
6062.99,83.3106,84.06144334076856,78.37004922626961,81.70928068856745,42.352162652201116,45.69139411449895,40
6276.86,83.71780000000001,84.31900142185953,78.29986842102689,81.72031099290103,42.59869042895849,46.01913300083264,40
6498.05,83.95839999999998,84.28542859516972,78.1427235427285,81.55223965159263,42.73318894357709,46.142705052441215,40
6726.56,84.2355,84.36352944958912,78.02497055029917,81.49645079182486,42.86707865776427,46.33855889928995,40
6963.87,84.22389999999999,84.18395373958614,77.86365109071829,81.27287195115457,42.911081788431574,46.32030264886785,40
7209.96,84.23239999999998,83.99881008269618,77.62381533229049,80.93392386326127,43.06488621943491,46.37499475040569,40
7464.84,84.4323,83.83886805790979,77.14593033370738,80.57019967198579,43.268668385924,46.69293772420241,40
7727.05,84.2895,83.24187191805731,76.23651776128357,79.83772607244897,43.40414584560834,47.00535415677375,40
7999.51,83.857,82.686278162632,75.24819899178826,79.0808104407257,43.605467721906294,47.438079170843736,40
8282.23,83.7455,82.5769697594025,74.76241203865031,78.78411762243678,43.79285213696572,47.81455772075219,40
8573.73,84.0288,82.62082961314485,74.527567193434,78.78613675971428,43.83469285343057,48.093262419710854,40
8876.95,84.1594,82.60854571838357,74.36902220939119,78.70048724709677,43.90805847128679,48.23952350899238,40
9188.96,83.78050000000002,82.353719166148,74.21770709133479,78.38465556792916,43.96906359821884,48.13601207481321,40
9514.16,83.2729,82.18993250852947,74.18483760902066,78.15681494613268,44.03311756239678,48.005094899508805,40
9849.61,83.1205,82.25795438659148,74.30150910536503,78.18152112795295,44.07643325863853,47.95644528122645,40
10196.8,83.1619,82.32567066482021,74.40615119961367,78.20851869337717,44.117151971443036,47.919519465206534,40
10555.7,82.4651,82.18831242360861,74.48894381745694,78.11128952091792,44.077022902690686,47.699368606151666,40
10927.7,82.7034,82.38634825956032,74.5757264876953,78.18562015431165,44.20072810524867,47.810621771865016,40
11313.0,82.69390000000001,82.55207282811753,74.7272918481205,78.32005176505494,44.23202106306259,47.82478097999703,40
11712.9,81.7786,82.44278911936428,74.86949221660201,78.39029786334052,44.05249125602376,47.573296902762266,40
