Freq,Floor Bounce,Ceiling Bounce,Front Wall Bounce,Side Wall Bounce,Rear Wall Bounce,Total Early Reflection
22.4,60.800678434474904,60.567088607594926,60.66708860759492,60.66708860759492,50.88985255470644,59.81975543605709
23.0,60.934010458755424,60.70067843447488,60.86708860759492,60.86708860759492,51.089852554706454,59.98739432947032
23.6,61.067088607594926,60.83401045875543,60.96708860759493,60.96708860759493,51.18985255470645,60.103509202379385
24.0,61.16708860759492,60.96708860759493,61.067088607594926,61.067088607594926,51.28985255470644,60.21135945628646
25.0,61.334010458755415,61.10067843447489,61.267088607594914,61.267088607594914,51.489852554706445,60.38739432947031
25.8,61.50067843447491,61.267088607594914,61.46708860759492,61.46708860759492,51.689852554706434,60.571219438156945
26.5,61.66708860759492,61.46708860759492,61.567088607594926,61.567088607594926,51.78985255470646,60.71135945628646
27.2,61.86708860759492,61.66708860759492,61.767088607594914,61.767088607594914,51.98985255470643,60.91135945628646
28.0,62.03401045875542,61.83401045875543,61.96708860759492,61.96708860759492,52.18985255470645,61.095273740076735
29.0,62.20067843447488,61.96708860759492,62.067088607594926,62.067088607594926,52.28985255470644,61.21975543605707
30.0,62.4006784344749,62.16708860759492,62.267088607594914,62.267088607594914,52.489852554706445,61.41975543605709
30.7,62.6006784344749,62.36708860759494,62.4670886075949,62.4670886075949,52.689852554706434,61.61975543605709
31.5,62.80067843447489,62.567088607594926,62.66708860759492,62.66708860759492,52.88985255470645,61.81975543605708
32.5,63.00067843447491,62.767088607594914,62.86708860759492,62.86708860759492,53.08985255470644,62.019755436057096
33.5,63.20067843447488,62.96708860759492,63.067088607594926,63.067088607594926,53.28985255470646,62.2197554360571
34.5,63.4006784344749,63.16708860759492,63.267088607594914,63.267088607594914,53.48985255470643,62.41975543605709
35.5,63.63401045875541,63.4006784344749,63.567088607594926,63.567088607594926,53.78985255470644,62.68739432947032
36.5,63.86708860759491,63.63401045875541,63.767088607594914,63.767088607594914,53.989852554706445,62.90350920237938
37.5,64.06708860759493,63.86708860759491,63.96708860759492,63.96708860759492,54.189852554706434,63.11135945628645
38.7,64.26708860759491,64.06708860759493,64.16708860759492,64.16708860759492,54.38985255470645,63.31135945628647
40.0,64.50067843447489,64.26708860759491,64.46708860759492,64.46708860759492,54.68985255470645,63.57121943815696
41.2,64.70067843447488,64.46708860759492,64.66708860759492,64.66708860759492,54.88985255470644,63.77121943815696
42.5,64.9006784344749,64.66708860759492,64.86708860759494,64.86708860759494,55.089852554706454,63.971219438156965
43.7,65.1006784344749,64.86708860759494,65.06708860759493,65.06708860759493,55.28985255470646,64.17121943815697
45.0,65.26708860759491,65.06708860759493,65.16708860759492,65.16708860759492,55.38985255470645,64.31135945628645
46.2,65.4006784344749,65.16708860759492,65.26708860759491,65.26708860759491,55.489852554706445,64.41975543605709
47.5,65.46708860759492,65.26708860759491,65.36708860759492,65.36708860759492,55.58985255470644,64.51135945628646
48.7,65.56708860759493,65.36708860759492,65.46708860759492,65.46708860759492,55.689852554706434,64.61135945628645
50.0,65.66708860759492,65.46708860759492,65.56708860759493,65.56708860759493,55.78985255470646,64.71135945628647
51.5,65.8006784344749,65.56708860759493,65.66708860759492,65.66708860759492,55.88985255470644,64.8197554360571
53.0,65.9006784344749,65.66708860759492,65.86708860759492,65.86708860759492,56.089852554706454,64.97121943815696
54.5,66.03401045875542,65.83401045875543,65.96708860759493,65.96708860759493,56.18985255470645,65.09527374007673
56.0,66.23401045875542,66.00067843447489,66.16708860759492,66.16708860759492,56.38985255470645,65.28739432947032
58.0,66.40067843447488,66.16708860759492,66.26708860759491,66.26708860759491,56.489852554706445,65.41975543605707
60.0,66.6006784344749,66.36708860759491,66.46708860759492,66.46708860759492,56.689852554706434,65.61975543605709
61.5,66.83401045875543,66.63401045875543,66.76708860759491,66.76708860759491,56.98985255470643,65.89527374007675
63.0,67.06708860759493,66.86708860759492,66.96708860759492,66.96708860759492,57.18985255470645,66.11135945628645
65.0,67.33401045875543,67.10067843447489,67.26708860759491,67.26708860759491,57.489852554706445,66.38739432947033
67.0,67.63401045875543,67.4006784344749,67.56708860759493,67.56708860759493,57.78985255470646,66.68739432947032
69.0,67.9006784344749,67.66708860759492,67.86708860759492,67.86708860759492,58.08985255470644,66.97121943815695
71.0,68.2340104587554,68.0006784344749,68.16708860759492,68.16708860759492,58.38985255470644,67.28739432947033
73.0,68.53401045875542,68.3006784344749,68.46708860759493,68.46708860759493,58.68985255470645,67.58739432947031
75.0,69.03401045875543,68.90067843447488,68.9397370387265,69.00736533656539,59.08985255470644,68.11185259426757
77.5,69.4006784344749,69.23401045875542,69.3105536945739,69.36754912054408,59.48985255470643,68.47079925551787
80.0,69.7340104587554,69.60067843447489,69.6105536945739,69.70736533656539,59.78985255470644,68.80480814052325
82.5,70.03401045875542,69.9006784344749,69.93973703872652,70.02736448830396,60.089852554706454,69.11677692197654
85.0,70.33401045875542,70.2006784344749,70.23973703872652,70.32736448830397,60.38985255470645,69.41677692197655
87.5,70.6006784344749,70.46708860759492,70.5105536945739,70.60736533656541,60.689852554706434,69.6885144452767
90.0,70.7340104587554,70.6006784344749,70.66806787502954,70.74773458538083,60.88985255470644,69.83119119718243
92.5,70.80067843447488,70.66708860759492,70.71055369457389,70.80736533656538,60.88985255470644,69.88851444527667
95.0,70.83401045875543,70.66708860759492,70.71055369457389,70.80736533656538,60.88985255470644,69.89676272293667
97.5,70.80067843447488,70.66708860759492,70.71055369457389,70.80736533656538,60.88985255470644,69.88851444527667
100.0,70.80067843447488,70.66708860759492,70.66806787502954,70.7872736630108,60.88985255470644,69.87331646257073
103.0,70.76708860759491,70.6006784344749,70.63907492118348,70.72736448830396,60.88985255470644,69.82733791312923
106.0,70.7340104587554,70.6006784344749,70.63907492118348,70.72736448830396,60.88985255470644,69.819147555642
109.0,70.7340104587554,70.6006784344749,70.6105536945739,70.70736533656539,60.88985255470644,69.80734570535476
112.0,70.70067843447488,70.56708860759493,70.6105536945739,70.70736533656539,60.78985255470646,69.78851444527669
115.0,70.70067843447488,70.53401045875543,70.59686855842321,70.6872736630108,60.78985255470646,69.7723440136539
118.0,70.66708860759492,70.50067843447489,70.53907492118348,70.62736448830397,60.78985255470646,69.72733791312923
122.0,70.63401045875541,70.50067843447489,70.49686855842323,70.62736448830397,60.78985255470646,69.70898975133613
125.0,70.6006784344749,70.46708860759492,70.49686855842323,70.60736533656541,60.689852554706434,69.68521102274543
128.0,70.6006784344749,70.46708860759492,70.49686855842323,70.60736533656541,60.78985255470646,69.68776006059868
132.0,70.66708860759492,70.50067843447489,70.53907492118348,70.66708860759492,60.78985255470646,69.73714599661852
136.0,70.80067843447488,70.66708860759492,70.69686855842322,70.80736533656538,60.98985255470643,69.88776006059867
140.0,70.96708860759493,70.80067843447488,70.83907492118348,70.92736448830398,61.089852554706454,70.02733791312924
145.0,71.10067843447489,71.00067843447489,70.99686855842323,71.1073653365654,61.28985255470644,70.19582215766148
150.0,71.26708860759491,71.10067843447489,71.16806787502955,71.26708860759491,61.38985255470645,70.34413823373991
155.0,71.46708860759492,71.30067843447489,71.3105536945739,71.42736448830397,61.58985255470644,70.52047845921864
160.0,71.63401045875543,71.46708860759492,71.51055369457389,71.58727366301082,61.689852554706434,70.69181563642968
165.0,71.83401045875543,71.63401045875543,71.71055369457389,71.78727366301081,61.88985255470645,70.8839299435809
170.0,72.00067843447489,71.8006784344749,71.89686855842322,71.90736533656539,62.08985255470644,71.04479382060701
175.0,72.13401045875541,71.93401045875542,72.0105536945739,72.0872736630108,62.18985255470645,71.18392994358088
180.0,72.13401045875541,71.9006784344749,72.0105536945739,72.02736448830397,62.08985255470644,71.15882121613377
185.0,72.00067843447489,71.76708860759491,71.9105536945739,71.88727366301082,61.98985255470643,71.0327434587273
190.0,71.86708860759492,71.63401045875543,71.71055369457389,71.7073653365654,61.78985255470646,70.8701835962347
195.0,71.66708860759492,71.46708860759492,71.61055369457391,71.56754912054409,61.58985255470644,70.71709599923825
200.0,71.53401045875543,71.26708860759491,71.41055369457389,71.38773204067571,61.489852554706445,70.54120964002362
206.0,71.36708860759491,71.13401045875541,71.3105536945739,71.22736448830398,61.28985255470644,70.39949724869727
212.0,71.2006784344749,70.96708860759493,71.12451309895307,71.02736448830397,61.089852554706454,70.21919328002105
218.0,71.10067843447489,70.83401045875543,71.02451309895307,70.90782159865618,60.88985255470644,70.10422502187298
224.0,71.10067843447489,70.83401045875543,71.02451309895307,70.90782159865618,60.88985255470644,70.10422502187298
230.0,71.16708860759492,70.9006784344749,71.11055369457391,70.98773204067572,60.98985255470643,70.17961269926599
236.0,71.23401045875542,70.96708860759493,71.15360310345586,71.04773458538082,61.089852554706454,70.2396433441567
240.0,71.30067843447489,71.03401045875542,71.2105536945739,71.12736448830397,61.089852554706454,70.3054931647856
250.0,71.36708860759491,71.10067843447489,71.3105536945739,71.18773204067571,61.18985255470645,70.37961269926599
258.0,71.46708860759492,71.16708860759492,71.381843922887,71.26754912054407,61.28985255470644,70.45972449117257
265.0,71.43401045875541,71.16708860759492,71.32451309895306,71.26754912054407,61.28985255470644,70.43727019488917
272.0,71.36708860759491,71.13401045875541,71.3105536945739,71.22736448830398,61.28985255470644,70.39949724869727
280.0,71.26708860759491,71.06708860759493,71.2105536945739,71.1675491205441,61.18985255470645,70.31709599923825
290.0,71.26708860759491,71.00067843447489,71.15294309669729,71.0872736630108,61.089852554706454,70.26529632933713
300.0,71.16708860759492,70.93401045875542,71.08184392288702,71.02736448830397,61.089852554706454,70.19243270915472
307.0,71.10067843447489,70.86708860759492,71.0105536945739,70.9675491205441,60.98985255470643,70.12548090687449
315.0,71.06708860759493,70.86708860759492,71.0105536945739,70.9675491205441,60.98985255470643,70.11709599923824
325.0,71.10067843447489,70.86708860759492,71.0105536945739,70.98773204067572,60.98985255470643,70.1303898148075
335.0,71.13401045875541,70.86708860759492,71.03907492118348,71.0073653365654,60.98985255470643,70.15051369533303
345.0,71.13401045875541,70.9006784344749,71.0105536945739,71.0073653365654,60.98985255470643,70.1514910441323
355.0,71.10067843447489,70.86708860759492,71.0105536945739,70.96754912054409,60.98985255470643,70.12548090687449
365.0,71.06708860759493,70.80067843447488,70.9529430966973,70.9073653365654,60.88985255470644,70.07016046393252
375.0,70.96708860759493,70.70067843447488,70.88184392288701,70.82736448830396,60.88985255470644,69.98454813769244
387.0,70.86708860759492,70.66708860759492,70.82451309895308,70.72736448830396,60.78985255470646,69.9107962123429
400.0,70.93401045875542,70.66708860759492,70.86774646828918,70.76754912054409,60.78985255470646,69.94791663462432
412.0,71.03401045875542,70.76708860759491,70.99654927615083,70.86708860759492,60.88985255470644,70.05494285351612
425.0,71.10067843447489,70.86708860759492,71.09654927615084,70.9472719664448,61.089852554706454,70.1442942545507
437.0,71.2006784344749,70.93401045875542,71.19654927615083,71.0472719664448,61.089852554706454,70.23404017266508
450.0,71.23478382064786,70.96708860759493,71.24006052497195,71.0472719664448,61.18985255470645,70.26367599265174
462.0,71.26785610205053,70.93401045875542,71.24006052497195,71.02736448830397,61.089852554706454,70.25702013359806
475.0,71.30067843447489,70.96785610205053,71.26971980129618,71.04773458538082,61.089852554706454,70.28552476266475
487.0,71.2006784344749,70.86785610205054,71.24006052497195,70.94773458538083,60.98985255470643,70.20327851367732
500.0,71.10067843447489,70.73478382064785,71.11283319760516,70.78865932504989,60.88985255470644,70.07468421544974
515.0,71.00067843447489,70.63478382064788,71.04006052497195,70.66848072384253,60.689852554706434,69.97449067456263
530.0,71.03478382064786,70.56940855349266,71.04006052497195,70.64912239178325,60.689852554706434,69.96350952679613
545.0,71.13478382064787,70.60221919937474,71.14006052497194,70.64912239178325,60.58985255470644,70.02018975305988
560.0,71.13478382064787,70.60221919937474,71.19850956807836,70.6320006035455,60.58985255470644,70.03145566304914
580.0,71.10221919937476,70.47015817863743,71.12582656087224,70.51202283876283,60.38985255470645,69.94202493744213
600.0,70.93553944564924,70.30529990648236,70.99654927615083,70.3138253800096,60.189852554706434,69.77772539496674
615.0,70.87015817863745,70.17251261492153,70.89850956807838,70.13571664657815,59.989852554706445,69.66021777524891
630.0,70.83553944564925,70.1409682198231,70.86904692170414,70.03904166658118,59.78985255470644,69.61038657793996
650.0,70.80221919937475,70.00991891231466,70.82582656087224,69.96182957106303,59.68985255470645,69.54141922481422
670.0,70.60221919937474,69.77716660539785,70.65490779823303,69.72514722556475,59.38985255470645,69.33188958692115
690.0,70.3371034901697,69.5409682198231,70.39850956807838,69.46408317881195,59.08985255470644,69.07574399352497
710.0,70.27015817863744,69.47399361794952,70.29850956807837,69.36408317881194,58.989852554706445,68.9919662363166
730.0,70.23710349016969,69.47399361794952,70.34267836216931,69.38382343324547,58.989852554706445,68.9994265784609
750.0,70.23710349016969,69.40991891231467,70.34267836216931,69.32312995680779,58.989852554706445,68.97198048354069
775.0,70.20529990648234,69.40991891231467,70.34267836216931,69.2460012850358,58.88985255470645,68.94485282406987
800.0,70.30529990648236,69.44637593366924,70.41608878846232,69.3100259685324,58.88985255470645,69.01375289234201
825.0,70.43710349016968,69.60991891231465,70.61608878846232,69.44600128503579,59.08985255470644,69.17371941277055
850.0,70.53710349016968,69.70991891231466,70.70210983690818,69.605292743322,59.28985255470646,69.28451179361623
875.0,70.53710349016968,69.80529990648235,70.70210983690818,69.70529274332199,59.38985255470645,69.32936021672975
900.0,70.47015817863743,69.70991891231466,70.61709494776564,69.54816134513001,59.189852554706434,69.22889085889166
925.0,70.47015817863743,69.51607375639044,70.61709494776564,69.24368021277398,58.78985255470644,69.11415989592133
950.0,70.5385966154643,69.36180789878695,70.7436783808132,69.08955596406986,58.38985255470644,69.09774794594001
975.0,70.4739936179495,69.1718239087807,70.71709494776563,68.84770926126589,57.989852554706445,68.97752556294263
1000.0,70.40991891231467,69.04371659013397,70.69095846855706,68.64256153864606,57.589852554706454,68.87930416362741
1030.0,70.64637593366926,69.14371659013399,70.96526405850196,68.73361690608687,57.589852554706454,69.06863896806765
1060.0,70.88625566262245,69.25597407914496,71.2710592695227,68.82731783048966,57.689852554706434,69.27478090744462
1090.0,71.05691717432964,69.29642938201148,71.47105926952268,68.85541167780875,57.689852554706434,69.40137081395615
1120.0,71.0329770681918,69.15597407914494,71.517938648546,68.69690711304739,57.489852554706445,69.35221519610714
1150.0,70.9046163805952,68.95597407914495,71.43780684748845,68.48265858601249,57.08985255470644,69.2081578781005
1180.0,70.91607219910334,68.85597407914494,71.54127518869974,68.35296136828133,56.78985255470646,69.20269836863531
1220.0,70.94928673549549,68.76974311099832,71.66613378162482,68.23352573688408,56.58985255470644,69.21858705379809
1250.0,70.78888599448388,68.48501650524344,71.58232193749575,67.91578016265088,56.089852554706454,69.0349690994182
1280.0,70.68888599448387,68.32708822504482,71.60985556373946,67.7050816076846,55.689852554706434,68.95149655714265
1320.0,70.86215318795323,68.34466811220203,71.8346876361397,67.70332375739197,55.689852554706434,69.08991569703319
1360.0,71.02903728323258,68.33212798350245,72.00033991716616,67.76233249674074,55.88985255470644,69.21130731854424
1400.0,71.13586894756283,68.35282464623698,72.12702579182132,67.66838472612056,55.88985255470644,69.28253488701618
1450.0,71.17651109185512,68.25218346561867,72.10985556373946,67.51413305544467,55.489852554706445,69.24785019111444
1500.0,71.27651109185511,68.38364679936663,72.20355738810419,67.60233188535618,55.38985255470645,69.34721208354863
1550.0,71.41770988769856,68.51624064758323,72.33147626732172,67.78701566807443,55.489852554706445,69.48743343069914
1600.0,71.33435419619103,68.52004397547269,72.30981992284107,67.80736943049631,55.58985255470644,69.45743315047731
1650.0,71.55247571225391,68.68501650524342,72.56035459773545,68.04715782325093,55.88985255470644,69.68323249098871
1700.0,71.82845698382255,68.85282776408462,72.99068969104232,68.26445847097301,56.28985255470644,69.9960836951681
1750.0,72.14870069292913,68.9952109443433,73.34262138760577,68.39371029144654,56.489852554706445,70.27593631740166
1800.0,72.45888676436898,69.14466811220204,73.74820761758558,68.51996037872406,56.689852554706434,70.5774404471436
1850.0,72.62574584777362,69.1842833519485,74.00186067506685,68.49016758203608,56.489852554706445,70.73582826649056
1900.0,72.858886764369,69.40799614362123,74.23999781873309,68.72869502927112,56.58985255470644,70.96942857905573
1950.0,73.13650847126222,69.55282464623697,74.53280450554243,68.85589553568633,56.78985255470646,71.21693694493148
2000.0,73.258886764369,69.721860291563,74.71306407558781,69.02077212062581,57.08985255470644,71.37682245912477
2060.0,73.32574584777363,69.90101518236735,74.75820009035662,69.22475539937916,57.28985255470644,71.4670221352799
2120.0,73.32574584777363,69.93212798350244,74.70395280966346,69.27532963196988,57.28985255470644,71.45442461703281
2180.0,73.24870069292912,70.08166887072507,74.56551793495761,69.36709508673611,57.08985255470644,71.4042125541622
2240.0,73.2200439754727,70.28166887072506,74.57471010740035,69.56709508673613,57.28985255470644,71.45628806517936
2300.0,73.42708822504481,70.58166887072507,74.6756320748845,69.9115923095972,57.78985255470646,71.65507178732078
2360.0,73.65091194927086,70.85091021592643,74.74849608038004,70.14223977301943,58.08985255470644,71.82778607191193
2400.0,73.73586894756284,70.95091021592643,74.64285641540236,70.26144104061665,58.189852554706434,71.84636982728343
2500.0,73.82230830067871,71.0459154299037,74.5416464670406,70.30815389933436,58.189852554706434,71.85739305680126
2580.0,73.64426756749295,70.99822328448374,74.24311070868158,70.08435802184427,57.589852554706454,71.64726289827581
2650.0,73.54091970971416,70.99311313116182,74.02200621144779,70.01577020327301,56.78985255470646,71.518526589141
2720.0,73.54091970971416,70.82615124417,73.95651218583771,69.8656495646727,56.489852554706445,71.44287807223715
2800.0,73.63377413549513,70.71983854973853,73.8281360208821,69.74412898154567,56.689852554706434,71.3943220374606
2900.0,73.63377413549513,70.55789477349536,73.76284050433513,69.57955188047796,56.58985255470644,71.32102919275607
3000.0,73.40606618215294,70.20874148923986,73.53512316812845,69.181449708279,55.88985255470644,71.04759500573311
3070.0,73.31220417691247,69.94112944853518,73.45140580756845,68.94551628792276,55.38985255470645,70.90846390102077
3150.0,73.39635391643061,69.6567815498209,73.55736790101399,68.71574496607296,55.28985255470646,70.90345286303749
3250.0,73.48367923452275,69.48151206125222,73.64010594931712,68.59836793976613,55.089852554706454,70.92465014742834
3350.0,73.44055851643056,69.31787719972606,73.55147640998288,68.48444909985258,54.88985255470644,70.83832019729383
