Freq "Front Wall Bounce"
22.4 60.66708860759492
23.0 60.86708860759492
23.6 60.96708860759493
24.0 61.067088607594926
25.0 61.267088607594914
25.8 61.46708860759492
26.5 61.567088607594926
27.2 61.767088607594914
28.0 61.96708860759492
29.0 62.067088607594926
30.0 62.267088607594914
30.7 62.4670886075949
31.5 62.66708860759492
32.5 62.86708860759492
33.5 63.067088607594926
34.5 63.267088607594914
35.5 63.567088607594926
36.5 63.767088607594914
37.5 63.96708860759492
38.7 64.16708860759492
40.0 64.46708860759492
41.2 64.66708860759492
42.5 64.86708860759494
43.7 65.06708860759493
45.0 65.16708860759492
46.2 65.26708860759491
47.5 65.36708860759492
48.7 65.46708860759492
50.0 65.56708860759493
51.5 65.66708860759492
53.0 65.86708860759492
54.5 65.96708860759493
56.0 66.16708860759492
58.0 66.26708860759491
60.0 66.46708860759492
61.5 66.76708860759491
63.0 66.96708860759492
65.0 67.26708860759491
67.0 67.56708860759493
69.0 67.86708860759492
71.0 68.16708860759492
73.0 68.46708860759493
75.0 68.9397370387265
77.5 69.3105536945739
80.0 69.6105536945739
82.5 69.93973703872652
85.0 70.23973703872652
87.5 70.5105536945739
90.0 70.66806787502954
92.5 70.71055369457389
95.0 70.71055369457389
97.5 70.71055369457389
100.0 70.66806787502954
103.0 70.63907492118348
106.0 70.63907492118348
109.0 70.6105536945739
112.0 70.6105536945739
115.0 70.59686855842321
118.0 70.53907492118348
122.0 70.49686855842323
125.0 70.49686855842323
128.0 70.49686855842323
132.0 70.53907492118348
136.0 70.69686855842322
140.0 70.83907492118348
145.0 70.99686855842323
150.0 71.16806787502955
155.0 71.3105536945739
160.0 71.51055369457389
165.0 71.71055369457389
170.0 71.89686855842322
175.0 72.0105536945739
180.0 72.0105536945739
185.0 71.9105536945739
190.0 71.71055369457389
195.0 71.61055369457391
200.0 71.41055369457389
206.0 71.3105536945739
212.0 71.12451309895307
218.0 71.02451309895307
224.0 71.02451309895307
230.0 71.11055369457391
236.0 71.15360310345586
240.0 71.2105536945739
250.0 71.3105536945739
258.0 71.381843922887
265.0 71.32451309895306
272.0 71.3105536945739
280.0 71.2105536945739
290.0 71.15294309669729
300.0 71.08184392288702
307.0 71.0105536945739
315.0 71.0105536945739
325.0 71.0105536945739
335.0 71.03907492118348
345.0 71.0105536945739
355.0 71.0105536945739
365.0 70.9529430966973
375.0 70.88184392288701
387.0 70.82451309895308
400.0 70.86774646828918
412.0 70.99654927615083
425.0 71.09654927615084
437.0 71.19654927615083
450.0 71.24006052497195
462.0 71.24006052497195
475.0 71.26971980129618
487.0 71.24006052497195
500.0 71.11283319760516
515.0 71.04006052497195
530.0 71.04006052497195
545.0 71.14006052497194
560.0 71.19850956807836
580.0 71.12582656087224
600.0 70.99654927615083
615.0 70.89850956807838
630.0 70.86904692170414
650.0 70.82582656087224
670.0 70.65490779823303
690.0 70.39850956807838
710.0 70.29850956807837
730.0 70.34267836216931
750.0 70.34267836216931
775.0 70.34267836216931
800.0 70.41608878846232
825.0 70.61608878846232
850.0 70.70210983690818
875.0 70.70210983690818
900.0 70.61709494776564
925.0 70.61709494776564
950.0 70.7436783808132
975.0 70.71709494776563
1000.0 70.69095846855706
1030.0 70.96526405850196
1060.0 71.2710592695227
1090.0 71.47105926952268
1120.0 71.517938648546
1150.0 71.43780684748845
1180.0 71.54127518869974
1220.0 71.66613378162482
1250.0 71.58232193749575
1280.0 71.60985556373946
1320.0 71.8346876361397
1360.0 72.00033991716616
1400.0 72.12702579182132
1450.0 72.10985556373946
1500.0 72.20355738810419
1550.0 72.33147626732172
1600.0 72.30981992284107
1650.0 72.56035459773545
1700.0 72.99068969104232
1750.0 73.34262138760577
1800.0 73.74820761758558
1850.0 74.00186067506685
1900.0 74.23999781873309
1950.0 74.53280450554243
2000.0 74.71306407558781
2060.0 74.75820009035662
2120.0 74.70395280966346
2180.0 74.56551793495761
2240.0 74.57471010740035
2300.0 74.6756320748845
2360.0 74.74849608038004
2400.0 74.64285641540236
2500.0 74.5416464670406
2580.0 74.24311070868158
2650.0 74.02200621144779
2720.0 73.95651218583771
2800.0 73.8281360208821
2900.0 73.76284050433513
3000.0 73.53512316812845
3070.0 73.45140580756845
3150.0 73.55736790101399
3250.0 73.64010594931712
3350.0 73.55147640998288
3450.0 73.51755643395148
3550.0 73.68673034963143
3650.0 73.7970028084691
3750.0 73.68739502789956
3870.0 73.48239094084501
4000.0 73.65417888798423
4120.0 73.54642358989828
4250.0 73.75027204962701
4370.0 73.63280857659647
4500.0 73.39447413692055
4620.0 73.59640907085482
4750.0 73.79587786684327
4870.0 73.80484819212107
5000.0 73.85208318624342
5150.0 73.48914565096158
5300.0 73.31227722572022
5450.0 73.31179618166395
5600.0 73.61853715799282
5800.0 73.48624678888348
6000.0 72.84682713959367
6150.0 72.46332819470489
6300.0 72.2500538062818
6500.0 72.26916152319585
6700.0 72.46598891739215
6900.0 72.0828370228203
7100.0 71.92994089958027
7300.0 71.82449644395918
7500.0 71.62394737774763
7750.0 71.81416753831734
8000.0 71.72677385535648
8250.0 72.02833246980269
8500.0 72.10589533905478
8750.0 72.08463038180413
9000.0 72.10200335504878
9250.0 71.43052176575729
9500.0 71.195127583997
9750.0 71.6728061465206
10000.0 71.79077586017264
10300.0 71.60797762316025
10600.0 71.43035138748021
10900.0 71.10088123519334
11200.0 71.44966977068289
11500.0 71.39460730736651
11800.0 71.19137527093106
12200.0 71.27449693826163
12500.0 70.99846581831908
12800.0 70.55147380724893
13200.0 71.03150435685313
13600.0 70.88654379583026
14000.0 69.52649772076775
14500.0 69.423238482203
15000.0 69.1683624939704
15500.0 68.92610843133149
16000.0 68.29183082144986
16500.0 67.48252988541408
17000.0 68.30849184680764
17500.0 68.2319911396285
18000.0 68.68323393177532
18500.0 68.86069554828616
19000.0 68.4824145075243
19500.0 67.75498074459405
