Freq "Total Early Reflection"
22.4 61.15266682846217
23.0 61.3203057218754
23.6 61.436420594784465
24.0 61.54427084869154
25.0 61.72030572187539
25.8 61.904130830562025
26.5 62.04427084869154
27.2 62.24427084869154
28.0 62.428185132481815
29.0 62.55266682846215
30.0 62.75266682846217
30.7 62.95266682846217
31.5 63.15266682846216
32.5 63.352666828462176
33.5 63.55266682846218
34.5 63.75266682846217
35.5 64.0203057218754
36.5 64.23642059478446
37.5 64.44427084869153
38.7 64.64427084869155
40.0 64.90413083056204
41.2 65.10413083056204
42.5 65.30413083056204
43.7 65.50413083056205
45.0 65.64427084869153
46.2 65.75266682846217
47.5 65.84427084869154
48.7 65.94427084869153
50.0 66.04427084869155
51.5 66.15266682846217
53.0 66.30413083056204
54.5 66.42818513248181
56.0 66.6203057218754
58.0 66.75266682846215
60.0 66.95266682846217
61.5 67.22818513248183
63.0 67.44427084869153
65.0 67.7203057218754
67.0 68.0203057218754
69.0 68.30413083056203
71.0 68.62030572187541
73.0 68.9203057218754
75.0 69.44476398667265
77.5 69.80371064792295
80.0 70.13771953292833
82.5 70.44968831438162
85.0 70.74968831438163
87.5 71.02142583768178
90.0 71.16410258958751
92.5 71.22142583768175
95.0 71.22967411534175
97.5 71.22142583768175
100.0 71.20622785497581
103.0 71.16024930553431
106.0 71.15205894804708
109.0 71.14025709775984
112.0 71.12142583768177
115.0 71.10525540605899
118.0 71.06024930553431
122.0 71.04190114374121
125.0 71.01812241515051
128.0 71.02067145300376
132.0 71.0700573890236
136.0 71.22067145300375
140.0 71.36024930553432
145.0 71.52873355006656
150.0 71.67704962614499
155.0 71.85338985162372
160.0 72.02472702883476
165.0 72.21684133598598
170.0 72.37770521301209
175.0 72.51684133598596
180.0 72.49173260853885
185.0 72.36565485113238
190.0 72.20309498863978
195.0 72.05000739164333
200.0 71.8741210324287
206.0 71.73240864110235
212.0 71.55210467242613
218.0 71.43713641427806
224.0 71.43713641427806
230.0 71.51252409167107
236.0 71.57255473656178
240.0 71.63840455719068
250.0 71.71252409167107
258.0 71.79263588357765
265.0 71.77018158729425
272.0 71.73240864110235
280.0 71.65000739164333
290.0 71.59820772174221
300.0 71.5253441015598
307.0 71.45839229927957
315.0 71.45000739164333
325.0 71.46330120721258
335.0 71.48342508773811
345.0 71.48440243653738
355.0 71.45839229927957
365.0 71.4030718563376
375.0 71.31745953009752
387.0 71.24370760474798
400.0 71.2808280270294
412.0 71.3878542459212
425.0 71.47720564695578
437.0 71.56695156507016
450.0 71.59658738505682
462.0 71.58993152600314
475.0 71.61843615506983
487.0 71.5361899060824
500.0 71.40759560785482
515.0 71.30740206696771
530.0 71.29642091920121
545.0 71.35310114546496
560.0 71.36436705545422
580.0 71.27493632984721
600.0 71.11063678737182
615.0 70.99312916765399
630.0 70.94329797034504
650.0 70.8743306172193
670.0 70.66480097932623
690.0 70.40865538593005
710.0 70.32487762872168
730.0 70.33233797086598
750.0 70.30489187594577
775.0 70.27776421647495
800.0 70.34666428474709
825.0 70.50663080517563
850.0 70.61742318602131
875.0 70.66227160913483
900.0 70.56180225129674
925.0 70.44707128832641
950.0 70.4306593383451
975.0 70.31043695534771
1000.0 70.21221555603249
1030.0 70.40155036047273
1060.0 70.6076922998497
1090.0 70.73428220636123
1120.0 70.68512658851222
1150.0 70.54106927050557
1180.0 70.53560976104039
1220.0 70.55149844620317
1250.0 70.36788049182329
1280.0 70.28440794954773
1320.0 70.42282708943827
1360.0 70.54421871094932
1400.0 70.61544627942126
1450.0 70.58076158351952
1500.0 70.6801234759537
1550.0 70.82034482310422
1600.0 70.7903445428824
1650.0 71.0161438833938
1700.0 71.32899508757318
1750.0 71.60884770980674
1800.0 71.91035183954868
1850.0 72.06873965889564
1900.0 72.30233997146081
1950.0 72.54984833733656
2000.0 72.70973385152985
2060.0 72.79993352768498
2120.0 72.7873360094379
2180.0 72.73712394656728
2240.0 72.78919945758444
2300.0 72.98798317972586
2360.0 73.16069746431701
2400.0 73.1792812196885
2500.0 73.19030444920634
2580.0 72.98017429068089
2650.0 72.85143798154608
2720.0 72.77578946464223
2800.0 72.72723342986568
2900.0 72.65394058516115
3000.0 72.3805063981382
3070.0 72.24137529342585
3150.0 72.23636425544257
3250.0 72.25756153983342
3350.0 72.1712315896989
3450.0 72.06404214363948
3550.0 72.1167541657732
3650.0 72.18503087258838
3750.0 72.07490336391982
3870.0 71.86141709209406
4000.0 72.00410268702028
4120.0 71.87709077480258
4250.0 72.02317983782883
4370.0 71.9068960273332
4500.0 71.67458886460122
4620.0 71.75388913790711
4750.0 71.90923606006054
4870.0 71.91813595897446
5000.0 72.07960510697568
5150.0 71.93987978197164
5300.0 71.86433566647857
5450.0 71.54418040520439
5600.0 71.86498434642998
5800.0 72.01028432202736
6000.0 71.52036209904213
6150.0 71.15328816236159
6300.0 70.83038619494387
6500.0 70.58180411684666
6700.0 70.6943192636404
6900.0 70.53296355173703
7100.0 70.5743086209419
7300.0 70.66874063414431
7500.0 70.47454119295772
7750.0 70.49318684150586
8000.0 70.07254733291012
8250.0 70.21389592878353
8500.0 70.16384830736496
8750.0 69.9964108392046
9000.0 69.96688499608078
9250.0 69.24578831616755
9500.0 68.84663144053701
9750.0 69.23097457865043
10000.0 69.32736709618631
10300.0 69.24375260535007
10600.0 69.27555989385615
10900.0 68.8959331597985
11200.0 69.15296898364394
11500.0 69.12689717540817
11800.0 68.80970269809134
12200.0 68.8833478679793
12500.0 68.66004391667046
12800.0 68.22174072468867
13200.0 68.67952227613829
13600.0 68.66506189055667
14000.0 67.50120261866329
14500.0 67.379419414672
15000.0 67.01379620490117
15500.0 66.67162729928833
16000.0 66.39458255646664
16500.0 65.39432385090413
17000.0 65.86410978478605
17500.0 65.6822304064522
18000.0 66.32509529674448
18500.0 66.69832831757928
19000.0 66.65462244637385
19500.0 66.00320808207415
