Freq "Side Wall Bounce"
20.1416 70.86685877676716
20.5078 71.19853660177583
21.2402 71.77717944070982
21.9727 72.3305814748183
22.7051 72.77498779285894
23.8037 73.51283141381188
24.5361 73.94746198918116
25.2686 74.3752028029336
26.3672 74.99190775668676
27.0996 75.44983655357007
28.1982 76.1149483794848
29.2969 76.60294836511393
30.0293 76.9897066980874
31.1279 77.6339055842097
32.2266 77.9177644764303
33.3252 78.56132642082923
34.79 78.89842808250351
35.8887 78.67253843849663
36.9873 79.04811368712313
38.4521 79.44231875093958
39.917 79.83854256196248
41.3818 81.21441196331045
42.8467 81.68755162512201
44.3115 82.01522269702593
45.7764 82.46916941577791
47.2412 82.87778992385233
49.0723 83.38881752979475
50.9033 83.86896322141948
52.7344 84.27000869538678
54.5654 84.7603475270081
56.3965 85.20296951804615
58.2275 85.59393122250503
60.4248 86.03780616404663
62.6221 86.46839659524409
64.8193 86.80853809787197
67.0166 87.08505929486458
69.2139 87.39616597951851
71.7773 87.75023581402883
74.3408 88.06425459670638
76.9043 88.35504625129063
79.834 88.63166319173247
82.3975 88.84171146809271
85.3271 88.88658082673342
88.2568 89.12691588584067
91.5527 89.04618403198685
94.8486 89.03220155573459
98.1445 89.15740826250216
101.44 89.24598937687729
105.103 89.23404634745044
108.765 89.20918381823999
112.793 89.21019937363823
116.455 89.33182926798125
120.85 89.25575653153852
124.878 89.16118756036721
129.272 89.02302406603252
134.033 88.85832912011708
138.794 88.70351922817011
143.555 88.51555954859437
148.682 88.38965462702632
153.809 88.20502706276909
159.302 88.016341803357
164.795 88.40929070272155
170.654 89.1731358916572
176.88 89.33067883177945
183.105 89.167783075864
189.331 88.80215826532688
196.289 88.3924632127778
202.881 88.29529369019174
210.205 88.41920401275112
217.529 88.53838559978105
225.22 88.28460241731885
233.276 88.10557548015443
241.333 88.18865063419997
250.122 87.96505378983919
258.911 88.01456581520286
268.066 88.16043708107262
277.222 87.92496880519418
287.109 87.85886658277794
297.363 87.75886624286852
307.617 87.80358602330654
318.604 88.1377826612885
329.956 87.70744737774208
341.675 87.64609007565693
353.394 87.61781822934665
365.845 87.37144052815086
379.028 87.1697582881381
392.212 87.1073679355855
406.128 87.12780778931186
420.41 87.15884092023965
435.425 87.11151387379034
450.806 87.4010254712519
466.553 87.74192327924875
483.032 87.82345193231347
499.878 87.95155234529845
517.456 87.99515178333
535.767 87.77864882223443
554.81 88.19123821117128
574.219 88.2504383106782
594.727 88.10510007590594
615.601 87.99326150943828
637.207 87.69409096550629
659.912 87.50044303719729
682.983 87.41826431865644
707.153 87.44112774634205
732.056 87.42084847995689
757.69 87.31342047217373
784.424 87.48125665952126
812.256 87.44804473889184
840.82 87.51139199501227
870.483 87.74468778399006
901.245 87.91468266806191
933.105 88.07105394045296
966.064 87.6365301089516
1000.12 87.54060352703735
1035.28 87.35376327272732
1071.9 87.10607311673249
1109.62 86.60840674137053
1148.8 86.4511920357566
1189.09 86.52952134287685
1231.2 86.806387105602
1274.41 86.74314855321421
1319.46 86.60719274081194
1365.97 86.83538813133228
1414.31 86.48066190198806
1464.11 85.82546666092668
1515.75 85.60124446569145
1569.21 85.23540229152661
1624.51 84.79858691249959
1681.64 85.2209886256282
1740.97 85.70803872581715
1802.49 85.43330379839162
1866.21 84.89670927728702
1931.76 84.50445532087443
1999.88 84.85919193926784
2070.56 85.5001186596959
2143.43 85.82346572075664
2219.24 85.31300811699455
2297.24 84.78968163726151
2378.54 84.97154519195045
2462.4 86.03545068299664
2549.19 86.23470066438455
2638.92 86.0761238755177
2731.93 85.58637124633748
2828.25 85.46223197603652
2928.22 85.78518351479929
3031.49 85.8115328776575
3138.43 86.10778950550198
3249.02 86.06985949821492
3363.65 85.81099816189625
3482.3 86.01270728860996
3604.98 86.94230216764582
3732.06 86.91736166285528
3863.89 86.47143438864495
4000.12 85.6500834176907
4141.11 85.31986639914362
4287.23 85.04484854536675
4438.11 85.02379575705665
4594.85 84.57633801701942
4756.71 84.38745592764005
4924.44 84.60806849654944
5098.39 84.30146985818756
5278.2 83.5533664886868
5464.23 83.67723017851011
5656.86 83.31920576481788
5856.45 83.00505575762747
6062.99 83.23636406884619
6276.86 83.82864985629232
6498.05 83.66606733985631
6727.29 84.2448144322429
6964.23 83.64964373559606
7209.96 83.26970842823617
7464.11 82.8284679986608
7727.42 81.99596246871542
7999.88 81.79365100677633
8282.23 81.00045188849973
8574.1 80.72208970033998
8876.59 79.88776137841289
9189.7 80.06075635843645
9513.79 80.01921459617772
9849.24 79.95261440724036
10196.4 79.37181245647827
10556.0 78.90522155380604
10928.5 78.50331337158694
11313.7 77.55284885622336
11712.5 77.00494853765836
12125.6 76.74148251323504
12553.3 77.07237697128609
12996.1 77.40611431417572
13454.2 77.38654627388105
13928.8 77.3581180382941
14419.9 76.94364859574816
14928.6 76.15511541051536
15454.8 74.85382847165549
16000.1 75.19263867245292
16564.1 74.86789606559506
17148.2 72.76531268797872
17753.2 70.3035781916648
18379.0 68.04134223733396
19027.2 65.93792133517421
19698.5 64.34529801898523
19999.9 63.97794444439384
