Freq "Floor Bounce"
20.5078 49.372495861367454
21.9727 59.78246142800562
23.4375 60.139588549599225
24.9023 61.885994413335666
26.3672 64.17594208261333
27.832 66.27404041092008
29.2969 68.34773192053952
30.7617 70.06664576155679
32.2266 71.75788085841563
33.6914 73.5321144087983
35.1562 75.04518775238051
36.6211 76.62162699916838
38.0859 77.9898986111712
39.5508 79.34715555993849
41.0156 80.2994705322193
42.4805 81.4421011906294
43.9453 82.31387693054923
45.4102 83.09891627361019
46.875 83.81175599686497
48.3398 84.37869737336692
51.2695 85.34572682756328
52.7344 85.70420272094312
54.1992 85.9906119447068
55.6641 86.22362946039637
58.5938 86.714754488444
60.0586 86.87859353659834
62.9883 87.21609923330116
64.4531 87.37444591036495
67.3828 87.71543347721229
68.8477 87.85958947823458
71.7773 88.11645874427681
74.707 88.41252990603091
77.6367 88.67521714829984
79.1016 88.77845937659679
82.0312 89.07681305610929
84.9609 89.33640855043302
87.8906 89.51977968508604
90.8203 89.73508645776461
95.2148 90.05740476214463
98.1445 90.23751883116037
101.074 90.42345991134002
105.469 90.75424681562632
108.398 90.95367175108753
112.793 91.31226657196206
117.188 91.42990241811711
120.117 91.57656124236192
124.512 91.85196666897168
128.906 92.05721146197924
133.301 92.16972440042406
139.16 92.30441350258626
143.555 92.306743366402
147.949 92.42925412507796
153.809 92.62390174762659
159.668 92.87756637269987
165.527 92.91624832063228
171.387 92.8744275130774
177.246 92.73331303867205
183.105 92.78736585310486
188.965 92.81232755627703
196.289 92.94703212830602
203.613 92.98189297948075
210.938 92.87373116874129
218.262 92.62665754338632
225.586 92.73988386368059
232.91 92.30934577685852
241.699 92.2007879279086
250.488 92.6402207963125
259.277 92.44574565964776
268.066 92.4383778702349
276.855 92.77948875968995
287.109 92.54342412927184
297.363 92.75736784179198
307.617 92.17786928159312
319.336 92.01014719725401
329.59 91.98744599075219
341.309 91.81666740166851
353.027 92.12021062923586
366.211 92.7923506024423
379.395 91.81496420163656
392.578 91.4189444866747
405.762 91.21081588495723
420.41 91.06243885775574
435.059 90.44668359454344
451.172 91.05995380546725
465.82 90.3548373181309
483.398 89.14417232644264
499.512 88.08565416118913
517.09 86.44212688334578
536.133 86.18524973433468
555.176 86.15227870190321
574.219 86.78097517736913
594.727 88.0779971104612
615.234 88.45820190418958
637.207 87.71179873651191
659.18 87.43199384994799
682.617 90.18078809439199
707.52 89.7921909602054
732.422 89.03919576040327
757.324 88.73076412190373
785.156 87.98617012743624
811.523 88.23829843514557
840.82 86.72799304702214
870.117 88.32708837474104
900.879 86.63030799968547
933.105 86.18365316650657
965.332 85.18650401369948
1000.49 84.24126653289309
1035.64 83.86711777023757
1072.27 81.43556374112586
1108.89 81.77412271004778
1148.44 80.35498495407961
1189.45 81.78822112125742
1230.47 81.38531623533696
1274.41 79.85132509505532
1319.82 79.50464779879081
1366.7 80.57612930577035
1413.57 81.27044992141992
1463.38 79.48417927036769
1516.11 78.29391626870255
1568.85 78.63187054370847
1624.51 78.52313975163072
1681.64 78.85794197006665
1741.7 82.61576671728076
1803.22 83.1029630051228
1866.21 82.01508585253241
1932.13 80.37244562067728
1999.51 81.47951172096931
2069.82 83.93147773877838
2143.07 83.24512436021833
2219.24 83.06279212021813
2296.88 84.14348009555296
2378.91 82.21103274583116
2462.4 81.76163341919901
2548.83 82.38495902568434
2639.65 80.832037211819
2731.93 81.33117599443824
2828.61 82.18534944038659
2928.22 82.75732582453482
3030.76 84.06983815879862
3137.7 85.02390849509841
3249.02 85.13060501522781
3363.28 85.77675921757715
3481.93 86.26216216873878
3604.98 85.6367399947378
3732.42 85.55824455700314
3864.26 86.14762767481133
4000.49 87.46221720165936
4141.11 88.43509818328555
4287.6 89.26709383416433
4438.48 89.9130075036365
4595.21 89.96509652427402
4756.35 90.33920959058652
4924.8 89.02485701004717
5097.66 88.30150786998765
5277.83 85.62806512929892
5463.87 84.15103304998053
5657.23 83.70875247013262
5856.45 83.88401866343726
6062.99 84.09115943371087
6276.86 84.6023136846889
6498.05 85.36875214428456
6726.56 85.2666959445587
6963.87 85.55518939992291
7209.96 85.82715206762921
7464.84 85.84709163492977
7727.05 86.07867209251279
7999.51 86.09483706844381
8282.23 86.46980375634446
8573.73 87.28451483069765
8876.95 86.80285964958689
9188.96 87.05773153769667
9514.16 86.93088572456035
9849.61 86.44745245434544
10196.8 86.57392540488901
10555.7 85.05314676158216
10927.7 84.86027961154413
11313.0 85.10793211712902
11712.9 84.98235551122643
12126.0 85.8814919780286
12553.7 85.64231576115502
12996.1 85.12982088274374
13454.6 84.58005022824261
13929.2 83.84201429843822
14419.9 83.35062657068399
14928.2 83.51096609818954
15455.6 83.82603347458296
16000.5 83.12273316310072
16564.5 81.95235919493227
17148.9 80.90215210426022
17752.4 80.7137576167121
18379.4 80.79962959409836
19026.9 80.37124311797105
19697.8 80.34725615478524
19999.5 80.37222588599835
