Freq "Side Wall Bounce"
20.5078 46.98440353021145
21.9727 57.25729992422039
23.4375 58.17492453070098
24.9023 59.92099418451157
26.3672 62.151973648484656
27.832 64.1342578554899
29.2969 66.17796120276084
30.7617 67.9129427845694
32.2266 69.58176148719333
33.6914 71.33542551347642
35.1562 72.8346726509288
36.6211 74.39565079285096
38.0859 75.78070542357791
39.5508 77.13161172476715
41.0156 78.11679871211918
42.4805 79.20449806530154
43.9453 80.08144508840807
45.4102 80.85021844390647
46.875 81.5565922394479
48.3398 82.11915848705017
51.2695 83.08780741301662
52.7344 83.45036412440842
54.1992 83.73364339273331
55.6641 83.93749901396478
58.5938 84.40637959508926
60.0586 84.56899493096309
62.9883 84.92211505929446
64.4531 85.08119239028112
67.3828 85.41633801215917
68.8477 85.55347622826007
71.7773 85.79034166861267
74.707 86.09490237490924
77.6367 86.36089292491872
79.1016 86.46174489413633
82.0312 86.74973294161212
84.9609 87.00980408338127
87.8906 87.187125148855
90.8203 87.39418793519374
95.2148 87.71565018275948
98.1445 87.89437116062808
101.074 88.05303239445801
105.469 88.34894182598224
108.398 88.53631527786068
112.793 88.86158055520764
117.188 88.98420499825187
120.117 89.1605208421175
124.512 89.42213817656325
128.906 89.60901628748432
133.301 89.71089741295286
139.16 89.79400975512357
143.555 89.75512372797294
147.949 89.88164511625152
153.809 89.9935276852966
159.668 90.24242073882793
165.527 90.28646746200104
171.387 90.19046570018861
177.246 90.05513358052093
183.105 90.07947393717879
188.965 90.06635935159206
196.289 90.17747395185403
203.613 90.11021406214854
210.938 90.04866857936356
218.262 89.85341875946496
225.586 89.81895964562003
232.91 89.23212420409438
241.699 89.1289784367606
250.488 89.48876783364067
259.277 89.44936514154125
268.066 89.28919021533933
276.855 89.52260839130123
287.109 89.6141796228387
297.363 89.75099483070188
307.617 89.36595082463352
319.336 89.08310654347149
329.59 89.16590873341815
341.309 89.0509170319347
353.027 89.1209906339826
366.211 89.79871585278634
379.395 89.35679008512456
392.578 88.90812000455368
405.762 88.51511574778563
420.41 89.15238543682318
435.059 88.26812955106708
451.172 87.55610614580829
465.82 87.30603115905916
483.398 86.92770118344151
499.512 86.73088002430474
517.09 84.79776751107336
536.133 81.051898680226
555.176 81.88479556244215
574.219 83.67331857160873
594.727 84.27353622949308
615.234 85.4668414985248
637.207 85.58385754447131
659.18 85.93562985521349
682.617 86.98104956841357
707.52 87.05945014263565
732.422 86.13777809568377
757.324 87.36796875193565
785.156 87.25789373579165
811.523 86.80761119343825
840.82 87.16679961773015
870.117 83.96805623814495
900.879 86.44337248843512
933.105 85.09945334109709
965.332 84.89443279013075
1000.49 83.2804084110644
1035.64 83.47305446313855
1072.27 82.36273285731941
1108.89 81.48594801926035
1148.44 82.17720278710661
1189.45 81.23221482426064
1230.47 82.0626311280058
1274.41 80.86967316447252
1319.82 80.05396549809748
1366.7 81.90520879704368
1413.57 82.83623624422512
1463.38 82.07579601894449
1516.11 81.52361179331216
1568.85 83.20865983340063
1624.51 82.05480696375415
1681.64 82.02062412429724
1741.7 83.35559928993942
1803.22 82.73148663374188
1866.21 83.23895372587087
1932.13 82.70719478564462
1999.51 83.81866776425561
2069.82 83.54190887531617
2143.07 83.7835190912168
2219.24 84.20280439146181
2296.88 84.6100581091222
2378.91 84.98802532268586
2462.4 84.01923714220638
2548.83 84.10429034898705
2639.65 84.88595215121205
2731.93 85.47605059116889
2828.61 84.7299979138717
2928.22 84.57734171559206
3030.76 84.18338880628067
3137.7 84.10655145255939
3249.02 83.83653446958262
3363.28 83.26627021852028
3481.93 83.04508274114959
3604.98 82.78986334547189
3732.42 82.42394823348344
3864.26 83.60521244835071
4000.49 84.06582358050659
4141.11 85.0141952836707
4287.6 85.75027331844758
4438.48 85.95713073667656
4595.21 85.90144001644781
4756.35 85.37095826466957
4924.8 83.9424731650884
5097.66 81.40082722941555
5277.83 78.84252350348173
5463.87 77.93017921458103
5657.23 77.94693906208923
5856.45 78.97536333153543
6062.99 80.64143111245423
6276.86 81.23522329164518
6498.05 80.83361895861178
6726.56 80.37957478509557
6963.87 80.12903756205398
7209.96 80.19840554659895
7464.84 80.44095753697
7727.05 79.82883735634186
7999.51 79.2559860158045
8282.23 79.2735868010971
8573.73 79.59639238696343
8876.95 79.41856583004292
9188.96 78.58653207714177
9514.16 77.59833071813037
9849.61 77.71761724472218
10196.8 77.36307502435868
10555.7 77.02005849599301
10927.7 76.3094490094731
11313.0 75.62988416113974
11712.9 75.31178559121048
12126.0 74.7863383245524
12553.7 73.2595648503346
12996.1 72.28407013086432
13454.6 70.7937790935421
13929.2 69.25933501130731
14419.9 68.31898420888135
14928.2 67.27175169883915
15455.6 65.24826919949037
16000.5 63.09982231708547
16564.5 63.99199900711126
17148.9 64.31801253890406
17752.4 63.994511119082276
18379.4 63.64883995809292
19026.9 62.542437514083886
19697.8 60.887112350189184
19999.5 58.751946728996316
