Freq "Listening Window"
22.4 6.034501063495441
23.0 7.02582248867742
23.6 8.396295646686042
24.0 10.145241008157228
25.0 11.669403710440719
25.8 12.854342757399678
26.5 13.808397707941424
27.2 16.326046331432735
28.0 19.196984599496147
29.0 21.722889394939585
30.0 24.37144394963184
30.7 26.551354699636533
31.5 28.529017838522464
32.5 30.503165481457017
33.5 33.262888150338284
34.5 36.144276472068384
35.5 39.45354153747775
36.5 41.8799814229622
37.5 44.19792046957511
38.7 46.64373590220336
40.0 47.87956681780855
41.2 49.75607456373476
42.5 54.50734914148262
43.7 58.34476897716738
45.0 61.08528163911086
46.2 62.49511535248831
47.5 63.4092898506583
48.7 63.072713322305304
50.0 62.852016885148146
51.5 65.34625158876756
53.0 69.02037992363593
54.5 71.43039912702666
56.0 73.54281310903454
58.0 75.95907318189586
60.0 78.0887745867064
61.5 80.18948353067107
63.0 82.04404208603182
65.0 83.81434676400099
67.0 85.4200287918193
69.0 86.83436431461989
71.0 88.09037833543873
73.0 89.15263989949341
75.0 90.07155757480062
77.5 90.85867084691219
80.0 91.60191664315869
82.5 92.16875626598332
85.0 92.62465518427544
87.5 92.93711637204925
90.0 93.14701554918366
92.5 93.28059946341307
95.0 93.27958007900858
97.5 93.21316990588855
100.0 93.24650193016907
103.0 93.04624805472805
106.0 92.87983201347463
109.0 92.73533481614919
112.0 92.62489857469933
115.0 92.51316990588855
118.0 92.43533481614921
122.0 92.36849780470583
125.0 92.29089129293195
128.0 92.16926137753809
132.0 92.10318721898393
136.0 92.05841178470668
140.0 92.05841178470668
145.0 92.05841178470668
150.0 92.0821107633926
155.0 92.05993082417258
160.0 91.99419826896339
165.0 91.9391286122671
170.0 91.85081111228169
175.0 91.74162038479733
180.0 91.63044069551165
185.0 91.63044069551165
190.0 91.67435254932218
195.0 91.79749822430772
200.0 91.86600569560382
206.0 91.88919577915654
212.0 91.91948761255614
218.0 91.81948761255614
224.0 91.64214655787141
230.0 91.43420191503137
236.0 91.2122870907856
240.0 91.15756198742876
250.0 91.20022542912943
258.0 91.26246227071906
265.0 91.40469665096671
272.0 91.52566404450218
280.0 91.64675579077019
290.0 91.70268020072886
300.0 91.59139968927524
307.0 91.43634699112027
315.0 91.2828838113999
325.0 91.21948761255614
335.0 91.23576501891083
345.0 91.20525683275548
355.0 91.24544573856818
365.0 91.26719429558925
375.0 91.2268485258759
387.0 91.10859737360313
400.0 90.92689534610504
412.0 90.71240746615473
425.0 90.43672193881879
437.0 90.1614626441079
450.0 89.98710914857305
462.0 90.13028621225592
475.0 90.61147128247956
487.0 90.99263761195606
500.0 91.12982357218877
515.0 91.51211367945349
530.0 91.62953096131338
545.0 91.54465706448595
560.0 91.0325692898973
580.0 90.42432430219228
600.0 90.04053566974059
615.0 89.99964549396087
630.0 90.2006349858827
650.0 90.62162195066153
670.0 90.98809271415716
690.0 91.13623190478413
710.0 91.1082487356692
730.0 90.99462984247523
750.0 90.96112832333628
775.0 90.97354007374854
800.0 90.74275972015627
825.0 90.09948430070855
850.0 89.29939118023346
875.0 89.09572181460143
900.0 89.36842500043358
925.0 89.41769906784171
950.0 89.06201375088543
975.0 88.4866548777107
1000.0 88.27774034073342
1030.0 88.68390412806309
1060.0 88.8723177357766
1090.0 88.89582111738994
1120.0 88.94467953431501
1150.0 88.4748128524707
1180.0 88.31190142713055
1220.0 88.21121659697329
1250.0 87.7994916084931
1280.0 87.38039595775194
1320.0 87.20732767198548
1360.0 87.58280137427826
1400.0 87.69528884526304
1450.0 87.53055996900534
1500.0 87.37066277982802
1550.0 87.22203689314445
1600.0 87.22866825389274
1650.0 87.15928133470706
1700.0 86.568338165823
1750.0 85.8511719379263
1800.0 85.02354233065927
1850.0 84.82764334644172
1900.0 85.41870974103483
1950.0 85.87069637968355
2000.0 85.92279102844088
2060.0 86.06064608291712
2120.0 86.66054881572668
2180.0 86.73491626538923
2240.0 86.5812989545287
2300.0 86.51911593270731
2360.0 86.4424339335308
2400.0 86.31677217605228
2500.0 85.5118132305941
2580.0 84.62085939749518
2650.0 84.46071282000878
2720.0 85.04698012340577
2800.0 85.18226941593855
2900.0 85.92548547159545
3000.0 87.27654844888227
3070.0 87.7421058516743
3150.0 87.65702799073605
3250.0 87.74142481723763
3350.0 86.9779113689508
3450.0 87.03757878973498
3550.0 88.31828458319146
3650.0 89.39900473477601
3750.0 89.83943908593952
3870.0 89.38871059168636
4000.0 89.30452516766685
4120.0 89.5744893888379
4250.0 90.13852994722531
4370.0 90.81264132216643
4500.0 90.89321864566847
4620.0 92.06803765488267
4750.0 91.96091425099124
4870.0 92.03726051533931
5000.0 92.21814186690213
5150.0 93.46228832609484
5300.0 94.04138293070105
5450.0 94.26144870394982
5600.0 94.62094002999055
5800.0 94.45821498577415
6000.0 94.6441665180175
6150.0 94.30401428304113
6300.0 93.84117082709074
6500.0 93.61102250464945
6700.0 93.67068598307256
6900.0 93.82191834889454
7100.0 93.7551588669871
7300.0 92.72400255389508
7500.0 92.3314022162977
7750.0 92.66110740576683
8000.0 92.70967895252218
8250.0 92.48914033354413
8500.0 92.66743713497794
8750.0 92.65856742941487
9000.0 92.53435007428244
9250.0 92.26356635746973
9500.0 92.5255264203818
9750.0 92.01924008680129
10000.0 91.62595666063783
10300.0 91.18192303658792
10600.0 91.07246042189965
10900.0 91.18055279217481
11200.0 91.41163230161614
11500.0 91.10279424510188
11800.0 90.42041013460808
12200.0 90.14541867551846
12500.0 90.44405778466825
12800.0 90.76812305865481
13200.0 91.49835879402985
13600.0 90.70817415003273
14000.0 88.53615124145026
14500.0 88.51169892495348
15000.0 88.77502969432923
15500.0 88.0659262843845
16000.0 86.50242316598441
16500.0 86.34606338094801
17000.0 90.9990015649034
17500.0 82.62410470256364
18000.0 77.33200243312052
18500.0 77.89745349675286
19000.0 76.07887022218421
19500.0 72.3428552832487
