Freq,On Axis,Listening Window,Sound Power,Early Reflections,Early Reflections DI,Sound Power DI,DI offset
20.5078,53.721554545454566,53.70561375561847,53.55716183344178,53.498891093208115,40.20672266241036,40.14845192217669,40
21.9727,55.89795454545457,55.881152580594616,55.683235589098885,55.671831063442184,40.20932151715243,40.19791699149573,40
23.4375,58.45175454545456,58.43644295432027,58.20540839923699,58.21964280219724,40.21680015212303,40.23103455508328,40
24.9023,60.07465454545455,60.05948718229435,59.859577380692414,59.87482410976234,40.184663072532004,40.19990980160193,40
26.3672,61.96505454545455,61.947816522748596,61.690291794912824,61.741968209209105,40.20584831353949,40.25752472783577,40
27.832,63.88175454545457,63.864569631163434,63.60097817226426,63.66538268194198,40.199186949221456,40.26359145889917,40
29.2969,65.58865454545456,65.57108241748104,65.28961594564274,65.36964623277042,40.201436184710616,40.2814664718383,40
30.7617,67.31485454545457,67.297205340855,67.01218353388624,67.10241968757433,40.194785653280675,40.28502180696876,40
32.2266,68.90435454545457,68.88482969320951,68.55602425379604,68.67436123799993,40.21046845520958,40.32880543941347,40
33.6914,70.46125454545457,70.44137739954614,70.09628149414941,70.22746261567093,40.21391478387521,40.34509590539673,40
35.1563,72.03205454545457,72.01254248671766,71.67577527626842,71.80615261515558,40.20638987156208,40.33676721044924,40
36.6211,73.45585454545457,73.43652946018294,73.09816739443542,73.23246859888904,40.2040608612939,40.33836206574752,40
38.0859,74.81355454545455,74.79386942447236,74.44623892871576,74.58853622659767,40.205333197874694,40.347630495756604,40
39.5508,75.88995454545457,75.8700596585948,75.52101189113948,75.66617803803555,40.203881620559244,40.34904776745532,40
41.0156,76.83375454545457,76.81333995008525,76.4655316789475,76.60990718837927,40.20343276170598,40.34780827113775,40
42.4805,77.89305454545456,77.87050534261347,77.46370841913573,77.64126674695488,40.229238595658586,40.40679692347774,40
43.9453,78.85795454545458,78.83631457885473,78.44105841931066,78.6161082047732,40.22020637408153,40.39525615954406,40
45.4102,79.54015454545457,79.51796140283345,79.12701945270767,79.30099351350506,40.21696788932839,40.39094195012578,40
46.875,80.22015454545456,80.19753300116044,79.798269859858,79.97781767048873,40.219715330671704,40.39926314130244,40
48.3398,80.74835454545455,80.72397750451856,80.28229317700128,80.48535482117497,40.23862268334359,40.44168432751728,40
51.2695,81.62975454545456,81.60556483574376,81.1706476209949,81.37161348658584,40.23395134915792,40.434917214748864,40
52.7344,81.98355454545457,81.95928828207262,81.52807858465683,81.72780009882156,40.23148818325106,40.431209697415795,40
54.1992,82.30585454545457,82.28098911035175,81.84237167467899,82.04724899352195,40.23374011682981,40.43861743567277,40
55.6641,82.53185454545458,82.50774714972196,82.09436021116458,82.28698990866722,40.22075724105474,40.41338693855738,40
58.5938,83.01565454545457,82.98933068642626,82.5428631811587,82.7521006894759,40.23722999695036,40.44646750526756,40
60.0586,83.22855454545457,83.20137511461779,82.73588888131145,82.95546122235221,40.24591389226558,40.465486233306336,40
62.9883,83.59285454545457,83.56554399140303,83.09745969420968,83.32000720256029,40.24553678884274,40.46808429719336,40
64.4531,83.72105454545456,83.69389924003518,83.2388888911429,83.4544292040454,40.23947003598978,40.45501034889227,40
67.3828,83.97855454545457,83.95030467093963,83.4902149695154,83.70803065735323,40.242274013586396,40.460089701424224,40
68.8477,84.09065454545457,84.06091359421767,83.57865354915891,83.8080702723475,40.25284332187016,40.48226004505875,40
71.7773,84.35945454545457,84.32800400464487,83.80926081873001,84.05918564880432,40.26881835584055,40.51874318591486,40
74.707,84.61045454545457,84.578780515301,84.06797603155515,84.31479179797542,40.26398871732559,40.51080448374586,40
77.6367,84.75315454545456,84.7202659860996,84.21110277369937,84.4584314443048,40.26183454179481,40.50916321240024,40
79.1016,84.82815454545458,84.79445866571545,84.27419635544433,84.52629625968244,40.268162406033014,40.52026231027112,40
82.0313,85.09525454545457,85.05733919928844,84.45364821339881,84.74885703043994,40.3084821688485,40.60369098588963,40
84.9609,85.31835454545457,85.28106707470855,84.62945532544843,84.95361280582891,40.327454268879634,40.65161174926011,40
87.8906,85.19765454545457,85.16871601748922,84.69374076163722,84.92538528328386,40.24333073420536,40.474975255852,40
90.8203,84.78045454545456,84.75993681727617,84.59671308103633,84.65932502262413,40.10061179465204,40.16322373623984,40
95.2148,85.93675454545456,85.88399748031149,85.01673414884247,85.45567732955648,40.42832015075501,40.86726333146902,40
98.1445,85.50315454545456,85.46445114023379,84.86989587569136,85.16051829954993,40.303932840683856,40.594555264542436,40
101.074,85.51365454545457,85.46833371442922,84.81467365954079,85.1342551133733,40.33407860105592,40.653660054888434,40
105.469,85.72725454545457,85.68241969771107,85.05406312253629,85.3592144895921,40.323205208118964,40.62835657517478,40
108.398,85.75925454545457,85.71406826349751,85.09623654487488,85.39471626779554,40.319351995701965,40.617831718622625,40
112.793,86.04435454545457,85.99111908098949,85.2559635983395,85.61326560201438,40.37785347897511,40.735155482649986,40
117.188,86.14445454545456,86.08622669347314,85.30932726281102,85.68660056986425,40.39962612360888,40.77689943066211,40
120.117,86.43655454545457,86.37895051416771,85.59062578073177,85.9749996188492,40.403950895318516,40.78832473343594,40
124.512,86.28065454545457,86.22838139637257,85.46328126360628,85.83840522039308,40.389976175979484,40.76510013276629,40
128.906,86.08675454545457,86.02800373079795,85.13362520774304,85.58166926102827,40.44633446976968,40.89437852305491,40
133.301,86.06885454545457,86.01293820186032,85.2056079098383,85.60091055237771,40.41202764948261,40.807330292022016,40
139.16,85.97215454545457,85.9146013124511,85.26246601836665,85.56317973259803,40.35142157985307,40.652135294084445,40
143.555,86.07505454545456,86.00716670312188,85.19909972501532,85.57658187058387,40.43058483253802,40.80806697810657,40
147.949,86.10355454545457,86.03199102800914,85.14093978175917,85.56253886082872,40.46945216718042,40.89105124624997,40
153.809,86.24755454545455,86.16971402528328,85.18527039697304,85.65479650897908,40.51491751630421,40.984443628310245,40
159.668,86.42375454545457,86.34867189888506,85.21379923003397,85.77705131575753,40.571620583127526,41.13487266885109,40
165.527,86.16925454545456,86.10770539706667,85.1553212040602,85.62099411527251,40.48671128179416,40.952384193006466,40
171.387,85.95795454545457,85.89320366952686,84.93178591731278,85.40483088336771,40.48837278615915,40.961417752214075,40
177.246,85.72165454545457,85.65197766022636,84.87804290975902,85.23592588198044,40.41605177824593,40.77393475046735,40
183.105,85.61095454545456,85.5189254430774,84.6815265766892,85.04787390715923,40.47105153591818,40.83739886638821,40
188.965,85.52795454545456,85.41859042602277,84.5070807846456,84.90464772388204,40.51394270214074,40.91150964137718,40
196.289,85.75185454545456,85.63839534088348,84.61177050018215,85.05318174935731,40.58521359152617,41.02662484070133,40
203.613,85.67765454545456,85.56766847742882,84.38368191144964,84.91886945556396,40.64879902186486,41.18398656597918,40
210.938,85.70475454545458,85.58785502489305,84.22592547153097,84.86043442205205,40.72742060284099,41.361929553362074,40
218.262,85.80435454545456,85.67324641742034,84.29174601944307,84.92132297473697,40.75192344268338,41.38150039797728,40
225.586,85.94265454545457,85.78551185320812,84.19407591021881,84.92083952407741,40.86467232913071,41.59143594298931,40
232.91,86.31125454545457,86.14998878710625,84.17631901744343,85.14723752425684,41.002751262849415,41.97366976966282,40
241.699,86.29495454545457,86.1503340849202,84.17769726872,85.15712989030202,40.99320419461819,41.97263681620021,40
250.488,86.38855454545457,86.24391203135373,84.09333166503144,85.16636289772968,41.077549133624046,42.15058036632229,40
259.277,86.42295454545457,86.29151406367522,84.23694688572164,85.27595625689672,41.0155578067785,42.05456717795359,40
268.066,86.06725454545456,85.93198712795426,83.84599382018004,84.89571856845153,41.03626855950273,42.08599330777422,40
276.855,86.22045454545457,86.08003427683231,83.8645087223268,84.98430318764721,41.095731089185094,42.215525554505504,40
287.109,86.25585454545457,86.09741980531027,83.79662521296108,84.97012044695839,41.12729935835188,42.30079459234919,40
297.363,86.23745454545457,86.07353903636985,83.6145271505767,84.8774091832845,41.19612985308535,42.459011885793146,40
307.617,86.36065454545458,86.24115034967298,83.90541518027263,85.12212043415332,41.11902991551966,42.33573516940035,40
319.336,86.39475454545456,86.24870803579364,83.66470037516437,85.01130481805346,41.23740321774018,42.58400766062927,40
329.59,86.48945454545456,86.36262647511636,83.81651766062798,85.16740317410945,41.195223301006905,42.54610881448838,40
341.309,85.89275454545457,85.74982371447537,83.51209036524152,84.66308395102674,41.086739763448634,42.23773334923385,40
353.027,86.17355454545456,86.00974787339034,83.2431589493278,84.65670730627268,41.35304056711766,42.76658892406253,40
366.211,86.40375454545456,86.24971064496718,83.30863603412396,84.84408665047447,41.405623994492714,42.941074610843216,40
379.395,86.73495454545458,86.62270529172777,83.77361719492937,85.29748885324476,41.32521643848301,42.8490880967984,40
392.578,86.18865454545457,86.06687507379492,83.51436539873322,84.87909494558801,41.18778012820691,42.5525096750617,40
405.762,86.02565454545457,85.85816063183033,83.08343852159769,84.4873993655708,41.370761266259535,42.774722110232645,40
420.41,86.67065454545455,86.53795135536345,83.37023319403527,85.07992654458718,41.458024810776266,43.16771816132818,40
435.059,86.08215454545457,85.9654754797852,83.38108678290997,84.71588234090612,41.24959313887908,42.58438869687522,40
451.172,86.80755454545456,86.66613248041124,83.46485819609748,85.13728065589508,41.52885182451615,43.201274284313754,40
465.82,86.82505454545456,86.67771875643867,83.48878980794069,85.21038097753588,41.46733777890279,43.188928948497974,40
483.398,86.32305454545458,86.18185084701416,83.26013151021205,84.78116241798527,41.40068842902889,42.92171933680211,40
499.512,86.59575454545457,86.39978614205123,83.2190469692536,84.84795412309636,41.55183201895487,43.18073917279763,40
517.09,86.72585454545457,86.54986957268122,83.50400417483345,85.0844069289071,41.46546264377412,43.04586539784776,40
536.133,86.50085454545457,86.23989411739923,82.90356323326522,84.39786602831037,41.842028089088856,43.336330884134014,40
555.176,86.93155454545456,86.70700445712772,83.00583588802657,84.87002466239063,41.83697979473709,43.701168569101156,40
574.219,86.88065454545456,86.63106117447508,82.95153372663218,84.83368874805409,41.79737242642099,43.6795274478429,40
594.727,86.30765454545457,86.03283327476193,82.62851613157632,84.3495656331943,41.683267641567625,43.40431714318561,40
615.234,86.37615454545457,86.04028040980951,81.99942289088769,83.94896136651141,42.0913190432981,44.040857518921825,40
637.207,85.99275454545457,85.61622447633916,81.7139245050257,83.51163037333743,42.10459410300173,43.902299971313454,40
659.18,87.01905454545457,86.67768097153237,82.2909586825889,84.42345294259327,42.254228028939096,44.386722288943474,40
682.617,88.46875454545457,88.05623647838071,83.79919473333857,85.77771520549321,42.2785212728875,44.257041745042144,40
707.52,89.88705454545456,89.36806711694231,84.57314632570645,86.84793881882669,42.52012829811562,44.79492079123587,40
732.422,89.78505454545457,89.32866875784399,84.11173015481988,86.77046065560829,42.558208102235696,45.216938603024104,40
757.324,88.91755454545456,88.5402088981195,83.07514008400075,85.90861318970697,42.63159570841253,45.46506881411875,40
785.156,87.57585454545456,87.23336289160314,82.03030857579218,84.6919444218199,42.54141846978324,45.20305431581096,40
811.523,86.28135454545456,86.00050691728593,80.84277912170742,83.33192090997902,42.668586007306914,45.15772779557851,40
840.82,86.38625454545456,86.02988674643413,80.65915113205729,83.24228391648208,42.78760282995205,45.37073561437684,40
870.117,86.53145454545457,86.1554806689475,80.80273889950375,83.38727382380183,42.76820684514567,45.35274176944375,40
900.879,86.59645454545456,86.17894098083447,80.27356061541278,83.07104375231687,43.1078972285176,45.90538036542169,40
933.105,86.02555454545457,85.65233269329214,79.90356291672286,82.65880326963314,42.993529423659,45.748769776569276,40
965.332,85.84875454545457,85.45813912252704,79.79582059786483,82.57805107737151,42.88008804515553,45.66231852466221,40
1000.49,86.14615454545456,85.71709387406503,79.86333089924871,82.71575797503736,43.001335899027666,45.85376297481632,40
1035.64,85.87355454545458,85.41769363079212,79.57911575958593,82.47961495317799,42.93807867761413,45.83857787120618,40
1072.27,85.50385454545457,85.0376560162239,79.15652248264779,82.07701418960626,42.960641826617646,45.88113353357612,40
1108.89,85.05495454545456,84.63129695768963,79.02224342579575,81.91087158557764,42.72042537211199,45.60905353189388,40
1148.44,86.02615454545456,85.38720511816278,79.35869177527181,82.47875349653796,42.90845162162482,46.028513342890975,40
1189.45,86.91485454545456,86.15852038279797,79.5789388898159,82.88793577054236,43.27058461225562,46.57958149298207,40
1230.47,87.26515454545456,86.60362869467136,79.56622360169655,83.04948298076056,43.5541457139108,47.03740509297481,40
1274.41,87.21315454545457,86.57716946898049,79.48978430789153,82.91534505675322,43.66182441222726,47.08738516108896,40
1319.82,86.60115454545456,86.09792845772391,79.19580530834249,82.59666194105799,43.50126651666592,46.902123149381424,40
1366.7,86.15525454545457,85.61777261291377,78.72810346802392,82.19874563995587,43.419026972957894,46.88966914488985,40
1413.57,85.70365454545457,85.09191677017127,78.13954864996732,81.60781051845926,43.48410625171201,46.95236812020394,40
1463.38,85.57635454545456,84.93766857208071,77.82148355149609,81.23771757475438,43.699950997326326,47.11618502058462,40
1516.11,85.79505454545456,85.14709087924378,77.77480556359274,81.18636186241042,43.960729016833355,47.37228531565104,40
1568.85,85.63395454545457,85.03488832090285,77.46740773968033,80.85907194533732,44.17581637556553,47.567480581222526,40
1624.51,85.34145454545457,84.68738224516217,77.06396951049364,80.34548492570921,44.341897319452954,47.623412734668534,40
1681.64,85.33815454545457,84.71100323645594,76.9333702330326,80.16196177489135,44.549041461564585,47.77763300342333,40
1741.7,85.62215454545456,84.81849540159153,76.94610124011719,80.07408832860118,44.744407072990356,47.87239416147435,40
1803.22,86.29345454545457,85.34788825062209,77.30231459685915,80.34507636005941,45.00281189056268,48.04557365376294,40
1866.21,85.81475454545456,84.92818818295963,77.16816381994501,79.99270916125458,44.93547902170505,47.76002436301462,40
1932.13,84.84705454545457,84.40770603108052,76.97603183221939,79.63272833591085,44.77497769516967,47.43167419886113,40
1999.51,85.75605454545456,85.03862341608364,77.43728889388045,80.18112321902267,44.85750019706097,47.60133452220319,40
2069.82,86.71435454545458,86.09525838339707,78.49909711654779,81.22120734431637,44.8740510390807,47.59616126684928,40
2143.07,86.94185454545456,86.27821687960292,78.9238934743274,81.63996026081477,44.63825661878815,47.35432340527552,40
2219.24,86.14485454545458,85.54510026961759,78.60203127892059,81.24583232981914,44.299267939798455,46.943068990697,40
2296.88,86.30645454545457,85.5909301175347,78.84536781449752,81.44022784297869,44.15070227455601,46.745562303037175,40
2378.91,87.60375454545456,86.86985198356084,79.80280547160768,82.6646622458104,44.20518973775043,47.06704651195315,40
2462.4,86.93605454545457,86.44300012884585,79.78221020482933,82.58576567531138,43.857234453534474,46.66078992401653,40
2548.83,86.41555454545457,86.08163430544536,79.70823435161861,82.50369882429526,43.57793548115011,46.37339995382675,40
2639.65,86.76305454545457,86.37842014645726,80.05115741573594,82.84126790482176,43.537152241635496,46.327262730721316,40
2731.93,86.74465454545457,86.50415925962282,79.98674569411358,82.87567381250953,43.62848544711329,46.517413565509244,40
2828.61,86.53095454545455,86.37225875211641,80.07389702711501,82.94566876828019,43.42658998383622,46.2983617250014,40
2928.22,86.38615454545457,86.20776362557989,80.1215837004671,82.93554311567394,43.27222050990595,46.08617992511279,40
3030.76,85.82725454545457,85.88952965426462,80.05939091165796,82.7827545181021,43.106775136162526,45.830138742606664,40
3137.7,85.45595454545456,85.78777050819681,80.06458832750414,82.7789147663249,43.00885574187191,45.723182180692675,40
3249.02,84.84815454545456,85.37070779065553,79.89546160753436,82.5272965929406,42.84341119771493,45.47524618312117,40
3363.28,84.44505454545457,85.23483025048971,79.7633920915964,82.51019557921835,42.72463467127136,45.47143815889331,40
3481.93,84.63525454545457,85.17410183002713,79.69872692440033,82.61126527712533,42.5628365529018,45.47537490562679,40
3604.98,84.98315454545457,85.46716425327428,79.67449630974825,82.7531454702201,42.71401878305417,45.79266794352603,40
3732.42,85.38605454545457,85.65281371698214,79.65302275318452,82.74691458609826,42.90589913088388,45.99979096379762,40
3864.26,86.14765454545457,85.96545301294528,79.641052579993,82.83061289219171,43.134840120753566,46.324400432952274,40
4000.49,86.44025454545456,86.23562788120617,79.79998163648808,82.9812652553088,43.25436262589737,46.435646244718086,40
4141.11,86.87165454545455,86.57034518595583,79.99798676055272,83.3087625803299,43.26158260562593,46.57235842540311,40
4287.6,87.31975454545457,86.36468391438471,79.68569544778767,83.02183691927684,43.34284699510788,46.67898846659705,40
4438.48,87.78415454545457,86.77964660963258,79.78867431627772,83.18501282841447,43.59463378121811,46.99097229335486,40
4595.21,87.90635454545456,86.61070728625886,79.59870395799899,83.23356821456366,43.3771390716952,47.012003328259865,40
4756.35,87.81115454545457,86.63175281213739,79.30374937189377,83.04872134430909,43.583031467828306,47.32800344024362,40
4924.8,87.98885454545457,86.58510537018178,79.09314543552834,82.9477713901753,43.637333980006474,47.49195993465344,40
5097.66,87.47985454545457,86.20175876185952,78.9427113745089,82.75130244612699,43.45045631573254,47.25904738735062,40
5277.83,87.49385454545457,86.13328982348143,78.71024470773183,82.55564591098675,43.57764391249468,47.4230451157496,40
5463.87,86.88625454545458,85.71391371121112,78.41945062588339,82.26153765871496,43.45237605249616,47.294463085327735,40
5657.23,86.67665454545457,85.5314364972321,78.29079128857687,82.08542284317996,43.44601365405214,47.24064520865522,40
5856.45,86.55635454545457,85.51668844073716,78.3176816207216,82.07793102263774,43.438757418099414,47.199006820015555,40
6062.99,86.37795454545457,85.30752431508432,78.23553806206506,81.92014519332645,43.387379121757874,47.07198625301926,40
6276.86,86.09455454545457,85.22770040881572,78.24957931560483,81.94169193457482,43.2860084742409,46.97812109321089,40
6498.05,86.64775454545456,85.75675092593492,78.4790997657248,82.29336197366088,43.463388952274045,47.27765116021013,40
6726.56,87.26995454545458,86.05853411441895,78.45337791908362,82.48585036081177,43.57268375360718,47.605156195335326,40
6963.87,87.34335454545457,86.2268520291574,78.40703114739614,82.47923207625385,43.74761995290355,47.81982088176126,40
7209.96,87.38695454545457,86.0999375473739,78.06972979500809,82.07937752131942,44.02056002605448,48.03020775236581,40
7464.84,86.84835454545457,85.83563587504277,77.81476430012684,81.72334622287057,44.112289652172194,48.02087157491593,40
7727.05,86.31495454545457,85.58620194260804,77.69664930588365,81.62787607553257,43.95832586707547,47.88955263672439,40
7999.51,86.46035454545456,85.56237174551266,77.4929357279025,81.54695452550776,44.015417220004906,48.06943601761016,40
