Freq "Listening Window"
20.5078 49.50304772068124
23.4375 53.792285702536574
26.3672 58.091612680174634
29.2969 61.775277917478306
32.2266 65.58424725358495
35.1563 69.2354536396836
38.0859 72.35911880288393
41.0156 75.0202720835011
43.9453 76.8907703481298
46.875 78.13071679709712
49.8047 78.92514153440398
52.7344 79.42145015290892
55.6641 79.80668884925457
58.5938 80.07907781617335
61.5234 80.33058473292685
64.4531 80.48866443927815
67.3828 80.71910538556375
70.3125 80.91084748831845
73.2422 81.10204131894658
76.1719 81.33857414332064
79.1016 81.43506401266062
82.0313 81.81429294748807
84.9609 82.08610471569362
87.8906 82.04565423805622
90.8203 81.70999716290476
93.75 82.30386107599311
96.6797 82.57569530771853
102.539 82.74695870267011
105.469 82.75387624273425
108.398 82.7577765357823
111.328 82.92045914767276
117.188 83.33190410580156
120.117 83.59455130786375
125.977 83.60998800815939
128.906 83.57665446404646
134.766 83.57865910525307
137.695 83.59948032827133
143.555 83.40515066006331
149.414 83.5915052749081
155.273 83.7787028354228
158.203 83.73081487922902
164.063 83.57290417916569
169.922 83.4918890049049
175.781 83.3062619702002
181.641 83.2495539354502
190.43 83.16769404001384
196.289 83.08120711151244
202.148 83.10062143600598
210.938 83.02350539702569
216.797 82.8299421218952
225.586 82.86279121614764
234.375 82.95659020674925
240.234 82.77804654729503
249.023 82.806065730536
257.813 82.78653406613427
266.602 82.41774512510453
278.32 82.21686947714976
287.109 82.35140133083657
295.898 82.49526813773996
307.617 82.30857780191849
319.336 82.32711365318306
331.055 82.17207214457329
342.773 81.62689406069548
354.492 82.20177282233576
366.211 82.99268775804546
377.93 83.68793499672046
392.578 83.52889730571579
407.227 83.06165292229478
421.875 83.20814436939011
436.523 83.15663095596985
451.172 83.88374052951123
465.82 83.66861034171274
483.398 83.41418840919935
500.977 83.48466186699541
518.555 83.36319641751423
536.133 83.23633456771078
553.711 83.59191835247277
574.219 83.59054685741789
594.727 83.5054029356326
615.234 83.41592778299575
638.672 83.94858485709226
659.18 83.81166259831697
682.617 84.04259185980861
706.055 84.00629101530562
732.422 83.37981203775836
758.789 83.64756948887167
785.156 82.80240368417536
811.523 83.82597930644575
840.82 83.91367183859496
870.117 83.97676176785875
902.344 83.89886763701713
931.641 84.05384502969864
966.797 83.68618530957684
999.023 83.52374400435185
1034.18 83.37496254422322
1072.27 83.30266943688271
1110.35 82.83130375486117
1148.44 82.5377036601255
1189.45 82.88261585389871
1230.47 83.49217655065783
1274.41 84.24892113841972
1318.36 85.0122328168894
1365.23 85.77316749209655
1415.04 85.45806774850006
1464.84 84.95379712938602
1514.65 84.66664691716369
1570.31 84.24294204370307
1623.05 83.51840632164703
1681.64 82.81272461827625
1740.23 83.13443935774428
1801.76 83.39797645158444
1866.21 83.1726975345572
1930.66 82.61127808465504
2000.98 83.5440019257613
2071.29 84.57852336262734
2144.53 84.43093200176169
2217.77 83.50296701914674
2296.88 84.11664007335237
2378.91 84.45226340708619
2460.94 83.48896413810482
2548.83 82.99078897181539
2639.65 83.01773789074015
2733.4 82.76123149246106
2827.15 82.94919496635622
2926.76 82.95959536305413
3032.23 82.89444427038477
3137.7 83.43163252654244
3249.02 83.69330622786372
3363.28 83.82809123158351
3483.4 84.22677846206871
3606.45 84.10014519075419
3732.42 83.64696833562328
3864.26 83.8562407932885
3999.02 83.86140991853249
4139.65 83.39500332596204
4286.13 83.75638405864042
4438.48 83.31897191463959
4593.75 83.63025160545303
4757.81 83.63128068994382
4924.8 83.85936773370484
5097.66 83.90745171007745
5279.3 83.53080444951523
5463.87 83.98060572257187
5657.23 83.51763928792103
5856.45 83.56736315525953
6061.52 83.74458075984055
6275.39 83.7904192187795
6498.05 83.44801704283222
6726.56 83.14062287041709
6963.87 82.82601794660154
7209.96 82.68142309143764
7464.84 82.84219832630096
7728.52 83.21781292246482
8000.98 83.93642525148347
8282.23 84.66400631377235
8575.2 84.81769418459977
8876.95 84.61298565757362
9190.43 84.05321801210896
9512.7 83.4904347922393
9849.61 81.62432131156636
10195.3 80.95983718265786
10555.7 82.1347829138798
10927.7 82.74491142790436
11314.5 83.11427941990756
11712.9 82.93213309831825
12126.0 82.80969023550762
12553.7 82.45190481311188
12996.1 81.98409448075853
13453.1 81.53751959722965
13927.7 80.9856419996752
14419.9 80.82453822066684
14929.7 79.56180572314824
15454.1 76.87684856547561
15999.0 82.20937341276813
16564.5 79.79252780572291
17147.5 76.55161414130365
17753.9 77.70398493349089
18377.9 73.6524637062605
19028.3 73.11768503820322
19699.2 60.5408048239923
19998.0 65.61303862577158
