Freq "Sound Power"
20.5078 54.937643110782446
23.4375 57.91957632508577
26.3672 61.50686696168319
29.2969 64.50707405977079
32.2266 67.82027883907739
35.1563 70.94782865115532
38.0859 73.76399987272423
41.0156 76.13125917074994
43.9453 77.78573816107057
46.875 78.89434068255365
49.8047 79.56206281917187
52.7344 79.97957679368125
55.6641 80.29130532325065
58.5938 80.51028338203474
61.5234 80.70640914076473
64.4531 80.79322689732489
67.3828 80.96656948129582
70.3125 81.16068476268009
73.2422 81.35734372220189
76.1719 81.54920835985502
79.1016 81.68169522271502
82.0313 81.9451316874949
84.9609 81.9636689961632
87.8906 82.08931050055979
90.8203 82.09179325066816
93.75 82.39679754580528
96.6797 82.4340829139137
102.539 82.72185939281802
105.469 82.74289873977601
108.398 82.74152114074342
111.328 82.85521482527368
117.188 83.18042085133979
120.117 83.38699700994465
125.977 83.301418779321
128.906 83.21403515521193
134.766 83.39427151830252
137.695 83.42710191852858
143.555 83.2083375883971
149.414 83.15446182207778
155.273 83.19824785114726
158.203 83.18927386458297
164.063 83.15192270098302
169.922 82.94464563355818
175.781 82.71389329308441
181.641 82.63803709738353
190.43 82.50392924257953
196.289 82.3947529423157
202.148 82.24396658953107
210.938 82.00458489618161
216.797 81.86514532300433
225.586 81.68132266786745
234.375 81.64991571173846
240.234 81.47932847484402
249.023 81.20658633676702
257.813 81.29950406237269
266.602 80.79702258037844
278.32 80.57387355598757
287.109 80.45213592324204
295.898 80.34338749845116
307.617 80.28901982794135
319.336 80.05052966752318
331.055 79.87598986507736
342.773 79.37733416007981
354.492 79.39852913294446
366.211 80.0804699390914
377.93 80.88376224547646
392.578 80.72591317226733
407.227 80.243262803416
421.875 80.16067535039495
436.523 80.22773463547696
451.172 80.31977241546332
465.82 80.19728484570989
483.398 79.774121219915
500.977 79.94655345245603
518.555 79.69201313872344
536.133 79.42827052994737
553.711 79.50176842035192
574.219 79.61572748214017
594.727 79.49392356912045
615.234 79.35610195590733
638.672 79.71535660225899
659.18 79.42515058715604
682.617 79.69760446945781
706.055 79.37072225952073
732.422 79.22077951008798
758.789 79.64859116546116
785.156 78.8732331125024
811.523 79.675273713275
840.82 79.79810607614543
870.117 79.83063716333972
902.344 79.39555399544481
931.641 79.52362306025249
966.797 78.72632293966193
999.023 78.6634736089229
1034.18 78.29480599084806
1072.27 78.04311964839609
1110.35 77.26728159647958
1148.44 77.02715725512617
1189.45 76.58411874315402
1230.47 76.57506758053512
1274.41 76.65865321117548
1318.36 77.1302593540078
1365.23 77.62705344798972
1415.04 77.32452379299501
1464.84 76.8834921697247
1514.65 76.9357050437692
1570.31 76.73650093521373
1623.05 76.1875166215832
1681.64 75.88064563491943
1740.23 76.10140593148738
1801.76 76.32428418573961
1866.21 76.65607533654753
1930.66 76.76249817950102
2000.98 77.3935105826916
2071.29 78.15213158235377
2144.53 78.30655111729699
2217.77 78.02015834450611
2296.88 78.18141060576662
2378.91 78.08901695948775
2460.94 77.26554342862123
2548.83 76.98207001227007
2639.65 76.96605362062809
2733.4 76.8630132314995
2827.15 76.89276345297043
2926.76 76.76931900721856
3032.23 76.54079234928217
3137.7 76.77652387925644
3249.02 76.92498779841839
3363.28 76.95205320992801
3483.4 77.14054230526148
3606.45 77.02596493482002
3732.42 76.69238041068236
3864.26 76.6480275170571
3999.02 76.56812208745073
4139.65 76.1503903697608
4286.13 76.13331239658605
4438.48 75.6257582831016
4593.75 75.84211697771933
4757.81 76.03634061652927
4924.8 76.33034326335441
5097.66 76.39353022821454
5279.3 76.14156729692499
5463.87 76.22215116977077
5657.23 75.86985518021552
5856.45 75.74140226527733
6061.52 75.69432451969759
6275.39 75.6704937950177
6498.05 75.50128447539188
6726.56 75.23428666895735
6963.87 74.92888602029554
7209.96 74.64132764378557
7464.84 74.72262618813775
7728.52 75.03715414580927
8000.98 75.57215883650082
8282.23 75.97501220731243
8575.2 75.85960339526478
8876.95 75.56233869586589
9190.43 75.09902552321148
9512.7 74.62528883318615
9849.61 72.56969598401052
10195.3 71.88563855370003
10555.7 73.09356223916791
10927.7 73.50992613147139
11314.5 73.82477925958092
11712.9 73.8162574334033
12126.0 73.70028162259148
12553.7 73.32827796428951
12996.1 72.95814633714933
13453.1 72.77946106473219
13927.7 72.6921107759949
14419.9 73.09853880039505
14929.7 72.37707312435393
15454.1 70.5033092123639
15999.0 72.65871558146127
16564.5 70.26218915022784
17147.5 67.31471422384656
17753.9 66.89216550900825
18377.9 63.83048856078506
19028.3 62.71425528034071
19699.2 52.37383161567571
19998.0 54.665433256081926
