Freq "Front Wall Bounce"
20.5078 52.98105612752477
21.2402 55.37924401573079
21.9727 57.424022478278516
22.7051 57.360601641648515
23.4375 58.45208972992015
24.1699 59.36775274188369
25.6348 61.23828639971967
26.3672 62.54224830729454
27.0996 63.81985769069016
27.832 64.86808983804926
29.2969 67.2890049552616
30.0293 68.72414823173574
31.4941 71.0624020122188
32.2266 71.97727245883198
33.6914 73.4470021960945
34.4238 73.96054846319092
35.8887 74.91841833809727
37.3535 75.67889024752391
38.8184 76.33584211526214
39.5508 76.58848098962628
41.0156 77.05838818536216
42.4805 77.53493630348059
43.9453 77.99259692805111
45.4102 78.39645875107885
47.6074 79.008717797606
49.0723 79.4076655256231
50.5371 79.80140108720916
52.7344 80.38727345922428
54.1992 80.77461209037924
56.3965 81.3000624385667
58.5938 81.75065232981224
60.0586 82.08770517856337
62.2559 82.55177154305285
64.4531 82.91563583244881
66.6504 83.30277152275613
69.5801 83.77017598910723
71.7773 84.08468636034104
73.9746 84.36472468460637
76.9043 84.67663485712981
79.834 84.95180493143103
82.7637 85.17786245910857
85.6934 85.36739601215777
88.623 85.54668796387796
91.5527 85.7075586371463
94.4824 85.80259507073367
98.1445 85.88291016861496
101.807 85.92210229164847
105.469 85.93329873121704
109.131 85.91408203931694
112.793 85.87398928754419
116.455 85.87115434913868
120.85 85.86476251306918
125.244 85.8686506766398
129.639 85.86174279564898
134.033 85.77140882479326
138.428 85.6815475295987
143.555 85.61848369351559
148.682 85.76916564621934
153.809 85.75813040578858
159.668 85.76632203884384
164.795 85.87211179624738
170.654 86.08275686842383
176.514 86.03104340865636
183.105 85.74487300523634
189.697 85.52028427413875
196.289 85.35927475824931
202.881 85.19076749566875
210.205 85.10272876905744
217.529 85.17695034949894
225.586 84.89973243422358
232.91 84.8847629810573
241.699 84.99897056011493
249.756 85.41661951480518
258.545 85.37709462698393
268.066 85.14401122522762
277.588 85.02516428754947
287.109 85.07984195216055
297.363 85.23811980223101
307.617 85.11980104549971
318.604 85.02860478090474
329.59 84.98555256016323
341.309 84.34378025581644
353.76 84.2472285594809
366.211 84.30552138854392
378.662 84.3277768757508
392.578 84.9329933009463
405.762 84.49190042898522
420.41 84.5387730170556
435.059 83.82493363640856
450.439 83.14970090280332
466.553 84.1307706675604
482.666 83.96781964104801
500.244 83.83890509074013
517.822 82.97719800651984
536.133 83.39843157072755
554.443 83.9331328795754
574.219 84.8009002047848
594.727 84.27321799525487
615.234 84.03186899776213
637.207 85.14750803424153
659.912 85.5955308986635
683.35 84.56682347416302
706.787 84.60876306110964
731.689 84.97376232966491
758.057 85.37996929301664
784.424 85.23283182357483
812.256 84.90892783557682
840.82 85.04366416898802
870.85 85.18984538231159
901.611 84.418479003413
933.105 84.64615679323074
966.064 84.12542886832992
999.756 83.68815854297182
1034.91 83.13007709986658
1071.53 82.54934811780382
1109.62 83.05847161344141
1148.44 84.02599631144396
1189.45 84.11430012662338
1231.2 84.86035199509622
1274.41 84.3076896141089
1319.82 83.89356373154672
1365.97 83.41497255206625
1414.31 83.25289648474033
1464.11 83.37166189970425
1515.38 83.84669214800509
1568.85 83.70204929312283
1624.51 83.53623211543513
1681.64 83.38883892279631
1740.97 84.65844332929207
1802.49 85.35821577592911
1866.21 84.89324697871848
1932.13 84.1181223933652
2000.24 84.59823193720551
2070.56 85.11395436171343
2143.8 84.23818301280753
2219.24 83.695536703233
2297.61 84.41328604161933
2378.17 83.73818016315221
2462.4 83.0354608342191
2548.83 83.96269291463148
2638.92 83.76073048154053
2731.93 83.74384903108022
2828.61 84.13329538935847
2928.22 84.4656246459742
3031.49 84.81564188204587
3138.43 84.84441180916319
3249.02 85.28969694469478
3363.28 84.79561323861694
3481.93 84.86945072189687
3604.98 84.88831703108053
3732.42 85.40441221395793
3863.53 84.85403728279785
3999.76 85.16241536396764
4141.11 84.96075204604747
4286.87 84.93874688284632
4438.48 84.87807316349611
4594.48 84.64696572975598
4757.08 84.5817909834445
4924.8 84.40470476696754
5098.39 84.53518448615588
5277.83 84.11034723867905
5463.87 84.05159677282859
5656.49 84.23498121708342
5856.45 84.00501196831
6062.99 83.64189496140321
6276.86 83.89691088549495
6498.05 83.9596987784956
6727.29 84.6352367819324
6964.6 84.79161718388353
7209.96 84.67773641147822
7464.11 84.77430987384928
7727.78 85.05963728228681
8000.24 85.14182697559164
8282.23 85.32795276754518
8574.46 85.45142392289783
8876.22 85.4708598389797
9189.7 85.39652526231203
9513.43 85.21172172211345
9848.88 85.00886009625808
10196.8 85.2131880515366
10556.4 85.51713395657485
10928.5 85.73455848012068
11313.7 86.03877421131067
11712.9 86.1325139808916
12126.0 86.11521673998817
12553.7 85.93691289978855
12996.1 85.61639113069748
13454.6 85.14412384607553
13928.5 84.66554282959451
14419.9 84.45141399439325
14928.2 84.69179062529115
15454.8 84.94606550855521
15999.8 85.26711125206572
16564.5 85.4662709203267
17148.2 85.52448637927807
17753.2 85.07549893526232
18379.4 84.48910444833072
19027.6 83.97802473799872
19698.5 83.75533619940705
19999.5 83.76299982197409
