Freq "On Axis"
20.5078 50.87190000000001
21.9727 58.01599999999999
23.4375 60.4546
24.9023 61.2089
26.3672 61.390799999999984
27.832 62.081999999999994
29.2969 64.17850000000001
30.7617 66.2575
32.2266 67.6058
33.6914 68.3494
35.1563 69.1542
36.6211 70.35209999999998
38.0859 71.748
39.5508 72.8877
41.0156 74.1105
42.4805 74.9198
43.9453 75.8354
45.4102 76.63
46.875 77.4848
48.3398 78.3376
51.2695 80.00140000000002
52.7344 80.8064
54.1992 81.50719999999998
55.6641 82.14
58.5938 83.3075
60.0586 83.78959999999998
62.9883 84.6932
64.4531 85.141
67.3828 85.88489999999999
68.8477 86.156
71.7773 86.5897
74.707 87.0538
77.6367 87.3401
79.1016 87.4446
82.0313 87.6495
84.9609 87.7058
87.8906 87.77289999999999
90.8203 87.3454
95.2148 88.23089999999999
98.1445 87.7321
101.074 87.6195
105.469 87.9468
108.398 87.6174
112.793 88.1334
117.188 87.9136
120.117 88.242
124.512 87.81700000000001
128.906 87.8194
133.301 87.828
139.16 87.6092
143.555 87.6026
147.949 87.5648
153.809 87.6249
159.668 87.7481
165.527 87.69030000000001
171.387 87.5657
177.246 87.4263
183.105 87.2567
188.965 87.40200000000002
196.289 87.4189
203.613 87.2928
210.938 87.29
218.262 87.1746
225.586 87.1531
232.91 87.4209
241.699 87.38379999999998
250.488 87.508
259.277 87.6373
268.066 87.2936
276.855 87.6042
287.109 87.5948
297.363 87.55259999999998
307.617 87.6952
319.336 87.6317
329.59 87.7891
341.309 86.99969999999999
353.027 87.4252
366.211 87.5424
379.395 87.8652
392.578 87.3209
405.762 87.3603
420.41 87.9428
435.059 87.5243
451.172 87.6886
465.82 87.5543
483.398 87.15530000000001
499.512 87.4394
517.09 87.8186
536.133 87.44230000000002
555.176 87.8428
574.219 88.04000000000002
594.727 87.3929
615.234 87.9674
637.207 87.9099
659.18 88.4502
682.617 88.1156
707.52 88.4085
732.422 88.92060000000001
757.324 88.99869999999999
785.156 89.525
811.523 89.2577
840.82 88.96360000000001
870.117 88.8667
900.879 88.827
933.105 88.8316
965.332 88.7261
1000.49 88.48230000000001
1035.64 88.0932
1072.27 87.524
1108.89 86.6162
1148.44 86.8046
1189.45 87.025
1230.47 87.11069999999998
1274.41 87.1312
1319.82 86.5431
1366.7 85.95069999999998
1413.57 85.8057
1463.38 85.6478
1516.11 86.43810000000002
1568.85 87.7459
1624.51 88.0079
1681.64 87.13309999999998
1741.7 87.2113
1803.22 87.7789
1866.21 86.9299
1932.13 86.3441
1999.51 86.4801
2069.82 86.9205
2143.07 87.4143
2219.24 86.4304
2296.88 87.7279
2378.91 88.32759999999999
2462.4 86.507
2548.83 86.0005
2639.65 86.2439
2731.93 85.7405
2828.61 85.0388
2928.22 84.6961
3030.76 84.2558
3137.7 84.879
3249.02 84.65440000000001
3363.28 84.297
3481.93 84.0563
3604.98 84.6326
3732.42 85.0856
3864.26 85.6585
4000.49 86.61869999999999
4141.11 87.0752
4287.6 86.0557
4438.48 86.2745
4595.21 85.5634
4756.35 85.9613
4924.8 85.0576
5097.66 84.8691
5277.83 85.1909
5463.87 84.7217
5657.23 84.4032
5856.45 84.7048
6062.99 84.4154
6276.86 83.7199
6498.05 84.3495
6726.56 84.5153
6963.87 84.49950000000001
7209.96 84.5873
7464.84 84.4398
7727.05 84.25910000000002
7999.51 84.6669
8282.23 85.5096
8573.73 85.8645
8876.95 85.6507
9188.96 85.538
9514.16 85.3861
9849.61 85.32240000000002
10196.8 85.57850000000002
10555.7 85.8947
10927.7 85.581
11313.0 85.3835
11712.9 85.30180000000001
12126.0 85.6559
12553.7 86.00740000000002
12996.1 86.2146
13454.6 86.4621
13929.2 86.6876
14419.9 86.7551
14928.2 86.7305
15455.6 86.93010000000001
16000.5 86.9693
16564.5 86.9287
17148.9 87.3307
17752.4 87.8249
18379.4 88.1789
19026.9 88.4791
19697.8 89.0368
19999.5 89.2164
