Freq "Sound Power"
20.5078 53.21697608497843
21.9727 59.21946673256329
23.4375 61.182015787999376
24.9023 61.775306893076646
26.3672 61.95908215843173
27.832 62.854676568685704
29.2969 64.91385301515851
30.7617 66.70993546953329
32.2266 67.88526991400177
33.6914 68.63560309596673
35.1563 69.50224355671264
36.6211 70.70755240875445
38.0859 72.10419170808176
39.5508 73.16654573495343
41.0156 74.27734257953361
42.4805 75.04803101716607
43.9453 75.984176030822
45.4102 76.77917430215162
46.875 77.63242721082247
48.3398 78.45505442937238
51.2695 80.1040363627394
52.7344 80.88911417933122
54.1992 81.60209980451579
55.6641 82.22540866311493
58.5938 83.37163995594818
60.0586 83.84552504688723
62.9883 84.73977100313272
64.4531 85.19165920246564
67.3828 85.92208472297504
68.8477 86.17167431019237
71.7773 86.55194680739771
74.707 86.9956176469898
77.6367 87.3327569005106
79.1016 87.43194450834633
82.0313 87.54723336260531
84.9609 87.55355128955937
87.8906 87.76189702427837
90.8203 87.59034868704097
95.2148 87.89455265178384
98.1445 87.62090556823566
101.074 87.39115092836585
105.469 87.755389429478
108.398 87.3977353606659
112.793 87.80375560216203
117.188 87.52262957265387
120.117 87.89975033621577
124.512 87.42698354010076
128.906 87.32089826494519
133.301 87.42769438859713
139.16 87.22967944592645
143.555 87.10647481512689
147.949 86.99875640651219
153.809 86.8866077982157
159.668 86.97210597121654
165.527 86.96183075076732
171.387 86.79038141663001
177.246 86.62465124750153
183.105 86.34633593726343
188.965 86.32477403582011
196.289 86.35843296401124
203.613 86.05852453342764
210.938 85.95927446069658
218.262 85.91278943245801
225.586 85.77575890007003
232.91 85.72836117789815
241.699 85.76759056293176
250.488 85.77365401301321
259.277 85.92129524476324
268.066 85.60682381627076
276.855 85.668837822443
287.109 85.58988218812128
297.363 85.4059051775246
307.617 85.64146409654386
319.336 85.34008494602351
329.59 85.61141005739003
341.309 85.1306659377924
353.027 84.81547764800378
366.211 84.82727738408542
379.395 85.19481243334577
392.578 84.92536122853525
405.762 84.44162880638568
420.41 84.6824085311001
435.059 84.70971937823671
451.172 84.53543790599102
465.82 84.44007479739014
483.398 84.28618881742267
499.512 84.26250140523368
517.09 84.6575401985013
536.133 84.104612456762
555.176 84.14250199225839
574.219 84.33606279413733
594.727 84.07259385866102
615.234 83.8918114489944
637.207 84.00202251735621
659.18 83.88309336714475
682.617 83.72344667373217
707.52 83.71462780562207
732.422 83.86325231018238
757.324 83.78395665230893
785.156 84.05689391656534
811.523 83.76211601743123
840.82 83.2987127025163
870.117 83.33661134803081
900.879 83.03051385033825
933.105 82.9537114590696
965.332 82.7984794752277
1000.49 82.72483242328316
1035.64 82.26018039637896
1072.27 81.82484098502063
1108.89 81.06397616315192
1148.44 80.89140121718098
1189.45 80.93093681230631
1230.47 81.19925253231605
1274.41 81.33298263043949
1319.82 80.85000393358791
1366.7 80.50732640931
1413.57 80.0121078290671
1463.38 79.78594014537472
1516.11 79.94472290865446
1568.85 80.35062484343484
1624.51 80.39075406609479
1681.64 80.00807403247276
1741.7 79.88706719492934
1803.22 80.44068019522905
1866.21 80.51268351675164
1932.13 80.02110382062591
1999.51 79.51408961388464
2069.82 80.17556902587086
2143.07 80.37092050766363
2219.24 79.94235000061616
2296.88 79.98584636328329
2378.91 80.55969422281404
2462.4 79.42010491115863
2548.83 79.0479713526715
2639.65 79.11205410938095
2731.93 78.84900017952921
2828.61 78.5214778079715
2928.22 78.4143350771252
3030.76 78.31641131731101
3137.7 78.64333238820322
3249.02 78.71105175414017
3363.28 78.60070178431073
3481.93 78.32602909346633
3604.98 78.2808397984076
3732.42 78.32632367493716
3864.26 78.75839081189542
4000.49 79.08201971813413
4141.11 79.47496820619293
4287.6 79.13433258077441
4438.48 79.10582985523723
4595.21 79.0295272273482
4756.35 79.35798989214248
4924.8 79.92940145412902
5097.66 80.11696065362823
5277.83 80.27235499277575
5463.87 80.21349816758311
5657.23 80.18289481883883
5856.45 80.08783048404283
6062.99 80.02771568339246
6276.86 80.07272811460919
6498.05 80.14629548844925
6726.56 80.28970773813776
6963.87 80.46071880801907
7209.96 80.36918704691692
7464.84 80.03161835324511
7727.05 79.95192528623599
7999.51 80.11091070793034
8282.23 80.07357655435347
8573.73 80.06749542623803
8876.95 79.8914759018209
9188.96 79.77582050861972
9514.16 79.5381581437404
9849.61 79.31592025247843
10196.8 79.17902993067034
10555.7 78.96689873105794
10927.7 78.68622923345615
11313.0 78.3854778874345
11712.9 77.85743370264139
12126.0 77.4062173123899
12553.7 77.23214767249698
12996.1 77.02787966050741
13454.6 76.68331161461889
13929.2 76.50264156824225
14419.9 76.30534865250002
14928.2 76.09357334649545
15455.6 76.04794752743346
16000.5 76.01249212732118
16564.5 75.91939420843576
17148.9 76.13065988320801
17752.4 76.32913634251646
18379.4 76.47313399074176
19026.9 76.6964450575958
19697.8 77.28177688486173
19999.5 77.79849111023712
