Freq,Floor Bounce,Ceiling Bounce,Front Wall Bounce,Side Wall Bounce,Rear Wall Bounce,Total Early Reflection
22.4,25.005318067664717,24.838211298887416,24.545063705139825,24.689328561314767,25.432056964069176,24.912943163914264
23.0,26.705318067664706,26.57001488257478,26.28747445075797,26.449506262877946,27.183512404580284,26.65006838352454
23.6,28.505318067664717,28.370014882574765,28.045063705139825,28.207367230248167,28.91290575432913,28.418341703359687
24.0,30.205318067664706,30.003069571042516,29.745063705139813,29.907367230248155,30.59281212044158,30.10067339993779
25.0,31.836635756671882,31.670014882574776,31.458390897110462,31.607367230248173,32.27116622246788,31.777836278830677
25.8,33.50531806766472,33.370014882574765,33.116364534432364,33.26578857002298,33.91290575432913,33.44267255007463
26.5,35.136635756671865,35.03513059177985,34.758390897110445,34.94581484640403,35.53269803193032,35.089465478506696
27.2,36.73663575667186,36.63513059177981,36.35839089711047,36.54581484640403,37.14301376976968,36.69175242015939
28.0,38.33663575667188,38.235130591779836,37.97198631358856,38.14581484640402,38.73269803193034,38.291988197400315
29.0,39.936635756671876,39.83513059177983,39.57198631358855,39.724310170823,40.31125051075338,39.88309485249644
30.0,41.43663575667185,41.33513059177983,41.15839089711048,41.28434662681627,41.83195931779781,41.41545973809028
30.7,43.00228461396017,42.90076749445561,42.671986313588576,42.80414432349707,43.35212309212639,42.952446994346616
31.5,44.46845083805434,44.40076749445561,44.171986313588576,44.32296709970049,44.83053083915743,44.44454463381206
32.5,45.96845083805434,45.83513059177983,45.671986313588576,45.7829272451832,46.28216784112985,45.913270189689655
33.5,47.36845083805434,47.30076749445561,47.08585448910236,47.243045936561,47.70350551136872,47.34517851308348
34.5,48.76845083805432,48.70076749445562,48.51475531529209,48.64304593656101,49.11389074025652,48.75289332547061
35.5,50.168450838054326,50.100767494455624,49.9147553152921,50.082033784188326,50.49260415866078,50.15591431917588
36.5,51.56845083805433,51.5007674944556,51.3147553152921,51.44119983124486,51.85472807032761,51.539742576041164
37.5,52.868450838054315,52.80076749445561,52.6147553152921,52.78203378418833,53.165230455856786,52.85001285736806
38.7,54.20076749445562,54.16692185116051,53.98585448910238,54.12111243765534,54.475236503001256,54.19296097904085
40.0,55.500767494455616,55.46692185116049,55.28585448910238,55.42111243765535,55.76451394618827,55.49067467387947
41.2,56.76845083805432,56.73435140868503,56.58585448910236,56.680645977785915,57.04395469626917,56.76539577807081
42.5,58.000767494455616,57.96692185116049,57.8,57.9206434330808,58.25400982570957,57.99105067593334
43.7,59.20076749445562,59.16692185116051,59.0,59.12064343308079,59.44323466757007,59.18876336462351
45.0,60.40076749445561,60.3669218511605,60.2,60.32064343308079,60.6270216377917,60.385330137324786
46.2,61.53358982687996,61.50076749445563,61.400000000000006,61.500460512949175,61.753280435049504,61.53920301711675
47.5,62.70076749445562,62.633589826879984,62.5,62.64027672897046,62.874754476961996,62.671587545553734
48.7,63.73358982687998,63.666921851160495,63.599999999999994,63.700460512949164,63.92702163779171,63.72700200938499
50.0,64.73358982687996,64.6669218511605,64.6,64.70046051294918,64.90604717223442,64.72261777509837
51.5,65.70076749445562,65.63358982687998,65.6,65.66027588070905,65.85817503850105,65.69150226446027
53.0,66.63358982687998,66.53358982687996,66.5,66.58018335884987,66.74789529281065,66.59992568334599
54.5,67.53358982687998,67.43358982687998,67.4,67.44027672897047,67.62678074647123,67.48764092595266
56.0,68.33358982687997,68.23358982687998,68.20000000000002,68.28018335884987,68.44765555654891,68.29987607540757
58.0,69.13358982687998,69.03358982687996,69.0,69.08018335884987,69.21618485256671,69.09338276085046
60.0,69.83358982687999,69.73358982687996,69.8,69.8,69.91618485256672,69.81707996776126
61.5,70.5,70.4,70.4,70.4,70.5476555565489,70.44998217419082
63.0,71.03358982687998,70.93358982687998,71.0,71.0,71.06866910171841,71.00739967741055
65.0,71.56692185116049,71.4,71.5,71.5,71.57913786874599,71.50967839305744
67.0,72.0,71.9,71.9716627539189,71.9,72.02653984178842,71.9599481044025
69.0,72.4,72.19999999999999,72.3,72.3,72.3686691017184,72.31428000663774
71.0,72.7,72.6,72.7,72.64027672897046,72.71618485256671,72.67151540296747
73.0,73.1,73.0,73.1,73.02018505541588,73.0686691017184,73.05796489837542
75.0,73.4,73.29999999999998,73.4,73.34027672897047,73.3686691017184,73.36195582307872
77.5,73.7,73.5,73.6,73.6,73.58958146124475,73.59837902450857
80.0,73.83358982687997,73.6669218511605,73.8,73.74027672897047,73.75817503850104,73.76016213200158
82.5,74.0,73.8,73.94313939533782,73.86027588070905,73.85817503850105,73.89289215561664
85.0,74.06692185116049,73.86692185116051,74.0,73.94027672897049,73.93711053242437,73.96276673195685
87.5,74.1,73.9,74.1,73.96027588070905,73.95817503850103,74.00445684473863
90.0,74.1,73.86692185116051,74.0716627539189,73.94027672897049,73.93711053242437,73.98409225002322
92.5,74.0,73.83358982687997,74.0,73.86027588070905,73.8476555565489,73.90895917414105
95.0,73.93358982687998,73.70076749445562,73.94313939533782,73.78064597778592,73.74765555654889,73.8222909863207
97.5,73.8,73.53358982687998,73.8,73.6206434330808,73.57427239741644,73.66717566166092
100.0,73.6669218511605,73.40076749445562,73.64313939533783,73.48064597778591,73.43711053242436,73.52708355520363
103.0,73.4669218511605,73.16692185116051,73.44313939533782,73.26074062498236,73.18497091767054,73.30640210471503
106.0,73.23358982687998,72.96692185116049,73.2431393953378,73.04119983124485,72.96379188131675,73.09151811279432
109.0,73.03358982687996,72.70076749445562,73.04313939533782,72.8009209770721,72.71642633231374,72.86158116995492
112.0,72.8669218511605,72.50076749445563,72.87166275391891,72.60092097707211,72.50604717223442,72.67249245939102
115.0,72.66692185116051,72.36692185116051,72.67166275391891,72.42157071745496,72.30604717223441,72.48934710222156
118.0,72.50076749445563,72.20076749445562,72.54313939533782,72.24119983124486,72.13291945503653,72.32694344058648
122.0,72.40076749445562,72.06769521305294,72.44313939533782,72.12157071745497,72.0010934317052,72.21060687093096
125.0,72.36692185116051,72.00076749445562,72.3861845050195,72.04119983124484,71.92257968382397,72.14788762320423
128.0,72.36692185116051,72.00076749445562,72.37166275391891,72.0023023206405,71.88521413920196,72.13016678824776
132.0,72.36692185116051,71.96845083805432,72.41508314243885,72.0023023206405,71.84372020454148,72.12533416405782
136.0,72.40076749445562,72.00076749445562,72.4716627539189,72.02342518384303,71.85999629711317,72.15800149136687
140.0,72.50076749445563,72.03513059177983,72.51508314243884,72.06395064819495,71.87097970400967,72.20512410642914
145.0,72.50076749445563,72.03513059177983,72.5861845050195,72.0653762443983,71.86073025805184,72.21888047337359
150.0,72.50076749445563,72.00306957104252,72.54379075419729,72.00598456990743,71.77171181124578,72.17574561212916
155.0,72.40076749445562,71.90306957104252,72.4861845050195,71.88526041028544,71.60885849062564,72.06966726277824
160.0,72.30076749445561,71.8030695710425,72.41508314243885,71.74673677241469,71.45729419378736,71.95946640654553
165.0,72.16845083805433,71.60306957104252,72.25840584504061,71.60920611180407,71.2685400921237,71.79771544280865
170.0,72.06845083805432,71.43821129888744,72.15840584504062,71.40920611180408,71.0685400921237,71.64869380814588
175.0,72.00306957104252,71.37150800786938,72.11508314243883,71.33128689490088,70.93817114190674,71.57436800510992
180.0,71.96845083805432,71.30690501035458,72.0590700361194,71.25226959352626,70.80780851305458,71.50435562547788
185.0,71.90306957104252,71.23821129888744,72.02979499755904,71.19448290397311,70.70780851305457,71.44213990539419
190.0,71.96845083805432,71.23821129888744,72.08748929892042,71.1568801862013,70.64541133171372,71.45254099406854
195.0,72.00306957104252,71.30690501035458,72.18748929892041,71.17680320017618,70.62499139284999,71.49708586176202
200.0,72.03663575667187,71.30690501035458,72.20229476693693,71.20229885570997,70.5581469422835,71.50202984751616
206.0,72.07150800786938,71.27609175449221,72.20229476693693,71.12667842046352,70.45423406810994,71.47346718868252
212.0,72.00306957104252,71.21227178315618,72.20229476693693,71.02988465408723,70.29720845340198,71.40314030857783
218.0,71.97150800786939,71.11227178315619,72.13175513861907,70.9298846540872,70.0934668192328,71.31018764077163
224.0,71.87150800786937,71.0122717831562,72.06035311823196,70.81313953999232,69.90707356669323,71.2011215486152
230.0,71.77150800786937,70.91227178315619,72.03175513861906,70.70245227663601,69.72479720705834,71.10461599802923
236.0,71.77150800786937,70.88219967332304,72.00229476693691,70.602452276636,69.55752908211036,71.0493545093652
240.0,71.74044167945492,70.81916705502753,72.00489499373622,70.54868728184522,69.40816792768581,70.99989851853876
250.0,71.74044167945492,70.78219967332305,72.00489499373622,70.53276641677857,69.24556701997045,70.9677283567734
258.0,71.7069050103546,70.71916705502754,71.97525122642458,70.39956388711856,69.03960325558796,70.88874033904963
265.0,71.6760917544922,70.61916705502752,71.91998423401444,70.30909764670199,68.82029330542176,70.803433789543
272.0,71.57609175449221,70.58982856673472,71.90489499373622,70.20909764670199,68.6180985443786,70.72641065415706
280.0,71.57609175449221,70.48982856673473,71.90489499373622,70.15690409354568,68.4429514979672,70.67662724919839
290.0,71.64576719438469,70.58982856673472,71.91998423401444,70.14207582704609,68.31188178407217,70.69917417750545
300.0,71.6760917544922,70.62758719283592,72.01998423401444,70.21039079867913,68.19376218474284,70.73941360328665
307.0,71.71227178315618,70.62758719283592,72.01998423401444,70.15929007237312,68.02603337536705,70.72108414622039
315.0,71.6760917544922,70.56096514237181,72.01998423401444,70.12208770262137,67.79973243241683,70.66855277298745
325.0,71.64576719438469,70.49897445130924,72.00489499373622,70.01452371514131,67.5717986830034,70.60263482518958
335.0,71.61227178315617,70.49897445130924,72.00489499373622,70.01452371514131,67.3875246826679,70.57611212737802
345.0,71.64576719438469,70.49897445130924,72.01998423401444,70.02745355433873,67.26334826475434,70.57937498213172
355.0,71.74576719438468,70.59897445130926,72.11998423401444,70.07096022893884,67.11743092880795,70.6470861586953
365.0,71.78219967332305,70.59897445130926,72.17848478147017,70.09772752574557,66.93361295126236,70.6617532063718
375.0,71.78219967332305,70.59897445130926,72.20489499373622,70.09772752574557,66.80215908315947,70.65828880281828
387.0,71.78219967332305,70.57082970284297,72.20489499373622,70.08463808338925,66.60417878520312,70.63446290445398
400.0,71.68219967332304,70.53752777300028,72.11998423401444,70.01415025910566,66.39061803275608,70.54838326646973
412.0,71.58219967332305,70.37082970284298,72.01998423401444,69.88463808338925,66.08683868392558,70.41456072655512
425.0,71.38219967332304,70.17082970284298,71.87848478147016,69.70111029491154,65.76044772021987,70.225318941745
437.0,71.35260953202217,70.10963256681619,71.79366590096782,69.66475106144105,65.52435731515575,70.1576561381268
450.0,71.28219967332303,70.03752777300028,71.79366590096782,69.61194105500616,65.34874222262464,70.1035674589676
462.0,71.28219967332303,69.93752777300028,71.77848478147017,69.57180836542551,65.18112799641702,70.06127897434207
475.0,70.95260953202218,70.09897445130926,71.5936659009678,69.38463808338923,64.5849277935709,69.88285933988092
487.0,70.56096514237183,69.73752777300027,71.39366590096782,69.21415025910566,64.36202016004434,69.60481164747601
500.0,70.86096514237182,69.7096325668162,71.5936659009678,69.38463808338923,64.51274346608147,69.77584149725512
515.0,71.56096514237181,70.24898359150842,72.32386986096213,70.06475106144106,65.0754877623548,70.44218933410573
530.0,71.89897445130924,70.52179738688895,72.6392427572199,70.36475106144105,65.26591567821208,70.7453436254199
545.0,71.63752777300027,70.16194867563766,72.43924275721992,70.1249485882716,64.87263514270762,70.4811768328126
560.0,71.1096325668162,69.56194867563765,72.0136394060688,69.59217894944386,64.2503437531046,69.96643609280245
580.0,70.98219812790055,69.27641629732153,71.91363940606881,69.40524571781295,64.00767101418022,69.80243563197601
600.0,71.1552196930838,69.31792789764852,72.11363940606881,69.52006753697643,64.02228526451448,69.94243570786135
615.0,70.9950645803583,69.02526453928849,72.06005936857912,69.30404121344598,63.73973173524709,69.77899952235934
630.0,70.69506458035829,68.60982855556755,71.8351604799582,68.95602919325245,63.32223267828708,69.47112559750158
650.0,70.56878033996792,68.32875610128315,71.73516047995821,68.78480299097265,63.04671135251691,69.3138132727246
670.0,70.3094224842602,67.8491520399883,71.5351604799582,68.43768037266982,62.65051977447527,69.01920505591211
690.0,70.32526453928848,67.67100612011481,71.58242230727826,68.31001022169905,62.520281122107974,68.9857174813316
710.0,70.70034112939828,67.67245249207645,71.958217088195,68.54316511972891,62.76398248421198,69.27762190141223
730.0,70.07584607527146,66.62457993687899,71.40287628300402,67.79792789481033,62.10566948550668,68.60129965997069
750.0,68.87584607527145,64.42756634145692,70.15821708819499,66.4175861267968,61.0125129560526,67.24401044766053
775.0,67.60942248426018,60.17259587131696,68.20287628300402,64.31583327764758,59.838173765859466,65.33607876104685
800.0,69.17449351030439,55.53546091849047,66.89942293182199,62.27195513943481,60.25430268421002,65.12455093984784
825.0,70.43513059177982,63.72758719283593,67.07640057047573,61.875468294331654,59.74101833044958,66.23167139228454
850.0,72.00306957104252,67.56769521305296,69.00470702014275,63.84085138823639,60.54796289165603,68.20592485285833
875.0,75.07896989520115,73.84415774934851,70.67640057047572,65.65853861339245,64.23600163640725,71.72918306192012
900.0,71.01753803239934,76.02869245367796,70.63443179205895,67.15639689300335,64.61588391075627,71.60636411813
925.0,66.76620989389217,69.60473949550547,70.79942293182198,66.71045766436313,59.24708460781237,67.98371306680863
950.0,68.3377673428554,67.07695775614917,70.40470702014274,65.92632432891597,58.0820352081947,67.39653360353793
975.0,67.54258273663015,64.92643297742508,68.82579638388722,64.1312232843009,56.25972605036915,65.89514775518599
1000.0,66.31832544184972,61.03510550729975,67.20343598990847,62.35848432561974,54.940639242214274,64.09541137205905
1030.0,72.0707173249541,68.77449351030438,68.67740200741135,62.785040029789485,59.91139655997013,68.3127855303432
1060.0,76.24680047887706,78.01152326304967,70.01063265137016,65.23965522242604,66.50386318363746,73.91778069541833
1090.0,66.91323574403133,74.72585044351925,69.77091054784846,66.00259330556108,63.15013035274586,70.01180398438161
1120.0,64.26838749126698,69.89037884047718,70.40343598990847,65.99916986565057,59.109761194427904,67.51143430281311
1150.0,66.36226370149554,68.55905592381313,70.8814727883073,66.18430671947422,58.43575605051305,67.57476494961249
1180.0,68.40937829065058,68.82790007353127,71.99888657798577,67.151986197461,59.06566077509541,68.62245933504605
1220.0,68.88509485802376,68.71145938100322,72.20343598990847,67.31092007611102,59.25169798076104,68.80849376432096
1250.0,67.65657014803854,66.72536925857935,72.25378373474547,67.48060742899231,60.03067490468007,68.31776627099642
1280.0,71.94293979360191,68.44258273663014,72.70343598990846,67.37854559147605,59.364106947673775,69.7860292646853
1320.0,72.30942248426018,69.3377673428554,73.22579638388721,68.15504510799767,59.80537803893438,70.34368094901144
1360.0,72.40464502318535,69.95865724017871,72.52758020744902,67.6739232049589,59.05393869201957,70.15823875589926
1400.0,72.17106744273917,68.31007799780292,72.99942293182198,68.14447269274714,59.95077455088432,70.06242736715302
1450.0,75.0560388500297,72.89257011413608,73.91068966302632,69.54386725019202,60.411722547803876,72.36580555877485
1500.0,70.3517743753474,66.55062128010366,71.2106896630263,66.97993474496808,57.23929719251004,68.33737336769482
1550.0,67.59408963790565,65.26803106656234,66.01068966302631,61.53287418214558,51.449734490805554,64.67280828271574
1600.0,70.58239860760774,68.5392116131446,68.38847217927517,64.17184731552395,53.52800380226772,67.53082248777162
1650.0,71.51832613468224,69.7969370438189,67.95251964068126,63.769825015859396,53.557973097809565,68.13959374132322
1700.0,66.74464246181273,66.1567134496405,67.13156734312867,61.185743320715716,53.134136781918784,64.9244688109246
1750.0,67.25017075212571,64.84273297424512,67.95378373474547,61.95076588600713,47.80430976233433,65.11321619161848
1800.0,74.47960121433462,73.05962034200111,67.97118930448192,62.773670665683596,55.46639534203189,70.55332918253161
1850.0,59.81432579929967,54.60247051739306,68.57740200741134,61.7946578682573,51.41970156317275,63.05516637477514
1900.0,66.05959385611935,61.10840017459455,68.55268458216538,59.78951816027045,44.013552033252466,64.30415978420194
1950.0,66.07662798253907,55.46309343119023,69.55296950458998,58.724161613029935,51.22446826375926,64.56476671438465
2000.0,70.28107654963326,68.20209054318677,71.46913626975353,62.818036609168274,46.88285566900021,68.23033765347317
2060.0,81.73819571547216,77.71395652088273,69.29528451010906,68.19375049712191,67.33225683791002,76.60488423447039
2120.0,68.70942248426019,67.47609175449222,71.9997196322694,66.11000798511152,56.13961476853666,68.24307689020321
2180.0,67.92081469862046,68.41852635130016,71.79971963226939,65.57370753007815,54.86063409420649,68.087941503749
2240.0,70.77523823794748,68.23925752533572,71.01698672711379,64.18744701223541,51.158075591395516,68.32675519201528
2300.0,70.18161208533422,67.82253333882662,70.8169867271138,63.876192479234305,51.20522624264413,67.94167536147481
2360.0,69.86588846059686,67.81638770313008,71.3169867271138,64.33676718108391,52.63777200305351,68.08680326254513
2400.0,69.5148352363348,67.88143621591468,71.8433888131779,64.7234924283539,52.32188660866298,68.26180316099746
2500.0,68.66226044405475,67.9134796001795,71.8097463048834,64.73721912064146,52.261577800508505,68.04120835572297
2580.0,69.15803522150264,67.84475297190879,71.73871757721682,64.71353098575955,51.879498977923305,68.11089102756375
2650.0,69.05081528908937,67.49561715933442,71.25990168395998,64.55040117532745,51.9545226358142,67.78560501964836
2720.0,69.30497668676807,66.0667207368606,70.54895089575443,63.332315445450035,50.53862452129451,67.18972186707565
2800.0,68.64314826109434,66.09179815677408,70.3097463048834,63.92642653659658,52.124344902839155,66.94690470508891
2900.0,68.52812100489948,66.22102614963507,70.13156734312868,64.19862363132764,52.12108298775428,66.88675292177672
3000.0,67.57314211136085,66.21832613468223,70.01106138014497,64.71548580749266,52.49081220481021,66.64076648087189
3070.0,67.77882682230879,65.8217959902394,69.77640057047572,64.57887232089058,51.99898250149357,66.50190399801981
3150.0,66.66096514237182,65.08177997241296,69.25086213388187,64.37609754149753,51.75242133598121,65.83478290618874
3250.0,66.3424276671183,63.95648313414827,68.08764550006114,63.21434234664143,50.369811104975184,64.8961577017928
3350.0,65.86063997743493,62.11719474435358,67.01097504930928,61.0473622095781,48.03648865693515,63.74546998315223
3450.0,64.82720521710813,60.76668552790022,65.43196748609742,59.7619476159432,46.88483929815155,62.4156939128746
3550.0,65.96612501951208,62.498746375472905,66.98427119201276,61.61095470616942,48.23251191454111,63.88716176923353
3650.0,66.2608286134798,62.8666541182005,67.61847178170126,62.36273653749488,48.97905634082116,64.39122744709087
3750.0,66.32297870459898,62.61378996755592,67.82574179371562,62.43081647579713,49.227317968250716,64.47443570249452
3870.0,66.35879677415588,62.47858264009719,67.71844020115755,62.532492520849786,49.34816370064652,64.43565258643739
