Freq,Floor Bounce,Ceiling Bounce,Front Wall Bounce,Side Wall Bounce,Rear Wall Bounce,Total Early Reflection
22.4,25.005318067664717,24.838211298887416,24.545063705139825,24.68932856131474,25.432056964069204,24.912943163914264
23.0,26.705318067664706,26.570014882574753,26.28747445075797,26.449506262877918,27.183512404580284,26.65006838352454
23.6,28.505318067664717,28.370014882574765,28.045063705139825,28.207367230248167,28.912905754329103,28.418341703359687
24.0,30.205318067664706,30.003069571042516,29.745063705139813,29.907367230248155,30.59281212044158,30.10067339993779
25.0,31.836635756671882,31.670014882574776,31.458390897110462,31.607367230248173,32.27116622246788,31.777836278830677
25.8,33.50531806766472,33.370014882574765,33.116364534432364,33.26578857002298,33.9129057543291,33.442672550074604
26.5,35.136635756671865,35.03513059177985,34.758390897110445,34.94581484640403,35.53269803193032,35.089465478506696
27.2,36.73663575667186,36.63513059177981,36.35839089711047,36.54581484640403,37.14301376976968,36.69175242015939
28.0,38.33663575667188,38.235130591779836,37.97198631358856,38.14581484640402,38.73269803193034,38.291988197400315
29.0,39.93663575667185,39.83513059177983,39.57198631358855,39.724310170823,40.31125051075338,39.88309485249644
30.0,41.43663575667185,41.33513059177983,41.15839089711048,41.28434662681627,41.83195931779784,41.415459738090306
30.7,43.00228461396017,42.90076749445561,42.671986313588576,42.80414432349707,43.35212309212639,42.95244699434659
31.5,44.46845083805434,44.40076749445561,44.171986313588576,44.32296709970049,44.83053083915743,44.44454463381206
32.5,45.96845083805431,45.83513059177983,45.671986313588576,45.782927245183174,46.28216784112985,45.913270189689655
33.5,47.36845083805434,47.30076749445561,47.08585448910239,47.243045936561,47.70350551136872,47.34517851308348
34.5,48.76845083805432,48.70076749445562,48.51475531529209,48.64304593656098,49.11389074025651,48.752893325470595
35.5,50.168450838054326,50.100767494455624,49.9147553152921,50.082033784188326,50.49260415866077,50.15591431917588
36.5,51.56845083805433,51.500767494455616,51.31475531529209,51.441199831244845,51.85472807032758,51.539742576041164
37.5,52.86845083805433,52.80076749445561,52.6147553152921,52.78203378418833,53.165230455856786,52.85001285736806
38.7,54.200767494455604,54.16692185116051,53.985854489102366,54.12111243765534,54.47523650300127,54.19296097904083
40.0,55.500767494455616,55.46692185116049,55.28585448910238,55.42111243765535,55.76451394618826,55.490674673879454
41.2,56.768450838054335,56.734351408685015,56.58585448910236,56.680645977785915,57.04395469626918,56.76539577807081
42.5,58.000767494455616,57.96692185116049,57.80000000000001,57.9206434330808,58.25400982570957,57.99105067593334
43.7,59.20076749445562,59.16692185116051,59.0,59.12064343308079,59.44323466757007,59.18876336462351
45.0,60.40076749445562,60.3669218511605,60.2,60.320643433080804,60.627021637791685,60.385330137324786
46.2,61.53358982687996,61.500767494455616,61.400000000000006,61.50046051294916,61.753280435049504,61.53920301711673
47.5,62.70076749445562,62.633589826879955,62.5,62.64027672897046,62.874754476961996,62.671587545553734
48.7,63.73358982687998,63.66692185116051,63.599999999999994,63.700460512949164,63.92702163779168,63.72700200938499
50.0,64.73358982687998,64.6669218511605,64.6,64.70046051294918,64.90604717223442,64.72261777509837
51.5,65.70076749445562,65.63358982687997,65.6,65.66027588070905,65.85817503850105,65.69150226446027
53.0,66.63358982687998,66.53358982687996,66.5,66.58018335884987,66.74789529281065,66.59992568334599
54.5,67.53358982687996,67.43358982687998,67.4,67.44027672897049,67.62678074647123,67.48764092595268
56.0,68.33358982687999,68.23358982687996,68.19999999999999,68.28018335884987,68.44765555654891,68.29987607540758
58.0,69.13358982687998,69.03358982687996,69.0,69.08018335884987,69.21618485256673,69.09338276085046
60.0,69.83358982687999,69.73358982687998,69.8,69.8,69.91618485256672,69.81707996776126
61.5,70.5,70.4,70.4,70.4,70.5476555565489,70.44998217419082
63.0,71.03358982687998,70.93358982687998,71.0,71.0,71.0686691017184,71.00739967741055
65.0,71.56692185116049,71.4,71.5,71.5,71.57913786874599,71.50967839305744
67.0,72.0,71.9,71.9716627539189,71.9,72.02653984178842,71.9599481044025
69.0,72.4,72.2,72.3,72.3,72.36866910171841,72.31428000663774
71.0,72.7,72.6,72.7,72.64027672897046,72.71618485256671,72.67151540296747
73.0,73.1,73.0,73.1,73.02018505541588,73.0686691017184,73.05796489837542
75.0,73.4,73.3,73.4,73.34027672897047,73.3686691017184,73.36195582307872
77.5,73.7,73.5,73.6,73.6,73.58958146124473,73.59837902450855
80.0,73.83358982687997,73.66692185116051,73.8,73.74027672897047,73.75817503850104,73.7601621320016
82.5,74.0,73.8,73.94313939533782,73.86027588070905,73.85817503850103,73.89289215561664
85.0,74.06692185116049,73.8669218511605,74.0,73.94027672897047,73.93711053242436,73.96276673195683
87.5,74.1,73.9,74.1,73.96027588070905,73.95817503850103,74.00445684473863
90.0,74.1,73.8669218511605,74.0716627539189,73.94027672897047,73.93711053242436,73.98409225002322
92.5,74.0,73.83358982687997,74.0,73.86027588070905,73.8476555565489,73.90895917414105
95.0,73.93358982687997,73.70076749445562,73.94313939533782,73.78064597778591,73.7476555565489,73.8222909863207
97.5,73.8,73.53358982687998,73.8,73.62064343308079,73.57427239741644,73.66717566166092
100.0,73.66692185116051,73.40076749445562,73.64313939533781,73.48064597778591,73.43711053242436,73.52708355520365
103.0,73.4669218511605,73.1669218511605,73.44313939533782,73.26074062498236,73.18497091767053,73.30640210471503
106.0,73.23358982687996,72.96692185116049,73.24313939533782,73.04119983124484,72.96379188131675,73.09151811279432
109.0,73.03358982687998,72.70076749445562,73.04313939533782,72.80092097707211,72.71642633231374,72.86158116995492
112.0,72.8669218511605,72.5007674944556,72.87166275391891,72.6009209770721,72.50604717223442,72.67249245939101
115.0,72.66692185116051,72.36692185116051,72.67166275391891,72.42157071745497,72.30604717223443,72.48934710222156
118.0,72.5007674944556,72.20076749445562,72.54313939533782,72.24119983124486,72.13291945503653,72.32694344058646
122.0,72.40076749445564,72.06769521305294,72.44313939533782,72.12157071745497,72.0010934317052,72.21060687093096
125.0,72.36692185116051,72.00076749445562,72.3861845050195,72.04119983124485,71.92257968382395,72.14788762320421
128.0,72.36692185116051,72.00076749445562,72.37166275391891,72.0023023206405,71.88521413920195,72.13016678824776
132.0,72.36692185116051,71.96845083805432,72.41508314243883,72.0023023206405,71.8437202045415,72.1253341640578
136.0,72.40076749445564,72.00076749445562,72.4716627539189,72.02342518384303,71.85999629711318,72.15800149136687
140.0,72.5007674944556,72.03513059177983,72.51508314243883,72.06395064819495,71.87097970400967,72.20512410642912
145.0,72.5007674944556,72.03513059177983,72.5861845050195,72.06537624439828,71.86073025805186,72.2188804733736
150.0,72.5007674944556,72.00306957104252,72.54379075419729,72.00598456990743,71.7717118112458,72.17574561212916
155.0,72.40076749445564,71.90306957104252,72.48618450501951,71.88526041028544,71.60885849062562,72.06966726277822
160.0,72.30076749445561,71.80306957104251,72.41508314243883,71.74673677241469,71.45729419378735,71.95946640654554
165.0,72.16845083805433,71.60306957104251,72.25840584504061,71.60920611180407,71.2685400921237,71.79771544280865
170.0,72.06845083805433,71.43821129888744,72.15840584504062,71.40920611180408,71.06854009212371,71.64869380814588
175.0,72.00306957104252,71.37150800786937,72.11508314243883,71.33128689490087,70.93817114190672,71.57436800510993
180.0,71.96845083805432,71.3069050103546,72.05907003611941,71.25226959352626,70.80780851305458,71.50435562547788
185.0,71.90306957104252,71.23821129888744,72.02979499755904,71.19448290397311,70.70780851305459,71.44213990539419
190.0,71.96845083805432,71.23821129888744,72.08748929892042,71.1568801862013,70.64541133171372,71.45254099406856
195.0,72.00306957104252,71.3069050103546,72.18748929892041,71.17680320017618,70.62499139284999,71.49708586176203
200.0,72.03663575667187,71.3069050103546,72.20229476693693,71.20229885570997,70.5581469422835,71.50202984751617
206.0,72.07150800786937,71.27609175449223,72.20229476693693,71.12667842046352,70.45423406810994,71.47346718868252
212.0,72.00306957104252,71.21227178315618,72.20229476693693,71.0298846540872,70.29720845340198,71.40314030857783
218.0,71.97150800786939,71.11227178315617,72.13175513861907,70.9298846540872,70.0934668192328,71.31018764077163
224.0,71.87150800786938,71.0122717831562,72.06035311823196,70.81313953999232,69.90707356669323,71.2011215486152
230.0,71.77150800786937,70.9122717831562,72.03175513861908,70.70245227663601,69.72479720705836,71.10461599802923
236.0,71.77150800786937,70.88219967332304,72.00229476693693,70.60245227663601,69.55752908211036,71.0493545093652
240.0,71.7404416794549,70.81916705502753,72.00489499373622,70.5486872818452,69.40816792768578,70.99989851853874
250.0,71.7404416794549,70.78219967332305,72.00489499373622,70.53276641677856,69.24556701997045,70.96772835677342
258.0,71.7069050103546,70.71916705502754,71.97525122642458,70.39956388711857,69.03960325558796,70.88874033904963
265.0,71.6760917544922,70.61916705502753,71.91998423401445,70.309097646702,68.82029330542176,70.803433789543
272.0,71.57609175449221,70.58982856673471,71.90489499373622,70.20909764670199,68.6180985443786,70.72641065415706
280.0,71.57609175449221,70.48982856673473,71.90489499373622,70.15690409354568,68.44295149796721,70.67662724919842
290.0,71.64576719438469,70.58982856673471,71.91998423401445,70.14207582704609,68.31188178407218,70.69917417750547
300.0,71.6760917544922,70.62758719283593,72.01998423401444,70.21039079867913,68.19376218474284,70.73941360328665
307.0,71.7122717831562,70.62758719283593,72.01998423401444,70.15929007237312,68.02603337536705,70.72108414622039
315.0,71.6760917544922,70.56096514237183,72.01998423401444,70.12208770262137,67.79973243241685,70.66855277298745
325.0,71.64576719438469,70.49897445130925,72.00489499373622,70.01452371514131,67.57179868300341,70.60263482518958
335.0,71.61227178315617,70.49897445130925,72.00489499373622,70.01452371514131,67.38752468266787,70.57611212737802
345.0,71.64576719438469,70.49897445130925,72.01998423401444,70.02745355433875,67.26334826475433,70.57937498213172
355.0,71.74576719438468,70.59897445130926,72.11998423401444,70.07096022893884,67.11743092880796,70.6470861586953
365.0,71.78219967332305,70.59897445130926,72.17848478147016,70.09772752574554,66.93361295126238,70.66175320637177
375.0,71.78219967332305,70.59897445130926,72.20489499373622,70.09772752574554,66.80215908315947,70.65828880281828
387.0,71.78219967332305,70.57082970284299,72.20489499373622,70.08463808338925,66.60417878520312,70.634462904454
400.0,71.68219967332305,70.53752777300028,72.11998423401444,70.01415025910565,66.3906180327561,70.54838326646974
412.0,71.58219967332305,70.37082970284298,72.01998423401444,69.88463808338925,66.08683868392556,70.41456072655512
425.0,71.38219967332304,70.17082970284298,71.87848478147018,69.70111029491154,65.76044772021989,70.225318941745
437.0,71.35260953202217,70.1096325668162,71.79366590096781,69.66475106144105,65.52435731515575,70.1576561381268
450.0,71.28219967332305,70.03752777300026,71.79366590096781,69.61194105500616,65.34874222262464,70.1035674589676
462.0,71.28219967332305,69.93752777300028,71.77848478147015,69.57180836542551,65.181127996417,70.06127897434207
475.0,70.95260953202218,70.09897445130926,71.59366590096782,69.38463808338925,64.5849277935709,69.88285933988092
487.0,70.56096514237183,69.73752777300027,71.39366590096782,69.21415025910566,64.36202016004434,69.60481164747601
500.0,70.86096514237184,69.7096325668162,71.59366590096782,69.38463808338925,64.51274346608146,69.77584149725512
515.0,71.56096514237181,70.24898359150842,72.32386986096213,70.06475106144104,65.07548776235481,70.44218933410573
530.0,71.89897445130926,70.52179738688895,72.63924275721992,70.36475106144105,65.26591567821208,70.7453436254199
545.0,71.63752777300029,70.16194867563766,72.43924275721992,70.1249485882716,64.87263514270761,70.4811768328126
560.0,71.10963256681619,69.56194867563767,72.01363940606882,69.59217894944388,64.25034375310462,69.96643609280245
580.0,70.98219812790055,69.27641629732153,71.9136394060688,69.40524571781296,64.00767101418022,69.802435631976
600.0,71.1552196930838,69.31792789764852,72.11363940606881,69.52006753697643,64.02228526451448,69.94243570786135
615.0,70.99506458035829,69.02526453928849,72.0600593685791,69.30404121344598,63.73973173524709,69.77899952235933
630.0,70.69506458035829,68.60982855556756,71.83516047995819,68.95602919325245,63.322232678287094,69.47112559750158
650.0,70.56878033996792,68.32875610128315,71.7351604799582,68.78480299097265,63.04671135251691,69.31381327272462
670.0,70.3094224842602,67.8491520399883,71.5351604799582,68.4376803726698,62.65051977447527,69.01920505591211
690.0,70.32526453928848,67.67100612011481,71.58242230727826,68.31001022169903,62.520281122107974,68.9857174813316
710.0,70.70034112939827,67.67245249207645,71.958217088195,68.54316511972891,62.76398248421198,69.27762190141225
730.0,70.07584607527146,66.62457993687897,71.402876283004,67.79792789481033,62.10566948550667,68.60129965997066
750.0,68.87584607527147,64.42756634145692,70.15821708819499,66.4175861267968,61.012512956052575,67.24401044766054
775.0,67.6094224842602,60.17259587131696,68.20287628300402,64.31583327764757,59.83817376585948,65.33607876104685
800.0,69.17449351030437,55.53546091849047,66.89942293182199,62.27195513943481,60.25430268421,65.12455093984784
825.0,70.43513059177984,63.72758719283591,67.07640057047573,61.875468294331654,59.74101833044958,66.23167139228454
850.0,72.00306957104252,67.56769521305293,69.00470702014276,63.84085138823639,60.54796289165603,68.20592485285833
875.0,75.07896989520115,73.84415774934853,70.67640057047572,65.65853861339245,64.23600163640724,71.72918306192012
900.0,71.01753803239933,76.02869245367795,70.63443179205895,67.15639689300335,64.61588391075627,71.60636411812999
925.0,66.76620989389217,69.60473949550548,70.799422931822,66.71045766436312,59.247084607812354,67.98371306680865
950.0,68.3377673428554,67.07695775614917,70.40470702014275,65.92632432891597,58.0820352081947,67.39653360353793
975.0,67.54258273663014,64.92643297742508,68.82579638388722,64.13122328430092,56.25972605036915,65.89514775518599
1000.0,66.31832544184974,61.03510550729973,67.20343598990847,62.35848432561974,54.940639242214274,64.09541137205903
1030.0,72.07071732495409,68.77449351030438,68.67740200741135,62.7850400297895,59.91139655997013,68.3127855303432
1060.0,76.24680047887708,78.01152326304964,70.01063265137014,65.23965522242605,66.50386318363745,73.91778069541833
1090.0,66.91323574403133,74.72585044351925,69.77091054784844,66.00259330556105,63.15013035274586,70.01180398438161
1120.0,64.26838749126698,69.8903788404772,70.40343598990847,65.99916986565054,59.109761194427904,67.51143430281311
1150.0,66.36226370149554,68.55905592381313,70.88147278830732,66.18430671947424,58.435756050513035,67.57476494961249
1180.0,68.40937829065058,68.82790007353127,71.99888657798577,67.151986197461,59.06566077509541,68.62245933504605
1220.0,68.88509485802376,68.71145938100321,72.20343598990847,67.31092007611102,59.25169798076104,68.80849376432096
1250.0,67.65657014803854,66.72536925857932,72.25378373474547,67.48060742899231,60.03067490468007,68.31776627099643
1280.0,71.94293979360191,68.44258273663016,72.70343598990846,67.37854559147607,59.364106947673775,69.7860292646853
1320.0,72.3094224842602,69.3377673428554,73.22579638388721,68.15504510799767,59.80537803893438,70.34368094901144
1360.0,72.40464502318535,69.95865724017871,72.52758020744902,67.6739232049589,59.053938692019585,70.15823875589926
1400.0,72.17106744273917,68.3100779978029,72.999422931822,68.14447269274714,59.95077455088432,70.06242736715299
1450.0,75.05603885002971,72.89257011413608,73.9106896630263,69.54386725019202,60.41172254780386,72.36580555877484
1500.0,70.35177437534742,66.55062128010363,71.21068966302632,66.97993474496808,57.23929719251005,68.33737336769482
1550.0,67.59408963790565,65.26803106656234,66.01068966302631,61.53287418214556,51.449734490805554,64.67280828271574
1600.0,70.58239860760773,68.53921161314462,68.38847217927517,64.17184731552396,53.528003802267705,67.53082248777163
1650.0,71.51832613468224,69.79693704381889,67.95251964068126,63.769825015859396,53.557973097809565,68.13959374132324
1700.0,66.74464246181275,66.1567134496405,67.13156734312867,61.185743320715716,53.1341367819188,64.9244688109246
1750.0,67.25017075212571,64.84273297424511,67.95378373474549,61.95076588600713,47.80430976233433,65.11321619161848
1800.0,74.4796012143346,73.05962034200111,67.97118930448192,62.77367066568361,55.46639534203189,70.55332918253161
1850.0,59.81432579929967,54.60247051739306,68.57740200741135,61.79465786825732,51.41970156317275,63.05516637477514
1900.0,66.05959385611935,61.10840017459455,68.55268458216538,59.78951816027045,44.013552033252466,64.30415978420194
1950.0,66.07662798253904,55.46309343119022,69.55296950458998,58.72416161302995,51.22446826375926,64.56476671438466
2000.0,70.28107654963326,68.20209054318677,71.46913626975352,62.818036609168274,46.88285566900018,68.23033765347316
2060.0,81.73819571547216,77.71395652088275,69.29528451010906,68.19375049712193,67.33225683791002,76.60488423447039
2120.0,68.7094224842602,67.47609175449222,71.9997196322694,66.11000798511152,56.139614768536646,68.24307689020321
2180.0,67.92081469862046,68.41852635130014,71.79971963226939,65.57370753007817,54.860634094206475,68.08794150374898
2240.0,70.77523823794749,68.23925752533572,71.0169867271138,64.18744701223541,51.158075591395516,68.3267551920153
2300.0,70.1816120853342,67.82253333882662,70.8169867271138,63.876192479234305,51.205226242644116,67.9416753614748
2360.0,69.86588846059686,67.81638770313009,71.3169867271138,64.33676718108391,52.63777200305351,68.08680326254513
2400.0,69.51483523633479,67.88143621591468,71.8433888131779,64.72349242835388,52.32188660866299,68.26180316099743
2500.0,68.66226044405475,67.91347960017949,71.8097463048834,64.73721912064146,52.261577800508505,68.04120835572297
2580.0,69.15803522150264,67.8447529719088,71.73871757721682,64.71353098575955,51.879498977923305,68.11089102756375
2650.0,69.05081528908937,67.49561715933443,71.25990168395997,64.55040117532747,51.9545226358142,67.78560501964836
2720.0,69.30497668676809,66.0667207368606,70.54895089575443,63.332315445450035,50.53862452129452,67.18972186707565
2800.0,68.64314826109435,66.09179815677408,70.3097463048834,63.92642653659658,52.124344902839155,66.9469047050889
2900.0,68.52812100489948,66.22102614963507,70.13156734312868,64.19862363132765,52.12108298775428,66.88675292177672
3000.0,67.57314211136085,66.21832613468223,70.01106138014495,64.71548580749266,52.4908122048102,66.64076648087189
3070.0,67.77882682230877,65.8217959902394,69.77640057047572,64.57887232089058,51.99898250149357,66.50190399801981
3150.0,66.66096514237184,65.08177997241296,69.25086213388187,64.37609754149753,51.75242133598121,65.83478290618874
3250.0,66.34242766711827,63.95648313414827,68.08764550006114,63.21434234664143,50.369811104975184,64.89615770179279
3350.0,65.86063997743494,62.11719474435358,67.0109750493093,61.0473622095781,48.03648865693515,63.74546998315225
3450.0,64.82720521710813,60.76668552790022,65.43196748609742,59.7619476159432,46.88483929815155,62.4156939128746
3550.0,65.96612501951208,62.49874637547289,66.98427119201274,61.61095470616944,48.23251191454108,63.88716176923353
3650.0,66.26082861347982,62.8666541182005,67.61847178170125,62.36273653749488,48.979056340821174,64.39122744709086
3750.0,66.32297870459898,62.6137899675559,67.82574179371562,62.430816475797144,49.227317968250716,64.4744357024945
3870.0,66.35879677415589,62.47858264009717,67.71844020115755,62.532492520849786,49.34816370064652,64.43565258643739
