Freq "Ceiling Bounce"
20.5078 70.09693970068933
21.9727 78.42492429152044
23.4375 82.0616490380903
24.9023 85.73531444170027
26.3672 89.04642665777884
27.832 92.09541613067874
29.2969 94.90517433271148
30.7617 97.26219056453212
32.2266 99.25890356294015
33.6914 100.60586669041538
35.1562 101.4021992053905
36.6211 101.81917063689306
38.0859 101.99276616767393
39.5508 102.04071026084445
41.0156 101.9791139604021
42.4805 101.96857608372319
43.9453 101.96222792738722
45.4102 101.90193757208266
46.875 101.89196667670659
48.3398 101.89861839132188
51.2695 101.82599593481856
52.7344 101.76802534641703
54.1992 101.71070639251707
55.6641 101.68746322915064
58.5938 101.71224968799007
60.0586 101.62156808839758
62.9883 101.49973603320747
64.4531 101.43608463006719
67.3828 101.32796444994472
68.8477 101.28939025696901
71.7773 101.22105775662189
74.707 101.05475671896424
77.6367 101.04763084453445
79.1016 101.04686199750158
82.0312 100.98014562953834
84.9609 100.87883787898417
87.8906 100.90750906468558
90.8203 100.95091602652192
95.2148 100.72145407730558
98.1445 100.48216954695748
101.074 100.35644688061389
105.469 99.91354033980518
108.398 99.74957308834095
112.793 99.78610746063741
117.188 99.37832312655368
120.117 99.52559146780634
124.512 99.95875928707981
128.906 99.73454766311936
133.301 99.7272240363433
139.16 99.63872625244305
143.555 99.76643809564636
147.949 100.21023951998441
153.809 100.10139227581332
159.668 99.84766337114023
165.527 100.14553437200678
171.387 100.45956257573553
177.246 100.46906868852298
183.105 100.33824616794983
188.965 100.52137619263117
196.289 100.41067024855023
203.613 100.33500751819231
210.938 100.0570828540535
218.262 99.77614537664813
225.586 99.10551190157447
232.91 98.54194910828029
241.699 97.966718242896
250.488 98.72636375859746
259.277 99.52766436328089
268.066 98.8423057873754
276.855 98.94813067811985
287.109 99.15975252609616
297.363 98.53501369934507
307.617 99.34276101554653
319.336 98.81760659600789
329.59 99.1920360331785
341.309 98.93380305195363
353.027 99.0163101103068
366.211 98.46477004445563
379.395 98.31306442614074
392.578 99.99881328262768
405.762 99.55146076113262
420.41 98.1945529510064
435.059 99.01206724414979
451.172 97.15709734457232
465.82 97.34645869413772
483.398 98.4468304368177
499.512 98.00892142917986
517.09 96.09778650829723
536.133 98.25078432078699
555.176 97.46048189303387
574.219 97.18211417870211
594.727 97.46918900527119
615.234 96.3023771951558
637.207 98.34437528079663
659.18 99.20716923756895
682.617 99.73511109341369
707.52 99.01418610514774
732.422 99.81667020897187
757.324 99.85360631573936
785.156 98.75914372189699
811.523 96.98659663510463
840.82 97.38411707931432
870.117 97.33727355598212
900.879 96.05021416121205
933.105 96.07875725132426
965.332 97.79177984036411
1000.49 100.28751226930905
1035.64 99.50805652175616
1072.27 99.59724995922384
1108.89 98.75318778838117
1148.44 98.792722335837
1189.45 98.16882278135942
1230.47 97.9060132127581
1274.41 98.41855808099861
1319.82 99.15717462233796
1366.7 99.1859249312325
1413.57 100.5107148637385
1463.38 99.75407968753751
1516.11 98.49488294398687
1568.85 95.85467733093348
1624.51 94.96901933728522
1681.64 92.08869579894798
1741.7 93.54472757064553
1803.22 92.16501831638821
1866.21 93.35251945266633
1932.13 94.22225977228736
1999.51 95.45284233129185
2069.82 94.23547463922203
2143.07 95.21299743048523
2219.24 95.78267192103765
2296.88 96.88445302758025
2378.91 97.1155265577706
2462.4 98.0843967988785
2548.83 98.27614306048932
2639.65 98.0542883897891
2731.93 97.76126234929485
2828.61 97.61674567940358
2928.22 98.09247886929548
3030.76 97.09878646305928
3137.7 97.41105885659128
3249.02 97.20656531695803
3363.28 97.29615835671612
3481.93 96.93324554626876
3604.98 97.41222643138268
3732.42 96.25817231265219
3864.26 96.2283722378928
4000.49 95.99306629454614
4141.11 95.82541470332163
4287.6 95.47411674806159
4438.48 95.22765640398201
4595.21 95.44228340715846
4756.35 95.42885014320977
4924.8 95.01590457817686
5097.66 95.04399271597283
5277.83 94.39512641011315
5463.87 94.03031706991298
5657.23 93.81023854278536
5856.45 93.94241231662996
6062.99 93.58859717556935
6276.86 94.2083484220433
6498.05 95.0546592732233
6726.56 95.10347389161804
6963.87 94.54876335863285
7209.96 93.56003088194915
7464.84 92.35351008133468
7727.05 91.55104296604425
7999.51 92.02183748951505
8282.23 92.9433940805455
8573.73 93.70332470395432
8876.95 93.75414489655017
9188.96 93.03437049715619
9514.16 92.07816073039389
9849.61 91.70190671627192
10196.8 92.33237055921964
10555.7 92.48646064899644
10927.7 91.51368181208203
11313.0 91.32338421997498
11712.9 91.04637023490328
12126.0 90.06309800455671
12553.7 90.23652275592286
12996.1 90.52959629182025
13454.6 89.09754757570296
13929.2 87.90164302692585
14419.9 87.68106030967859
14928.2 88.29261430736871
15455.6 88.16782437701318
16000.5 88.3220370008096
16564.5 89.93245997661583
17148.9 90.17234949246755
17752.4 87.79050028530105
18379.4 84.03586479928104
19026.9 83.7817008283299
19697.8 82.38886104840323
19999.5 82.06881256274688
