Freq "Floor Bounce"
20.5078 73.8988728252934
21.9727 81.18967603225758
23.4375 84.64661181983243
24.9023 88.26365406228625
26.3672 91.45916623197135
27.832 94.42926052334876
29.2969 97.19812309479131
30.7617 99.5131243757053
32.2266 101.47968188388005
33.6914 102.80586548402333
35.1562 103.57597294500412
36.6211 103.96510252649628
38.0859 104.09922452731006
39.5508 104.1220777736819
41.0156 104.07135411640739
42.4805 104.06458775095776
43.9453 104.03142176266076
45.4102 103.97270168084019
46.875 103.95628765161244
48.3398 103.94686306385394
51.2695 103.86906953919808
52.7344 103.81001957723025
54.1992 103.75199482602642
55.6641 103.73425562495113
58.5938 103.73604391033594
60.0586 103.6416996067307
62.9883 103.50667692629592
64.4531 103.44767692629591
67.3828 103.37364455972472
68.8477 103.34828800574056
71.7773 103.28362226483527
74.707 103.1519886299459
77.6367 103.15289061462299
79.1016 103.17748258271875
82.0312 103.11279583879859
84.9609 103.06272475195799
87.8906 103.11120392345232
90.8203 103.14056543640508
95.2148 102.91840875916432
98.1445 102.69995586479875
101.074 102.59722414802764
105.469 102.3266718578957
108.398 102.17949753257138
112.793 102.24253136536392
117.188 101.97454701512258
120.117 102.18993830333434
124.512 102.38304164531611
128.906 102.17332740429188
133.301 102.25494965380778
139.16 102.44934727356448
143.555 102.64896477629792
147.949 102.87785118640019
153.809 102.61883213546793
159.668 102.6441278406892
165.527 103.04840418754814
171.387 103.15672393839105
177.246 103.03574045707387
183.105 103.01718291370815
188.965 103.1342582227662
196.289 103.12406370368467
203.613 102.87238875691169
210.938 102.67641812570564
218.262 102.11442629576649
225.586 101.84884338773455
232.91 101.86579961066387
241.699 101.89584420365308
250.488 102.82522560770933
259.277 102.55229242833467
268.066 102.24257940977968
276.855 102.49351993501257
287.109 102.26163168482938
297.363 101.53293094881023
307.617 102.20650709881686
319.336 101.810811048804
329.59 101.40984573097232
341.309 102.06507215906664
353.027 101.49230939825303
366.211 101.53375002971968
379.395 102.23932780201943
392.578 103.23589368715291
405.762 102.00662547530416
420.41 101.44083949662418
435.059 101.19982502548102
451.172 99.62788089529083
465.82 102.30763410726162
483.398 102.88466280279644
499.512 102.32484485698595
517.09 99.07128461729339
536.133 100.39302997289883
555.176 101.30783661854701
574.219 98.88564067818193
594.727 101.02849574721056
615.234 103.01927485489982
637.207 102.49685999233556
659.18 102.49242354760989
682.617 100.72124887717723
707.52 102.57785005462934
732.422 103.23839778687669
757.324 103.77829854447236
785.156 103.13778435950961
811.523 101.55843335965886
840.82 101.1715301908023
870.117 98.5881391278035
900.879 99.27104581167245
933.105 101.11874818703677
965.332 102.01991160825237
1000.49 102.43660255287726
1035.64 101.63884237151352
1072.27 103.55128903963994
1108.89 103.86007765149894
1148.44 103.53144014467725
1189.45 103.7018359309037
1230.47 103.47732159159433
1274.41 102.65276764444967
1319.82 101.61427693100624
1366.7 101.09210907436967
1413.57 99.41007218789801
1463.38 96.23905823510053
1516.11 93.7194593019671
1568.85 93.6971119545267
1624.51 93.56957753620985
1681.64 95.12080457687578
1741.7 96.97664199539611
1803.22 98.33694022371883
1866.21 99.70686899842188
1932.13 100.43968254362557
1999.51 100.9875118200477
2069.82 101.07720895774536
2143.07 100.92357573345568
2219.24 100.16631017504605
2296.88 100.75967612073008
2378.91 101.14956302621235
2462.4 101.34857496129482
2548.83 100.67624186024823
2639.65 101.1289385162485
2731.93 101.60167427093339
2828.61 101.3444793603672
2928.22 101.2537032653279
3030.76 101.02438005170566
3137.7 101.4081237296455
3249.02 101.58632483935581
3363.28 101.91317850776417
3481.93 102.2653289634488
3604.98 102.30097198722434
3732.42 102.43418827172712
3864.26 102.54050929662857
4000.49 101.73860827862443
4141.11 101.1031607424139
4287.6 100.90883842408407
4438.48 99.99367448884865
4595.21 100.20837607453272
4756.35 100.13206111536529
4924.8 100.57328000494645
5097.66 100.3961540958247
5277.83 99.86936803951218
5463.87 99.23938975619136
5657.23 98.29493845034487
5856.45 97.9736635855677
6062.99 98.15550945350942
6276.86 98.44611049269237
6498.05 98.77545478844958
6726.56 98.55656274245688
6963.87 98.48039159082781
7209.96 98.45838639599687
7464.84 98.48399173596549
7727.05 98.43831919954356
7999.51 98.43311022868299
8282.23 98.51299319987471
8573.73 98.6930518069375
8876.95 98.65814813351876
9188.96 98.44445833203157
9514.16 98.80584914408782
9849.61 99.19234519335782
10196.8 99.0168698496319
10555.7 98.44865517837879
10927.7 97.64547337291826
11313.0 98.42719673526312
11712.9 99.12660153367982
12126.0 98.51728190578059
12553.7 98.18897297739166
12996.1 98.2728150018006
13454.6 98.57304714704476
13929.2 98.25059519024857
14419.9 98.49044493460408
14928.2 98.11183884725612
15455.6 97.0217725290721
16000.5 97.44389003722254
16564.5 99.26513012661694
17148.9 99.1658861276084
17752.4 97.60085562094879
18379.4 95.60919700714099
19026.9 93.22375466861595
19697.8 92.24495357083424
19999.5 91.92417074004257
