Freq "Side Wall Bounce"
20.5078 72.3410089458073
21.9727 79.92503058240577
23.4375 83.49527451827306
24.9023 87.11563851913375
26.3672 90.36244675100973
27.832 93.36533182825549
29.2969 96.14419015891251
30.7617 98.48257070646711
32.2266 100.46784359195715
33.6914 101.80789663864965
35.1562 102.58975029209661
36.6211 102.99118145721732
38.0859 103.14230094787656
39.5508 103.17373323575633
41.0156 103.11779865575264
42.4805 103.10425677281303
43.9453 103.07936255686843
45.4102 103.01676317915886
46.875 103.00266962732401
48.3398 102.99899924263994
51.2695 102.91735633267476
52.7344 102.85759447659035
54.1992 102.79814224920567
55.6641 102.7725119107604
58.5938 102.77120140980043
60.0586 102.67685351144306
62.9883 102.55197337611854
64.4531 102.48881179219184
67.3828 102.38722112161754
68.8477 102.34979924188262
71.7773 102.28487832469163
74.707 102.13852103773729
77.6367 102.1205304347566
79.1016 102.12033185425825
82.0312 102.04831604895718
84.9609 101.96235429422617
87.8906 101.98080073472144
90.8203 102.0169894739441
95.2148 101.7758361719613
98.1445 101.52005153313725
101.074 101.37850555360335
105.469 101.01147115401201
108.398 100.83708134019473
112.793 100.86402314476389
117.188 100.5749739587456
120.117 100.6923547268289
124.512 100.98831621968318
128.906 100.7425604957544
133.301 100.7176050782504
139.16 100.73001030051303
143.555 100.88709860583312
147.949 101.30991711483021
153.809 101.17541444393403
159.668 100.9192170983412
165.527 101.1678302352053
171.387 101.44239194108756
177.246 101.40313794880772
183.105 101.2349957595272
188.965 101.39722540710686
196.289 101.2981567227465
203.613 101.21410435922255
210.938 100.94921397024552
218.262 100.44119031089572
225.586 99.77078391196493
232.91 99.31291508113017
241.699 98.9220475364598
250.488 100.29423437791029
259.277 100.673353484858
268.066 99.4768436106775
276.855 99.68560231635638
287.109 99.50807077277065
297.363 99.11559934191514
307.617 99.70866532740207
319.336 99.5290334389578
329.59 99.7272027586044
341.309 99.90116420382618
353.027 99.71205231235746
366.211 99.95803134122137
379.395 100.37769445454333
392.578 101.59677317926005
405.762 100.38582111445449
420.41 100.20648729499146
435.059 100.69661720797926
451.172 98.83054057139545
465.82 99.35348022974881
483.398 100.67678231064453
499.512 100.84154142523045
517.09 98.25183243931848
536.133 98.29160900514283
555.176 98.99492325602674
574.219 98.19934956175628
594.727 99.436209273659
615.234 98.33793459944285
637.207 98.84139744135109
659.18 99.20447868293628
682.617 98.44043435472189
707.52 98.78669495991268
732.422 99.56865480008344
757.324 98.88557147745534
785.156 98.13557187296782
811.523 95.92933720979185
840.82 95.53181214033853
870.117 93.7114475229195
900.879 93.9704689091473
933.105 95.79041886454924
965.332 95.24846346160624
1000.49 95.94726910193425
1035.64 96.99748074859052
1072.27 97.92989871613462
1108.89 98.03232656087255
1148.44 98.60507350930735
1189.45 98.1034894914782
1230.47 98.20196095989695
1274.41 98.70306643876947
1319.82 98.77996898944319
1366.7 97.83516004262059
1413.57 99.15543877391794
1463.38 97.67127371420166
1516.11 96.64838027153526
1568.85 95.70887201857172
1624.51 96.0946701596029
1681.64 96.89478678299767
1741.7 97.91553769503865
1803.22 98.17040158196076
1866.21 98.55813757082247
1932.13 98.10082018420049
1999.51 97.71395548477909
2069.82 97.48872600520455
2143.07 97.70855172926974
2219.24 97.20945481885393
2296.88 97.29565849851566
2378.91 97.17136944253983
2462.4 96.8395438821314
2548.83 96.84825690942108
2639.65 97.14987332195594
2731.93 97.3899244685593
2828.61 96.4844296858339
2928.22 96.42732259436842
3030.76 96.73299046391642
3137.7 95.7123308581897
3249.02 96.81521579468625
3363.28 97.42334766836973
3481.93 96.85931988975567
3604.98 96.99314176250387
3732.42 96.44201389058732
3864.26 96.99374524012339
4000.49 96.8350508217163
4141.11 97.18093213421719
4287.6 96.54407241926566
4438.48 96.4849802222873
4595.21 96.09207896764336
4756.35 96.24703850099489
4924.8 96.12645015211694
5097.66 96.4416599141449
5277.83 96.29463214773087
5463.87 95.61585397255544
5657.23 95.70846061398093
5856.45 95.76284186713468
6062.99 95.72002913740786
6276.86 95.88654257829961
6498.05 95.57727262462696
6726.56 95.7854975000269
6963.87 95.76773383885677
7209.96 95.48683488983046
7464.84 95.70973858503832
7727.05 95.90118415753922
7999.51 95.6522687385903
8282.23 95.54595148021806
8573.73 95.76154566106953
8876.95 95.96442650710371
9188.96 95.91344251034276
9514.16 95.99187015466744
9849.61 96.25355396041437
10196.8 96.22973250155775
10555.7 95.55461662673959
10927.7 94.70394194817025
11313.0 95.19254134539618
11712.9 95.78954923555021
12126.0 95.02567027148851
12553.7 94.71997223576689
12996.1 94.7480139641052
13454.6 94.51784819246254
13929.2 94.00581964624647
14419.9 94.12379252281185
14928.2 94.32451346980018
15455.6 94.06160357888795
16000.5 94.58696301102574
16564.5 95.53309915826433
17148.9 95.45381572829956
17752.4 93.97486937877059
18379.4 92.02202241086685
19026.9 89.76857374812066
19697.8 88.40918379558838
19999.5 88.09892128539717
