Freq "Total Early Reflection"
20.5078 72.33040836562762
21.9727 79.92466938003531
23.4375 83.49823431628032
24.9023 87.12297990639136
26.3672 90.36865879987329
27.832 93.37313157891037
29.2969 96.14734864975198
30.7617 98.4853047413948
32.2266 100.46875077547003
33.6914 101.80972491342472
35.1562 102.59085515503995
36.6211 102.99270365356584
38.0859 103.14416726836075
39.5508 103.17709826920225
41.0156 103.12247148144273
42.4805 103.10901686051508
43.9453 103.08472714264022
45.4102 103.02295468624689
46.875 103.01017065598734
48.3398 103.00763700416849
51.2695 102.92940690089203
52.7344 102.87126591070742
54.1992 102.81511033480768
55.6641 102.79159256780633
58.5938 102.79001001218114
60.0586 102.6968400527426
62.9883 102.57784002045892
64.4531 102.51904367218268
67.3828 102.42459500961596
68.8477 102.38924792242148
71.7773 102.32650170866049
74.707 102.19599718496548
77.6367 102.18084537863578
79.1016 102.18872592253057
82.0312 102.11982905943626
84.9609 102.04790159374396
87.8906 102.06860266213685
90.8203 102.10763916900878
95.2148 101.88592903864048
98.1445 101.64115705130448
101.074 101.50747455450727
105.469 101.15791167032681
108.398 101.00619019544627
112.793 101.01870022116788
117.188 100.74132390349087
120.117 100.89317702034143
124.512 101.1585029093076
128.906 100.95723057782519
133.301 100.94615216628267
139.16 100.99281921993614
143.555 101.1175253902697
147.949 101.47682407497607
153.809 101.36576279858791
159.668 101.23908538269018
165.527 101.49588380217544
171.387 101.69400876673592
177.246 101.65683895184671
183.105 101.53402084620126
188.965 101.64688250165779
196.289 101.57735157818229
203.613 101.42796746418068
210.938 101.22870325290253
218.262 100.74129250863592
225.586 100.33511154438318
232.91 100.05361999117656
241.699 99.80911205138297
250.488 100.61235891748822
259.277 100.92963414467897
268.066 100.41323042962728
276.855 100.63334767186885
287.109 100.43804062493264
297.363 99.70580448708232
307.617 100.40790873859572
319.336 99.92145825695069
329.59 99.89777433364443
341.309 100.11889660484388
353.027 99.90325552350562
366.211 99.9163948026974
379.395 100.42524290597218
392.578 101.51594595553176
405.762 100.47128070409039
420.41 99.90522480712033
435.059 100.12671809686768
451.172 98.50910016549712
465.82 100.03357933231668
483.398 100.84829839664701
499.512 100.52122756973837
517.09 97.92270066227493
536.133 99.28130731470372
555.176 99.68251745349068
574.219 98.28511131736141
594.727 99.40947510518065
615.234 100.14846648448497
637.207 100.23745223928195
659.18 100.57229455637358
682.617 99.67308692227185
707.52 100.2604231028927
732.422 100.95003095255974
757.324 101.25294115236238
785.156 100.09557521029596
811.523 98.5640968051463
840.82 98.08429693233401
870.117 96.48451582597639
900.879 96.26206240449687
933.105 97.69213771999341
965.332 98.2163924630818
1000.49 99.15812421992203
1035.64 99.310477584658
1072.27 100.50721828310505
1108.89 100.67911685648367
1148.44 100.64393265179139
1189.45 100.4901334516768
1230.47 100.32895887681522
1274.41 100.12832909267549
1319.82 100.08887837208125
1366.7 99.13471384383402
1413.57 99.37578000470758
1463.38 97.8466659456859
1516.11 97.47853243395812
1568.85 96.84916565402976
1624.51 96.81453780586996
1681.64 96.84648336464807
1741.7 98.16229523507292
1803.22 98.68668217839634
1866.21 99.33502201295997
1932.13 99.07997643840565
1999.51 99.080509412087
2069.82 99.13494427491611
2143.07 99.18423330777804
2219.24 98.68646170628378
2296.88 99.17899814215389
2378.91 99.58191919668423
2462.4 99.58133960110955
2548.83 99.2789420169116
2639.65 99.39460007895298
2731.93 99.43512065649705
2828.61 99.03828144937992
2928.22 99.16380653614262
3030.76 99.05866494651463
3137.7 98.61051607581783
3249.02 99.1015165747415
3363.28 99.36925917017379
3481.93 99.20351597078562
3604.98 99.43067933917077
3732.42 99.17714176688412
3864.26 99.58285820803573
4000.49 99.03787276712754
4141.11 99.1768800260071
4287.6 98.58539361441704
4438.48 98.44860945754107
4595.21 98.12915480039055
4756.35 98.33504120832755
4924.8 98.26650717194144
5097.66 98.36344665570007
5277.83 98.18836668653444
5463.87 97.60574477754521
5657.23 97.36227748778877
5856.45 97.53668877305562
6062.99 97.41860595061472
6276.86 97.63313048152992
6498.05 97.58515188225661
6726.56 97.55090948214577
6963.87 97.46472846285707
7209.96 97.32882876244622
7464.84 97.47125423654737
7727.05 97.6320649029986
7999.51 97.6168000598269
8282.23 97.69405265705207
8573.73 97.80009092285232
8876.95 97.76790521028741
9188.96 97.75683969958065
9514.16 98.06622055767097
9849.61 98.3386117210899
10196.8 98.214792138657
10555.7 97.63357847257433
10927.7 96.85371180454636
11313.0 97.600983982596
11712.9 98.24601768797797
12126.0 97.51957228028928
12553.7 97.20193800037192
12996.1 97.2846888027037
13454.6 97.30009306875107
13929.2 96.78370034747692
14419.9 96.80438138551672
14928.2 97.04182330266522
15455.6 96.77389853267493
16000.5 97.31314834737273
16564.5 98.48279367673152
17148.9 98.53504257287355
17752.4 96.94911698896011
18379.4 95.07245954842479
19026.9 93.09530599694784
19697.8 91.79529474368663
19999.5 91.65342800290898
