Freq "Listening Window"
20.5078 67.29581869797936
21.9727 70.549790279449
23.4375 74.37463438893333
24.9023 76.31433963723505
26.3672 78.5275859425111
27.832 79.63942494530862
29.2969 81.95223067335685
30.7617 84.21229164096692
32.2266 84.97555702671825
33.6914 86.64320072088776
35.1562 88.09868354542056
36.6211 89.42027978150709
38.0859 90.38926486222152
39.5508 91.9357757376313
41.0156 93.12669508804797
42.4805 94.20515103943315
43.9453 95.33039035300419
45.4102 96.36920672352231
46.875 97.2944307902362
48.3398 98.21682262622267
51.2695 99.96394828673128
52.7344 100.39346021902352
54.1992 100.7369278803734
55.6641 101.09523993621339
58.5938 101.47178830014288
60.0586 101.46999859236013
62.9883 101.32763875982802
64.4531 101.22820357173792
67.3828 101.0005647944262
68.8477 100.8941185701156
71.7773 100.67832488661723
74.707 100.42227046194391
77.6367 100.15149818563326
79.1016 100.05783622384554
82.0312 99.85184753807764
84.9609 99.55189033130033
87.8906 99.46829839065614
90.8203 99.32271156292818
95.2148 99.1486877671445
98.1445 98.98259528928142
101.074 98.8060903823604
105.469 98.66969980004849
108.398 98.69703904258778
112.793 98.62995560358262
117.188 98.5663460554818
120.117 98.5453020553554
124.512 98.54471522573888
128.906 98.45895214259049
133.301 98.34377411592713
139.16 98.17046012794675
143.555 98.10147527622883
147.949 98.18494741946543
153.809 98.17465295587596
159.668 98.32660806564314
165.527 98.32770573963369
171.387 98.18442742196707
177.246 98.10083878154373
183.105 98.03952948327584
188.965 98.07891593289554
196.289 98.4027809953451
203.613 98.3257730181623
210.938 98.37116313893083
218.262 98.29266207391014
225.586 98.32986699444696
232.91 98.52942352391935
241.699 98.34346577539826
250.488 98.65948103142921
259.277 98.88940796343742
268.066 98.57870427255956
276.855 98.6158923180446
287.109 98.72879150905827
297.363 98.88472529662579
307.617 98.91050496814334
319.336 98.55814355912253
329.59 98.54073474820659
341.309 98.4622597612813
353.027 98.59029619722426
366.211 98.94781996190018
379.395 98.9104937341199
392.578 98.32931517015241
405.762 98.35460451781451
420.41 99.38001300666853
435.059 98.79614649529749
451.172 99.67408381834247
465.82 99.68255233749078
483.398 99.43645551372684
499.512 99.55798355059743
517.09 99.21612834453218
536.133 99.63423204192637
555.176 100.27647386787578
574.219 100.15833149325302
594.727 99.85497198610706
615.234 99.86133084448433
637.207 100.2084810479989
659.18 100.56427704171166
682.617 100.35729116273605
707.52 100.21724566875004
732.422 99.61416791217735
757.324 99.53441969783944
785.156 98.17530692784018
811.523 98.97174065357684
840.82 99.83190709622026
870.117 98.96929851225133
900.879 99.36884323019791
933.105 99.13345860625759
965.332 99.61221091131316
1000.49 99.84742951491222
1035.64 99.5916584095486
1072.27 99.29954352818889
1108.89 99.35843165961089
1148.44 99.81319823465621
1189.45 99.74296236325124
1230.47 100.15486246154822
1274.41 99.64056454424421
1319.82 99.75782957357673
1366.7 99.26224767152097
1413.57 99.4400751886161
1463.38 99.46670407448933
1516.11 99.40261623329782
1568.85 99.04249452040715
1624.51 99.01368671719845
1681.64 98.89510850319559
1741.7 99.94614284248307
1803.22 100.3279949719437
1866.21 99.77611699076684
1932.13 98.88177886046957
1999.51 99.02925916757601
2069.82 100.06347101448065
2143.07 100.06487769970126
2219.24 99.04260565006922
2296.88 99.05638502886508
2378.91 99.2776749171808
2462.4 98.84491842082922
2548.83 98.9780505025599
2639.65 99.04918104428508
2731.93 98.44421259164876
2828.61 98.89938986762927
2928.22 98.76892667969638
3030.76 98.43451478497711
3137.7 99.26884404058664
3249.02 99.38515888257093
3363.28 99.59054281713567
3481.93 99.98054589356623
3604.98 99.6645070128858
3732.42 99.61523304721003
3864.26 99.84375181952453
4000.49 99.74486981731667
4141.11 99.75101056130903
4287.6 99.75042578490114
4438.48 99.06704948178985
4595.21 99.88968360157928
4756.35 99.25836905091094
4924.8 100.26230752656758
5097.66 99.80732187018923
5277.83 100.03805503736992
5463.87 100.268803589932
5657.23 100.63980166505326
5856.45 101.28205010440453
6062.99 101.51060239699454
6276.86 101.40391960508552
6498.05 100.90013390003526
6726.56 100.3842842602934
6963.87 100.8935902758521
7209.96 101.19296442010472
7464.84 101.20421969174487
7727.05 101.0249027731281
7999.51 100.61143939226186
8282.23 99.72415540234682
8573.73 99.17383534403184
8876.95 98.64242911912825
9188.96 98.45146252007082
9514.16 98.48365444348084
9849.61 98.14453734536777
10196.8 97.76551318077685
10555.7 97.63923038398273
10927.7 97.62403213952035
11313.0 97.8122752329206
11712.9 98.03098253930031
12126.0 98.10712786811662
12553.7 98.2358806819655
12996.1 98.22264012465803
13454.6 98.09507184306497
13929.2 98.0575598810279
14419.9 97.91309740072302
14928.2 97.74523921013979
15455.6 97.7894493996923
16000.5 97.78894191365883
16564.5 97.56312290445408
17148.9 97.35851448699454
17752.4 97.03539772739603
18379.4 96.77514637057753
19026.9 96.41765127855643
19697.8 96.2197556863346
19999.5 96.16346162435774
