Freq "On Axis"
20.5078 67.28217121212121
21.9727 70.53387121212121
23.4375 74.36897121212122
24.9023 76.31257121212123
26.3672 78.52387121212122
27.832 79.63767121212122
29.2969 81.95517121212121
30.7617 84.2166712121212
32.2266 84.98097121212122
33.6914 86.65207121212121
35.1562 88.10657121212121
36.6211 89.4306712121212
38.0859 90.40317121212121
39.5508 91.94657121212121
41.0156 93.13787121212121
42.4805 94.2184712121212
43.9453 95.34677121212121
45.4102 96.38607121212122
46.875 97.30867121212121
48.3398 98.22737121212121
51.2695 99.98547121212121
52.7344 100.41547121212123
54.1992 100.7594712121212
55.6641 101.11647121212121
58.5938 101.4914712121212
60.0586 101.48847121212121
62.9883 101.34847121212123
64.4531 101.24947121212121
67.3828 101.02247121212122
68.8477 100.91747121212121
71.7773 100.70247121212121
74.707 100.44747121212121
77.6367 100.1774712121212
79.1016 100.08547121212122
82.0312 99.88047121212121
84.9609 99.58047121212122
87.8906 99.50247121212121
90.8203 99.35837121212121
95.2148 99.18897121212122
98.1445 99.02337121212122
101.074 98.84737121212122
105.469 98.71557121212122
108.398 98.74417121212123
112.793 98.68017121212121
117.188 98.62127121212121
120.117 98.6001712121212
124.512 98.59977121212121
128.906 98.51707121212121
133.301 98.40377121212121
139.16 98.23137121212122
143.555 98.16797121212123
147.949 98.26297121212122
153.809 98.25637121212121
159.668 98.40737121212122
165.527 98.40657121212122
171.387 98.26917121212121
177.246 98.18787121212121
183.105 98.13437121212122
188.965 98.18527121212121
196.289 98.50657121212122
203.613 98.43737121212122
210.938 98.48227121212123
218.262 98.40037121212121
225.586 98.45447121212122
232.91 98.65217121212122
241.699 98.46167121212123
250.488 98.80097121212121
259.277 99.00867121212121
268.066 98.71897121212122
276.855 98.71617121212121
287.109 98.88077121212122
297.363 99.03707121212122
307.617 99.02987121212121
319.336 98.68097121212121
329.59 98.64747121212123
341.309 98.61907121212121
353.027 98.73767121212121
366.211 99.10197121212121
379.395 98.97887121212122
392.578 98.51337121212121
405.762 98.52817121212121
420.41 99.51947121212122
435.059 98.9623712121212
451.172 99.84447121212122
465.82 99.84747121212122
483.398 99.69547121212122
499.512 99.84547121212121
517.09 99.38337121212122
536.133 99.97647121212121
555.176 100.60247121212122
574.219 100.46347121212122
594.727 100.20447121212122
615.234 100.19247121212122
637.207 100.58547121212122
659.18 101.00147121212122
682.617 100.68547121212121
707.52 100.59747121212122
732.422 100.05047121212121
757.324 99.89547121212121
785.156 98.38317121212121
811.523 99.43047121212122
840.82 100.27547121212122
870.117 99.13687121212122
900.879 99.91447121212123
933.105 99.46347121212122
965.332 100.15847121212123
1000.49 100.42047121212121
1035.64 100.04247121212121
1072.27 99.80847121212122
1108.89 100.00947121212121
1148.44 100.55347121212121
1189.45 100.37747121212121
1230.47 100.62147121212121
1274.41 100.15247121212121
1319.82 100.21347121212122
1366.7 99.92847121212121
1413.57 100.12747121212121
1463.38 99.94247121212122
1516.11 99.92547121212121
1568.85 99.0420712121212
1624.51 99.58047121212122
1681.64 99.44847121212122
1741.7 100.54447121212121
1803.22 100.76947121212122
1866.21 99.78447121212122
1932.13 98.90447121212121
1999.51 99.15787121212121
2069.82 100.49047121212121
2143.07 100.30847121212123
2219.24 99.04647121212122
2296.88 99.16457121212123
2378.91 99.19297121212121
2462.4 98.90927121212121
2548.83 99.13727121212123
2639.65 99.2927712121212
2731.93 98.26737121212123
2828.61 98.7031712121212
2928.22 98.78137121212121
3030.76 98.45887121212121
3137.7 99.03727121212121
3249.02 99.55947121212121
3363.28 100.23147121212124
3481.93 100.37047121212122
3604.98 100.0404712121212
3732.42 100.18747121212121
3864.26 100.29147121212121
4000.49 100.60747121212121
4141.11 100.44947121212122
4287.6 100.85147121212121
4438.48 99.9634712121212
4595.21 101.34047121212122
4756.35 100.87447121212121
4924.8 101.19347121212121
5097.66 100.41447121212121
5277.83 99.97947121212121
5463.87 100.33247121212122
5657.23 100.16247121212122
5856.45 100.47547121212123
6062.99 100.88047121212121
6276.86 101.24647121212121
6498.05 101.03747121212122
6726.56 100.33647121212121
6963.87 100.39747121212122
7209.96 100.93347121212123
7464.84 101.36847121212121
7727.05 101.39647121212121
7999.51 99.77847121212122
8282.23 98.61677121212121
8573.73 97.86927121212122
8876.95 98.05807121212122
9188.96 97.86697121212121
9514.16 98.42527121212122
9849.61 98.42487121212122
10196.8 98.88877121212123
10555.7 99.12027121212121
10927.7 99.30727121212121
11313.0 99.66447121212121
11712.9 99.7534712121212
12126.0 99.58847121212122
12553.7 99.59347121212123
12996.1 99.49747121212121
13454.6 99.13487121212121
13929.2 98.9990712121212
14419.9 98.84177121212123
14928.2 98.85127121212122
15455.6 99.01177121212122
16000.5 99.19707121212122
16564.5 99.19977121212122
17148.9 99.12557121212122
17752.4 98.72207121212121
18379.4 98.17377121212122
19026.9 97.46717121212122
19697.8 97.13667121212121
19999.5 97.19517121212121
