Freq "Floor Bounce"
22.4 21.16845083805434
23.0 21.734351408685015
23.6 22.068450838054318
24.0 22.168450838054312
25.0 21.968450838054324
25.8 21.36845083805433
26.5 20.16845083805434
27.2 18.10076749445561
28.0 14.800767494455599
29.0 13.434351408685004
30.0 18.40076749445562
30.7 23.3007674944556
31.5 27.000767494455587
32.5 29.934351408685004
33.5 32.40076749445562
34.5 34.50076749445559
35.5 36.40076749445562
36.5 38.200767494455604
37.5 39.8007674944556
38.7 41.40076749445562
40.0 43.10076749445561
41.2 44.700767494455604
42.5 46.40076749445562
43.7 48.000767494455616
45.0 49.70076749445562
46.2 51.30076749445561
47.5 52.80076749445563
48.7 54.3007674944556
50.0 55.700767494455604
51.5 57.06845083805432
53.0 58.33435140868501
54.5 59.56845083805432
56.0 60.768450838054335
58.0 61.86845083805433
60.0 62.90076749445562
61.5 63.93435140868502
63.0 64.86845083805433
65.0 65.7007674944556
67.0 66.50076749445562
69.0 67.26845083805433
71.0 67.86845083805433
73.0 68.46845083805432
75.0 68.96845083805432
77.5 69.30076749445563
80.0 69.63513059177983
82.5 69.86845083805433
85.0 70.06845083805433
87.5 70.26845083805433
90.0 70.36845083805433
92.5 70.50076749445562
95.0 70.60076749445561
97.5 70.60076749445561
100.0 70.60076749445561
103.0 70.50076749445562
106.0 70.36845083805433
109.0 70.30076749445563
112.0 70.23513059177982
115.0 70.16845083805433
118.0 70.10076749445561
122.0 69.96845083805432
125.0 69.76845083805433
128.0 69.50076749445562
132.0 69.36845083805433
136.0 69.40076749445562
140.0 69.46845083805432
145.0 69.46845083805432
150.0 69.26845083805433
155.0 69.06845083805433
160.0 69.00306957104252
165.0 69.00306957104252
170.0 69.10306957104251
175.0 69.07150800786938
180.0 68.87150800786937
185.0 68.84044167945491
190.0 69.0404416794549
195.0 69.27609175449221
200.0 69.27609175449221
206.0 69.18219967332304
212.0 69.18219967332304
218.0 68.85260953202217
224.0 68.15260953202217
230.0 67.88982856673472
236.0 68.88982856673472
240.0 70.08982856673472
250.0 70.86096514237182
258.0 71.1234968506598
265.0 70.88982856673472
272.0 70.28982856673473
280.0 70.02758719283592
290.0 69.46096514237182
300.0 68.76096514237183
307.0 68.42758719283592
315.0 67.93257218046558
325.0 67.20963256681621
335.0 66.68219812790055
345.0 65.72179738688895
355.0 64.86194867563765
365.0 64.00942248426018
375.0 63.32526453928848
387.0 63.16726558859611
400.0 63.12875610128313
412.0 63.058657240178704
425.0 62.92643297742508
437.0 62.71904449785342
450.0 62.54520516099383
462.0 62.245205160993834
475.0 61.687599236842175
487.0 61.639209821111436
500.0 63.45295536787778
515.0 64.34391724861638
530.0 64.90473530118575
545.0 65.6566725593005
560.0 66.74898514879551
580.0 67.27387961222816
600.0 67.40231994589774
615.0 67.40076749445561
630.0 67.07001488257477
650.0 67.00306957104253
670.0 67.33435140868504
690.0 68.60076749445562
710.0 69.33964531976001
730.0 69.25017075212573
750.0 68.86668552790022
775.0 68.19749950966177
800.0 67.91152326304965
825.0 68.50722417372364
850.0 69.29408963790566
875.0 69.72022160616295
900.0 69.73268615537793
925.0 69.63779821661223
950.0 68.91595200332334
975.0 68.38256065499534
1000.0 67.88835946822155
1030.0 67.20489348120857
1060.0 66.62963782068198
1090.0 66.90252973822756
1120.0 67.0149838201147
1150.0 65.94347039029353
1180.0 65.03601044983643
1220.0 65.4162794008364
1250.0 65.53821129888743
1280.0 66.3950645803583
1320.0 66.83392832814569
1360.0 66.14293979360191
1400.0 65.25866027600834
1450.0 64.23753193576904
1500.0 63.55800804769342
1550.0 63.3903788404772
1600.0 64.17283899448728
1650.0 64.87821671207985
1700.0 64.5026382005589
1750.0 64.18657023787739
1800.0 63.90190205851478
1850.0 64.51845254529691
1900.0 63.6171946831857
1950.0 62.03538998854158
2000.0 60.63518178555795
2060.0 60.44247521624436
2120.0 59.66246138862945
2180.0 60.98575513515685
2240.0 62.370178293878965
2300.0 62.37519822206198
2360.0 63.15108453698815
2400.0 62.30153110593811
2500.0 61.64391724861639
2580.0 60.55760166143479
2650.0 61.16739347033953
2720.0 62.108030589925065
2800.0 62.737173405072085
2900.0 63.11050916180376
3000.0 62.85824935780079
3070.0 62.191360161845765
3150.0 62.94127727300389
3250.0 63.476735556513816
3350.0 63.953554659617836
3450.0 64.24672638439607
3550.0 63.69562870961799
3650.0 63.169489990207765
3750.0 63.13353811062069
3870.0 62.531844645443655
4000.0 62.318989693107454
4120.0 61.73162666475967
4250.0 60.675001294636914
4370.0 60.085197058908975
4500.0 60.29064841572621
4620.0 60.664233149513294
4750.0 61.5117284643738
4870.0 61.46235742942078
5000.0 61.02188682922214
5150.0 59.79749950966175
5300.0 59.329909573851424
5450.0 59.73779821661222
5600.0 60.41832613468223
5800.0 60.77829095589381
6000.0 61.54245246948709
6150.0 62.20483374426469
6300.0 62.2753042618925
6500.0 61.57685732696835
6700.0 60.66193405585524
6900.0 59.93283404808126
7100.0 59.881550975009546
7300.0 59.803163769867226
7500.0 60.452159469293576
7750.0 62.73663334913202
8000.0 63.346870572223295
8250.0 61.07266776373736
8500.0 59.883754665357685
8750.0 60.72154865751024
9000.0 62.461648288629235
9250.0 63.80265761634969
9500.0 62.794857058831695
9750.0 62.9162794008364
10000.0 61.04464246181274
10300.0 63.787333185929256
10600.0 66.3824688751623
10900.0 64.34820073783065
11200.0 64.33557846745938
11500.0 64.3613718999222
11800.0 65.7294211669079
12200.0 65.70464912211595
12500.0 63.4023727738261
12800.0 64.67522260446091
13200.0 64.0770478620718
13600.0 64.94012802216376
14000.0 64.80028299312328
14500.0 67.18771920410634
15000.0 67.07013536601171
15500.0 67.06718462137125
16000.0 62.565059627444
16500.0 63.216056603119384
17000.0 61.62672897083863
17500.0 59.590960060799205
18000.0 60.59962038125224
18500.0 58.283207131306966
19000.0 59.30962289982695
19500.0 58.29746180480245
