Freq "Total Early Reflection"
22.4 20.71007917724812
23.0 21.24453631234134
23.6 21.586747515100043
24.0 21.695300404282293
25.0 21.48425830419201
25.8 20.864471456471605
26.5 19.670959992525624
27.2 17.615813387503906
28.0 14.332495288704777
29.0 12.952110495171539
30.0 17.91998081409706
30.7 22.792862139196885
31.5 26.502122637425472
32.5 29.478059257444457
33.5 31.953547980807215
34.5 34.077610396388465
35.5 35.987550518665486
36.5 37.7510316095772
37.5 39.40485600094512
38.7 41.04324476265121
40.0 42.684958941014244
41.2 44.32833840127314
42.5 46.00087051853396
43.7 47.65514619906848
45.0 49.29214975636687
46.2 50.895335105392945
47.5 52.41367326002771
48.7 53.894562796397835
50.0 55.305286008203026
51.5 56.65298068548553
53.0 57.912665402431585
54.5 59.14236829363014
56.0 60.321783494350555
58.0 61.41863980282146
60.0 62.47381732965671
61.5 63.48125034275962
63.0 64.39591759351269
65.0 65.26146920830719
67.0 66.0557530509296
69.0 66.78521666983454
71.0 67.42357954336883
73.0 67.98435196386538
75.0 68.4733613080525
77.5 68.8513298749596
80.0 69.14139852290943
82.5 69.39381824942394
85.0 69.57046225001787
87.5 69.73436578824185
90.0 69.8590934257069
92.5 69.97306545808287
95.0 70.03298250204354
97.5 70.04250942547012
100.0 69.9989382214893
103.0 69.895322236312
106.0 69.7613812320952
109.0 69.67038919754641
112.0 69.59447690350596
115.0 69.53112170766826
118.0 69.43529095808013
122.0 69.26858420955874
125.0 69.02011149730396
128.0 68.76036445195292
132.0 68.60797151131902
136.0 68.63772722905092
140.0 68.67960426513834
145.0 68.66277781693492
150.0 68.48424702583199
155.0 68.23082461653274
160.0 68.1357350212684
165.0 68.13381585074676
170.0 68.17336264052425
175.0 68.08274191219097
180.0 67.90246802433505
185.0 67.85413477714977
190.0 68.04885229573755
195.0 68.2672098638554
200.0 68.25747906151715
206.0 68.13583688351683
212.0 68.08538268230885
218.0 67.78928207299234
224.0 67.1775485078953
230.0 67.07381670746578
236.0 68.0998361389395
240.0 69.3114568294481
250.0 69.9751083932647
258.0 70.14818508907042
265.0 69.82826483076913
272.0 69.235888988766
280.0 68.99293123016464
290.0 68.44738259506242
300.0 67.70340894196836
307.0 67.37235839066251
315.0 66.92288146663692
325.0 66.38536982003096
335.0 66.06013233343553
345.0 65.2618786464146
355.0 64.52322498881118
365.0 63.879416544312974
375.0 63.43825995123315
387.0 63.44908074390112
400.0 63.523796997515646
412.0 63.52419109326985
425.0 63.45784624293559
437.0 63.36342679904887
450.0 63.2977615738679
462.0 63.00664692426834
475.0 62.31952785231056
487.0 62.1602509518988
500.0 63.84123768234042
515.0 64.35592423173115
530.0 64.42694088119404
545.0 64.84553760412777
560.0 65.77106394633498
580.0 66.26671818940147
600.0 66.4702764953961
615.0 66.36869349064234
630.0 65.91146996605382
650.0 65.60646808963934
670.0 65.7321061681152
690.0 66.71573696343683
710.0 67.12389742062311
730.0 66.73742767689686
750.0 66.21979730497978
775.0 65.36959676313556
800.0 64.7535286730669
825.0 64.97692851083441
850.0 65.5488431990666
875.0 65.84612927797765
900.0 65.84042726473517
925.0 66.00498793216481
950.0 65.7408847056664
975.0 65.50483699586205
1000.0 65.38621885592796
1030.0 65.16984711745614
1060.0 64.75017973047814
1090.0 64.76661292701063
1120.0 64.7696845758013
1150.0 64.0407285985221
1180.0 63.68369144000623
1220.0 64.95639130207857
1250.0 65.20767116675715
1280.0 65.38094149477332
1320.0 65.24188920734478
1360.0 64.63844342592577
1400.0 63.84529350237099
1450.0 62.725228338334645
1500.0 62.097500535374124
1550.0 62.02900582789137
1600.0 62.982455601024384
1650.0 63.623372889929215
1700.0 63.22350149460108
1750.0 62.9396037390367
1800.0 62.80170442240487
1850.0 63.2001024556527
1900.0 63.01760152929705
1950.0 62.977709276847975
2000.0 62.274171749832135
2060.0 61.96509848841845
2120.0 60.946610879261584
2180.0 61.12061627666243
2240.0 61.29007385069127
2300.0 60.7954108000047
2360.0 61.41370161583494
2400.0 60.65998451873081
2500.0 60.05021800898889
2580.0 59.83333470476741
2650.0 60.36771450901982
2720.0 61.179024304930564
2800.0 61.56838410332833
2900.0 61.38581636987712
3000.0 60.70966667752323
3070.0 60.16884505300577
3150.0 60.49363470084802
3250.0 60.67785776546171
3350.0 60.72395702837109
3450.0 61.114936417532576
3550.0 61.45191161917229
3650.0 61.603584775688816
3750.0 61.83526129994449
3870.0 61.923223554178946
4000.0 61.176940762332464
4120.0 60.20594596072351
4250.0 59.75751754611676
4370.0 59.81415254463239
4500.0 60.48411777139093
4620.0 61.36999687110871
4750.0 61.04786434934202
4870.0 60.615766352478644
5000.0 61.1707941298216
5150.0 60.81860163397057
5300.0 61.20180068915123
5450.0 61.70464199999783
5600.0 62.003578983683326
5800.0 62.12802387394673
6000.0 62.23439035179358
6150.0 62.37199642453699
6300.0 62.24951291692902
6500.0 61.712998231521084
6700.0 61.838154408338426
6900.0 61.429514841135315
7100.0 61.36929179149497
7300.0 60.55149737237271
7500.0 60.89639330561333
7750.0 62.45128434084525
8000.0 62.85346935830856
8250.0 60.8911757323248
8500.0 60.249750249358215
8750.0 61.64052092124699
9000.0 63.22387316776941
9250.0 63.8989978165487
9500.0 62.653460292014785
9750.0 62.4798160064542
10000.0 62.47798630936035
10300.0 64.57962730088414
10600.0 64.90606604075805
10900.0 62.86850533528431
11200.0 62.86094246675711
11500.0 63.50597998631437
11800.0 64.24494810427103
12200.0 63.488742710804146
12500.0 63.93508150423894
12800.0 64.50640853575409
13200.0 61.85072858887976
13600.0 63.34067759358308
14000.0 62.94161405115763
14500.0 64.65918567585572
15000.0 64.59356990433444
15500.0 63.72164036660064
16000.0 59.907427542131714
16500.0 60.684808387980965
17000.0 60.711466033289526
17500.0 58.77613914229495
18000.0 58.24687767726651
18500.0 57.285333056791956
19000.0 57.79499480954554
19500.0 56.95024072316062
