Freq "Total Early Reflection"
22.4 21.701218417754475
23.0 22.235675552847667
23.6 22.5778867556064
24.0 22.68643964478862
25.0 22.47539754469834
25.8 21.855610696977962
26.5 20.662099233031924
27.2 18.606952628010234
28.0 15.323634529211105
29.0 13.943249735677838
30.0 18.911120054603415
30.7 23.78400137970324
31.5 27.4932618779318
32.5 30.469198497950813
33.5 32.94468722131354
34.5 35.06874963689482
35.5 36.97868975917184
36.5 38.742170850083525
37.5 40.395995241451445
38.7 42.03438400315754
40.0 43.67609818152057
41.2 45.31947764177947
42.5 46.9920097590403
43.7 48.64628543957481
45.0 50.283288996873196
46.2 51.88647434589927
47.5 53.404812500534035
48.7 54.88570203690418
50.0 56.29642524870938
51.5 57.64411992599187
53.0 58.903804642937914
54.5 60.133507534136456
56.0 61.31292273485691
58.0 62.409779043327774
60.0 63.464956570163025
61.5 64.47238958326595
63.0 65.38705683401902
65.0 66.2526084488135
67.0 67.04689229143592
69.0 67.77635591034087
71.0 68.41471878387516
73.0 68.9754912043717
75.0 69.46450054855883
77.5 69.84246911546593
80.0 70.13253776341575
82.5 70.38495748993026
85.0 70.5616014905242
87.5 70.72550502874816
90.0 70.85023266621323
92.5 70.9642046985892
95.0 71.02412174254987
97.5 71.03364866597643
100.0 70.99007746199564
103.0 70.88646147681835
106.0 70.75252047260153
109.0 70.66152843805274
112.0 70.58561614401229
115.0 70.52226094817459
118.0 70.42643019858646
122.0 70.25972345006505
125.0 70.01125073781029
128.0 69.75150369245925
132.0 69.59911075182535
136.0 69.62886646955725
140.0 69.67074350564467
145.0 69.65391705744123
150.0 69.47538626633833
155.0 69.22196385703907
160.0 69.12687426177473
165.0 69.12495509125309
170.0 69.16450188103059
175.0 69.07388115269733
180.0 68.89360726484138
185.0 68.84527401765608
190.0 69.03999153624387
195.0 69.25834910436173
200.0 69.24861830202349
206.0 69.12697612402316
212.0 69.07652192281516
218.0 68.78042131349866
224.0 68.16868774840162
230.0 68.06495594797211
236.0 69.09097537944584
240.0 70.30259606995445
250.0 70.96624763377105
258.0 71.13932432957675
265.0 70.81940407127546
272.0 70.22702822927234
280.0 69.98407047067097
290.0 69.43852183556875
300.0 68.69454818247469
307.0 68.36349763116883
315.0 67.91402070714324
325.0 67.37650906053729
335.0 67.05127157394185
345.0 66.25301788692094
355.0 65.51436422931751
365.0 64.8705557848193
375.0 64.42939919173948
387.0 64.44021998440743
400.0 64.51493623802197
412.0 64.51533033377618
425.0 64.44898548344193
437.0 64.3545660395552
450.0 64.28890081437423
462.0 63.997786164774666
475.0 63.310667092816885
487.0 63.15139019240513
500.0 64.83237692284673
515.0 65.34706347223748
530.0 65.41808012170036
545.0 65.8366768446341
560.0 66.76220318684129
580.0 67.25785742990779
600.0 67.46141573590243
615.0 67.35983273114866
630.0 66.90260920656013
650.0 66.59760733014568
670.0 66.72324540862152
690.0 67.70687620394315
710.0 68.11503666112944
730.0 67.72856691740319
750.0 67.21093654548609
775.0 66.36073600364189
800.0 65.74466791357321
825.0 65.96806775134074
850.0 66.53998243957294
875.0 66.83726851848398
900.0 66.8315665052415
925.0 66.99612717267112
950.0 66.73202394617273
975.0 66.49597623636835
1000.0 66.37735809643429
1030.0 66.16098635796247
1060.0 65.74131897098447
1090.0 65.75775216751695
1120.0 65.76082381630765
1150.0 65.03186783902844
1180.0 64.67483068051256
1220.0 65.94753054258491
1250.0 66.1988104072635
1280.0 66.37208073527965
1320.0 66.23302844785111
1360.0 65.6295826664321
1400.0 64.83643274287732
1450.0 63.71636757884097
1500.0 63.08863977588044
1550.0 63.02014506839771
1600.0 63.9735948415307
1650.0 64.61451213043554
1700.0 64.21464073510741
1750.0 63.93074297954303
1800.0 63.792843662911196
1850.0 64.19124169615905
1900.0 64.00874076980338
1950.0 63.9688485173543
2000.0 63.26531099033846
2060.0 62.956237728924776
2120.0 61.93775011976791
2180.0 62.111755517168746
2240.0 62.2812130911976
2300.0 61.786550040511045
2360.0 62.404840856341266
2400.0 61.65112375923714
2500.0 61.04135724949522
2580.0 60.82447394527375
2650.0 61.35885374952615
2720.0 62.17016354543689
2800.0 62.55952334383467
2900.0 62.37695561038345
3000.0 61.700805918029545
3070.0 61.159984293512096
3150.0 61.48477394135435
3250.0 61.66899700596804
3350.0 61.71509626887742
3450.0 62.106075658038904
3550.0 62.44305085967862
3650.0 62.594724016195144
3750.0 62.82640054045082
3870.0 62.91436279468526
4000.0 62.168080002838806
4120.0 61.197085201229825
4250.0 60.74865678662309
4370.0 60.80529178513872
4500.0 61.475257011897256
4620.0 62.36113611161504
4750.0 62.03900358984836
4870.0 61.60690559298499
5000.0 62.16193337032793
5150.0 61.8097408744769
5300.0 62.192939929657555
5450.0 62.69578124050416
5600.0 62.99471822418964
5800.0 63.11916311445306
6000.0 63.22552959229991
6150.0 63.363135665043316
6300.0 63.24065215743538
6500.0 62.70413747202741
6700.0 62.829293648844754
6900.0 62.42065408164163
7100.0 62.36043103200129
7300.0 61.542636612879036
7500.0 61.887532546119644
7750.0 63.442423581351576
8000.0 63.84460859881489
8250.0 61.88231497283111
8500.0 61.24088948986453
8750.0 62.6316601617533
9000.0 64.21501240827574
9250.0 64.89013705705504
9500.0 63.64459953252111
9750.0 63.47095524696053
10000.0 63.469125549866675
10300.0 65.57076654139047
10600.0 65.89720528126438
10900.0 63.859644575790625
11200.0 63.85208170726345
11500.0 64.49711922682071
11800.0 65.23608734477737
12200.0 64.47988195131047
12500.0 64.92622074474527
12800.0 65.49754777626042
13200.0 62.84186782938612
13600.0 64.33181683408941
14000.0 63.93275329166397
14500.0 65.65032491636205
15000.0 65.58470914484077
15500.0 64.71277960710697
16000.0 60.89856678263807
16500.0 61.67594762848731
17000.0 61.702605273795854
17500.0 59.767278382801294
18000.0 59.238016917772825
18500.0 58.276472297298284
19000.0 58.7861340500519
19500.0 57.94137996366695
