Freq "Ceiling Bounce"
22.4 52.408579423012554
23.0 52.06064015833991
23.6 51.75197394722939
24.0 51.411739936485944
25.0 51.18235190144293
25.8 50.96492545246575
26.5 50.85134474723408
27.2 50.994408750090685
28.0 51.50483666385907
29.0 52.556726688120065
30.0 54.212734083115734
30.7 56.07192538006943
31.5 57.13157258835862
32.5 56.112787581031654
33.5 53.695358184082
34.5 51.13324898851761
35.5 48.78795641685117
36.5 46.719490660746104
37.5 44.9444690424469
38.7 43.37163626839116
40.0 42.0504623256338
41.2 41.01836150426624
42.5 40.27286465227726
43.7 39.74868979546672
45.0 39.4838930417108
46.2 39.26577141105061
47.5 39.06096625209682
48.7 38.836123620826484
50.0 38.88561620017752
51.5 39.32776035838556
53.0 40.466717024681415
54.5 43.25427931284739
56.0 50.20517981536645
58.0 49.376740659960646
60.0 41.27521320264587
61.5 36.51711650236818
63.0 32.6799875029881
65.0 29.33015251664493
67.0 26.370597640268088
69.0 24.594548793362506
71.0 24.555948093853047
73.0 25.89733745170105
75.0 28.15926274844732
77.5 30.734512763419886
80.0 33.966717024681415
82.5 39.385736038642065
85.0 45.49647983009636
87.5 39.25776478047092
90.0 34.424243898521226
92.5 30.55180809289554
95.0 26.75560866563559
97.5 22.716506653770324
100.0 18.982673820306005
103.0 19.15588092968771
106.0 25.25472628659098
109.0 33.65118017459572
112.0 34.45299799878154
115.0 29.896785479228086
118.0 26.74321062726743
122.0 23.95152653875502
125.0 21.426375183092418
128.0 19.3393676501518
132.0 18.076579383176792
136.0 23.220796691355005
140.0 23.26745042730927
145.0 20.814895500052828
150.0 20.080987481852375
155.0 20.910556965642613
160.0 23.896408615660718
165.0 29.747412981843027
170.0 28.30907886704533
175.0 19.98731246870571
180.0 14.773661894301128
185.0 11.105552959181708
190.0 8.932859230840748
195.0 10.268590459339194
200.0 13.886083729334743
206.0 18.00015750233605
212.0 23.598636430777574
218.0 32.99138540383123
224.0 33.15099006382057
230.0 28.009620747548368
236.0 25.394601300370795
240.0 26.129654865283925
250.0 17.974765955973837
258.0 6.7552228089629835
265.0 7.391231786135975
272.0 6.499419968890734
280.0 11.999392709931172
290.0 16.052976291647994
300.0 24.29976993650095
307.0 25.428692453677954
315.0 22.406117552646677
325.0 24.342247021499503
335.0 22.42515388272561
345.0 31.786554008194315
355.0 41.30415259732058
365.0 43.75118151525601
375.0 47.060535437271696
387.0 48.63725864630412
400.0 38.10049345838577
412.0 42.36921447789369
425.0 28.96945312561708
437.0 31.41764155155481
450.0 28.059062636575078
462.0 32.71274856143424
475.0 32.70921325368947
487.0 25.432069271977042
500.0 23.484369795642166
515.0 31.463562807021603
530.0 27.391802476601995
545.0 24.452290446004824
560.0 20.928122336748373
580.0 22.37975315647445
600.0 20.394383590220173
615.0 29.4220390990708
630.0 30.66409016530517
650.0 30.616224950479662
670.0 30.435462631346823
690.0 32.005179203558754
710.0 34.53728906550862
730.0 34.830314499634866
750.0 39.11828671879964
775.0 37.37826127012876
800.0 33.236693998093145
825.0 42.07436938191823
850.0 35.23456576856323
875.0 41.94749797870256
900.0 43.25068007327056
925.0 41.63841347846598
950.0 43.397360519760085
975.0 41.279706785190754
1000.0 42.60125229338914
1030.0 43.66419800295965
1060.0 47.12249132128153
1090.0 48.85456071224341
1120.0 50.78173928668521
1150.0 51.16684147487969
1180.0 52.86083117075627
1220.0 54.14870006333807
1250.0 54.178146030374876
1280.0 54.17877622077758
1320.0 53.39485705883172
1360.0 53.28656646311248
1400.0 53.589828566734724
1450.0 54.96493035341096
1500.0 56.615547610082544
1550.0 57.984981820899804
1600.0 58.76879501847296
1650.0 58.43913968958947
1700.0 57.78318629029515
1750.0 57.759273472205464
1800.0 59.508369338517724
1850.0 62.04348045505539
1900.0 63.47908325749934
1950.0 64.01065864377773
2000.0 64.92989801244427
2060.0 66.6034858149106
2120.0 68.61210408739812
2180.0 70.49490425461165
2240.0 71.84847788977014
2300.0 72.27379771620177
2360.0 72.27182978310016
2400.0 72.723470113973
2500.0 74.73557346045841
2580.0 76.58022571487501
2650.0 77.03184209379187
2720.0 76.78042420054253
2800.0 77.07858591559146
2900.0 77.64938818866528
3000.0 77.46937090358104
3070.0 76.62566031429832
3150.0 75.58382160833152
3250.0 76.90252973822756
3350.0 77.12934077441656
3450.0 75.36996121118248
3550.0 74.74856087246027
3650.0 75.96406466522845
3750.0 73.63268757119693
3870.0 72.94558914328654
4000.0 74.08853566764779
4120.0 70.1543335710674
4250.0 68.45260953202218
4370.0 72.86001642302817
4500.0 71.05345843440057
4620.0 68.91628511153326
4750.0 67.38988236549817
4870.0 70.9217299813534
5000.0 72.26946872863662
5150.0 68.83835530969328
5300.0 69.65131759580827
5450.0 68.88064061661163
5600.0 71.81356132206157
5800.0 72.19652302886954
6000.0 73.96219543008733
6150.0 76.1286929267758
6300.0 74.24996253557083
6500.0 69.55463624332228
6700.0 69.15865853259174
6900.0 69.84006170984442
7100.0 69.12314149400997
7300.0 67.39003514763905
7500.0 68.65638566828012
7750.0 67.65147047691812
8000.0 67.72081413224275
8250.0 72.48179134375295
8500.0 69.95421632114953
8750.0 67.1117828440728
9000.0 59.71753170733659
9250.0 68.97955768696194
9500.0 72.37234854105509
9750.0 67.11345808171812
10000.0 71.78141788538584
10300.0 69.02240726008677
10600.0 67.5819300013409
10900.0 65.53963019565519
11200.0 67.26879501847297
11500.0 68.29652302886953
11800.0 70.28442233424788
12200.0 69.4948466445546
12500.0 71.70219245694157
12800.0 72.18407681298945
13200.0 69.15423864669904
13600.0 74.41365764922521
14000.0 71.75820021338124
14500.0 75.19444369100746
15000.0 71.77340292400913
15500.0 70.85110908148616
16000.0 77.3931475510164
16500.0 76.68242977898933
17000.0 80.21961909772875
17500.0 74.87605031892794
18000.0 67.64469971520553
18500.0 64.07593383802708
19000.0 61.70645396253421
19500.0 49.41053892241287
