Freq,On Axis,Listening Window,Sound Power,Early Reflections,Early Reflections DI,Sound Power DI,DI offset
20.507813,60.926394,60.99854577639293,66.58757469969206,63.05071560741467,37.94783016897826,34.410971076700875,40
21.972656,63.63094600000001,63.6799761841489,68.43466509720929,65.30698824321401,38.37298794093489,35.24531108693961,40
23.4375,66.125241,66.16570749900768,70.21914384396622,67.48656894405615,38.679138554951535,35.94656365504146,40
24.902344,68.440052,68.47873858600113,71.89725415260612,69.55328771305491,38.925450872946215,36.581484433395005,40
26.367188,70.525538,70.55758854357322,73.42430417620601,71.41238288425473,39.14520565931849,37.13328436736721,40
27.832031,72.133212,72.1645010382628,74.6583697318159,72.89272040262362,39.271780635639175,37.5061313064469,40
29.296875,73.447804,73.47957247239661,75.68492495585211,74.12230338782956,39.35726908456705,37.7946475165445,40
30.761719,74.31838,74.35479501601476,76.41971090788874,74.97929975474092,39.37549526127384,37.93508410812602,40
32.226563,75.369112,75.39668424904656,77.03962101708025,75.85836800726831,39.53831624177825,38.35706323196631,40
33.691406,75.59522599999998,75.62638964513329,77.25589828254165,76.09507147370422,39.531318171429064,38.370491362591636,40
35.15625,76.373292,76.40176950197149,77.79257031853646,76.78752589307437,39.61424360889711,38.609199183435024,40
36.621094,76.912359,76.93976228194818,78.19331874390033,77.28483875919453,39.65492352275365,38.74644353804784,40
38.085938,77.349761,77.37680001954395,78.53076685428277,77.69457794708576,39.68222207245819,38.846033165261176,40
39.550781,77.777232,77.80380248812742,78.86917564809964,78.09711398649445,39.70668850163297,38.934626840027775,40
41.015625,78.186251,78.21274602954854,79.21296875751801,78.49006265118769,39.722683378360855,38.99977727203053,40
42.480469,78.60484099999998,78.6313332110207,79.57131968869568,78.89392520735416,39.737408003666545,39.06001352232502,40
43.945313,79.01373,79.04022255767674,79.92891759599068,79.29145687190878,39.748765685767964,39.11130496168606,40
45.410156,79.41943499999998,79.4460424624552,80.29196670706445,79.6877392614336,39.75830320102159,39.15407575539075,40
46.875,79.814917,79.84150544759353,80.64679509807438,80.07407800063699,39.767427446956546,39.194710349519156,40
48.339844,80.233018,80.2586911378063,81.00723081941779,80.47376573608697,39.78492540171932,39.25146031838851,40
51.269531,81.06793999999998,81.09218147882002,81.74764970963706,81.27929371826751,39.81288776055251,39.344531769182964,40
52.734375,81.412208,81.43597482238876,82.05560894673789,81.61282494681132,39.82314987557744,39.38036587565087,40
54.199219,81.726286,81.74938187413296,82.33438538955873,81.91564064457664,39.833741229556324,39.41499648457423,40
55.664063,82.068519,82.09042528168506,82.6297458545028,82.24078590498637,39.84963937669869,39.46067942718226,40
58.59375,82.696414,82.71620550486627,83.17502825326666,82.83748442577792,39.87872107908835,39.541177251599606,40
60.058594,83.01490200000002,83.03359003524443,83.44781431423367,83.1398869488054,39.89370308643903,39.58577572101076,40
62.988281,83.733398,83.74788650322559,84.03851320715087,83.80751950077013,39.94036700245546,39.709373296074716,40
64.453125,84.046253,84.05852344128893,84.29389306405697,84.09529783376323,39.9632256075257,39.76463037723195,40
67.382813,84.479093,84.49108881551685,84.69377670083719,84.51877946278574,39.9723093527311,39.797312114679656,40
68.847656,84.663543,84.67560906720212,84.86657160822243,84.70198993655666,39.97361913064546,39.80903745897969,40
71.777344,85.061475,85.07319071729187,85.24382732268809,85.09924455765884,39.97394615963303,39.829363394603774,40
74.707031,85.436414,85.44469182416118,85.52631515100316,85.43411802666127,40.010573797499916,39.91837667315802,40
77.636719,85.556988,85.56521006897796,85.63808567742986,85.55679407114606,40.008415997831904,39.927124391548105,40
79.101563,85.637219,85.64438855206433,85.69193568549285,85.62662648806665,40.01776206399768,39.95245286657148,40
82.03125,85.881427,85.88576020351731,85.85811278319856,85.83796445221,40.047795751307305,40.02764742031874,40
84.960938,86.028387,86.03196347150453,85.98394310561768,85.98129452707234,40.05066894443219,40.04802036588684,40
87.890625,86.08413799999998,86.08642271788526,86.0022817043783,86.0243102363726,40.062112481512656,40.08414101350695,40
90.820313,86.100405,86.10426373440724,86.03491863025526,86.05328142203776,40.050982312369484,40.06934510415198,40
95.214844,86.265692,86.26618662621343,86.15978669336323,86.20158168453474,40.06460494167868,40.106399932850195,40
98.144531,86.26290999999999,86.26471403567592,86.20470992706335,86.22464578833345,40.040068247342475,40.060004108612574,40
101.07422,86.22116899999999,86.22132257300707,86.19155164293802,86.19640946456089,40.024913108446185,40.02977093006905,40
105.46875,86.180414,86.17342108990805,86.11080628384924,86.13243230102867,40.040988788879375,40.062614806058804,40
108.39844,86.297831,86.28163840473428,86.08223374875355,86.17231523226839,40.10932317246589,40.19940465598073,40
112.79297,86.542299,86.51784485803555,86.14386473543627,86.32197348385502,40.19587137418053,40.37398012259928,40
117.1875,86.603984,86.581531280212,86.18026343183332,86.3787095193488,40.2028217608632,40.40126784837868,40
120.11719,86.54971000000002,86.5270829760457,86.15713649152369,86.34162421769953,40.18545875834617,40.36994648452202,40
124.51172,86.412737,86.3864388338459,85.98650915291238,86.18753172869386,40.198907105152045,40.399929680933525,40
128.90625,86.304771,86.27504118512051,85.852338421082,86.06938679997862,40.2056543851419,40.42270276403852,40
133.30078,86.27399,86.23948454624656,85.75901102179144,86.00627135369585,40.23321319255071,40.48047352445512,40
139.16016,86.029018,85.9969545534123,85.57112703391212,85.79906562931511,40.197888924097185,40.425827519500174,40
143.55469,85.769203,85.7348497422651,85.36049105217971,85.56305234820361,40.171797394061485,40.37435869008539,40
147.94922,85.618082,85.57685209338739,85.19392259376666,85.39741917816234,40.17943291522505,40.38292949962073,40
153.80859,85.564169,85.5125891346726,85.12020019140809,85.32056761882241,40.192021515850186,40.39238894326451,40
159.66797,85.567018,85.49647372557533,84.95881080632081,85.22323577335793,40.2732379522174,40.537662919254515,40
165.52734,85.720072,85.63488269804252,84.75908075121632,85.1929247460662,40.44195795197632,40.8758019468262,40
171.38672,85.537353,85.4603020136927,84.60066417786976,85.04286824428635,40.417433769406344,40.85963783582294,40
177.24609,85.15450599999998,85.06600799487055,84.3160846090981,84.69267021838768,40.37333777648287,40.74992338577245,40
183.10547,85.211418,85.09313243876834,84.01430008049097,84.53066017721713,40.56247226155121,41.07883235827737,40
188.96484,85.80506900000002,85.6675393773253,84.02352062343589,84.8196454956967,40.84789388162859,41.64401875388941,40
196.28906,86.435599,86.30652464200055,84.4065602815982,85.35581166497029,40.950712977030264,41.89996436040235,40
203.61328,86.457276,86.32994587096759,84.28102666827233,85.31768888354627,41.012256987421324,42.04891920269526,40
210.9375,85.82720100000002,85.70710578108151,83.75317741114254,84.76383329975955,40.943272481321955,41.953928369938964,40
218.26172,86.055522,85.92521894213506,83.71632489544453,84.87043791303809,41.05478102909697,42.20889404669053,40
225.58594,86.50981,86.3876196777967,83.84299643029502,85.20248139031163,41.185138287485074,42.54462324750169,40
232.91016,86.217516,86.1370335080871,83.97971006029256,85.1664433853273,40.9705901227598,42.15732344779454,40
241.69922,85.568182,85.46484124089307,83.62745802910825,84.63512045245864,40.82972078843443,41.83738321178481,40
250.48828,85.856051,85.7300089370347,83.66569282684858,84.76174860073105,40.96826033630364,42.06431611018611,40
259.27734,86.07887899999999,85.9568402859698,83.63938237679044,84.8643637141838,41.09247657178601,42.31745790917937,40
268.06641,85.28621599999998,85.18140932995098,83.16436356402305,84.26727707590284,40.91413225404814,42.01704576592793,40
276.85547,84.797633,84.65341932154931,82.64187211369894,83.74061376368228,40.91280555786703,42.01154720785037,40
287.10938,86.58248099999999,86.41772261616917,83.1076837401999,84.82246615762841,41.59525645854076,43.31003887596927,40
297.36328,87.022243,86.91965128210768,83.60032320372595,85.40170300700538,41.5179482751023,43.31932807838173,40
307.61719,85.88985800000002,85.83345460282254,83.33646364213695,84.76909626185076,41.06435834097178,42.496990960685594,40
319.33594,84.706573,84.59975916644562,82.73751482867085,83.84287859573519,40.756880570710436,41.86224433777477,40
329.58984,85.58269499999999,85.46295568088449,82.82326734054878,84.24917069770297,41.213784983181526,42.63968834033571,40
341.30859,86.379623,86.28631529655777,83.32600299059648,84.92467636608875,41.36163893046903,42.960312305961295,40
353.02734,86.231069,86.13604514303735,83.28646569757119,84.86415869206057,41.27188645097678,42.84957944546616,40
366.21094,85.249411,85.12220153620959,82.61489760009276,84.07558354148365,41.046617994725935,42.50730393611683,40
379.39453,85.860653,85.72181975439264,82.36943671249821,84.1439547154928,41.577865038899844,43.35238304189443,40
392.57813,87.00720399999999,86.93298802943652,83.19924357471011,85.11003182464687,41.82295620478965,43.733744454726406,40
405.76172,85.32698999999998,85.31334627824359,82.79024201130642,84.28512322892306,41.02822304932053,42.52310426693717,40
420.41016,85.034283,84.92302766112097,82.15751692502467,83.66621504128229,41.25681261983868,42.7655107360963,40
435.05859,85.72190199999999,85.62037928497541,82.27059910320402,83.93742223659446,41.682957048380956,43.34978018177139,40
451.17188,84.513927,84.41795667683841,82.00449901756514,83.26604780240487,41.151908874433545,42.41345765927328,40
465.82031,85.143311,85.02438272066586,81.7392488457501,83.38195694580722,41.64242577485864,43.28513387491576,40
483.39844,84.716093,84.56528578756958,81.72631701521486,83.2011704315081,41.364115356061475,42.83896877235472,40
499.51172,84.914306,84.75137713220685,81.67983452921237,83.13406622964429,41.617310902562565,43.071542602994484,40
517.08984,85.299967,85.06151554496157,81.85576132665538,83.04449155416243,42.01702399079913,43.20575421830618,40
536.13281,85.327895,85.02908563025052,81.7329040552011,82.85863087409574,42.17045475615478,43.29618157504942,40
555.17578,86.346281,85.94143682460799,81.82918496877038,83.15859240892455,42.78284441568344,44.11225185583761,40
574.21875,87.609045,87.12096828228285,82.03793346384806,83.76628511694851,43.354683165334336,45.08303481843478,40
594.72656,87.199267,86.77446566421274,81.52342507709427,83.34198056014034,43.4324851040724,45.25104058711847,40
615.23438,87.293075,86.91590970068064,81.91082250088185,83.61023372693099,43.30567597374966,45.005087199798794,40
637.20703,87.145237,86.68046625017264,81.46164986246716,83.00055551311276,43.679910737059885,45.21881638770549,40
659.17969,87.32917099999999,86.94394451749959,81.37643786729402,83.00738298100505,43.93656153649454,45.56750665020557,40
682.61719,86.954653,86.63515551717514,81.25034422659947,82.83574029668036,43.79941522049478,45.38481129057567,40
707.51953,87.294669,86.90714754446653,81.73983339275483,83.18197162205033,43.7251759224162,45.16731415171169,40
732.42188,87.669231,87.23589555086564,82.01144206692393,83.51126321609208,43.72463233477356,45.2244534839417,40
757.32422,87.688972,87.2940987339588,81.98687065547374,83.65552635213776,43.63857238182105,45.30722807848507,40
785.15625,87.99098099999999,87.49569123601351,81.89577312482773,83.61449352224273,43.88119771377079,45.59991811118579,40
811.52344,87.127261,86.73192942221097,81.47571005538417,82.93301088184667,43.7989185403643,45.2562193668268,40
840.82031,87.457511,87.03311104697015,81.91292405207405,83.38485145637011,43.648259590600034,45.1201869948961,40
870.11719,87.395744,86.92152488089333,81.95946785313531,83.70323803414426,43.218286846749066,44.96205702775802,40
900.87891,87.631994,87.09747983472457,82.01425246657507,83.85914306942855,43.23833676529601,45.083227368149494,40
933.10547,87.723088,87.22993557461662,81.91842339129458,83.82743832933558,43.40249724528104,45.31151218332204,40
965.33203,86.989335,86.51119482294641,81.12422529902474,83.25094464096911,43.2602501819773,45.386969523921664,40
1000.4883,86.73231700000001,86.18106499958772,80.94043936358392,83.21892074661854,42.96214425296918,45.2406256360038,40
1035.6445,86.4438,85.77680115591345,80.33006600708266,82.84738029714082,42.92942085877263,45.44673514883078,40
1072.2656,86.229473,85.49890305869549,79.86560406173906,82.45313399451874,43.04576906417675,45.63329899695643,40
1108.8867,85.94240799999999,85.23694444258483,79.67167450899377,82.32257631193522,42.914368130649606,45.565269933591054,40
1148.4375,85.96104999999999,85.25806581684492,79.57182517168009,82.15860730649904,43.09945851034588,45.68624064516483,40
1189.4531,85.85809,85.04886264292499,79.31278624116759,82.07900616579057,42.969856477134414,45.7360764017574,40
1230.4688,85.499249,84.79534726719591,79.13526003991736,82.01046708621448,42.78488018098143,45.66008722727855,40
1274.4141,85.554652,84.74848109421673,79.13087419233811,82.07748231046735,42.67099878374938,45.61760690187862,40
1319.8242,85.254635,84.55065284456528,79.14473756906288,82.30811097878099,42.24254186578429,45.405915275502394,40
1366.6992,85.40223999999999,84.67193464710836,79.16644127702152,82.36173358220378,42.310201064904575,45.50549337008684,40
1413.5742,85.604563,84.72181594094536,79.11617277133037,82.48415595653067,42.23765998441469,45.60564316961499,40
1463.3789,85.68922099999999,84.87435731260393,79.1296117513338,82.48986270959763,42.3844946030063,45.744745561270136,40
1516.1133,85.57394700000002,84.618091402483,78.72496258468176,82.20203643451627,42.41605496796673,45.89312881780124,40
1568.8477,84.962838,84.05180018296711,78.37080346043219,81.9142309334418,42.13756924952531,45.68099672253493,40
1624.5117,84.773752,83.8988381453386,78.07534485685204,81.72920228568218,42.169635859656424,45.82349328848656,40
1681.6406,85.084061,84.1807588013046,78.35335842504084,81.92306837170864,42.25769042959597,45.82740037626377,40
1741.6992,85.26025399999999,84.36896291018904,78.53360460064233,82.12469342062775,42.24426948956129,45.835358309546706,40
1803.2227,85.075033,84.08865091368592,78.40930341469218,82.11980728786817,41.968843625817755,45.67934749899375,40
1866.2109,84.544791,83.52200762905518,78.05843412199734,81.8540272787289,41.667980350326275,45.463573507057845,40
1932.1289,84.554419,83.62466824532548,78.04764427125157,81.94853905517247,41.676129190153006,45.57702397407391,40
1999.5117,85.27441,84.39759809161565,78.39700271995193,82.33632971243786,42.06126837917779,46.00059537166372,40
2069.8242,85.219771,84.33992112157652,78.46313751764256,82.40393860302261,41.935982518553914,45.87678360393396,40
2143.0664,84.21536399999998,83.48600025526939,77.9458708368159,81.89018707383995,41.595813181429435,45.54012941845349,40
2219.2383,84.342559,83.55420215097739,77.90163673912141,81.72692508023356,41.82727707074383,45.652565411855974,40
2296.875,84.670086,83.94031988633566,78.25987199920856,81.89684383073823,42.043476055597424,45.6804478871271,40
2378.9063,84.583917,83.93156076372543,78.4394385287301,81.97799613580874,41.95356462791669,45.492122234995335,40
2462.4023,84.300438,83.93828615175492,78.64365693115482,81.98887989928407,41.94940625247085,45.2946292206001,40
2548.8281,83.941859,83.88373849760292,78.67200481878784,81.87933592546624,42.004402572136684,45.21173367881508,40
2639.6484,83.409016,83.51723848677176,78.57305848017536,81.61630912326558,41.90092936350618,44.9441800065964,40
2731.9336,83.593896,83.73163585681233,78.90578820682174,81.74065364107658,41.990982215735755,44.82584764999059,40
2828.6133,83.57566899999999,83.86866074935966,79.08201734763877,81.74787163209736,42.120789117262305,44.786643401720895,40
2928.2227,83.35332800000002,83.58277199865917,79.03496256912176,81.48056416462204,42.10220783403713,44.54780942953741,40
3030.7617,83.88802400000002,83.88344140999004,79.00398780006302,81.53420991127503,42.349231498715014,44.879453609927026,40
3137.6953,84.64271999999998,84.48139787478937,79.30615450316726,81.90254679816168,42.578851076627686,45.1752433716221,40
3249.0234,84.566239,84.21573222126686,78.91982146871634,81.6367347821559,42.578997439110964,45.295910752550526,40
3363.2813,84.559849,84.03958946506303,78.41547333592816,81.3688227816553,42.670766683407734,45.624116129134876,40
3481.9336,83.990044,83.73834565744345,78.13480853208075,80.9935204600835,42.744825197359944,45.60353712536269,40
3604.9805,83.833724,83.56272671921634,78.00403475746884,80.67043414693416,42.89229257228219,45.5586919617475,40
3732.4219,83.367637,83.06783831082066,78.05190069953959,80.42354004108047,42.64429826974019,45.015937611281075,40
3864.2578,83.84427700000002,83.42341905895093,78.26094692159005,80.69552858472109,42.72789047422984,45.16247213736088,40
4000.4883,84.055873,83.5671360414576,78.17277355928356,80.80466594333885,42.762470098118754,45.394362482174046,40
4141.1133,84.50541,83.69814553643725,78.12957046454243,80.78347698454104,42.91466855189621,45.56857507189483,40
4287.5977,84.562843,83.77082521784648,78.36378861824666,80.91232641646094,42.85849880138554,45.40703659959982,40
4438.4766,85.327177,84.07512911004062,78.67779498468849,81.42736999949443,42.64775911054619,45.39733412535213,40
4595.2148,85.422255,84.05971181840447,78.80368417712464,81.73063115799899,42.32908066040548,45.25602764127983,40
4756.3477,85.538088,84.39309562287664,78.83592649667216,81.9318160027944,42.46127962008224,45.557169126204485,40
4924.8047,84.65055199999999,83.82962071225923,78.46783680078005,81.56975045034143,42.2598702619178,45.36178391147918,40
5097.6563,84.70039900000002,83.99135908634052,78.31288394103159,81.55196557401682,42.439393512323704,45.67847514530894,40
5277.832,84.57141800000001,83.93558626420027,78.26533928493178,81.52816483707596,42.407421427124305,45.670246979268484,40
5463.8672,84.167043,83.81793223380559,78.46073467213992,81.52421855815493,42.293713675650665,45.35719756166567,40
5657.2266,84.651461,84.28210987912851,78.47745561148955,81.81736346198518,42.46474641714333,45.804654267638966,40
5856.4453,85.373916,84.74322108945465,78.59961408060592,82.03810111030819,42.70511997914646,46.14360700884873,40
6062.9883,85.397778,84.76319435171634,78.58374692970912,81.99732221324301,42.76587213847333,46.179447422007215,40
6276.8555,85.73958899999998,85.00513920084258,78.47581961808062,81.97170072987483,43.03343847096775,46.52931958276196,40
6498.0469,85.61326800000002,84.78512790593571,78.04770808404257,81.64830551082645,43.13682239510926,46.73741982189314,40
6726.5625,85.589038,84.74859375519365,77.95146854545082,81.48284361150232,43.265750143691335,46.79712520974283,40
6963.8672,85.311322,84.4746566464064,77.51124798067981,81.06497681239124,43.409679834015165,46.96340866572659,40
7209.9609,85.107711,84.2750645619951,77.1950203909585,80.77654544160369,43.49851912039141,47.08004417103659,40
7464.8438,85.462926,84.4726525892989,77.23895701310485,80.9107354062468,43.5619171830521,47.23369557619405,40
7727.0508,85.371624,84.40622727109272,77.04745310983533,80.84503100756024,43.56119626353248,47.35877416125739,40
7999.5117,85.24479,84.41682654850705,76.86114805732673,80.68207280118095,43.734753747326096,47.555678491180316,40
8282.2266,85.271045,84.54347583530416,76.73061198706542,80.63829371574498,43.905182119559186,47.81286384823875,40
8573.7305,85.431347,84.50440514980232,76.4784390472136,80.61443732140688,43.88996782839544,48.025966102588725,40
8876.9531,85.276727,84.34727828861496,76.24601543639407,80.54923505824097,43.79804323037399,48.101262852220884,40
9188.9648,84.847148,84.2688332479466,76.11714056588278,80.40352038915516,43.86531285879144,48.151692682063825,40
9514.1602,84.499005,84.23421547139303,76.02744412596834,80.32246314653703,43.911752324855996,48.206771345424684,40
9849.6094,84.562945,84.27086039745625,75.9835028961099,80.32969516514437,43.941165232311874,48.28735750134635,40
