Freq "Estimated In-Room Response"
20.5078 63.99013903017223
21.9727 65.03379049479307
23.4375 66.2479142645627
25.6348 67.73094025771206
27.0996 68.64347833927684
29.2969 70.00607968730077
31.4941 71.22489190115245
33.6914 72.18293968609105
35.8887 73.25332993828248
38.8184 74.59756925055629
41.0156 75.60838248129615
43.9453 76.8969484219536
47.6074 78.33599710284332
50.5371 79.40046340555693
54.1992 80.69750591919579
58.5938 82.1055762688458
62.2559 83.03407064244337
66.6504 84.21270133561933
71.7773 85.36668710851798
76.9043 86.45247525723163
82.7637 87.45960654460052
88.623 88.25434593282331
94.4824 88.79526525482498
101.807 89.18157909823006
109.131 89.40021003653796
116.455 89.4732885252497
125.244 89.33543897348416
134.033 89.13545327796285
143.555 89.00134407580566
153.809 88.98963854864469
164.795 89.36493502236033
176.514 89.25907421113949
189.697 89.30689958202103
202.881 89.16528249986179
217.529 88.79584133232414
232.91 88.62947723826548
249.756 88.04357148567128
268.066 87.5380000759447
287.109 88.02009337216214
307.617 87.95778725254283
329.59 87.52492635548441
353.76 87.71789713290075
378.662 87.97953404367254
405.762 87.43630884879794
435.059 87.358373396932
466.553 87.43317056230927
500.244 86.73912844027258
536.133 86.60958009902878
574.219 87.27157141812984
615.234 87.2101179081926
659.912 87.05888404776452
706.787 86.68048937106104
758.057 86.57480340062665
812.256 85.86601035210111
870.85 85.76781899215214
933.105 85.82822479398385
999.756 85.54315123242222
1071.53 85.28506255997473
1148.44 86.32869991955653
1231.2 87.39812156381433
1319.82 87.16464974994055
1414.31 86.73573109786858
1515.38 86.91192530230174
1624.51 86.40780663474537
1740.97 85.75762155526704
1866.21 84.6557292784386
2000.24 84.51706300811759
2143.8 84.67583937942238
2297.61 85.14907752702246
2462.4 85.27402968239889
2638.92 85.58550369419135
2828.61 85.97212982724416
3031.49 85.79006714521051
3249.02 86.09560574291774
3481.93 85.68672363680429
3732.42 85.44237370075399
3999.76 85.22789194560696
4286.87 85.20070760795868
4594.48 85.44955884865416
4924.8 85.52267557166408
5277.83 85.47996569090517
5656.49 85.10725803612873
6062.99 85.10261058438432
6498.05 85.42560953992773
6964.6 85.5124222752191
7464.11 84.89734004030879
8000.24 83.65925340017951
8574.46 84.62207890550089
9189.7 84.3906158835287
9848.88 83.12295923751708
10556.4 83.61649396160948
11313.7 83.16332322832164
12126.0 81.647784880097
12996.1 81.87068459794341
13928.5 81.10729347153219
14928.2 80.09080556703691
15999.8 79.59500658399534
17148.2 78.6222682959949
18379.4 78.03158377661342
19698.5 78.15174920605104
19999.5 78.97076788380139
