Freq "Estimated In-Room Response"
20.507813 60.38428414502599
21.972656 61.539781260931065
23.4375 63.311578168092225
24.902344 64.38098303410565
26.367188 66.07160541124364
27.832031 67.18576526692588
29.296875 68.36661270642841
30.761719 69.47950804102858
32.226563 70.60887190452013
33.691406 71.8072021209354
35.15625 72.95063738423742
36.621094 74.03216578733142
38.085938 75.10763213563091
39.550781 76.07914837437748
41.015625 77.11120015506788
42.480469 78.05524243860253
43.945313 78.93806579303634
45.410156 79.76136710213255
46.875 80.51281022935102
48.339844 81.19908989051835
51.269531 82.27577320374516
52.734375 82.67039683386868
54.199219 82.9585867479141
55.664063 83.17031480031616
58.59375 83.38759852401832
60.058594 83.4126685280671
62.988281 83.360495006996
64.453125 83.31711518222941
67.382813 83.33305048591212
68.847656 83.31944382179132
71.777344 83.20779630956457
74.707031 83.14209039208522
77.636719 83.08956462704282
79.101563 83.01710271699868
82.03125 82.8692519190336
84.960938 82.80930120884504
87.890625 82.71745270150143
90.820313 82.6076478867796
95.214844 82.58709133606912
98.144531 82.56898917807915
101.07422 82.51698603309137
105.46875 82.43571215002761
108.39844 82.38139253287521
112.79297 82.38494715237096
117.1875 82.38213461547095
120.11719 82.33987881116244
124.51172 82.28302854764716
128.90625 82.14797685676223
133.30078 82.20814448284594
139.16016 82.25728688812602
143.55469 82.09484620720156
147.94922 81.93439982324435
153.80859 81.90270894751303
159.66797 82.02372861609469
165.52734 81.95215667922861
171.38672 81.99044429965278
177.24609 81.74380422104174
183.10547 81.52848155468034
188.96484 81.57161374656623
196.28906 81.83941163510285
203.61328 81.56579715789054
210.9375 81.28339531226993
218.26172 81.25680530734532
225.58594 81.05096062632023
232.91016 81.49247502405633
241.69922 81.0631871036674
250.48828 81.24119358718569
259.27734 81.29784744459239
268.06641 81.13110462526019
276.85547 80.5635888246437
287.10938 80.61370241780892
297.36328 80.77301534363052
307.61719 80.18403965939726
319.33594 80.05041539148762
329.58984 79.84893956500443
341.30859 79.95904762486794
353.02734 79.91458546292625
366.21094 79.46551920189411
379.39453 79.84904747871468
392.57813 79.94732353034573
405.76172 79.53944533516001
420.41016 79.54641690397196
435.05859 79.6002710416721
451.17188 79.16613575285452
465.82031 79.3290571983586
483.39844 79.31225997966739
499.51172 79.12276351853636
517.08984 79.04838674668362
536.13281 78.85471516750705
555.17578 79.25169886663411
574.21875 79.81553930351973
594.72656 79.1702417794177
615.23438 79.10981181225826
637.20703 78.88480065085227
659.17969 79.08479831741009
682.61719 78.63682570871491
707.51953 79.06053000626763
732.42188 78.72683668504372
757.32422 78.77232745099235
785.15625 78.37674600370023
811.52344 78.02858607138246
840.82031 78.10700920563322
870.11719 77.79685916075262
900.87891 78.08069002601972
933.10547 78.5166002632299
965.33203 78.20917916857772
1000.4883 78.10046626337707
1035.6445 77.97572488406065
1072.2656 78.08287156618883
1108.8867 78.31979643573287
1148.4375 78.46343814849334
1189.4531 78.67208143100807
1230.4688 78.7308431739441
1274.4141 78.81431194606519
1319.8242 78.58299311755167
1366.6992 78.68249122889797
1413.5742 78.59464731005419
1463.3789 78.78530429628371
1516.1133 78.44124563642045
1568.8477 77.8999250860938
1624.5117 77.74210595765972
1681.6406 77.83502219280537
1741.6992 77.833026666967
1803.2227 77.37346870079244
1866.2109 76.8242967409238
1932.1289 76.87824548236593
1999.5117 77.19368328994419
2069.8242 77.02876530980376
2143.0664 76.36739807611188
2219.2383 76.56565215015667
2296.875 77.23574282184755
2378.9063 77.14298769224725
2462.4023 77.20882894125565
2548.8281 77.36469677339052
2639.6484 77.35918554375122
2731.9336 77.71431744823524
2828.6133 78.08446281258351
2928.2227 77.64074448708277
3030.7617 77.78816893722487
3137.6953 78.13288896058496
3249.0234 77.94328641881346
3363.2813 77.77580861027865
3481.9336 77.72980647321369
3604.9805 77.7091226395304
3732.4219 77.33392824272606
3864.2578 77.4886531512001
4000.4883 77.25326176888306
4141.1133 77.06318481663722
4287.5977 76.84519340079943
4438.4766 76.93519684079183
4595.2148 76.68387687394647
4756.3477 76.91421005990804
4924.8047 76.66397255883709
5097.6563 76.82786792413295
5277.832 76.89272466174829
5463.8672 76.9143078013765
5657.2266 76.99084926347362
5856.4453 76.9542337723148
6062.9883 76.80613112720174
6276.8555 76.8722862156057
6498.0469 76.70275338254868
6726.5625 76.89319009182844
6963.8672 76.63670842269268
7209.9609 76.5178482018675
7464.8438 76.51223967192139
7727.0508 76.3045602035141
7999.5117 76.33687922782947
8282.2266 76.46754995448148
8573.7305 76.47597178773897
8876.9531 76.37004211496055
9188.9648 76.27083817746895
9514.1602 76.15983983816749
9849.6094 76.05876026097188
10196.777 75.95611112590778
10555.664 76.00170129618822
10927.734 75.89533425603169
11312.988 75.84985259836175
11712.891 75.687651067603
12125.977 75.57262330637103
12553.711 75.37102849384713
12996.094 75.19814645124227
13454.59 75.0446635028355
13929.199 74.7853167989377
14419.922 74.37215341353527
14928.223 74.17532876225836
15455.566 74.20707760954441
16000.488 74.22778992327386
16564.453 74.2004768441859
17148.926 74.20297461045678
17752.441 74.30458380982164
18379.395 74.38276008155798
19026.855 74.28602068926092
19697.754 74.17926900293234
19999.512 74.45438000396233
