Freq,On Axis,Listening Window,Sound Power,Early Reflections,Early Reflections DI,Sound Power DI,DI offset
20.5078,62.794099999999986,62.78355013566804,62.119933094220016,62.61261654302842,50.170933592639614,50.66361704144802,50
21.9727,66.0897,66.07658149590313,65.45395862811401,65.82554898944002,50.251032506463105,50.62262286778912,50
23.4375,67.11690000000002,67.10479125224117,66.43001316607703,66.83440065890917,50.270390593331996,50.67477808616414,50
24.9023,69.44410000000002,69.43434600348567,68.93185719561129,69.22440406335406,50.209941940131614,50.502488807874386,50
26.3672,71.0034,70.98521817480687,70.36034312664961,70.69702741513498,50.28819075967189,50.624875048157264,50
27.832,73.1859,73.16653217172743,72.51938496989777,72.85786079254203,50.3086713791854,50.647147201829654,50
29.2969,75.22799999999998,75.20712943619077,74.59733374549253,74.90623213076165,50.30089730542912,50.609795690698235,50
30.7617,76.2932,76.27168102619993,75.73664442424207,75.99476045019861,50.27692057600132,50.535036601957856,50
32.2266,78.3062,78.27532489765437,77.48693316776888,77.88084257859072,50.394482319063655,50.78839172988549,50
33.6914,79.8458,79.81525258071812,79.06909299694624,79.43142643331377,50.38382614740435,50.746159583771885,50
35.1562,81.1896,81.15695302042253,80.39043955642092,80.7588612322219,50.39809178820063,50.76651346400162,50
36.6211,82.5966,82.56220204920244,81.78715477211307,82.15488690632569,50.407315142876755,50.77504727708937,50
38.0859,83.78639999999999,83.75138735879901,82.99664242701793,83.34877032349644,50.40261703530257,50.754744931781076,50
39.5508,84.8415,84.80513457070536,84.04655557559151,84.39819936804118,50.40693520266419,50.75857899511385,50
41.0156,85.7844,85.74463814362807,84.94063810648332,85.31423981638673,50.430398327241335,50.804000037144746,50
42.4805,86.64750000000001,86.60679536053037,85.79923070798466,86.1739989513718,50.43279640915857,50.80756465254571,50
43.9453,87.4418,87.39934082130311,86.58562057282224,86.9589956127992,50.44034520850391,50.81372024848088,50
45.4102,88.0828,88.03913740871437,87.22656546018312,87.59703271195099,50.44210469676338,50.81257194853124,50
46.875,88.7432,88.69719532813946,87.85891219241196,88.24134253060994,50.455852797529516,50.838283135727494,50
48.3398,89.2951,89.24667380802907,88.37485266412767,88.77478724394827,50.471886564080805,50.8718211439014,50
51.2695,90.16399999999999,90.11076501207476,89.16549740695102,89.60316707495608,50.50759793711869,50.945267605123746,50
52.7344,90.588,90.53411494654165,89.57980342644439,90.0234899486935,50.510624997848154,50.954311520097264,50
54.1992,90.9208,90.86712426574545,89.94035718310587,90.36857729091696,50.498546974828486,50.92676708263957,50
55.6641,91.1775,91.12289413757307,90.20893913318388,90.63003198971761,50.49286214785546,50.913955004389194,50
58.5938,91.7537,91.69454353135946,90.75822643715333,91.18576331003248,50.50878022132697,50.93631709420613,50
60.0586,92.0888,92.02695493956462,91.0483572909076,91.49650195199534,50.53045298756928,50.978597648657015,50
62.9883,92.5933,92.52723335777905,91.52178033249378,91.98007110551507,50.54716225226399,51.00545302528528,50
64.4531,92.8408,92.7722496776807,91.73959683972673,92.21098270415546,50.56126697352525,51.032652837953975,50
67.3828,93.3108,93.2366921928832,92.14672581565489,92.64479209049387,50.59190010238933,51.08996637722831,50
68.8477,93.5563,93.47887103400066,92.34609132924616,92.86540244353466,50.613468590466,51.1327797047545,50
71.7773,94.0588,93.9762280676768,92.75893973012761,93.32264878114444,50.65357928653236,51.21728833754919,50
74.707,94.5027,94.41877871908005,93.19945883881823,93.76392831017733,50.65485040890272,51.21931988026182,50
77.6367,94.8726,94.78541740383787,93.57270845927353,94.12840188823601,50.657015515601856,51.21270894456434,50
79.1016,95.06130000000002,94.97137829043825,93.73876374898073,94.303543508128,50.66783478231025,51.23261454145752,50
82.0312,95.4634,95.36714620792607,94.06082503963754,94.66460553314396,50.702540674782114,51.306321168288534,50
84.9609,95.8752,95.77334084281426,94.36456443133207,95.02515811077694,50.74818273203732,51.408776411482194,50
87.8906,96.0522,95.95166773664367,94.60876149771484,95.2288801833821,50.72278755326157,51.34290623892883,50
90.8203,96.382,96.2729841723348,94.88421578640462,95.52081334639381,50.75217082594099,51.38876838593018,50
95.2148,96.6507,96.53461087094615,95.10131267383187,95.75271982098428,50.78189104996187,51.43329819711428,50
98.1445,96.7886,96.66375863112283,95.14418479323291,95.83961315949418,50.824145471628654,51.51957383788992,50
101.074,96.9665,96.83096215283123,95.17539509194496,95.94285672300494,50.8881054298263,51.65556706088627,50
105.469,97.39920000000001,97.25040076896181,95.31510811604835,96.24163761428163,51.00876315468018,51.93529265291346,50
108.398,97.7612,97.60468413278566,95.48280838050059,96.52128498573839,51.083399147047274,52.12187575228508,50
112.793,98.2211,98.05777977656726,95.72201733026228,96.8932876979017,51.16449207866556,52.33576244630498,50
117.188,98.4837,98.31626902024118,95.85163932993636,97.1074165435217,51.208852476719485,52.46462969030482,50
120.117,98.7314,98.5616346849818,96.00300857453992,97.32026615712547,51.241368527856324,52.55862611044188,50
124.512,99.1088,98.94229521229161,96.52624106894035,97.75862208347002,51.183673128821596,52.41605414335126,50
128.906,99.0397,98.86407111607093,96.42192607535328,97.66125086027917,51.202820255791764,52.44214504071765,50
133.301,98.98739999999998,98.8051763357852,96.19939266080341,97.5408604797407,51.264315856044504,52.605783674981794,50
139.16,98.4819,98.30172648623665,95.65290270751758,97.02337824918328,51.278348237053365,52.64882377871906,50
143.555,98.19809999999998,98.01501374099641,95.32723829105824,96.72572344820465,51.28929029279176,52.68777544993817,50
147.949,97.72830000000002,97.53555095159527,94.80715011702166,96.20570510650172,51.329845845093544,52.728400834573605,50
153.809,97.7781,97.56577787599248,94.4422611578559,96.0855132443238,51.480264631668675,53.123516718136585,50
159.668,97.66,97.45239317103061,94.31525944460238,95.97438953727098,51.47800363375963,53.13713372642823,50
165.527,97.49550000000002,97.290440969113,94.08717909851549,95.81047018558256,51.47997078353045,53.203261870597515,50
171.387,97.1386,96.92551870437605,93.66947257652924,95.43879457415252,51.48672413022352,53.2560461278468,50
177.246,96.1683,95.97622691670479,93.04742579293284,94.6055832537459,51.370643662958884,52.92880112377195,50
183.105,96.1845,95.96455829635562,93.00429051215237,94.52230874083426,51.44224955552136,52.96026778420325,50
188.965,97.0443,96.7785541016179,93.43865609531731,95.1463925303441,51.6321615712738,53.33989800630059,50
196.289,98.97709999999998,98.69623492399718,94.74143031711709,96.85751997646454,51.83871494753264,53.95480460688009,50
203.613,99.6816,99.42022255267126,95.31104302400728,97.55778671275232,51.862435839918945,54.10917952866399,50
210.938,99.4585,99.21288618338913,95.20889403037746,97.40521038306103,51.8076758003281,54.003992153011666,50
218.262,98.0955,97.81701052690403,94.01034676433582,96.02817888634965,51.78883164055438,53.806663762568206,50
225.586,98.4101,98.10843881901891,94.01253921256975,96.1818173307405,51.926621488278414,54.095899606449166,50
232.91,99.66659999999999,99.37329397186807,94.77616158859064,97.31650242245351,52.056791549414555,54.597132383277426,50
241.699,99.3178,99.05107133291727,94.31349611132005,97.01389712551199,52.037174207405286,54.737575221597226,50
250.488,99.17840000000001,98.9144166524692,94.37479531915803,96.98415895187358,51.93025770059562,54.539621333311175,50
259.277,99.6114,99.32858753106736,94.7034871573361,97.36931148320153,51.95927604786583,54.62510037373126,50
268.066,98.6468,98.40786003224315,93.8640967840093,96.51313932315091,51.89472070909224,54.543763248233844,50
276.855,98.048,97.81131666966306,93.54342326961981,95.97860748816808,51.83270918149498,54.26789340004325,50
287.109,97.9234,97.64426367898123,93.33858759100904,95.72818131254624,51.91608236643499,54.30567608797219,50
297.363,98.27959999999999,97.98240833956933,93.4112183681807,95.90978068738515,52.07262765218418,54.571189971388634,50
307.617,98.6223,98.28632900318102,93.32823710625796,96.08159721403196,52.204731789149065,54.958091896923065,50
319.336,99.7634,99.44605628314102,94.34918761168858,97.20328294736838,52.24277333577264,55.09686867145244,50
329.59,100.364,100.04518500988684,94.96221410867399,97.8952798094651,52.14990520042174,55.082970901212846,50
341.309,99.7431,99.45579078874609,94.6140458390253,97.43573593751475,52.020054851231336,54.84174494972079,50
353.027,99.7628,99.42195319981228,94.5784542539952,97.35469555993714,52.06725763987514,54.843498945817075,50
366.211,99.27600000000001,98.92566467788033,93.78594747461119,96.6753750670178,52.25028961086254,55.13971720326914,50
379.395,98.9642,98.54183957448404,93.21393398823558,96.00031083314181,52.54152874134223,55.32790558624846,50
392.578,100.261,99.85945242889164,94.19525433241664,97.25317439722552,52.60627803166612,55.664198096475005,50
405.762,99.0699,98.69806010849797,93.56817014051792,96.377602229576,52.32045787892197,55.12988996798005,50
420.41,100.23500000000001,99.69697775450241,94.05915119914874,97.19708651306797,52.49989124143444,55.63782655535367,50
435.059,98.94129999999998,98.38511867095121,92.46539019618311,95.73170785501469,52.653410815936525,55.91972847476811,50
451.172,99.2961,98.74718606363513,92.56776605913394,95.95449650919579,52.792689554439335,56.17942000450118,50
465.82,98.20060000000001,97.62234793231228,92.25829794616004,95.30897317270144,52.31337475961084,55.36404998615224,50
483.398,99.1917,98.50145620861363,92.63638340672031,95.91473910584156,52.58671710277207,55.86507280189332,50
499.512,99.2056,98.4855313893714,92.42813732994159,95.83390195473305,52.65162943463835,56.05739405942981,50
517.09,99.5309,98.8201015079114,92.50970207934336,95.89670014143003,52.92340136648137,56.31039942856805,50
536.133,99.9105,99.18978510265957,93.06159342965564,96.5254458669794,52.664339235680174,56.128191673003926,50
555.176,98.7118,97.97941627496255,92.45354769839895,95.82626980839643,52.15314646656611,55.525868576563596,50
574.219,98.5658,97.76343392269943,91.94648967707212,95.51609832237114,52.2473356003283,55.81694424562731,50
594.727,97.26580000000001,96.4143012503612,90.69567046841172,94.0149591904955,52.3993420598657,55.718630781949486,50
615.234,98.267,97.3337605490298,90.95228310251903,94.88756789323429,52.446192655795514,56.38147744651077,50
637.207,97.1516,96.29677653007013,90.55638894931282,94.06311089257177,52.23366563749836,55.740387580757314,50
659.18,97.1968,96.2956043147728,90.01282745820126,93.91285385106669,52.38275046370612,56.282776856571544,50
682.617,98.1167,97.17157167409545,90.046940563353,93.96223129465344,53.20934037944201,57.12463111074244,50
707.52,97.5737,96.9619810827084,90.70215937445735,94.27798420059162,52.68399688211679,56.25982170825105,50
732.422,98.59879999999998,97.7067106422575,90.75615036370908,94.30799943265598,53.39871120960153,56.95056027854842,50
757.324,99.2974,98.31017174323566,91.20095679028509,94.94752520315465,53.362646540081,57.109214952950566,50
785.156,98.9299,98.00800531626372,91.49803210972351,94.45111427482146,53.556891041442256,56.50997320654021,50
811.523,97.4215,96.79609041078847,92.13177791706833,94.15159069438218,52.64449971640629,54.66431249372013,50
840.82,95.60480000000001,96.4209126664202,93.28784487870497,95.7079244461453,50.712988220274895,53.13306778771522,50
870.117,99.66659999999999,99.36471164434533,93.2353011407749,96.78397945386502,52.58073219048032,56.12941050357044,50
900.879,98.5662,98.78659436762308,93.3546507761487,96.26719091621244,52.51940345141064,55.43194359147438,50
933.105,97.6261,98.14857618074842,93.23112105014246,95.63153116789655,52.51704501285187,54.91745513060596,50
965.332,97.9033,98.69504153784224,94.22623407429788,96.02466365306981,52.670377884772435,54.468807463544366,50
1000.49,97.017,98.27636411760857,93.36289763004777,95.32602642186546,52.9503376957431,54.9134664875608,50
1035.64,96.6728,97.99400023709634,92.77593585900233,94.39622954992036,53.59777068717598,55.21806437809401,50
1072.27,96.043,96.79634528985608,91.87403504976024,93.12258359937562,53.67376169048046,54.92231024009584,50
1108.89,96.0419,96.21588113897232,90.81473292224207,92.29792075058602,53.917960388386305,55.40114821673025,50
1148.44,96.49949999999998,96.05925565892474,89.33209573287839,91.4458772444033,54.613378414521435,56.727159926046355,50
1189.45,96.6354,95.94677665570896,88.1036926732524,91.00099635931059,54.94578029639837,57.84308398245656,50
1230.47,97.9964,96.88568505675987,88.29763489513232,91.81604960562197,55.0696354511379,58.58805016162755,50
1274.41,97.4403,96.49556982120913,88.31197633907871,91.96738111456773,54.5281887066414,58.18359348213042,50
1319.82,97.8022,96.72074930241274,88.78059689610805,92.54489842982744,54.1758508725853,57.94015240630469,50
1366.7,97.57560000000001,96.34091707426708,88.72441885775888,92.31412105005634,54.02679602421074,57.616498216508205,50
1413.57,97.2895,95.92509598204242,88.62368511481698,92.46580831001474,53.459287672027685,57.30141086722544,50
1463.38,97.1419,96.11281374029336,89.1182469538335,92.68078687822072,53.43202686207265,56.994566786459856,50
1516.11,97.0736,96.45936568459732,89.16310384744321,92.77156240515906,53.687803279438256,57.296261837154105,50
1568.85,97.2781,96.54511122383231,89.00779690041482,92.6622144946989,53.88289672913341,57.53731432341749,50
1624.51,96.4882,96.16344770249074,88.74231487643578,92.57749060065065,53.585957101840094,57.42113282605496,50
1681.64,96.0613,95.51407373199103,88.296007215986,92.28287682981743,53.23119690217361,57.21806651600504,50
1741.7,95.5391,95.23515218332389,88.14266889244035,92.33532292468172,52.89982925864217,57.092483290883536,50
1803.22,96.9355,96.17825205285264,88.34113989351258,92.66317368909729,53.51507836375535,57.837112159340066,50
1866.21,97.5053,96.17031126666797,88.21728973685177,92.49571886343436,53.6745924032336,57.9530215298162,50
1932.13,96.38489999999999,95.28542266057399,87.82082556541812,91.92761026667097,53.35781239390302,57.46459709515587,50
1999.51,96.0019,94.61228338488493,87.6023766091962,91.77295617600745,52.83932720887748,57.009906775688734,50
2069.82,96.1248,94.76066799906789,87.57694617002511,91.75533581371715,53.00533218535074,57.18372182904278,50
2143.07,95.9787,94.82681057909082,87.57838784459321,91.64859928400836,53.17821129508246,57.24842273449761,50
2219.24,94.84100000000001,93.95244263157664,87.08365580725206,91.11195610647398,52.84048652510266,56.86878682432459,50
2296.88,95.4702,94.06732211353562,87.12827947739018,91.02743828578875,53.03988382774688,56.939042636145444,50
2378.91,96.2863,94.85008982087554,87.39045695791697,91.1872423544408,53.66284746643474,57.45963286295857,50
2462.4,96.4652,94.79908240725712,87.3602556210898,91.31406277270285,53.48501963455426,57.43882678616731,50
2548.83,95.6524,94.18543943631431,87.02833372142337,91.19853434774254,52.986905088571774,57.157105714890946,50
2639.65,97.2525,95.73778496117356,87.65282152229466,91.8716053368828,53.866179624290766,58.0849634388789,50
2731.93,97.31370000000001,95.89944136316527,87.61087897699632,91.99949163918728,53.89994972397798,58.28856238616895,50
2828.61,96.88809999999998,95.46781677401097,87.24188810567912,91.81740026121798,53.65041651279299,58.225928668331846,50
2928.22,97.87979999999999,96.24224705018332,87.45710503213849,92.07806592293414,54.16418112724918,58.78514201804484,50
3030.76,98.2413,96.88304097805789,87.90276233749508,92.31152769019309,54.5715132878648,58.980278640562815,50
3137.7,98.3922,97.07565640889175,88.028447287951,92.48058484173278,54.59507156715897,59.04720912094075,50
3249.02,98.7942,97.26082360212452,88.13137238919721,92.68663886432722,54.574184737797296,59.12945121292731,50
3363.28,99.4948,97.80964468513324,88.50836433885752,93.02815629196022,54.78148839317302,59.30128034627572,50
3481.93,99.2419,97.64603163880088,88.5068394415613,92.8435186159837,54.80251302281718,59.13919219723958,50
3604.98,99.1731,97.72837597301198,88.55195938470543,92.84635120071171,54.88202477230027,59.17641658830655,50
3732.42,99.5138,98.06916804852517,88.79246168504773,93.11844482692278,54.95072322160239,59.276706363477444,50
3864.26,99.4549,98.13920988683765,88.9677779025294,93.21568379962426,54.92352608721339,59.17143198430824,50
4000.49,98.9786,97.85787329433153,88.8159061818726,93.25093942430348,54.606933870028044,59.04196711245892,50
4141.11,99.667,98.54122094397192,89.10226477586093,93.71707442195897,54.82414652201295,59.43895616811099,50
4287.6,98.9949,98.10349832282691,88.61498927589119,93.2894993144827,54.81399900834421,59.48850904693572,50
4438.48,98.9918,98.15887268952942,88.4241111052674,93.13344698097204,55.02542570855738,59.73476158426202,50
4595.21,98.5517,98.02656682775527,88.20886773663486,92.91228444748677,55.114282380268506,59.81769909112042,50
4756.35,98.07570000000001,97.46129256422597,87.62640191654714,92.41940084441822,55.04189171980775,59.83489064767883,50
4924.8,98.58160000000001,97.80825621650348,87.78878048942956,92.66315075150723,55.14510546499625,60.019475727073925,50
5097.66,97.6508,96.95447129031041,87.08702256782152,91.97124261786891,54.9832286724415,59.86744872248889,50
5277.83,98.1252,97.14408377777751,86.98432516347295,92.01461785554962,55.129465922227894,60.159758614304565,50
5463.87,96.8176,96.07542971410118,85.99566903481937,91.04757947201148,55.0278502420897,60.079760679281804,50
5657.23,96.577,96.0235679101378,85.75882753452011,90.80808122674824,55.21548668338956,60.26474037561769,50
5856.45,96.0967,95.63199797018856,85.36649799822477,90.4206672778374,55.21133069235117,60.26549997196379,50
6062.99,95.4958,95.13882735549623,84.91020614025733,89.92756967327328,55.21125768222295,60.2286212152389,50
6276.86,95.2134,94.47774920399394,84.17055962634686,89.22436927649986,55.25337992749408,60.30718957764708,50
6498.05,95.4999,94.41763412988065,83.84885255765761,88.94956670387977,55.468067426000886,60.568781572223045,50
6726.56,95.60390000000001,94.06628874792833,83.45355684068431,88.63136917332119,55.434919574607136,60.61273190724401,50
6963.87,95.4361,93.46858110946474,82.90490972777465,88.09467019485886,55.37391091460587,60.563671381690085,50
7209.96,95.6997,93.68025181829968,82.98858099033569,88.1693510171879,55.510900801111774,60.69167082796399,50
7464.84,95.9431,93.85547719942896,83.014441454545,88.28601480380617,55.56946239562279,60.84103574488397,50
7727.05,95.1863,93.2750494285149,82.40751538425496,87.65060172783379,55.62444770068112,60.86753404425994,50
7999.51,95.36170000000001,93.40849620199853,82.45922596586887,87.73444608265211,55.67405011934642,60.949270236129664,50
8282.23,95.5348,93.51831263142597,82.42569735017914,87.73968731326036,55.77862531816561,61.092615281246836,50
8573.73,95.5558,93.37915814986984,82.17928926565932,87.48065884954568,55.89849930032416,61.19986888421052,50
8876.95,95.6237,93.22667940396701,81.95121910782679,87.23950863398792,55.98717076997909,61.275460296140224,50
9188.96,95.5115,93.08949460279322,81.87151733501877,87.06100891345777,56.028485689335454,61.21797726777446,50
9514.16,95.11,92.70165980448458,81.41108443322858,86.58307727433558,56.118582530149,61.290575371256,50
9849.61,94.6083,92.2954768062889,80.91283042034418,86.09448934208464,56.20098746420426,61.382646385944724,50
10196.8,95.1332,92.70414084668587,81.25445552397399,86.51594343651556,56.18819741017032,61.449685322711886,50
10555.7,94.8749,92.37700405411833,80.80222556590908,86.19931117154746,56.17769288257087,61.57477848820925,50
10927.7,94.7871,92.38121313816794,80.73892754021877,86.15136985937013,56.2298432787978,61.64228559794917,50
11313.0,94.8241,92.55050415355468,80.89836008740774,86.17157993053326,56.37892422302143,61.652144066146946,50
11712.9,95.5942,93.4024061439905,81.68987667439262,86.9681022266905,56.4343039173,61.71252946959788,50
12126.0,96.6652,94.59368971481894,82.81683402109252,88.08932336180746,56.50436635301148,61.77685569372642,50
