Freq,On Axis,Listening Window,Sound Power,Early Reflections,Early Reflections DI,Sound Power DI,DI offset
22.4,42.89999999999999,43.393620208418255,42.70686425702014,42.832641318225214,30.56097889019304,30.686755951398112,30
23.0,43.8,44.26033071902377,43.62902568959443,43.75610049519197,30.504230223831797,30.631305029429342,30
23.6,44.60000000000001,45.137412609159625,44.50500893639081,44.64093612213129,30.496476487028332,30.632403672768817,30
24.0,45.3,45.80474514939901,45.18399410393842,45.33403632191438,30.47070882748463,30.620751045460594,30
25.0,46.10000000000001,46.61675926276145,46.01184036602437,46.17634598022126,30.44041328254019,30.604918896737075,30
25.8,47.000000000000014,47.50501899398559,46.89131108394203,47.06524887625805,30.439770117727534,30.61370791004356,30
26.5,47.89999999999999,48.382243792644815,47.796636599278955,47.994215355306935,30.38802843733788,30.58560719336586,30
27.2,49.10000000000001,49.516183258213985,48.9653729988525,49.17057826876763,30.345604989446358,30.550810259361484,30
28.0,50.0,50.40547585841786,49.83713193860511,50.060991396682866,30.344484461734993,30.568343919812747,30
29.0,50.8,51.20547585841787,50.672333688070296,50.89753221537521,30.307943643042663,30.533142170347574,30
30.0,51.60000000000001,52.00547585841787,51.46095502685931,51.7075374786922,30.297938379725665,30.544520831558557,30
30.7,52.3,52.671596118381586,52.12733502692954,52.379744323954895,30.29185179442669,30.544261091452043,30
31.5,52.999999999999986,53.336561159822224,52.788261481347476,53.050273609933214,30.28628754988901,30.54829967847475,30
32.5,53.8,54.08851194171011,53.55973877864946,53.81429244155939,30.27421950015072,30.52877316306065,30
33.5,54.7,54.964292938010246,54.390668838390425,54.661662196914065,30.30263074109618,30.57362409961982,30
34.5,55.60000000000001,55.89566777977227,55.324463816733356,55.59480219119551,30.300865588576755,30.57120396303891,30
35.5,56.39999999999999,56.604092279455486,56.02867639094272,56.295799181333095,30.30829309812239,30.575415888512765,30
36.5,57.10000000000001,57.29027840790907,56.72674511883879,56.98559500107204,30.30468340683703,30.56353328907028,30
37.5,57.7,57.85660903212373,57.27312591733039,57.538639285482816,30.317969746640912,30.58348311479334,30
38.7,58.3,58.47874146142715,57.88253006757928,58.1449710135159,30.33377044791125,30.596211393847867,30
40.0,59.2,59.267701217151725,58.67814830631268,58.920236872883635,30.34746434426809,30.589552910839046,30
41.2,59.89999999999999,59.9579192859252,59.35331598723671,59.59525090880476,30.362668377120443,30.604603298688488,30
42.5,60.499999999999986,60.592127597879895,59.96410431554608,60.20188334167169,30.390244256208206,30.628023282333814,30
43.7,61.10000000000001,61.127964614457724,60.51588345861501,60.73872171686908,30.389242897588645,30.612081155842716,30
45.0,61.500000000000014,61.57404534767926,60.9658360902405,61.18492657134247,30.389118776336787,30.60820925743876,30
46.2,62.2,62.21120359366806,61.63860695405155,61.847423368891924,30.363780224776136,30.572596639616506,30
47.5,62.7,62.80023388496353,62.19109145475524,62.40411290192823,30.396120983035303,30.609142430208294,30
48.7,63.2,63.259134939380715,62.6815282687879,62.8602860690236,30.398848870357114,30.577606670592814,30
50.0,63.7,63.759134939380715,63.17490755972001,63.36973069613548,30.389404243245238,30.584227379660703,30
51.5,64.2,64.18410997587307,63.632569310715965,63.8089003085705,30.37520966730257,30.551540665157106,30
53.0,64.6,64.67307153101798,64.14249874689644,64.30303021520716,30.370041315810823,30.530572784121546,30
54.5,65.10000000000001,65.10511558977967,64.58068408727732,64.74748655458313,30.35762903519654,30.524431502502352,30
56.0,65.49999999999999,65.5265058255015,65.00626348250881,65.16829840262228,30.358207422879218,30.520242342992688,30
58.0,65.9,65.9265058255015,65.47862321671174,65.63520055909115,30.291305266410347,30.447882608789754,30
60.0,66.3,66.27771982864085,65.8235585492613,65.98929877776895,30.288421050871904,30.454161279379548,30
61.5,66.59999999999998,66.62116184385876,66.20592826317467,66.35790121292473,30.263260630934028,30.415233580684088,30
63.0,67.0,66.97573755927245,66.55897585405783,66.71860815112734,30.257129408145104,30.41676170521461,30
65.0,67.3,67.31653908253053,66.8983693971003,67.0617840884548,30.254754994075725,30.41816968543023,30
67.0,67.60000000000001,67.57166446102649,67.16912268905376,67.33629854149918,30.23536591952731,30.40254177197272,30
69.0,67.90000000000002,67.80287373741636,67.42053806428015,67.59315771351389,30.209716023902473,30.38233567313621,30
71.0,68.1,68.07954266362142,67.66950322089741,67.84828065922842,30.231262004393002,30.410039442724013,30
73.0,68.3,68.23462902649784,67.80600817154294,68.00369436968872,30.230934656809126,30.4286208549549,30
75.0,68.4,68.41174180063639,67.97169403329981,68.17347446781042,30.23826733282597,30.44004776733658,30
77.5,68.6,68.5782330650839,68.10328297130458,68.31018736293417,30.26804570214972,30.474950093779313,30
80.0,68.7,68.65609803813524,68.19201084224927,68.40509236501765,30.25100567311759,30.464087195885966,30
82.5,68.8,68.75609803813524,68.27519145837105,68.50870441933124,30.247393618803997,30.48090657976418,30
85.0,68.9,68.85609803813524,68.34384857317878,68.5959109048045,30.260187133330746,30.51224946495647,30
87.5,68.9,68.93358982687998,68.37115201458643,68.62842172591368,30.3051681009663,30.562437812293552,30
90.0,69.00000000000001,68.95609803813525,68.39144726233131,68.65849678830871,30.297601249826542,30.56465077580394,30
92.5,69.00000000000001,68.98925841531063,68.4123231655757,68.6919523858795,30.297306029431127,30.57693524973493,30
95.0,69.09999999999998,69.02293110248064,68.4181006814838,68.71353602790161,30.30939507457903,30.604830420996834,30
97.5,69.09999999999998,69.07797591781376,68.42091839667135,68.72892308366544,30.349052834148324,30.657057521142406,30
100.0,69.2,69.12293110248063,68.40903677520008,68.74244631246967,30.380484790010968,30.713894327280556,30
103.0,69.2,69.17797591781378,68.43255378368785,68.79350498747134,30.384470930342445,30.74542213412593,30
106.0,69.3,69.24472895057723,68.48628099564381,68.84904455594709,30.395684394630138,30.758447954933416,30
109.0,69.39999999999999,69.34472895057722,68.54243472181038,68.94018574203098,30.404543208546244,30.80229422876684,30
112.0,69.6,69.52293110248063,68.64462546905997,69.0594277121371,30.463503390343533,30.878305633420652,30
115.0,69.7,69.64472895057722,68.72963598441962,69.16419316024458,30.480535790332638,30.9150929661576,30
118.0,69.9,69.75609803813525,68.84008478752057,69.28834320305751,30.46775483507774,30.916013250614682,30
122.0,70.0,69.90025584655588,68.93997496389797,69.41845424949668,30.481801597059203,30.960280882657912,30
125.0,70.10000000000001,70.00025584655587,69.04149584429815,69.5230654228296,30.47719042372627,30.95876000225772,30
128.0,70.2,70.10051167804048,69.14747348061964,69.61198463123846,30.48852704680202,30.953038197420838,30
132.0,70.2,70.17797591781378,69.25309789676496,69.71858164284001,30.459394274973775,30.924878021048826,30
136.0,70.3,70.24472895057723,69.34762822710401,69.77941810778466,30.46531084279256,30.897100723473216,30
140.0,70.3,70.28925841531061,69.41114102225625,69.84403880274789,30.445219612562724,30.878117393054367,30
145.0,70.40000000000002,70.31173585711585,69.46046939751623,69.86951632491791,30.44221953219794,30.851266459599614,30
150.0,70.40000000000002,70.33409756292212,69.44319971595007,69.85400057977041,30.48009698315171,30.890897846972052,30
155.0,70.40000000000002,70.33409756292212,69.40727711675113,69.84001872841124,30.494078834510887,30.926820446170993,30
160.0,70.40000000000002,70.31274477799037,69.31124269931028,69.77262925226098,30.54011552572939,31.00150207868009,30
165.0,70.40000000000002,70.2356206840857,69.1406023574249,69.64010967786352,30.595511006222182,31.095018326660806,30
170.0,70.3,70.21274477799038,68.9507897821734,69.52316198154362,30.689582796446757,31.26195499581698,30
175.0,70.3,70.13562068408571,68.75221906909853,69.40119906578636,30.73442161829935,31.38340161498718,30
180.0,70.2,70.0917761210956,68.56150212477853,69.29243536118634,30.79934075990927,31.530273996317078,30
185.0,70.2,70.02419779300914,68.40372652250336,69.1935689433197,30.830628849689433,31.620471270505774,30
190.0,70.2,70.00328449402552,68.28158556969981,69.11871621611222,30.884568277913303,31.721698924325707,30
195.0,70.10000000000001,69.9356206840857,68.18786873114027,69.05105942707533,30.884561257010375,31.747751952945436,30
200.0,70.10000000000001,69.90328449402553,68.11455348884706,68.99888945415768,30.90439503986785,31.788731005178462,30
206.0,70.0,69.85837672536981,68.0690348053427,68.97229473057455,30.886081994795262,31.789341920027113,30
212.0,70.0,69.8356206840857,68.02784922193055,68.95063225161395,30.884988432471744,31.807771462155145,30
218.0,69.9,69.8015232095018,67.99184802104655,68.931704482014,30.869818727487797,31.809675188455245,30
224.0,69.9,69.77950687011969,67.9324540714745,68.8942967196716,30.88521015044809,31.847052798645194,30
230.0,69.9,69.72445814420117,67.86546372966339,68.84294347324693,30.881514670954232,31.858994414537776,30
236.0,69.8,69.68050017092457,67.7726516825815,68.77179471084115,30.908705460083425,31.907848488343078,30
240.0,69.8,69.65837672536982,67.66562933902496,68.70114094468401,30.957235780685807,31.99274738634486,30
250.0,69.9,69.6699738260637,67.5655347235806,68.66113629476088,31.008837531302817,32.1044391024831,30
258.0,69.9,69.72445814420117,67.50288533583672,68.65659639957705,31.06786174462411,32.22157280836444,30
265.0,70.0,69.82445814420116,67.47824802265644,68.70688070447092,31.11757743973024,32.346210121544715,30
272.0,70.10000000000001,69.90354610191523,67.45597120039966,68.74110135224,31.16244474967523,32.447574901515566,30
280.0,70.2,70.00354610191523,67.41607109293808,68.77342865682064,31.230117445094592,32.58747500897715,30
290.0,70.3,70.10354610191523,67.33808158661735,68.79752673325827,31.306019368656962,32.76546451529788,30
300.0,70.40000000000002,70.20354610191524,67.25795568624882,68.81886862606143,31.384677475853806,32.945590415666416,30
307.0,70.40000000000002,70.28102013714313,67.19965573367422,68.85402427722316,31.42699585991997,33.08136440346891,30
315.0,70.49999999999999,70.35889934695254,67.17136981117696,68.89737413874477,31.461525208207775,33.18752953577558,30
325.0,70.49999999999999,70.41300581665409,67.17442716163954,68.93217838729072,31.480827429363373,33.23857865501455,30
335.0,70.6,70.46945253554453,67.23158471416174,68.98448179697117,31.484970738573367,33.23786782138279,30
345.0,70.6,70.55660314969002,67.3517949561055,69.09472449822213,31.461878651467885,33.204808193584526,30
355.0,70.7,70.65660314969001,67.50850843320389,69.23603524985074,31.42056789983927,33.14809471648613,30
365.0,70.8,70.74523538608283,67.66171094039493,69.3703710005067,31.37486438557613,33.0835244456879,30
375.0,70.8,70.81122549985842,67.81128215453356,69.49216601046781,31.31905948939061,32.999943345324866,30
387.0,70.9,70.88900192004664,67.97494952886437,69.62681585530261,31.26218606474403,32.91405239118227,30
400.0,71.0,70.9669218511605,68.07904272478295,69.69652087649037,31.27040097467014,32.887879126377555,30
412.0,71.0,70.9669218511605,68.08363522432131,69.69125859747149,31.275663253689018,32.883286626839194,30
425.0,71.1,70.97823306508388,68.04027240447591,69.65234761079277,31.32588545429111,32.93796066060797,30
437.0,71.1,70.97950687011969,67.97697169294422,69.60556794154586,31.373938928573835,33.002535177175474,30
450.0,71.2,70.96997382606371,67.88685731525369,69.52040192901667,31.449571897047036,33.083116510810015,30
462.0,71.2,70.96063752019828,67.78269968565928,69.40443445485379,31.55620306534449,33.177937834538994,30
475.0,71.3,70.98703592431403,67.69302693916795,69.3203824261591,31.66665349815493,33.29400898514608,30
487.0,71.4,71.02231331322459,67.61513194520201,69.25973092134865,31.762582391875938,33.40718136802258,30
500.0,71.50000000000001,71.09128085577082,67.51503203123113,69.21640689379619,31.87487396197463,33.57624882453969,30
515.0,71.50000000000001,71.12679019246703,67.42949769960444,69.1941885312347,31.932601661232326,33.69729249286259,30
530.0,71.4,71.07206634345428,67.32896025388243,69.11018486577309,31.96188147768119,33.74310608957185,30
545.0,71.4,71.04183004803578,67.1566056970481,69.00883821774207,32.03299183029371,33.885224350987684,30
560.0,71.3,70.93068347697196,66.86452976934902,68.82139686316064,32.10928661381132,34.066153707622945,30
580.0,71.2,70.83229906351481,66.61766259398915,68.70231275152925,32.12998631198556,34.21463646952566,30
600.0,71.0,70.70057833316262,66.42308864265551,68.60665512048656,32.09392321267606,34.27748969050711,30
615.0,70.9,70.57536192456705,66.26649040920384,68.53876067680963,32.03660124775742,34.30887151536321,30
630.0,70.7,70.37856707363396,66.12004474157074,68.42996339639963,31.94860367723433,34.25852233206322,30
650.0,70.49999999999999,70.21819635341187,66.05490653481132,68.37949934976866,31.838697003643205,34.163289818600546,30
670.0,70.2,69.99697353560015,65.93524443957482,68.29963895577264,31.697334579827512,34.06172909602533,30
690.0,70.10000000000001,69.89697353560014,65.91014783755163,68.33355817909109,31.563415356509054,33.986825698048506,30
710.0,70.10000000000001,69.9207707649929,66.03431280503283,68.44425936483064,31.476511400162252,33.88645795996007,30
730.0,70.10000000000001,69.89720703369362,66.08063881643436,68.51465561598853,31.382551417705088,33.81656821725926,30
750.0,70.10000000000001,69.86887353732466,65.94753526294139,68.41497441781726,31.453899119507398,33.921338274383274,30
775.0,70.0,69.73786629615742,65.8026625860823,68.29821913563129,31.439647160526135,33.935203710075115,30
800.0,70.0,69.69579224351696,65.75630618450657,68.24076588388306,31.455026359633905,33.93948605901039,30
825.0,70.0,69.69579224351696,65.75225235365427,68.19883165029212,31.49696059322484,33.94353988986269,30
850.0,70.0,69.74874147937486,65.80003311497656,68.25650619780339,31.492235281571467,33.9487083643983,30
875.0,69.9,69.67320792778348,65.77620456970735,68.23132081928186,31.441887108501618,33.897003358076134,30
900.0,69.8,69.47424982138506,65.69027359235469,68.18955215629198,31.284697665093077,33.78397622903037,30
925.0,69.7,69.3781037214459,65.69592863807237,68.23883386953229,31.13926985191361,33.68217508337352,30
950.0,69.7,69.37550163420593,65.78361731094557,68.34581625703692,31.029685377169017,33.59188432326036,30
975.0,69.7,69.43963902018795,65.8723689465862,68.41768005916741,31.021958961020545,33.56727007360175,30
1000.0,69.8,69.54593951843663,65.93022225753946,68.52892879490773,31.017010723528898,33.61571726089717,30
1030.0,69.9,69.69628978720961,65.9535610886342,68.62607622532751,31.0702135618821,33.742728698575405,30
1060.0,70.10000000000001,69.78241601288026,65.92051863701504,68.61748908642792,31.16492692645234,33.861897375865226,30
1090.0,70.3,69.95295618806259,65.84893173161448,68.54230599325153,31.410650194811055,34.1040244564481,30
1120.0,70.40000000000002,70.09345598787415,65.71576081653079,68.41156664334325,31.6818893445309,34.37769517134336,30
1150.0,70.6,70.20622780111562,65.55007795267387,68.27743588502554,31.928791916090077,34.65614984844174,30
1180.0,70.6,70.21404837466444,65.33771315396133,68.07247372541886,32.141574649245584,34.87633522070311,30
1220.0,70.6,70.16481452253672,65.05439373221307,67.85084993990576,32.31396458263096,35.110420790323644,30
1250.0,70.6,70.10474289320234,64.7866772261289,67.59762343181522,32.50711946138712,35.31806566707344,30
1280.0,70.40000000000002,69.9498559327481,64.50812938589131,67.29456559687178,32.655290335876316,35.441726546856785,30
1320.0,70.2,69.75467521403152,64.19427866843098,67.01350942305672,32.741165790974804,35.56039654560054,30
1360.0,70.0,69.6075156802137,63.94344416543444,66.81311276712592,32.79440291308778,35.66407151477925,30
1400.0,69.9,69.41980141356309,63.63715046928634,66.5404911275072,32.8793102860559,35.78265094427675,30
1450.0,69.8,69.36273823194843,63.48126712725339,66.40467227696472,32.95806595498371,35.88147110469504,30
1500.0,69.8,69.35113462780679,63.42104667130879,66.36823685755968,32.98289777024711,35.930087956498,30
1550.0,69.7,69.27667903687417,63.36815960731272,66.32141556328943,32.955263473584736,35.90851942956145,30
1600.0,69.7,69.30641904264557,63.39441686751903,66.3925376248957,32.91388141774988,35.912002175126545,30
1650.0,70.0,69.5499119812844,63.50563220039231,66.58396313245532,32.96594884882907,36.04427978089208,30
1700.0,70.10000000000001,69.6517968009655,63.57789597501487,66.70967438446482,32.94212241650068,36.07390082595063,30
1750.0,70.2,69.83770534421642,63.73629877469581,66.87720110195107,32.960504242265344,36.101406569520606,30
1800.0,70.2,69.93269554966723,63.86681685466641,67.00444373318562,32.928251816481605,36.06587869500082,30
1850.0,70.3,69.95626650723655,63.844341502521246,67.00399544351262,32.95227106372393,36.1119250047153,30
1900.0,70.2,69.88808659735493,63.71572921558463,66.90206289768587,32.98602369966906,36.1723573817703,30
1950.0,70.2,69.7896446882508,63.53223853125154,66.74146479004249,33.04817989820832,36.25740615699927,30
2000.0,69.9,69.61157954840574,63.372375227198674,66.56558614809632,33.04599340030943,36.23920432120707,30
2060.0,69.6,69.38675538340784,63.152799108136165,66.3168373130254,33.06991807038244,36.23395627527168,30
2120.0,69.5,69.32921630304615,63.034942144036066,66.18915421824937,33.14006208479678,36.29427415901009,30
2180.0,69.39999999999999,69.21778246766357,62.841414387477855,66.0404281034697,33.177354364193874,36.37636808018571,30
2240.0,69.3,69.09752104530624,62.66396073871654,65.8953360090547,33.202185036251535,36.4335603065897,30
2300.0,69.2,69.1631219326152,62.62273525345718,65.92512205018363,33.237999882431566,36.54038667915802,30
2360.0,69.2,69.26554773527455,62.64669750953074,65.99641136433993,33.26913637093462,36.61885022574381,30
2400.0,69.39999999999999,69.50440444573071,62.80768673195871,66.20887132594827,33.29553311978245,36.696717713772,30
2500.0,69.7,69.7533813569737,62.84637392970724,66.32837181613478,33.42500954083893,36.907007427266464,30
2580.0,69.9,69.85676257838662,62.794401001445564,66.36925856943901,33.48750400894761,37.06236157694106,30
2650.0,70.0,69.92818183367892,62.71324013886931,66.37923344517418,33.54894838850474,37.21494169480961,30
2720.0,70.2,70.0527422143731,62.63068261398864,66.35161381273518,33.70112840163792,37.42205960038446,30
2800.0,70.40000000000002,70.0998094693183,62.511395076073384,66.28285900583766,33.81695046348064,37.58841439324492,30
2900.0,70.49999999999999,70.04718526097615,62.30106316403533,66.14088065756958,33.90630460340657,37.74612209694082,30
3000.0,70.49999999999999,69.92240487814377,62.07111324952582,65.96684160355558,33.95556327458819,37.85129162861794,30
3070.0,70.40000000000002,69.80529654574819,61.80896786755393,65.77390800123479,34.031388544513405,37.99632867819426,30
3150.0,70.40000000000002,69.572874555272,61.49333146101722,65.51370465960879,34.0591698956632,38.079543094254774,30
3250.0,70.2,69.37744935716127,61.24185444991852,65.2767818219363,34.10066753522497,38.13559490724275,30
3350.0,70.10000000000001,69.22063201581447,61.01719301621377,65.0809964738116,34.13963554200288,38.203438999600706,30
3450.0,70.0,69.09097133014446,60.86818757466773,64.92670249073244,34.16426883941202,38.222783755476726,30
3550.0,70.0,69.04911444528051,60.773927285175716,64.8394534072762,34.20966103800431,38.27518716010479,30
3650.0,70.0,68.99365305923381,60.726967444650754,64.78292218093766,34.21073087829615,38.266685614583054,30
3750.0,70.0,68.97421474544159,60.7037851907932,64.76095714354459,34.213257601897,38.27042955464839,30
3870.0,70.10000000000001,69.0185612994314,60.782659631791816,64.81880617610553,34.19975512332587,38.23590166763958,30
4000.0,70.2,68.97321517498195,60.82610562275504,64.85873989043198,34.11447528454997,38.14710955222691,30
4120.0,70.3,68.92766998263126,60.832581154967386,64.9154495607048,34.01222042192646,38.09508882766387,30
