Freq,Floor Bounce,Ceiling Bounce,Front Wall Bounce,Side Wall Bounce,Rear Wall Bounce,Total Early Reflection
22.4,32.74680983520814,30.612271783156174,31.91001860711974,31.202837130914432,30.50374796866778,31.47872099367372
23.0,33.846809835208134,31.68219967332304,32.965853180307434,32.261100867989896,31.565374850246045,32.55011110165033
23.6,34.9100779978029,32.7122717831562,34.03787692169065,33.33090607099318,32.639253483595056,33.61281015320144
24.0,35.94680983520813,33.782199673323035,35.06585318030743,34.36110086798989,33.66036333495562,34.649312528311626
25.0,36.94680983520816,34.81227178315619,36.11001860711973,35.40283713091445,34.709444314497816,35.67963167903234
25.8,37.9792873260743,35.81227178315619,37.12509008711406,36.430906070993174,35.734326547057535,36.70091814050731
26.5,38.9792873260743,36.81227178315616,38.12509008711406,37.430906070993174,36.734326547057535,37.70091814050731
27.2,39.97928732607433,37.81227178315616,39.12509008711409,38.430906070993174,37.734326547057535,38.70091814050731
28.0,40.94680983520813,38.81227178315619,40.11001860711973,39.40283713091445,38.72532528678941,39.68217590347355
29.0,41.94680983520816,39.782199673323035,41.0948946418235,40.38147249156246,39.68317249889212,40.66316884459165
30.0,42.94680983520816,40.782199673323035,42.06585318030743,41.36110086798989,40.66036333495562,41.649312528311626
30.7,43.879287326074305,41.71227178315617,43.01001860711973,42.31163314681869,41.619779020104104,42.5916512036374
31.5,44.846809835208134,42.68219967332304,43.965853180307434,43.261100867989896,42.565374850246016,43.5501111016503
32.5,45.74680983520814,43.582199673323046,44.880732465203764,44.181472491562474,43.4879335261741,44.46080509478362
33.5,46.679287326074345,44.51227178315618,45.82509008711405,45.111633146818704,44.43925348359507,45.398092226467455
34.5,47.57928732607432,45.412271783156186,46.75314857107399,46.04963326203743,45.350549123917844,46.3132373618494
35.5,48.54680983520812,46.38219967332303,47.66585318030742,46.961100867989884,46.25557197051056,47.248549759593644
36.5,49.44680983520816,47.28219967332306,48.56585318030743,47.86110086798989,47.176120840287226,48.15182606350119
37.5,50.346809835208134,48.18219967332304,49.48073246520373,48.78147249156247,48.083172498892125,49.06004434205913
38.7,51.27928732607434,49.112271783156174,50.41001860711971,49.7116331468187,49.03925348359506,49.994771000860126
40.0,52.24680983520814,50.082199673323046,51.36585318030744,50.6611008679899,49.9603633349556,50.94931252831164
41.2,53.146809835208146,50.982199673323024,52.28073246520374,51.58147249156248,50.88317249889211,51.86004434205914
42.5,54.146809835208146,51.9489851487955,53.26585318030742,52.56110086798991,51.850549123917844,52.842325715032516
43.7,55.04680983520815,52.88219967332303,54.18073246520375,53.46110086798991,52.77612084028722,53.755103958504904
45.0,55.94680983520813,53.81227178315619,55.11001860711973,54.40283713091445,53.72532528678941,54.68217590347355
46.2,56.87928732607432,54.71227178315618,56.01001860711975,55.31163314681871,54.613963764326556,55.59072187925064
47.5,57.74680983520814,55.582199673323046,56.88073246520375,56.181472491562474,55.48317249889212,56.46004434205915
48.7,58.57928732607432,56.41227178315617,57.71001860711972,57.03090607099317,56.32532528678941,57.29615819509945
50.0,59.37928732607432,57.21227178315618,58.52509008711408,57.83090607099318,57.12532528678942,58.09947836043797
51.5,60.146809835208146,57.98219967332304,59.26585318030742,58.56110086798991,57.85054912391786,58.847750899080026
53.0,60.84680983520815,58.61227178315619,59.965853180307434,59.261100867989896,58.55054912391783,59.536369319225244
54.5,61.44680983520814,59.28219967332305,60.5948946418235,59.87153311329553,59.198186545588115,60.16370828721175
56.0,62.07928732607431,59.912271783156186,61.21001860711972,60.51163314681871,59.83925348359507,60.79477100086012
58.0,62.71007799780293,60.51227178315618,61.82509008711408,61.13090607099318,60.43925348359507,61.40999305892352
60.0,63.24680983520814,61.082199673323046,62.3948946418235,61.69339221619062,61.004022951458055,61.96873827793995
61.5,63.846809835208134,61.682199673323055,62.99489464182348,62.261100867989896,61.58793352617411,62.560118547217954
63.0,64.44680983520814,62.28219967332306,63.56585318030743,62.86110086798989,62.176120840287226,63.15182606350119
65.0,65.04680983520815,62.88219967332304,64.18073246520375,63.4611008679899,62.77612084028722,63.755103958504904
67.0,65.64680983520815,63.482199673323024,64.76585318030743,64.06110086798991,63.365374850246056,64.35011110165031
69.0,66.21007799780291,64.08219967332305,65.36585318030744,64.64963326203744,63.965374850246036,64.93809076283469
71.0,66.74680983520815,64.61227178315617,65.91001860711972,65.19094333629236,64.48554475626635,65.4735861735577
73.0,67.27928732607432,65.11227178315617,66.42284982780014,65.68939887787779,65.00486600231851,65.98794055310775
75.0,67.74680983520814,65.58219967332305,66.86585318030741,66.17106412306926,65.4703805891932,66.4527752863183
77.5,68.14680983520815,65.98219967332305,67.26585318030743,66.5611008679899,65.8703805891932,66.85090952817568
80.0,68.44680983520816,66.28219967332303,67.59489464182347,66.88147249156248,66.19818654558813,67.16556855619163
82.5,68.74680983520814,66.54898514879551,67.86585318030744,67.1611008679899,66.45764239192178,67.44345550295203
85.0,68.94680983520814,66.74898514879551,68.02509008711407,67.35220180287493,66.6544583505975,67.63232452161347
87.5,69.04680983520815,66.8489851487955,68.18073246520375,67.49512349711385,66.80847164187468,67.76125472290168
90.0,69.24680983520815,67.0489851487955,68.34010944483073,67.68348011143028,66.97846982982607,67.9453297039983
92.5,69.41627940083642,67.24898514879551,68.54010944483075,67.87153311329551,67.16924562546666,68.13338091553138
95.0,69.6840783937255,67.44898514879551,68.78073246520376,68.10456465153558,67.42612550157388,68.37591341980574
97.5,70.04680983520815,67.8489851487955,69.14010944483076,68.4611008679899,67.75947668060594,68.7380867129191
100.0,70.47928732607433,68.31227178315618,69.62509008711407,68.9116331468187,68.23925348359508,69.19809222646747
103.0,71.1100779978029,68.9457671943847,70.25092274245712,69.50877050499905,68.81405016120073,69.81300247261757
106.0,71.81007799780292,69.67977745790567,70.97814647891836,70.2075384795962,69.50674460473881,70.52323477408784
109.0,72.57387961222818,70.4797774579057,71.80455874229852,70.97464842201583,70.27582614817196,71.30842758166422
112.0,73.4069050103546,71.34935766478272,72.66035311823195,71.78108475161753,71.09766086650382,72.1459638141033
115.0,74.20306957104252,72.14935766478271,73.4884565462688,72.5712762676325,71.87502775323257,72.94593853241872
118.0,74.93663575667186,72.95017075212571,74.25971162455998,73.28217402076807,72.60664502541304,73.69488533174334
122.0,75.60228461396021,73.65017075212572,74.95971162456,73.92165866034354,73.24535315643448,74.36527259589651
125.0,76.06845083805433,74.15260953202217,75.50229476693691,74.41193190843506,73.7452018830278,74.86476072992554
128.0,76.43513059177984,74.55260953202216,75.88879404668057,74.77182174165698,74.11711304208218,75.2412948382388
132.0,76.63513059177983,74.78982856673471,76.11835363941749,74.96462374893454,74.32681014504965,75.454747118215
136.0,76.73746771551315,74.91916705502754,76.23207477174951,75.0569803311701,74.4217983338312,75.56147260067564
140.0,76.77001488257477,74.95667255930051,76.26133449841815,75.04607281304851,74.43667383433821,75.5836840622739
145.0,76.70231994589774,74.95667255930051,76.24672927648561,75.01878561484067,74.39415975941976,75.55119618200114
150.0,76.67001488257478,74.85667255930049,76.21963474575118,74.94607281304852,74.31548781592458,75.49414660189304
155.0,76.60306957104252,74.85667255930049,76.19076648038238,74.88959629367102,74.26201512438249,75.45172724085312
160.0,76.60306957104252,74.82402487026023,76.21963474575118,74.89904945828768,74.21695642447285,75.44776682558822
165.0,76.63821129888744,74.88623512455237,76.3052245995335,74.96038875040472,74.24763852866064,75.5036455102402
170.0,76.77150800786937,75.02402487026022,76.4196347457512,75.08251618701847,74.31910270379468,75.62199955104784
175.0,76.97150800786937,75.12402487026023,76.61963474575118,75.24432683772687,74.4151476469453,75.78265809321876
180.0,77.17150800786939,75.28623512455239,76.81963474575117,75.42584564657186,74.53884276250109,75.96184231078111
185.0,77.37150800786937,75.42402487026023,77.01963474575118,75.62693908888363,74.64340037176827,76.13779021913145
190.0,77.57150800786938,75.58623512455237,77.21963474575118,75.81959910985348,74.71755992379242,76.31244304790933
195.0,77.77150800786937,75.68623512455237,77.40488837361548,75.982851442798,74.79477169003637,76.46856186403363
200.0,77.90306957104252,75.78623512455238,77.56133449841815,76.12475944019808,74.8128916864231,76.58766532443285
206.0,78.00306957104253,75.78623512455238,77.66133449841816,76.17709677271897,74.75319227307801,76.6416204962231
212.0,78.06845083805432,75.75667255930051,77.73206698860612,76.19227192995494,74.65616236621614,76.66309951503466
218.0,78.13663575667186,75.68623512455237,77.73206698860612,76.196126921339,74.49866740500391,76.6519446129313
224.0,78.13663575667186,75.58982856673471,77.74837922688081,76.15170357140204,74.31013235333326,76.6102357025861
230.0,78.10228461396021,75.45260953202218,77.73439067134419,76.09005385878596,74.08718962457341,76.53832167460482
236.0,78.10228461396021,75.35260953202219,77.7209895119551,76.00504740172016,73.84571447617365,76.47706810100411
240.0,78.10228461396021,75.18982856673473,77.70624774699529,75.93656252746375,73.59279499614736,76.40895288182257
250.0,78.10228461396021,75.08982856673472,77.70689718599805,75.8576016182824,73.36055661080425,76.35619227088131
258.0,78.17071732495408,75.02349685065981,77.74870452582152,75.79520092751302,73.12705076392284,76.34457206882652
265.0,78.2022846139602,74.96096514237182,77.79371824189381,75.74764174205242,72.90747382309192,76.32878554635164
272.0,78.2707173249541,74.93257218046558,77.8792217019935,75.69483469668042,72.67385522524023,76.34020056728211
280.0,78.30531806766471,74.87082970284298,77.93572720132063,75.68224483035169,72.47347996441378,76.33937902509219
290.0,78.40531806766471,74.84314826109434,78.0091980477535,75.65469072254298,72.23296127413552,76.36465131906975
300.0,78.43964531976002,74.78219812790057,78.09371824189382,75.63678978083875,72.00274976909449,76.37171942536592
307.0,78.5053180676647,74.72179738688895,78.17922170199348,75.60353977658558,71.7421752412307,76.3862649423208
315.0,78.57449351030439,74.63546263134683,78.25067992377613,75.59432499797987,71.45208028696362,76.39828559927075
325.0,78.57449351030439,74.53546263134683,78.27984578483091,75.57865070237325,71.16320359259277,76.37350947173182
335.0,78.57449351030439,74.45062128010365,78.30785332724419,75.55310071694468,70.83228162662147,76.34770211378539
345.0,78.54415774934851,74.392378988098,78.32192748204642,75.5298966320951,70.49034708381485,76.3120887720296
355.0,78.5098662867233,74.30982855556756,78.32192748204642,75.50909625139143,70.1796742263537,76.270801123093
365.0,78.44415774934852,74.15295536787777,78.33532575188418,75.5089088454465,69.82289877392232,76.21642521183004
375.0,78.37977745790569,74.09664781293232,78.33532575188418,75.50335710661251,69.51472078256774,76.17331376293443
387.0,78.2797774579057,74.07269145322596,78.32192748204642,75.52274761926813,69.20474200684988,76.12321703214803
400.0,78.25017075212571,74.0491520399883,78.32192748204642,75.56537779840069,68.93062341716326,76.1072234058676
412.0,78.1501707521257,74.0491520399883,78.30718890601233,75.60078334957244,68.7078060570433,76.06771379908143
425.0,78.05768127821952,74.12602452356693,78.30624774699528,75.6712198326696,68.50965079554972,76.05319584536332
437.0,77.95768127821954,74.14915203998831,78.322948091051,75.72600578552091,68.33688970187937,76.0345200320874
450.0,77.86668552790022,74.22602452356692,78.33832424471126,75.80519048927388,68.20951280848944,76.03236345026012
462.0,77.76668552790022,74.2816120853342,78.33892587973101,75.8340387147777,68.09826564037301,76.01160480467321
475.0,77.67717895989803,74.3816120853342,78.35557646695388,75.88710318293282,68.02771400711273,76.01233685089078
487.0,77.61172846437378,74.3816120853342,78.37119257725469,75.89100102582266,67.97406334784843,75.99767888124563
500.0,77.52361102993711,74.2816120853342,78.3587928499234,75.84375246662222,67.91205215091338,75.94302077761355
515.0,77.4236110299371,74.18161208533421,78.30158477806637,75.75197356388803,67.85541682991779,75.86096454144173
530.0,77.36283617001536,74.0586572401787,78.25879284992341,75.62279307170938,67.81095618354814,75.78537867900062
545.0,77.36283617001536,73.90330383828929,78.23080812101848,75.48973169695503,67.74352271063992,75.72724319175897
560.0,77.36283617001536,73.70330383828929,78.21770164609573,75.2802477624745,67.66509405681408,75.65510419837078
580.0,77.36283617001536,73.54852015458806,78.14739877500848,75.06684749565515,67.58086834022838,75.56883349626469
600.0,77.38915630129641,73.39430744544666,78.14830984010617,74.8802990421063,67.52098815467704,75.5234544988244
615.0,77.41592538879983,73.26268190818897,78.12148814009616,74.65758217227177,67.39719292159046,75.46432714549915
630.0,77.51592538879983,73.16268190818897,78.14074924436274,74.46547468469392,67.29727191534616,75.45694496277882
650.0,77.60464502318536,73.18759923684219,78.15678297916978,74.27341340164149,67.14446991234533,75.46015725676581
670.0,77.7948570588317,73.26620989389217,78.20487132123954,74.11620596122782,67.00444080671284,75.52325304445
690.0,77.91592692226708,73.34520516099383,78.26712806966236,73.96006668393386,66.8205864553082,75.56991657055083
710.0,78.10986628672329,73.42457993687897,78.26712806966236,73.77285851300012,66.62620974027747,75.6169750454484
730.0,78.27449351030438,73.52457993687896,78.25581020445124,73.58438815219404,66.43994585981442,75.65570397906062
750.0,78.40228461396019,73.62457993687899,78.21587609967422,73.42538844467178,66.22422108475277,75.67655356221977
775.0,78.56845083805433,73.62457993687899,78.10468472610967,73.21824979009992,65.98129416966565,75.67115688947348
800.0,78.63513059177983,73.60921140720403,77.92992432109263,73.03951153530541,65.67663381340839,75.6087585102712
825.0,78.70231994589774,73.52990957385144,77.67254012079245,72.78691439252931,65.39267244473535,75.5067974320644
850.0,78.70542400732661,73.40473949550547,77.36712806966237,72.55584613642087,65.04340462040143,75.36234771557696
875.0,78.70542400732661,73.1809849055068,77.0514973112544,72.29193299675254,64.73097414931856,75.20261171364297
900.0,78.71007799780291,72.95865724017871,76.68937605813842,72.07387294526825,64.42269694320473,75.04105204878361
925.0,78.6489851487955,72.78161208533422,76.38598049073305,71.89943292396747,64.14427979830204,74.88080101310999
950.0,78.58219967332305,72.58538710465899,76.12719300880308,71.77706124645059,63.893111444178885,74.73585548185528
975.0,78.51916705502754,72.40034112939827,75.93872426809028,71.70236818008006,63.657259990889045,74.61979886242698
1000.0,78.45260953202217,72.22526453928849,75.8508981837671,71.69832601669141,63.41494019377218,74.53828109509723
1030.0,78.42104166298748,72.20034112939828,75.87787006562112,71.79965916655848,63.167675778575145,74.5341400111469
1060.0,78.42104166298748,72.15866027600835,76.00997539055159,71.9390749522316,62.90937083080409,74.57706985200247
1090.0,78.3493576647827,72.10034112939826,76.18413669139782,72.097609130039,62.61658087082404,74.59908537770501
1120.0,78.35603885002969,72.05177437534739,76.37177391891274,72.21151426023127,62.294514565244754,74.66066951167305
1150.0,78.29238562216105,72.02812100489949,76.48413669139784,72.2679375771729,61.95477847494125,74.66491714276854
1180.0,78.27383110211925,71.92545123408709,76.5929203830401,72.21766451927407,61.54657826462018,74.66888327044728
1220.0,78.25858760124326,71.79220047151573,76.54109068626475,71.97802361299347,61.06177385317545,74.6003748569271
1250.0,78.182196718458,71.57523823794749,76.31774997355426,71.57259511911995,60.45604900403191,74.42411176193492
1280.0,78.14087709308414,71.23012177221653,75.9551737324674,70.91625551550511,59.7819952639896,74.18805247321332
1320.0,78.09131989093879,70.85800804769342,75.45031517400119,70.12079259371826,59.00166844838327,73.90140712332884
1360.0,78.04519084191033,70.42406634433557,74.84637216526706,69.2121258913059,58.22385992458511,73.59115554838324
1400.0,77.9493301715783,70.02672208916906,74.21048094845237,68.24887023024878,57.41332285533461,73.26437242075558
1450.0,77.85083172259907,69.61755713588666,73.55119804304465,67.28299815909318,56.69287995250083,72.94869083119198
1500.0,77.63787328554854,69.2422920764254,72.97693245688706,66.45586065916966,56.03451235091423,72.60629012540292
1550.0,77.35824935780077,69.00920303819731,72.51791106050909,65.75909474134015,55.48087709260834,72.27188423307094
1600.0,77.01906416705698,68.89547355060121,72.24562494321047,65.24737688654146,55.113091213363276,71.96103951088553
1650.0,76.54365677073147,68.8092030381973,72.11378503421089,65.00260750458219,54.8804271856787,71.61146250274338
1700.0,76.09003455309984,68.92320753866267,72.21041339668744,65.00788126284736,54.82770246470133,71.37077861794931
1750.0,75.57833425668983,69.0816538778036,72.46494703274045,65.16926805495187,54.891846380278125,71.169888944858
1800.0,75.16466171748947,69.34132986207625,72.83795246560979,65.48236553192397,55.02519922230137,71.10665174568045
1850.0,74.7441578869413,69.53403046914815,73.25959949552775,65.88470037148453,55.263397024486665,71.08502395361158
1900.0,74.38347257245897,69.81411392837596,73.73619012426018,66.29501507585931,55.5229712847904,71.1577509057009
1950.0,74.10185682110026,70.02756634145693,74.21680131699506,66.70736177785366,55.77893429833493,71.28702231173575
2000.0,73.92509593872357,70.19472217650473,74.70923979109976,67.00043264953531,55.968234509164645,71.46936554026497
2060.0,73.74284828345323,70.18230649956843,75.1469608604964,67.23931594823486,56.10399984129893,71.61476751850442
2120.0,73.73353811062069,70.20174601124772,75.51771327103569,67.37300718469187,56.143234771601,71.7954421612546
2180.0,73.82524894321287,70.12457993687897,75.85623589762032,67.44088028071587,56.154462649444,71.98071499776229
2240.0,73.99517048879655,70.02457993687898,76.15080943813255,67.45706419082327,56.12995419888841,72.16658948686936
2300.0,74.27611856531715,69.84520516099381,76.40844088041722,67.48038641299301,56.07910931177777,72.3632360869684
2360.0,74.66283617001537,69.74520516099382,76.6136042392154,67.48490946041959,56.04384982633148,72.57914125508567
2400.0,75.10722417372365,69.64520516099383,76.76379774883031,67.52892170561148,56.033345312798374,72.79469013810679
2500.0,75.49448868932289,69.56620989389216,76.90172533273086,67.6360520290633,56.06877858897015,72.9968132344138
2580.0,75.84852015458806,69.55098823501218,77.01872910685097,67.82821705603637,56.13203708586731,73.1920784973564
2650.0,76.08343461029551,69.61904449785341,77.10015246773533,68.04368354538182,56.23153470356428,73.33746763846017
2720.0,76.28915939292243,69.71904449785343,77.1291220348985,68.3571083971191,56.3618344593841,73.45724069059148
2800.0,76.45638566828012,69.77245249207644,77.1503553798294,68.64098677842509,56.50295723055595,73.5547393515308
2900.0,76.52592476994779,69.87245249207646,77.17475980951839,68.98800781117829,56.63312680542198,73.62501222851465
3000.0,76.62747332942241,70.02643297742509,77.15301930814063,69.33560280885531,56.730428712988555,73.6932159080797
3070.0,76.71970009810245,70.05906263657509,77.13203502112772,69.59354801523448,56.794661437288255,73.74284646631149
3150.0,76.79825459637365,70.12643297742508,77.1411186601097,69.85293599523473,56.79852113987148,73.8042365189849
3250.0,76.90519194627345,70.0809849055068,77.12453972000606,70.067436564755,56.76069056060875,73.85364042178786
3350.0,76.97263021037121,70.0809849055068,77.09297922067088,70.188736002872,56.65871528986328,73.87755812577332
