Freq "On Axis"
22.4 33.2
23.0 33.7
23.6 34.2
24.0 34.89999999999999
25.0 35.60000000000001
25.8 36.3
26.5 36.89999999999999
27.2 37.500000000000014
28.0 41.39999999999999
29.0 44.39999999999999
30.0 46.3
30.7 47.60000000000001
31.5 49.500000000000014
32.5 53.2
33.5 55.500000000000014
34.5 57.000000000000014
35.5 58.39999999999999
36.5 60.39999999999999
37.5 61.89999999999999
38.7 63.10000000000001
40.0 63.60000000000001
41.2 63.2
42.5 62.60000000000001
43.7 62.500000000000014
45.0 65.09999999999998
46.2 67.0
47.5 68.60000000000001
48.7 70.6
50.0 72.1
51.5 73.4
53.0 74.8
54.5 76.0
56.0 77.59999999999998
58.0 79.1
60.0 80.00000000000001
61.5 80.39999999999999
63.0 80.7
65.0 81.2
67.0 81.8
69.0 82.7
71.0 83.60000000000001
73.0 83.60000000000001
75.0 83.7
77.5 84.4
80.0 84.7
82.5 83.99999999999999
85.0 84.5
87.5 85.5
90.0 85.7
92.5 86.0
95.0 86.10000000000001
97.5 85.00000000000001
100.0 84.2
103.0 83.99999999999999
106.0 83.4
109.0 83.3
112.0 83.2
115.0 82.8
118.0 83.0
122.0 83.90000000000002
125.0 84.2
128.0 84.7
132.0 84.4
136.0 85.00000000000001
140.0 86.10000000000001
145.0 87.0
150.0 87.4
155.0 85.5
160.0 84.1
165.0 83.7
170.0 83.60000000000001
175.0 85.00000000000001
180.0 85.5
185.0 84.5
190.0 84.5
195.0 85.8
200.0 84.4
206.0 81.3
212.0 82.4
218.0 84.5
224.0 83.4
230.0 84.3
236.0 83.4
240.0 80.7
250.0 80.39999999999999
258.0 85.2
265.0 86.2
272.0 84.1
280.0 85.2
290.0 85.6
300.0 83.99999999999999
307.0 83.5
315.0 83.8
325.0 84.2
335.0 84.5
345.0 84.7
355.0 84.8
365.0 84.8
375.0 84.8
387.0 84.8
400.0 84.8
412.0 84.6
425.0 84.4
437.0 83.99999999999999
450.0 83.60000000000001
462.0 83.3
475.0 83.2
487.0 83.2
500.0 83.2
515.0 83.2
530.0 83.3
545.0 83.4
560.0 83.5
580.0 83.3
600.0 82.89999999999999
615.0 82.50000000000001
630.0 82.2
650.0 82.1
670.0 82.1
690.0 82.50000000000001
710.0 83.0
730.0 83.5
750.0 83.5
775.0 83.2
800.0 82.7
825.0 82.0
850.0 81.2
875.0 81.3
900.0 82.1
925.0 83.2
950.0 84.2
975.0 84.7
1000.0 84.9
1030.0 84.8
1060.0 84.5
1090.0 84.3
1120.0 84.3
1150.0 84.2
1180.0 83.99999999999999
1220.0 83.0
1250.0 81.49999999999999
1280.0 80.00000000000001
1320.0 79.5
1360.0 80.39999999999999
1400.0 81.10000000000001
1450.0 81.3
1500.0 81.8
1550.0 82.7
1600.0 83.3
1650.0 83.1
1700.0 82.3
1750.0 82.59999999999998
1800.0 83.8
1850.0 84.9
1900.0 85.5
1950.0 85.3
2000.0 84.4
2060.0 83.90000000000002
2120.0 84.2
2180.0 83.60000000000001
2240.0 82.59999999999998
2300.0 83.2
2360.0 84.4
2400.0 84.8
2500.0 84.7
2580.0 84.6
2650.0 84.6
2720.0 84.4
2800.0 84.4
2900.0 84.2
3000.0 83.90000000000002
3070.0 83.7
3150.0 83.60000000000001
3250.0 83.60000000000001
3350.0 83.3
3450.0 82.8
3550.0 82.4
3650.0 82.2
3750.0 82.3
3870.0 82.7
4000.0 83.2
4120.0 84.1
4250.0 84.1
4370.0 84.5
4500.0 84.7
4620.0 84.7
4750.0 85.00000000000001
4870.0 84.9
5000.0 83.99999999999999
5150.0 83.99999999999999
5300.0 83.99999999999999
5450.0 83.7
5600.0 83.5
5800.0 83.90000000000002
6000.0 84.5
6150.0 84.3
6300.0 83.60000000000001
6500.0 83.2
6700.0 83.4
6900.0 83.8
7100.0 84.4
7300.0 85.00000000000001
7500.0 85.2
7750.0 84.6
8000.0 84.3
8250.0 84.4
8500.0 85.2
8750.0 85.3
9000.0 84.7
9250.0 84.2
9500.0 84.7
9750.0 85.00000000000001
10000.0 85.00000000000001
10300.0 85.8
10600.0 86.0
10900.0 85.9
11200.0 86.0
11500.0 86.10000000000001
11800.0 82.3
12200.0 76.2
12500.0 83.0
12800.0 83.99999999999999
13200.0 83.1
13600.0 84.1
14000.0 86.0
14500.0 86.0
15000.0 87.2
15500.0 87.89999999999999
16000.0 84.6
16500.0 80.39999999999999
17000.0 81.3
17500.0 80.00000000000001
18000.0 73.5
18500.0 73.99999999999999
19000.0 71.7
19500.0 66.9
