Freq "Early Reflections"
20.5078 75.06156094951919
21.9727 77.2742806144071
23.4375 79.8239474805745
24.9023 83.44853466213593
26.3672 86.59487190354588
27.832 89.42777113962643
29.2969 92.04617889334976
30.7617 94.59499802133509
32.2266 97.20527676796598
33.6914 99.31330471011393
35.1562 100.9180703901342
36.6211 102.42141321859464
38.0859 103.58997425942975
39.5508 104.54463209041464
41.0156 105.36739015745782
42.4805 106.15174232730806
43.9453 106.73981862228419
45.4102 107.25168745341193
46.875 107.78073247663838
48.3398 108.3167960159429
51.2695 109.17238342342146
52.7344 109.7124061213738
54.1992 110.23785270195638
55.6641 110.66736834694888
58.5938 111.19264249926142
60.0586 111.56885925876617
62.9883 112.15999286155136
64.4531 112.38896032589003
67.3828 112.70828012550322
68.8477 112.92972832216526
71.7773 113.38285134161865
74.707 113.42240477808491
77.6367 113.57286264834795
79.1016 113.81376181590753
82.0312 113.76983997094376
84.9609 113.38504050853795
87.8906 113.77492051729514
90.8203 113.90917748551962
95.2148 113.40242919175799
98.1445 113.47676842012088
101.074 113.76592950381898
105.469 113.16544017003889
108.398 113.4331018430747
112.793 113.43461968039955
117.188 113.46609405656567
120.117 113.39785206522843
124.512 113.20843193733708
128.906 113.08232757809897
133.301 113.00686208712933
139.16 112.90824918212883
143.555 112.8476071063264
147.949 112.73912743274757
153.809 112.60473943522928
159.668 112.47920112529381
165.527 112.5234371890073
171.387 112.34092961017893
177.246 112.17036427454914
183.105 111.94813153536437
188.965 111.84483978866137
196.289 111.72781717701564
203.613 111.51706740667707
210.938 111.39222220598828
218.262 111.17152688206528
225.586 111.06404676452726
232.91 110.91228926265308
241.699 110.61391226851481
250.488 110.46960223198613
259.277 110.69353290596867
268.066 110.3166796228098
276.855 110.33190340632635
287.109 110.2866485849831
297.363 110.002765302909
307.617 110.02632092463952
319.336 110.3238111281977
329.59 109.7741923261471
341.309 109.62688530453852
353.027 109.23089751006181
366.211 108.66298265601421
379.395 108.3581744291432
392.578 107.52245527774065
405.762 106.94274395716576
420.41 107.01350830839365
435.059 106.5076169670636
451.172 106.73987470168862
465.82 106.51948719063252
483.398 106.64024116663913
499.512 106.41197793672006
517.09 106.46596650397157
536.133 105.48415508873202
555.176 106.1957440516359
574.219 106.275259103653
594.727 105.7383905118356
615.234 106.08421597541053
637.207 106.12950098834837
659.18 105.24238632089262
682.617 105.26471371550684
707.52 105.34072015620349
732.422 104.10435617647585
757.324 104.55133101712298
785.156 105.0399834249209
811.523 105.10288834180623
840.82 104.80326033979549
870.117 105.04176673624846
900.879 105.31781380250699
933.105 105.40477405095396
965.332 105.62847291053767
1000.49 105.33245382083774
1035.64 105.62145106080774
1072.27 105.3747051772834
1108.89 105.09609631117165
1148.44 104.91506912729258
1189.45 104.69833242464142
1230.47 104.74293380665522
1274.41 105.16717766958486
1319.82 105.40931562131293
1366.7 105.86021164197504
1413.57 106.22435055679178
1463.38 106.50823260289103
1516.11 106.16838271622689
1568.85 106.0989210304831
1624.51 106.01595430318716
1681.64 106.53632449924736
1741.7 106.76966393682352
1803.22 106.78166428750696
1866.21 106.49474583210497
1932.13 105.92162779488851
1999.51 105.66424298822017
2069.82 106.79303089176453
2143.07 106.6945480594446
2219.24 105.77618906678681
2296.88 104.90992114036233
2378.91 103.95948451256271
2462.4 105.31649581907863
2548.83 106.00457098774898
2639.65 106.3415662338524
2731.93 106.06031556448174
2828.61 106.52474066026787
2928.22 107.54273147225322
3030.76 108.23995994181696
3137.7 108.35763857514442
3249.02 108.47272120927903
3363.28 108.2049194199943
3481.93 108.42750966466603
3604.98 108.67337081921747
3732.42 108.61035216103545
3864.26 109.34185596534365
4000.49 109.14396786903552
4141.11 109.8959993527315
4287.6 110.31927257574296
4438.48 110.10987171996032
4595.21 110.06612670734395
4756.35 110.04067091523285
4924.8 110.02430014819086
5097.66 110.3539215268449
5277.83 109.28019560831716
5463.87 109.22911922219774
5657.23 109.18182026387359
5856.45 108.9831237826752
6062.99 108.75543912212822
6276.86 109.26977412522547
6498.05 109.21430564395702
6726.56 109.32003468905089
6963.87 108.60165337786607
7209.96 107.66624164946849
7464.84 106.51113586471035
7727.05 105.98319410826997
7999.51 105.50123302404342
8282.23 104.35520933221756
8573.73 104.03656006472025
8876.95 103.83716793828366
9188.96 102.38132894768735
9514.16 100.47254826096588
9849.61 99.50201723380239
10196.8 98.59632602562041
10555.7 97.52828440888283
10927.7 96.91977006268114
11313.0 96.78105555452714
11712.9 97.19355287691764
12126.0 97.85941886559785
12553.7 98.64863686690427
12996.1 100.0700656939679
13454.6 101.9832529521627
13929.2 104.07741298441438
14419.9 104.96118399028526
14928.2 106.91006123281376
15455.6 107.68699897307935
16000.5 106.24861977561248
16564.5 100.77421627494266
17148.9 93.94889158832515
17752.4 88.27431716925446
18379.4 85.26379653699684
19026.9 88.95033477077085
19697.8 92.44504374236935
19999.5 93.51258561541633
