Freq "Front Wall Bounce"
20.5078 57.489749846688554
21.9727 58.95587193496776
23.4375 60.27893276332351
24.9023 62.072347614298465
26.3672 63.2820224718529
27.832 64.91918253621647
29.2969 66.11279165783411
30.7617 67.28922992301678
32.2266 68.26269069234677
33.6914 69.31707131209795
35.1562 70.38288621744468
36.6211 71.22309574612251
38.0859 72.06171776345732
39.5508 72.90749833802342
41.0156 73.74174995529734
42.4805 74.44183881980328
43.9453 75.16966803312796
45.4102 75.79791273436155
46.875 76.50184286767117
48.3398 76.95455306185987
51.2695 77.98092846107532
52.7344 78.51230362026037
54.1992 79.04590056869064
55.6641 79.51724579080914
58.5938 80.24167102233689
60.0586 80.64640780309287
62.9883 81.24899448331134
64.4531 81.50379685010267
67.3828 81.94620898324551
68.8477 82.11032107610608
71.7773 82.63379190756393
74.707 83.07267871418695
77.6367 83.46089741805206
79.1016 83.6241293441356
82.0312 83.81186320206159
84.9609 84.0147878805571
87.8906 84.430873675856
90.8203 84.80414680830047
95.2148 84.86793688400068
98.1445 85.10107904307435
101.074 85.11594890908982
105.469 85.47568614677448
108.398 85.67912097063412
112.793 85.87709178469238
117.188 86.09846858641416
120.117 86.14283024233048
124.512 86.16740110868308
128.906 86.18402925109035
133.301 86.26631264996445
139.16 86.33576099930609
143.555 86.41540611869479
147.949 86.44255174653135
153.809 86.45467933245183
159.668 86.45876631299306
165.527 86.62424265092368
171.387 86.62828305117041
177.246 86.62850862265171
183.105 86.53123744700433
188.965 86.54486130787619
196.289 86.57598905608322
203.613 86.62084709420154
210.938 86.52969439981298
218.262 86.26438000176782
225.586 86.36017916105848
232.91 86.51245684144865
241.699 86.36888072157815
250.488 86.3805062185146
259.277 86.55421290525466
268.066 86.37619678605073
276.855 86.5650322660364
287.109 86.33894136566569
297.363 86.53535780373203
307.617 86.82631906377212
319.336 86.28002909458483
329.59 86.21153390845349
341.309 86.10011133284836
353.027 86.46082862543534
366.211 86.42637805742564
379.395 86.67721958672917
392.578 86.12871858256445
405.762 85.9480114596037
420.41 86.55380736991951
435.059 85.79011600699324
451.172 86.13813690924546
465.82 85.86989112754823
483.398 86.23408278379648
499.512 85.81362788426074
517.09 85.40268268202735
536.133 84.99394610415845
555.176 84.91899992572714
574.219 84.39802427917284
594.727 84.858325001902
615.234 84.78042942944055
637.207 84.591119378939
659.18 85.9651909630632
682.617 85.0650795838232
707.52 84.68815736984304
732.422 84.16322237300565
757.324 84.34203376629675
785.156 83.7441749111925
811.523 83.66284443692179
840.82 81.88475854214478
870.117 83.06483991960995
900.879 83.27039687931784
933.105 84.78612488619954
965.332 84.0119050522127
1000.49 82.66582503108306
1035.64 84.3416848732068
1072.27 83.06745755164907
1108.89 82.52873857407866
1148.44 80.59019167329971
1189.45 79.79874842113495
1230.47 81.5387820486121
1274.41 83.14143923088804
1319.82 82.80184542115424
1366.7 82.63934026962471
1413.57 82.37506275611526
1463.38 82.10154844298172
1516.11 82.19320133438981
1568.85 81.35635091276828
1624.51 82.33179003674964
1681.64 83.46185375407084
1741.7 83.81087906250383
1803.22 83.83649446191423
1866.21 83.22015709980381
1932.13 82.59133396980727
1999.51 82.08225495111155
2069.82 81.50355851666842
2143.07 81.15224545367757
2219.24 80.29990035204233
2296.88 79.95143471455224
2378.91 79.96118746420363
2462.4 81.27227828154697
2548.83 81.60793946801962
2639.65 81.35237816732082
2731.93 81.50000335771675
2828.61 82.59158620415502
2928.22 83.80763406814876
3030.76 84.48003381098054
3137.7 84.61766019347273
3249.02 84.78667481070167
3363.28 85.59705041448414
3481.93 86.07662281404077
3604.98 86.23587195508631
3732.42 86.77475804296645
3864.26 85.8845116348529
4000.49 85.29694501972843
4141.11 86.06745104485515
4287.6 85.5173859466795
4438.48 85.541318998631
4595.21 84.9727648924786
4756.35 85.3956314424335
4924.8 85.26656167462657
5097.66 84.24233784156146
5277.83 85.02735251897171
5463.87 85.82447534604664
5657.23 86.1333695312853
5856.45 85.63770435091813
6062.99 86.56419182906288
6276.86 86.55122456231275
6498.05 87.01815857054608
6726.56 86.93191675808963
6963.87 86.55135426824462
7209.96 86.74792037567454
7464.84 86.65515152540554
7727.05 86.57005431650519
7999.51 86.32033241254983
8282.23 86.12366357674534
8573.73 86.08784041428028
8876.95 85.58306199591543
9188.96 85.61769289334238
9514.16 85.96748604230615
9849.61 85.7741225897304
10196.8 85.78349272771773
10555.7 86.18356410531511
10927.7 86.48893280105555
11313.0 86.31436367373374
11712.9 86.34515295973925
12126.0 86.18776747375767
12553.7 86.08214481347407
12996.1 86.00426786584384
13454.6 86.1416913772141
13929.2 86.30502004170704
14419.9 86.46852794671624
14928.2 86.38708915414087
15455.6 86.11015952828544
16000.5 85.72737383083681
16564.5 85.30077682580587
17148.9 84.59977353482094
17752.4 83.77408136810858
18379.4 82.78861792516837
19026.9 82.04044583431185
19697.8 81.4721616298375
19999.5 81.44098190731017
