Freq,On Axis,Listening Window,Sound Power,Early Reflections,Early Reflections DI,Sound Power DI,DI offset
22.4,7.3999999999999915,14.559581420885408,13.370968977513755,13.346203162622473,21.213378258262935,21.188612443371653,20
23.0,7.700000000000003,12.630090000518393,13.872585163679801,12.958283051353462,19.67180694916493,18.757504836838592,20
23.6,7.999999999999986,9.684189855661018,17.55431236651195,15.336684851180152,14.347505004480865,12.129877489149067,20
24.0,8.100000000000009,10.462840790118591,15.514902628554395,13.597381968144774,16.865458821973817,14.947938161564196,20
25.0,8.200000000000003,12.255693669263522,14.472426319308468,13.00976960669847,19.245924062565052,17.783267349955054,20
25.8,8.100000000000009,13.309438928296814,13.846470666797174,12.778190015917588,20.531248912379226,19.46296826149964,20
26.5,7.8999999999999915,13.499730410956985,13.046779151950787,12.21830927750112,21.281421133455865,20.4529512590062,20
27.2,7.499999999999986,10.186057884562487,10.981961244263388,9.632596708256742,20.553461176305746,19.2040966402991,20
28.0,6.799999999999997,6.996993361286755,9.342248618528984,7.506957344060808,19.490036017225947,17.65474474275777,20
29.0,6.299999999999997,4.550907192315876,8.337712987607247,6.150609350069473,18.400297842246403,16.21319420470863,20
30.0,5.90000000000002,2.750706678641322,4.4215023034827965,3.683433601329213,19.06727307731211,18.329204375158525,20
30.7,6.399999999999963,2.8613280301580772,3.9718385175495,3.7964378407399835,19.064890189418094,18.889489512608577,20
31.5,7.799999999999997,3.726155071540248,5.400097312113999,5.236394702508605,18.489760369031643,18.32605775942625,20
32.5,9.799999999999997,4.778978329486492,7.517150048626647,7.291053186501117,17.487925142985375,17.261828280859845,20
33.5,12.200000000000003,7.6294569996844785,10.064087110846216,9.845472162327141,17.783984837357337,17.565369888838262,20
34.5,14.499999999999986,11.343572475747763,12.762672226824847,12.582202477485609,18.761369998262154,18.580900248922916,20
35.5,16.799999999999997,15.920783928488689,16.28778500953142,15.958813586079557,19.96197034240913,19.63299891895727,20
36.5,18.89999999999999,19.07038007833968,22.134651791983643,20.499702334068658,18.570677744271023,16.93572828635604,20
37.5,20.799999999999997,21.439398704852564,23.71045213354371,22.679043714418796,18.76035499043377,17.728946571308853,20
38.7,22.700000000000003,26.064600646935943,28.079094770752775,27.99869458344604,18.065906063489905,17.98550587618317,20
40.0,24.799999999999997,27.281706058399195,28.30598188461103,28.005182890676608,19.276523167722587,18.975724173788166,20
41.2,26.499999999999986,28.71656717907898,31.39277147482092,30.208517377231672,18.508049801847307,17.32379570425806,20
42.5,28.200000000000003,30.329156244317304,37.21494307244184,34.999710530595834,15.32944571372147,13.114213171875463,20
43.7,29.700000000000003,31.64111172924264,37.81418657655068,35.1975936994307,16.44351802981194,13.826925152691956,20
45.0,31.299999999999997,32.766973796141926,37.01317391175404,34.59261647509665,18.174357321045278,15.753799884387888,20
46.2,32.999999999999986,36.19194398380294,36.64907010113136,36.191927210264836,20.000016773538107,19.542873882671586,20
47.5,34.60000000000001,41.54573053067297,39.38936727640801,40.20642674833282,21.339303782340153,22.15636325426496,20
48.7,36.10000000000001,40.378434028002985,38.09583297451924,38.98840341361172,21.390030614391264,22.282601053483745,20
50.0,37.60000000000001,40.4539865872231,38.25840120459985,39.144234548255795,21.309752038967304,22.19558538262325,20
51.5,38.999999999999986,39.4140981474241,38.94889987771397,39.05037685355693,20.363721293867172,20.46519826971013,20
53.0,40.3,39.68981705376932,40.84220186839853,40.026577303998195,19.663239749771122,18.847615185370785,20
54.5,41.7,41.51900733455007,41.98252042630649,41.930368644794086,19.58863868975598,19.536486908243575,20
56.0,42.999999999999986,43.246767167045064,43.041988262005006,43.51896326096629,19.727803906078776,20.204778905040058,20
58.0,44.3,44.23762776013771,44.07920453552357,44.212772986819076,20.024854773318637,20.15842322461414,20
60.0,45.60000000000001,45.4799520465521,45.544541599797114,45.452988628710656,20.026963417841444,19.935410446754986,20
61.5,46.89999999999999,47.7223148024036,48.05523549384847,48.380673502483404,19.341641299920198,19.66707930855513,20
63.0,48.10000000000001,48.664221747214114,49.78861130674861,49.64971106299048,19.014510684223637,18.875610440465508,20
65.0,49.39999999999999,49.3208812970602,50.783267419077845,50.194365987965995,19.126515309094202,18.537613877982352,20
67.0,50.5,50.46250949031712,51.112258984469165,50.79150229736031,19.671007192956807,19.350250505847953,20
69.0,51.60000000000001,51.62396086372068,51.63198076797816,51.613843056795005,20.010117806925678,19.99198009574252,20
71.0,52.7,52.767941235565004,52.441653553143524,52.606367325074885,20.16157391049012,20.32628768242148,20
73.0,53.7,53.864688173805504,53.51367499840701,53.63043974523207,20.234248428573437,20.351013175398492,20
75.0,54.8,54.86898411684476,54.61405837768528,54.70022844326779,20.168755673576968,20.254925739159475,20
77.5,55.8,55.7784901971291,55.57099330766253,55.671619882526116,20.106870314602986,20.20749688946657,20
80.0,56.7,56.546518904910585,56.26133678043986,56.415382116385956,20.13113678852463,20.285182124470722,20
82.5,57.60000000000001,57.4902725709036,57.2143528550349,57.30060966616939,20.189662904734206,20.275919715868696,20
85.0,58.39999999999999,58.33512468018192,58.03878771772055,58.14511068985779,20.190013990324132,20.296336962461368,20
87.5,59.2,59.15583957685776,58.856567136634865,58.97168327748949,20.18415629936827,20.299272440222893,20
90.0,59.89999999999999,59.83461706421343,59.65059245149942,59.68357230190422,20.151044762309212,20.184024612714012,20
92.5,60.5,60.434097562922105,60.19263011636542,60.28595494991987,20.148142613002236,20.241467446556683,20
95.0,61.10000000000001,61.033589826879975,60.89608403326922,60.924302781964016,20.10928704491596,20.137505793610757,20
97.5,61.60000000000001,61.60000000000001,61.55960389779459,61.53341548991524,20.066584510084766,20.04039610220542,20
100.0,62.0,62.089001920046655,62.042462262267364,62.02705142936581,20.061950490680843,20.04653965777929,20
103.0,62.39999999999999,62.46692185116051,62.279154630875084,62.325586715048686,20.14133513611182,20.187767220285423,20
106.0,62.8,62.8,62.432058199161105,62.584797381792114,20.215202618207883,20.367941800838892,20
109.0,63.2,63.13409756292212,62.662663878095685,62.83103261389108,20.30306494903104,20.471433684826437,20
112.0,63.5,63.41173585711584,62.88442781279413,63.11531955495062,20.296416302165227,20.527308044321714,20
115.0,63.7,63.70051167804047,63.36678996678077,63.51085296249603,20.18965871554444,20.3337217112597,20
118.0,63.89999999999999,63.922422059205175,63.7675956579734,63.84353692261608,20.078885136589093,20.154826401231773,20
122.0,64.1,64.18900192004664,64.17844733646614,64.17813254935186,20.010869370694778,20.0105545835805,20
125.0,64.3,64.3447289505772,64.23291192603024,64.27327689027955,20.07145206029766,20.111817024546966,20
128.0,64.5,64.45583957685776,64.01277713274395,64.19625837142162,20.259581205436135,20.443062444113806,20
132.0,64.8,64.66717965375994,64.19410174879546,64.40432777419399,20.262851879565957,20.473077904964484,20
136.0,64.9,64.85583957685778,64.30308613125887,64.52778777196048,20.3280518048973,20.55275344559891,20
140.0,65.09999999999998,65.05583957685775,64.4646422812835,64.74646316451745,20.3093764123403,20.591197295574247,20
145.0,65.3,65.21173585711585,64.75919889745053,64.94958133457419,20.262154522541664,20.452536959665323,20
150.0,65.39999999999999,65.33409756292211,64.84170716476558,65.02197026871944,20.312127294202668,20.49239039815653,20
155.0,65.5,65.39027257090359,64.99688206181555,65.14528972882889,20.244982842074705,20.393390509088036,20
160.0,65.6,65.5340975629221,65.30120272868676,65.39111138843037,20.142986174491725,20.23289483423534,20
165.0,65.6,65.66692185116051,65.52075023615119,65.5597997591638,20.107122091996715,20.146171615009322,20
170.0,65.7,65.78900192004663,65.6329887713091,65.67671971356039,20.112282206486242,20.15601314873753,20
175.0,65.7,65.76692185116049,65.33337562538966,65.51837433116506,20.248547519995427,20.433546225770826,20
180.0,65.8,65.7340975629221,65.01344081789937,65.31929935586209,20.414798207060016,20.720656745022737,20
185.0,65.8,65.71274477799038,65.05719282953129,65.33614153335292,20.376603244637465,20.65555194845909,20
190.0,65.9,65.76819897766141,65.36145146982413,65.51041065086696,20.257788326794454,20.40674750783728,20
195.0,66.0,65.86819897766141,65.67906163212567,65.72152452400708,20.146674453654327,20.18913734553574,20
200.0,66.10000000000001,66.01274477799039,65.86669199356278,65.88653957517751,20.126205202812883,20.14605278442761,20
206.0,66.2,66.02419779300914,65.7427053045429,65.78153132256993,20.242666470439204,20.28149248846624,20
212.0,66.10000000000001,65.88127710423242,65.4032432990163,65.50409396959235,20.377183134640077,20.47803380521613,20
218.0,66.0,65.76063752019827,64.87442654661328,65.14409362814074,20.616543892057535,20.886210973584994,20
224.0,66.0,65.76063752019827,64.67144823715198,65.0805174620677,20.68012005813057,21.089189283046295,20
230.0,65.9,65.72621015383258,64.78432305998997,65.15022216824894,20.575987985583637,20.94188709384261,20
236.0,65.8,65.69177612109561,64.85284558846372,65.16456113377691,20.5272149873187,20.838930532631892,20
240.0,65.9,65.70328449402554,64.92429915761973,65.21048708408374,20.4927974099418,20.77898533640581,20
250.0,65.8,65.66971018796762,64.6431753996706,65.02064485189034,20.649065336077285,21.026534788297027,20
258.0,65.9,65.74901542823474,64.44101005787513,64.95660761526257,20.792407812972172,21.30800537035961,20
265.0,66.0,65.84901542823475,64.33450172839211,64.95520027743359,20.89381515080116,21.514513699842638,20
272.0,66.0,65.89177612109562,64.45205380651281,65.07184400849526,20.819932112600355,21.43972231458281,20
280.0,65.9,65.81274477799037,64.64783842372012,65.12739729122696,20.68534748676342,21.164906354270258,20
290.0,66.0,65.80328449402553,64.68248689931669,65.14688860236724,20.656395891658292,21.120797594708847,20
300.0,66.0,65.84901542823475,64.47500517787101,65.1013161795201,20.747699248714653,21.37401025036374,20
307.0,66.10000000000001,65.88378881309228,64.15686853594578,64.98308817364706,20.90070063944522,21.726920277146505,20
315.0,66.3,66.06063752019827,64.44539650417721,65.23648007285014,20.824157447348128,21.61524101602106,20
325.0,66.40000000000002,66.24901542823476,65.00585149227614,65.6005863985837,20.648429029651055,21.24316393595862,20
335.0,66.49999999999999,66.34901542823474,64.98412302898252,65.66588187130263,20.683133556932106,21.364892399252213,20
345.0,66.49999999999999,66.30681734560613,64.7073550226431,65.48825897297792,20.818558372628218,21.599462322963035,20
355.0,66.6,66.31855276047123,64.69812585856933,65.46795932664845,20.85059343382278,21.620426901901908,20
365.0,66.7,66.44384286412335,64.79078713025494,65.55794348484628,20.885899379277078,21.653055733868413,20
375.0,66.8,66.50251655429953,64.79243674916637,65.59037894856301,20.91213760573652,21.710079805133162,20
387.0,66.8,66.46174742436448,64.63174792658697,65.4592508560889,21.002496568275575,21.829999497777507,20
400.0,66.7,66.23652716646842,64.25435978025098,65.09860982975015,21.137917336718274,21.98216738621744,20
412.0,66.40000000000002,65.97874879281117,63.82058475703748,64.76565740415691,21.213091388654263,22.158164035773694,20
425.0,66.10000000000001,65.74284283604018,63.572241963867626,64.51092768178182,21.23191515425836,22.170600872172557,20
437.0,66.10000000000001,65.59693939507791,63.222170126270754,64.20077220413992,21.396167190937987,22.374769268807157,20
450.0,66.3,65.84228996981226,63.38510015678838,64.38359458655849,21.45869538325377,22.457189813023874,20
462.0,66.6,66.20026896530439,63.77981544229961,64.7521868097432,21.448082155561195,22.42045352300478,20
475.0,66.9,66.4582570508913,63.37239585067496,64.68732818644803,21.770928864443277,23.085861200216343,20
487.0,67.1,66.7002689653044,63.37333203679937,64.89324401443623,21.80702495086817,23.326936928505035,20
500.0,67.2,66.71257518691819,63.63140287285563,65.06638888441329,21.6461863025049,23.081172314062556,20
515.0,67.1,66.66034777154633,63.20816853215052,64.86904498121574,21.79130279033059,23.452179239395804,20
530.0,67.2,66.71257518691819,63.13216704109088,64.98388370797632,21.72869147894187,23.580408145827306,20
545.0,67.2,66.76090107059136,63.441241348904555,65.29082542204765,21.470075648543713,23.319659721686804,20
560.0,67.0,66.50373121322055,63.246331197939924,65.05383214964735,21.4498990635732,23.257400015280624,20
580.0,66.8,66.16816855562894,62.822390676578934,64.65367642923759,21.514492126391346,23.345777879050004,20
600.0,66.8,66.0120512251581,62.309120909646566,64.26866726765985,21.743383957498253,23.702930315511537,20
615.0,66.7,65.9120512251581,62.01581027986789,64.03005566304222,21.881995562115875,23.896240945290202,20
630.0,66.7,65.93292245200996,61.85460852588314,63.93544979306495,21.997472658945014,24.078313926126825,20
650.0,66.6,65.89886193995517,61.53798611862531,63.76755418635442,22.13130775360075,24.360875821329856,20
670.0,66.6,65.93560994111975,61.520964164548644,63.766997835646805,22.168612105472945,24.414645776571106,20
690.0,66.40000000000002,65.73560994111976,61.2369284548996,63.58313322244325,22.15247671867651,24.498681486220164,20
710.0,66.3,65.68925122823633,61.126102628257044,63.61290328216509,22.076347946071238,24.563148599979286,20
730.0,66.6,66.00592515901442,61.58708728335472,64.03300875828829,21.972916400726135,24.418837875659705,20
750.0,67.1,66.3534627258669,62.02290741541704,64.49071708858189,21.862745637285016,24.330555310449867,20
775.0,67.4,66.63771426946144,62.31387954768155,64.79225502687872,21.84545924258272,24.32383472177989,20
800.0,67.4,66.54562375028057,62.1431802062378,64.62043663408137,21.925187116199197,24.402443544042768,20
825.0,67.3,66.44562375028057,62.03785146111099,64.43570491611287,22.009918834167706,24.407772289169586,20
850.0,67.3,66.3678315783344,61.92435766058982,64.21439356932132,22.153438009013087,24.443473917744583,20
875.0,67.4,66.43386854414494,61.60638986563016,64.13099685956138,22.302871684583565,24.82747867851478,20
900.0,67.59999999999998,66.72863070473709,61.700714778393035,64.3806672703013,22.347963434435783,25.02791592634405,20
925.0,67.50000000000001,66.6426986420064,61.69479789791119,64.3358245799683,22.30687406203809,24.947900744095207,20
950.0,67.3,66.45704724397724,61.473928549344706,64.18107595441818,22.275971289559067,24.983118694632537,20
975.0,67.4,66.47067363547744,61.53376726288856,64.24007811124763,22.230595524229813,24.93690637258888,20
1000.0,67.4,66.47425062508147,61.383047882911555,64.1447276333122,22.329522991769267,25.091202742169912,20
1030.0,67.3,66.2883836927569,61.136618759249686,63.902010563372514,22.38637312938438,25.15176493350721,20
1060.0,67.50000000000001,66.64048545208466,61.27688981531469,64.14864443923682,22.491841012847843,25.363595636769972,20
1090.0,67.50000000000001,66.60821547029113,61.24411987066611,64.14373906330688,22.464476406984247,25.364095599625017,20
1120.0,67.3,66.43352436834942,60.94560081580819,63.92009125722204,22.513433111127384,25.487923552541233,20
1150.0,67.3,66.5013505192586,60.95113490641954,63.99342751199093,22.507923007267664,25.550215612839054,20
1180.0,67.2,66.6227911558652,61.377640607309004,64.25378864516705,22.369002510698152,25.245150548556197,20
1220.0,67.59999999999998,66.58421210895537,61.39054720672989,64.35329378002844,22.230918328926933,25.19366490222548,20
1250.0,67.59999999999998,66.48159595960188,61.082766590915966,64.16897701453945,22.312618945062425,25.39882936868591,20
1280.0,67.59999999999998,66.63608510779052,60.98761555932812,64.14332709285902,22.492758014931496,25.6484695484624,20
1320.0,67.59999999999998,66.91429040558408,61.05732900957496,64.21606384012846,22.698226565455627,25.856961396009126,20
1360.0,67.4,67.02549013087507,61.0705341617908,64.18494231883271,22.84054781204236,25.954955969084267,20
1400.0,67.2,66.66591589434282,60.71631989855423,63.86846243961325,22.797453454729563,25.949595995788584,20
1450.0,66.9,66.20216924669498,60.29790927339273,63.524961322064414,22.677207924630565,25.904259973302246,20
1500.0,66.8,66.12673619596988,60.13959372102971,63.38093433634752,22.74580185962236,25.98714247494017,20
1550.0,66.8,65.99651417460902,59.70925522288971,63.08459243205962,22.911921742549396,26.28725895171931,20
1600.0,66.8,66.04250946170463,59.66616833613155,63.09745956312915,22.945049898575476,26.376341125573077,20
1650.0,66.8,66.1042871784152,59.83793999750357,63.28976002413124,22.814527154283965,26.266347180911637,20
1700.0,67.2,66.39651417460901,59.97755633716834,63.54408573450421,22.852428440104802,26.418957837440672,20
1750.0,67.3,66.24177545273287,59.43870327277038,63.207905230423435,23.03387022230943,26.803072179962484,20
1800.0,67.3,66.08049156607439,59.07622465021986,62.95289456105125,23.127597005023134,27.00426691585453,20
1850.0,67.3,66.18140167579769,59.070606748559584,63.032595790329594,23.148805885468093,27.110794927238103,20
1900.0,66.9,65.94175099511047,58.65003288373171,62.688638821888844,23.253112173221623,27.291718111378756,20
1950.0,66.7,65.70141469942654,58.33385438016873,62.335202537614606,23.36621216181193,27.367560319257805,20
2000.0,66.8,65.6272398190244,58.164901831717344,62.18991766897565,23.437322150048743,27.462337987307052,20
2060.0,67.0,65.84339570678186,58.446370715342994,62.50502894786307,23.338366758918795,27.39702499143887,20
2120.0,67.0,65.65308136709686,58.47592097697732,62.45380247369684,23.19927889340002,27.17716039011954,20
2180.0,67.2,65.94635261596706,58.512546991071375,62.546580927709556,23.399771688257502,27.433805624895683,20
2240.0,67.2,66.1741702286749,58.65643571753698,62.70438970465024,23.469780524024657,27.517734511137917,20
2300.0,67.3,66.35416382504646,58.724583080201924,62.8452290447497,23.508934780296755,27.62958074484453,20
2360.0,67.50000000000001,66.46157381382642,58.762410995764455,62.874423699230064,23.587150114596355,27.699162818061964,20
2400.0,67.89999999999999,66.82802532095965,59.03747594880561,63.13545262149201,23.692572699467647,27.790549372154047,20
2500.0,68.3,67.13634547367955,59.39154894412883,63.504056733757395,23.63228873992216,27.744796529550726,20
2580.0,68.0,66.81770790777445,59.08883103681869,63.142828021065284,23.674879886709164,27.72887687095576,20
2650.0,67.2,66.24473443800773,58.2639557905526,62.39455738687427,23.850177051133457,27.980778647455125,20
2720.0,66.7,65.75928597483811,57.62405740922651,61.84449930359722,23.91478667124089,28.135228565611598,20
2800.0,66.2,65.37493029574921,57.055886086251164,61.30556410445281,24.069366191296396,28.319044209498045,20
2900.0,65.9,65.24858826403761,56.794697852134476,61.040871875466976,24.20771638857063,28.45389041190313,20
3000.0,65.9,65.07284532987906,56.56914140925613,60.92146790237494,24.151377427504116,28.503703920622925,20
3070.0,66.10000000000001,65.10228010846534,56.42180959646895,60.87158968473766,24.23069042372768,28.68047051199639,20
3150.0,66.7,65.41814830910313,56.50609587446418,61.118341522817914,24.299806786285217,28.91205243463895,20
3250.0,67.2,65.77947357364168,56.769965857613116,61.4585845390683,24.320889034573383,29.009507716028565,20
3350.0,67.1,65.66824758010588,56.27262845621301,61.098961926619324,24.56928565348656,29.39561912389287,20
3450.0,66.6,65.30377277927276,55.95433267751808,60.75187745011549,24.551895329157276,29.34944010175468,20
3550.0,66.49999999999999,65.32672812840049,55.83822902876824,60.65827743573628,24.66845069266421,29.48849909963225,20
3650.0,66.8,65.70658602032485,56.22921553956793,61.05340696237806,24.653179057946787,29.477370480756917,20
3750.0,66.9,65.29390717309992,55.724487473975174,60.545685178955495,24.74822199414443,29.56941969912475,20
3870.0,66.7,64.70378801061246,55.07594255672633,59.89091635314695,24.812871657465507,29.627845453886124,20
