Freq "On Axis"
22.4 6.458227848101274
23.0 6.758227848101285
23.6 7.058227848101268
24.0 7.158227848101291
25.0 7.258227848101285
25.8 7.158227848101291
26.5 6.958227848101274
27.2 6.558227848101268
28.0 5.858227848101279
29.0 5.358227848101279
30.0 4.958227848101302
30.7 5.458227848101245
31.5 6.858227848101279
32.5 8.85822784810128
33.5 11.258227848101285
34.5 13.558227848101268
35.5 15.85822784810128
36.5 17.958227848101274
37.5 19.85822784810128
38.7 21.758227848101285
40.0 23.85822784810128
41.2 25.558227848101268
42.5 27.258227848101285
43.7 28.758227848101285
45.0 30.35822784810128
46.2 32.05822784810127
47.5 33.65822784810129
48.7 35.15822784810129
50.0 36.65822784810129
51.5 38.05822784810127
53.0 39.35822784810128
54.5 40.758227848101285
56.0 42.05822784810127
58.0 43.35822784810128
60.0 44.65822784810129
61.5 45.958227848101274
63.0 47.15822784810129
65.0 48.458227848101274
67.0 49.55822784810128
69.0 50.65822784810129
71.0 51.758227848101285
73.0 52.758227848101285
75.0 53.85822784810128
77.5 54.85822784810128
80.0 55.758227848101285
82.5 56.65822784810129
85.0 57.458227848101274
87.5 58.258227848101285
90.0 58.958227848101274
92.5 59.55822784810128
95.0 60.15822784810129
97.5 60.65822784810129
100.0 61.05822784810128
103.0 61.458227848101274
106.0 61.85822784810128
109.0 62.258227848101285
112.0 62.55822784810128
115.0 62.758227848101285
118.0 62.958227848101274
122.0 63.158227848101276
125.0 63.35822784810128
128.0 63.55822784810128
132.0 63.85822784810128
136.0 63.95822784810129
140.0 64.15822784810126
145.0 64.35822784810128
150.0 64.45822784810127
155.0 64.55822784810128
160.0 64.65822784810128
165.0 64.65822784810128
170.0 64.75822784810128
175.0 64.75822784810128
180.0 64.85822784810128
185.0 64.85822784810128
190.0 64.95822784810129
195.0 65.05822784810128
200.0 65.15822784810129
206.0 65.25822784810128
212.0 65.15822784810129
218.0 65.05822784810128
224.0 65.05822784810128
230.0 64.95822784810129
236.0 64.85822784810128
240.0 64.95822784810129
250.0 64.85822784810128
258.0 64.95822784810129
265.0 65.05822784810128
272.0 65.05822784810128
280.0 64.95822784810129
290.0 65.05822784810128
300.0 65.05822784810128
307.0 65.15822784810129
315.0 65.35822784810128
325.0 65.4582278481013
335.0 65.55822784810127
345.0 65.55822784810127
355.0 65.65822784810128
365.0 65.75822784810128
375.0 65.85822784810128
387.0 65.85822784810128
400.0 65.75822784810128
412.0 65.4582278481013
425.0 65.15822784810129
437.0 65.15822784810129
450.0 65.35822784810128
462.0 65.65822784810128
475.0 65.95822784810129
487.0 66.15822784810128
500.0 66.25822784810128
515.0 66.15822784810128
530.0 66.25822784810128
545.0 66.25822784810128
560.0 66.05822784810128
580.0 65.85822784810128
600.0 65.85822784810128
615.0 65.75822784810128
630.0 65.75822784810128
650.0 65.65822784810128
670.0 65.65822784810128
690.0 65.4582278481013
710.0 65.35822784810128
730.0 65.65822784810128
750.0 66.15822784810128
775.0 66.45822784810129
800.0 66.45822784810129
825.0 66.35822784810128
850.0 66.35822784810128
875.0 66.45822784810129
900.0 66.65822784810126
925.0 66.5582278481013
950.0 66.35822784810128
975.0 66.45822784810129
1000.0 66.45822784810129
1030.0 66.35822784810128
1060.0 66.5582278481013
1090.0 66.5582278481013
1120.0 66.35822784810128
1150.0 66.35822784810128
1180.0 66.25822784810128
1220.0 66.65822784810126
1250.0 66.65822784810126
1280.0 66.65822784810126
1320.0 66.65822784810126
1360.0 66.45822784810129
1400.0 66.25822784810128
1450.0 65.95822784810129
1500.0 65.85822784810128
1550.0 65.85822784810128
1600.0 65.85822784810128
1650.0 65.85822784810128
1700.0 66.25822784810128
1750.0 66.35822784810128
1800.0 66.35822784810128
1850.0 66.35822784810128
1900.0 65.95822784810129
1950.0 65.75822784810128
2000.0 65.85822784810128
2060.0 66.05822784810128
2120.0 66.05822784810128
2180.0 66.25822784810128
2240.0 66.25822784810128
2300.0 66.35822784810128
2360.0 66.5582278481013
2400.0 66.95822784810127
2500.0 67.35822784810128
2580.0 67.05822784810128
2650.0 66.25822784810128
2720.0 65.75822784810128
2800.0 65.25822784810128
2900.0 64.95822784810129
3000.0 64.95822784810129
3070.0 65.15822784810129
3150.0 65.75822784810128
3250.0 66.25822784810128
3350.0 66.15822784810128
3450.0 65.65822784810128
3550.0 65.55822784810127
3650.0 65.85822784810128
3750.0 65.95822784810129
3870.0 65.75822784810128
4000.0 65.4582278481013
4120.0 65.65822784810128
4250.0 65.95822784810129
4370.0 66.25822784810128
4500.0 66.65822784810126
4620.0 66.75822784810128
4750.0 64.55822784810128
4870.0 64.55822784810128
5000.0 65.15822784810129
5150.0 65.15822784810129
5300.0 65.15822784810129
5450.0 65.85822784810128
5600.0 66.5582278481013
5800.0 66.75822784810128
6000.0 66.35822784810128
6150.0 65.85822784810128
6300.0 65.85822784810128
6500.0 66.25822784810128
6700.0 66.5582278481013
6900.0 66.35822784810128
7100.0 65.4582278481013
7300.0 65.65822784810128
7500.0 66.25822784810128
7750.0 66.35822784810128
8000.0 66.35822784810128
8250.0 66.25822784810128
8500.0 66.35822784810128
8750.0 66.85822784810128
9000.0 67.25822784810128
9250.0 67.25822784810128
9500.0 67.45822784810129
9750.0 67.9582278481013
10000.0 67.35822784810128
10300.0 65.65822784810128
10600.0 64.95822784810129
10900.0 65.55822784810127
11200.0 65.85822784810128
11500.0 65.85822784810128
11800.0 65.85822784810128
12200.0 65.85822784810128
12500.0 65.65822784810128
12800.0 66.35822784810128
13200.0 67.05822784810128
13600.0 66.35822784810128
14000.0 65.95822784810129
14500.0 65.55822784810127
15000.0 64.15822784810126
15500.0 62.05822784810128
16000.0 60.258227848101285
16500.0 59.65822784810129
17000.0 58.758227848101285
17500.0 57.55822784810128
18000.0 58.05822784810127
18500.0 57.958227848101274
19000.0 56.85822784810128
19500.0 55.85822784810128
