Freq "Estimated In-Room Response"
20.5078 58.727158346414996
21.9727 61.92517910171573
23.4375 65.88436518057796
24.9023 69.03115541880834
26.3672 71.45845474290189
27.832 72.82877791014448
29.2969 75.28974380325869
30.7617 76.93653298142179
32.2266 78.34464384489479
33.6914 79.49354705330066
35.1562 80.18633020729433
36.6211 80.74517119363186
38.0859 81.05968944162278
39.5508 81.31334084994288
41.0156 81.65123125231597
42.4805 81.7479432574691
43.9453 82.03649425786034
45.4102 81.98862004435802
46.875 82.4160602385285
48.3398 82.17833210826292
51.2695 82.02163626418658
52.7344 82.18453350571542
54.1992 82.2782512927359
55.6641 82.39171948886941
58.5938 82.37254264873876
60.0586 82.35839501847015
62.9883 82.49972843345843
64.4531 82.50446191640819
67.3828 82.67897646545404
68.8477 82.63491315398664
71.7773 82.55135075885894
74.707 82.48169024832286
77.6367 82.56588137689175
79.1016 82.51408453157367
82.0312 82.53818620210728
84.9609 82.49905823211682
87.8906 82.450418196736
90.8203 82.3916083032789
95.2148 82.35067205323011
98.1445 82.22985792793637
101.074 82.26035778824998
105.469 82.1180173717502
108.398 82.05493161569493
112.793 82.05478814802115
117.188 82.05238767225238
120.117 82.06780508774176
124.512 81.96414221778643
128.906 81.82441225261385
133.301 81.77457544714905
139.16 81.72078606359665
143.555 81.62468757194397
147.949 81.53431245504905
153.809 81.48168116072644
159.668 81.56699486818658
165.527 81.56225573849287
171.387 81.46734066375481
177.246 81.34181033247827
183.105 81.23314657669991
188.965 81.18035944909683
196.289 81.07098402879173
203.613 80.9715207053946
210.938 80.92318319543901
218.262 80.84147557359586
225.586 80.79630583460994
232.91 80.80806495287865
241.699 80.8392222188296
250.488 81.18424727917696
259.277 81.0330376745265
268.066 81.02694787292629
276.855 80.80010730523028
287.109 80.86199508658983
297.363 80.76946088431944
307.617 80.7724338858556
319.336 80.67009794565917
329.59 80.6183230410773
341.309 80.87598345128404
353.027 81.0518276372301
366.211 80.93537824383027
379.395 81.00667070124521
392.578 81.03085709491971
405.762 80.66930305976928
420.41 80.5767245973854
435.059 80.71703068871454
451.172 80.79287917765384
465.82 80.74762940008658
483.398 80.52578337220545
499.512 80.30847788645761
517.09 80.15781690072144
536.133 79.91502499997878
555.176 80.05915976711927
574.219 79.94801830364798
594.727 79.64311319286043
615.234 79.58579747390137
637.207 79.87772062758475
659.18 79.82798522131063
682.617 80.06905362109639
707.52 79.12857498103182
732.422 79.22102507658342
757.324 78.73614943035555
785.156 79.04741236218624
811.523 79.07121997896496
840.82 79.5672138648551
870.117 79.34615080890427
900.879 79.1224684720818
933.105 79.30442944346854
965.332 78.98096010874423
1000.49 78.85125851909916
1035.64 78.54307557109478
1072.27 78.2335956158787
1108.89 77.93980126305014
1148.44 77.95227477255608
1189.45 78.00648671717902
1230.47 78.32663464366382
1274.41 78.62360772242211
1319.82 78.49676331320948
1366.7 78.6543349854085
1413.57 78.23793043694607
1463.38 78.14548618400019
1516.11 77.8200876006733
1568.85 78.00207845040916
1624.51 78.27585294518059
1681.64 78.38500824253221
1741.7 78.65948001944487
1803.22 78.38789057592516
1866.21 77.99417262529894
1932.13 77.64052831832358
1999.51 77.24149089953056
2069.82 77.47040701240113
2143.07 77.44404126425218
2219.24 77.59671500940775
2296.88 77.67655154586038
2378.91 77.79819064050724
2462.4 77.95314300921075
2548.83 77.7946605246771
2639.65 77.52764544112516
2731.93 77.55256797746708
2828.61 78.05709625949854
2928.22 78.3626334023043
3030.76 77.75837781244189
3137.7 77.163892237785
3249.02 78.05346012447137
3363.28 78.24227874691454
3481.93 77.40709712234921
3604.98 77.24735665666012
3732.42 77.66416009945819
3864.26 77.18533340330674
4000.49 77.23330576431582
4141.11 76.74478171606765
4287.6 76.66031767989854
4438.48 77.35025210343896
4595.21 76.57464894643718
4756.35 77.1022554895217
4924.8 77.2570986965367
5097.66 77.59097596243755
5277.83 77.49585345484743
5463.87 78.08467650344335
5657.23 77.63537020581956
5856.45 77.29039179757841
6062.99 77.46430965138528
6276.86 76.87635942587161
6498.05 77.05011580099372
6726.56 77.26167974157113
6963.87 77.28701766534851
7209.96 77.82056334975287
7464.84 77.43804598970455
7727.05 78.22473695054107
7999.51 77.49714830984168
8282.23 77.70516152276087
8573.73 77.35021476742189
8876.95 77.7377450574444
9188.96 77.50798545627255
9514.16 77.4979511787976
9849.61 77.65991743810652
10196.8 77.00297963798285
10555.7 76.93481248867053
10927.7 77.09876003363692
11313.0 76.82480684270851
11712.9 76.76917213593354
12126.0 76.6565055060814
12553.7 76.68959570360477
12996.1 76.61447541566841
13454.6 76.62658102570693
13929.2 76.74130892714165
14419.9 76.72512029196604
14928.2 76.83304147510147
15455.6 76.94257553470632
16000.5 76.95324800621731
16564.5 76.87068689942369
17148.9 76.91737829993114
17752.4 76.84025141257258
18379.4 76.72760317969741
19026.9 76.6819179515845
19697.8 76.50706339129465
19999.5 76.3252107635066
