Freq "Estimated In-Room Response"
22.4 47.94584791676772
23.0 48.97308399266754
23.6 49.87794592501493
24.0 50.691144984900745
25.0 51.778934990791385
25.8 52.77892909565111
26.5 53.660092129721136
27.2 54.10034872533302
28.0 53.37807101815221
29.0 52.32428695585634
30.0 50.94801957872656
30.7 51.462943202575076
31.5 52.44051431157922
32.5 53.19130830903296
33.5 53.11627602205007
34.5 52.78077384167281
35.5 53.03246217432917
36.5 55.28253869788858
37.5 56.93314053604212
38.7 59.764484494392875
40.0 62.27358863385912
41.2 63.85707407304348
42.5 64.91708018834883
43.7 65.93848848734604
45.0 67.88843525890047
46.2 69.60172704956204
47.5 72.445612363044
48.7 74.47926579896549
50.0 75.94600800877996
51.5 77.2543463500546
53.0 79.29877969061616
54.5 80.92817331154917
56.0 82.30491008816072
58.0 83.45356618316993
60.0 84.42636107302229
61.5 85.3527082183343
63.0 85.87929340708708
65.0 85.82844900554794
67.0 85.91029398871979
69.0 85.8375672137723
71.0 85.45762553221385
73.0 85.21820545959532
75.0 85.0379039999317
77.5 84.89490707426862
80.0 84.69839855737239
82.5 84.55987130248882
85.0 85.01768234533236
87.5 84.4264834901673
90.0 84.73801496663204
92.5 84.39963428127854
95.0 84.18949702567983
97.5 84.26036169597116
100.0 84.11825890007952
103.0 84.21188382087635
106.0 84.17276983254152
109.0 83.99010154625809
112.0 83.96019118944542
115.0 83.84293404816769
118.0 83.91774716134353
122.0 83.59663333922677
125.0 83.49457110512976
128.0 83.19396782480555
132.0 83.3415800062843
136.0 83.0967683167193
140.0 83.19703632981293
145.0 83.19050219583127
150.0 83.21152373545881
155.0 83.07912458175319
160.0 82.8581098086215
165.0 82.9681764243193
170.0 82.96893029378167
175.0 82.82309074827533
180.0 82.74724053031764
185.0 82.84337287493737
190.0 83.14860783992158
195.0 83.46812534303761
200.0 83.63981785734256
206.0 83.63313977096547
212.0 83.39700463180415
218.0 83.12307780893723
224.0 82.89706080918339
230.0 83.07920273161835
236.0 82.90220235989774
240.0 82.56828048568985
250.0 82.18962901038597
258.0 81.97978142344874
265.0 81.8352773474322
272.0 81.37192975146874
280.0 80.60929514652697
290.0 80.63592165852856
300.0 80.71465113250093
307.0 80.72210133545855
315.0 80.68787037443408
325.0 80.55066470368578
335.0 80.38967518151165
345.0 80.22264922420763
355.0 80.03130931778709
365.0 79.80561784962826
375.0 79.5490394233757
387.0 79.44266653648023
400.0 79.41463758804223
412.0 79.34991440543547
425.0 79.12321757070936
437.0 78.79348183605951
450.0 78.25023538435455
462.0 77.44770979716533
475.0 76.97426380523348
487.0 77.70562761518224
500.0 78.3730248818173
515.0 78.47165453398702
530.0 78.10310850502465
545.0 77.73438466126326
560.0 77.64848607207875
580.0 77.83736380570414
600.0 77.94161931787029
615.0 77.53945175063107
630.0 77.08557021813596
650.0 76.82909361664598
670.0 76.48827469857419
690.0 76.29429234710803
710.0 76.46244015410143
730.0 76.95590054277795
750.0 77.26134735164493
775.0 77.38065365226673
800.0 77.16856061208914
825.0 77.3636643604377
850.0 77.96668806583489
875.0 77.84832530656419
900.0 77.24489226297418
925.0 76.87082466537066
950.0 76.61882965563504
975.0 76.10935884121758
1000.0 75.96546118702676
1030.0 76.43891511483412
1060.0 76.688803487469
1090.0 76.32109557998916
1120.0 76.1965423141542
1150.0 76.27749644540393
1180.0 75.8792378204075
1220.0 75.29087936692503
1250.0 75.00401180933692
1280.0 75.0158102547966
1320.0 74.95637444140218
1360.0 74.67513526322504
1400.0 74.6474424801388
1450.0 74.68810208224258
1500.0 75.00692372579294
1550.0 74.94095287378846
1600.0 75.14451465297829
1650.0 75.74155674841535
1700.0 75.44854908035002
1750.0 75.41328989895044
1800.0 75.11311943526763
1850.0 74.35435872086805
1900.0 73.90875797143275
1950.0 73.73657059968846
2000.0 74.02448976096272
2060.0 73.51215780635906
2120.0 73.56468771828983
2180.0 74.68975505154893
2240.0 75.20610302703615
2300.0 75.49286308794768
2360.0 75.89922435037735
2400.0 75.2096864839883
2500.0 74.06738528722795
2580.0 72.68666064633648
2650.0 72.79433607277358
2720.0 74.08009803928488
2800.0 73.79927969792722
2900.0 74.27501614839655
3000.0 74.34476191368829
3070.0 73.82957774644912
3150.0 73.77681684557363
3250.0 73.88181166837416
3350.0 74.04611318323332
3450.0 74.0600351630957
3550.0 74.26226554875424
3650.0 74.15856994701042
3750.0 74.89326303335812
3870.0 76.09255188618306
4000.0 76.70351058522083
4120.0 75.80416759235325
4250.0 74.18421524924901
4370.0 72.88216684627909
4500.0 74.45701844916061
4620.0 74.84181199621473
4750.0 74.31466712890608
4870.0 74.27730656324795
5000.0 75.1432529609821
5150.0 76.38060992639521
5300.0 75.50564305849304
5450.0 74.4657477202863
5600.0 74.35772227033225
5800.0 76.83542167586072
6000.0 77.6412048861799
6150.0 77.03389070901376
6300.0 76.6713481249034
6500.0 76.29095374106032
6700.0 76.12782137312782
6900.0 74.15384207918889
7100.0 72.79584412200758
7300.0 73.58692975364187
7500.0 72.07428339043388
7750.0 71.51969649100953
8000.0 73.13043376476332
8250.0 73.0026999173676
8500.0 73.69653826121292
8750.0 76.04518044883297
9000.0 77.23208092521097
9250.0 78.8211636674617
9500.0 80.78470346703745
9750.0 79.95623149814654
10000.0 80.80851055563255
10300.0 80.36357612117281
10600.0 80.93625674302326
10900.0 80.39774438668383
11200.0 79.46687632461095
11500.0 79.32446989549047
11800.0 78.19323140557103
12200.0 79.20600970077231
12500.0 78.87256011183251
12800.0 78.65248298703206
13200.0 76.72412669278567
13600.0 78.34870937940286
14000.0 77.20702403542234
14500.0 77.69893737875363
15000.0 77.67489025401203
15500.0 74.18085514186399
16000.0 75.31139030755268
16500.0 75.39154355384865
17000.0 72.79632125833174
17500.0 69.35607541968362
18000.0 65.44685074194574
18500.0 62.796254584242206
19000.0 58.07386247212986
19500.0 52.7149940023599
