Freq,On Axis,Listening Window,Sound Power,Early Reflections,Early Reflections DI,Sound Power DI,DI offset
20.5078,60.48609999999999,60.351161062924376,60.89428735221509,60.500939478764224,39.85022158416015,39.45687371070929,40
21.9727,61.63669999999999,61.50621713344606,61.979765507999076,61.61601152186532,39.89020561158074,39.52645162544698,40
23.4375,63.308899999999994,63.21831055669847,63.81906961619734,63.41764379057636,39.800666766122106,39.39924094050113,40
24.9023,64.7712,64.67511228422829,64.96116040726648,64.70443106221114,39.97068122201715,39.713951876961815,40
26.3672,66.4666,66.39897603914412,66.57265761567955,66.39433376071563,40.00464227842849,39.82631842346457,40
27.832,67.9661,67.88516100420641,67.48770898576389,67.60018748457766,40.28497351962875,40.39745201844252,40
29.2969,68.8559,68.78204716641524,68.51060549774941,68.55915713162423,40.22289003479101,40.27144166866583,40
30.7617,69.8243,69.75575363741882,69.4104635884344,69.50120346578677,40.25455017163205,40.345290048984424,40
32.2266,70.8124,70.74894365147395,70.3887933967601,70.49258940948253,40.25635424199142,40.36015025471386,40
33.6914,71.7347,71.67537506640218,71.22364809068219,71.37953057106846,40.295844495333725,40.45172697571999,40
35.1562,72.5548,72.49788488867075,71.99981795857899,72.18588143603132,40.31200345263943,40.49806693009177,40
36.6211,73.2482,73.19428571590213,72.68547942001598,72.88116480272984,40.313120913172284,40.508806295886146,40
38.0859,74.0823,74.0330746875528,73.50888651511059,73.7150977391584,40.3179769483944,40.52418817244221,40
39.5508,74.7811,74.73214507712504,74.1269108177038,74.37603572354054,40.3561093535845,40.60523425942124,40
41.0156,75.7031,75.65702050464188,75.00630424320428,75.28257582833636,40.374444676305515,40.650716261437594,40
42.4805,76.0635,76.01773445156373,75.32202867896856,75.6338149142837,40.38391953728002,40.69570577259516,40
43.9453,76.6892,76.64640768783788,75.97145116135142,76.27260704623272,40.37380064160516,40.674956526486454,40
45.4102,77.1849,77.14339674730292,76.43876178486742,76.75616302095267,40.387233726350246,40.70463496243549,40
46.875,77.71949999999998,77.67797537206499,76.94416978172454,77.27695902365188,40.40101634841311,40.73380559034045,40
48.3398,78.2497,78.21009554189689,77.46780710119641,77.80748322581165,40.40261231608524,40.74228844070048,40
51.2695,79.1546,79.1177552356594,78.35622201755776,78.70981937601711,40.40793585964229,40.76153321810165,40
52.7344,79.5863,79.55145411259316,78.80187952985534,79.1510204621985,40.40043365039466,40.74957458273782,40
54.1992,79.9572,79.92345185599645,79.17078371153355,79.52291976442143,40.400532091575016,40.7526681444629,40
55.6641,80.3469,80.3145288592433,79.55645306148179,79.91286595683077,40.401662902412525,40.75807579776151,40
58.5938,80.96809999999999,80.9382024083917,80.16950399362862,80.53299824062356,40.40520416776815,40.76869841476308,40
60.0586,81.2628,81.23496621460671,80.4858450761319,80.83976239408976,40.395203820516954,40.74912113847482,40
62.9883,81.8909,81.86543095550385,81.12578021857927,81.47599067692707,40.389440278576785,40.73965073692459,40
64.4531,82.1542,82.12972883444273,81.39022523861321,81.74108512826623,40.388643706176495,40.73950359582952,40
67.3828,82.6422,82.61773211701806,81.83960539042823,82.21127135359158,40.40646076342648,40.77812672658983,40
68.8477,82.7876,82.76507372104444,82.00935560813542,82.36888068439606,40.396193036648384,40.75571811290902,40
71.7773,83.1799,83.16080381143854,82.45351496911387,82.78880579428397,40.37199801715457,40.70728884232467,40
74.707,83.5503,83.53373632747576,82.82803358096896,83.16578349893024,40.367952828545526,40.7057027465068,40
77.6367,83.8459,83.83188422270102,83.14745423183268,83.47443022479679,40.35745399790423,40.68442999086834,40
79.1016,83.9548,83.94202049849439,83.26114298333947,83.58743025902278,40.354590239471605,40.68087751515492,40
82.0312,84.17750000000001,84.16746686129541,83.51137931798382,83.82646945055848,40.34099741073693,40.656087543311585,40
84.9609,84.3901,84.38134665629994,83.72586186669398,84.0405226888434,40.340823967456544,40.655484789605964,40
87.8906,84.36330000000001,84.3611617518514,83.82238590401545,84.07275908802512,40.288402663826275,40.53877584783595,40
90.8203,84.38390000000001,84.38555362112484,83.90907475856659,84.12759390245405,40.25795971867079,40.47647886255825,40
95.2148,84.4962,84.5012824599999,84.08749538586902,84.2738910725219,40.227391387477994,40.41378707413088,40
98.1445,84.7251,84.72287451927811,84.20418756282217,84.44708496522344,40.27578955405467,40.51868695645594,40
101.074,84.74520000000001,84.74146760728357,84.12454484906925,84.42224867501528,40.319218932268285,40.616922758214315,40
105.469,84.5268,84.54110455157863,84.15292709640676,84.34006544929848,40.20103910228015,40.38817745517187,40
108.398,84.7133,84.72166922055314,84.2617738493194,84.4839633584345,40.237705862118645,40.45989537123374,40
112.793,84.8995,84.90874430846438,84.45011319647627,84.67026975710742,40.23847455135696,40.45863111198811,40
117.188,84.80539999999999,84.81984620022587,84.46146227703316,84.62872568969655,40.191120510529316,40.358383923192704,40
120.117,84.7576,84.76273228374423,84.31682613220487,84.53198636906215,40.230745914682075,40.44590615153936,40
124.512,85.1243,85.11005536581443,84.41742075016029,84.75216467212641,40.35789069368802,40.69263461565414,40
128.906,84.97149999999999,84.97153618886277,84.26210436852588,84.61223339791003,40.35930279095274,40.70943182033689,40
133.301,84.6543,84.66528200589619,84.15801940077148,84.39888360525745,40.266398400638735,40.50726260512471,40
139.16,84.3766,84.39887895819078,84.07699130813313,84.22575939305307,40.17311956513771,40.32188765005765,40
143.555,84.49779999999998,84.49399601581186,84.01655894181657,84.23610391234874,40.25789210346312,40.47743707399529,40
147.949,84.7783,84.76301408241858,83.98889083242548,84.36659312103139,40.39642096138719,40.774123249993096,40
153.809,84.66820000000001,84.65486248930118,83.81627741350118,84.23321439565379,40.42164809364739,40.8385850758,40
159.668,84.3962,84.40949036255074,83.83526436880445,84.11047690428518,40.29901345826556,40.574225993746296,40
165.527,84.1348,84.15709462650835,83.7957653410293,83.9647137991502,40.19238082735815,40.36132928547906,40
171.387,83.9123,83.92568315876761,83.65116740297455,83.76257856383114,40.16310459493647,40.27451575579306,40
177.246,84.0299,84.03495609506234,83.55205938821113,83.74905621230845,40.285899882753895,40.48289670685121,40
183.105,84.0472,84.03246598211999,83.3333405135487,83.63513123284085,40.39733474927914,40.69912546857128,40
188.965,83.6627,83.67744267679107,83.09790820262597,83.40452721011624,40.27291546667483,40.5795344741651,40
196.289,83.5162,83.51958602479897,83.10009569251427,83.29877911892513,40.22080690587384,40.419490332284695,40
203.613,83.4131,83.39295427998378,82.8769670537113,83.13076926875056,40.26218501123323,40.515987226272486,40
210.938,83.3698,83.35222036546429,82.74178102856874,83.05986142225348,40.292358943210814,40.61043933689555,40
218.262,83.1157,83.09251750826296,82.5719835142391,82.80979340067567,40.282724107587285,40.520533994023864,40
225.586,83.00140000000002,82.962333305977,82.46462608464519,82.66063716292676,40.301696143050236,40.49770722133181,40
232.91,83.2475,83.19309423069667,82.45132093036977,82.74112749942459,40.45196673127208,40.7417733003269,40
241.699,83.31880000000001,83.24542960438473,82.36642581560022,82.75207764950568,40.493351954879046,40.8790037887845,40
250.488,83.9054,83.79197982500122,82.30812301274133,82.96411200607275,40.82786781892847,41.48385681225989,40
259.277,83.8493,83.7640742003943,82.32317696913861,82.9525471426641,40.8115270577302,41.44089723125569,40
268.066,83.4625,83.39685370190375,81.93643215116873,82.55962892072515,40.837224781178605,41.46042155073502,40
276.855,83.5546,83.4947222184582,81.96946665153725,82.68834448144409,40.8063777370141,41.52525556692095,40
287.109,83.1942,83.14291866006009,81.72607033397819,82.4161230806175,40.726795579442594,41.416848326081904,40
297.363,83.4192,83.3745746282564,81.76637322330163,82.61437132849565,40.76020329976075,41.60820140495477,40
307.617,83.2289,83.16295051269915,81.743428614011,82.51720042514958,40.64575008754957,41.41952189868816,40
319.336,82.5701,82.48192829767461,81.43683480923038,81.93205665814529,40.54987163952933,41.04509348844424,40
329.59,81.62619999999998,81.56151256404293,81.3255444184825,81.28084166057306,40.28067090346987,40.235968145560435,40
341.309,82.1225,81.72917553677064,81.19141169052817,80.84407242513092,40.88510311163972,40.53776384624247,40
353.027,83.2087,82.75767220403824,81.15640394158076,81.07026676262554,41.68740544141271,41.60126826245748,40
366.211,84.5902,84.2278632836477,81.30429526795538,82.25702116173801,41.97084212190968,42.92356801569231,40
379.395,84.6499,84.35464419767777,81.57581616429643,82.72568258875742,41.62896160892035,42.778828033381345,40
392.578,84.3595,84.05132176613817,81.33256512472468,82.45497305948228,41.59634870665589,42.71875664141349,40
405.762,85.0883,84.66285048732928,81.08419899042771,82.61659837331771,42.046252114011565,43.57865149690157,40
420.41,84.4084,84.25261581645842,80.92254668730185,82.51199251943305,41.740623297025365,43.33006912915657,40
435.059,84.5798,84.34714705345867,80.78017473519066,82.42515290123129,41.921994152227384,43.566972318268014,40
451.172,84.7343,84.58575619634698,80.81439770895811,82.87538248256527,41.710373713781706,43.771358487388866,40
465.82,84.0403,83.9050469711678,80.46164266333894,82.24094377779231,41.664103193375496,43.44340430782887,40
483.398,83.6927,83.56421015568415,80.4320813832108,82.1149358972532,41.44927425843095,43.13212877247335,40
499.512,84.2465,84.01025172543586,80.50421531411168,82.34642611920826,41.663825606227604,43.50603641132419,40
517.09,84.57839999999999,84.34846784880709,80.69836837189231,82.458538585804,41.88992926300308,43.650099476914775,40
536.133,83.9952,83.83472607551727,80.3301554688989,82.0744150884592,41.76031098705806,43.50457060661837,40
555.176,84.178,83.99642852417519,80.53103092791983,82.36456703603977,41.631861488135414,43.46539759625536,40
574.219,84.8402,84.54118576139902,80.68756069889693,82.68953352344087,41.85165223795815,43.85362506250209,40
594.727,84.5522,84.30239531218265,80.31776247685781,82.36700459573312,41.93539071644953,43.984632835324845,40
615.234,84.2343,84.03984793840867,80.19968996545039,82.28925076620393,41.750597172204735,43.84015797295828,40
637.207,84.6926,84.32699828097194,80.0784672988147,82.29865111561834,42.028347165353594,44.248530982157234,40
659.18,83.6012,83.44285273576904,79.43565550666845,81.56096555899812,41.88188717677092,44.00719722910058,40
682.617,83.7149,83.44051080400531,79.74408096845542,81.63102128506343,41.80948951894189,43.69642983554989,40
707.52,84.7334,84.38011779930838,79.96164699596746,82.43259099196668,41.9475268073417,44.418470803340924,40
732.422,84.2756,83.91317585635498,79.71662978179907,81.98168606986778,41.931489786487205,44.19654607455591,40
757.324,84.2589,83.98060546350217,79.78970401734244,82.05670283938852,41.92390262411365,44.19090144615973,40
785.156,84.5907,84.18379902943201,79.68490065724174,82.193239229565,41.990559799867015,44.49889837219027,40
811.523,84.8056,84.34761885991348,79.71547770836204,82.0817652749998,42.265853584913685,44.63214115155144,40
840.82,85.2257,84.72337076799087,79.96759218408859,82.53093512240078,42.192435645590095,44.755778583902284,40
870.117,85.3979,84.89528493305812,79.80271951704592,82.23666348062814,42.65862145242998,45.09256541601221,40
900.879,85.9334,85.48052837405505,80.03820700184917,82.76776018697977,42.712768187075284,45.44232137220588,40
933.105,85.8981,85.3053700712055,79.69047162767741,82.32606185121448,42.979308219991026,45.61489844352809,40
965.332,86.0035,85.64227887483182,79.96311495752003,82.65518187842628,42.98709699640554,45.67916391731178,40
1000.49,85.7099,85.14002800682869,79.62614854044112,82.45176888154464,42.68825912528405,45.513879466387564,40
1035.64,85.0452,84.69960109769329,79.22877524980647,82.01761547003,42.681985627663295,45.470825847886815,40
1072.27,85.0839,84.62623351370202,79.34809298523021,82.12855706943365,42.497676444268365,45.27814052847181,40
1108.89,83.8448,83.69312114460816,79.02278389905047,82.02195649910675,41.671164645501406,44.67033724555769,40
1148.44,84.1139,83.79514142817463,78.6867160696956,81.57825660144162,42.21688482673301,45.108425358479025,40
1189.45,84.01339999999999,83.39751946684231,78.29674153394903,81.31020526752924,42.08731419931307,45.10077793289328,40
1230.47,84.0169,83.65882240880133,78.35068862491367,81.41041226977748,42.24841013902385,45.308133783887655,40
1274.41,84.5685,83.90782689246002,78.13640867649875,81.33416971559967,42.57365717686035,45.771418215961276,40
1319.82,85.0746,84.4390985018217,78.28487307644852,81.78300300972316,42.656095492098544,46.154225425373184,40
1366.7,84.8628,83.96901709105457,78.11977914561245,81.52092721479241,42.44808987626216,45.84923794544211,40
1413.57,83.7605,83.56583646184106,77.63622296840643,81.08186536551733,42.48397109632373,45.92961349343463,40
1463.38,83.2756,82.82420499487144,77.26713701072623,80.9140342915785,41.910170703292934,45.557067984145206,40
1516.11,81.9932,81.6932966010798,76.4698421204667,79.94659127279542,41.74670532828438,45.2234544806131,40
1568.85,81.6282,81.1017089395788,75.84316657830678,79.60064749520605,41.50106144437275,45.25854236127202,40
1624.51,81.7786,81.09219971343101,75.74584881633899,79.50802700351123,41.584172709919784,45.34635089709202,40
1681.64,82.23059999999998,81.95335697355644,75.92794374007622,79.70852102859038,42.244835944966056,46.02541323348022,40
1741.7,82.2744,82.05214511299188,75.91648368332427,79.9578640208711,42.09428109212078,46.13566142966761,40
1803.22,81.5821,81.38413211484782,75.53064648920369,79.73868098069636,41.64545113415146,45.853485625644126,40
1866.21,80.89959999999999,80.60405443133736,74.84580675758905,78.84595427078261,41.75810016055475,45.758247673748315,40
1932.13,81.34130000000002,80.5963122370855,74.58576347140533,78.28415893121742,42.31215330586808,46.01054876568017,40
1999.51,82.59279999999998,81.75629198518378,75.38066166095551,78.62791745313264,43.12837453205114,46.37563032422827,40
2069.82,83.1018,82.60970162226745,75.87946863990388,79.30122212121516,43.30847950105229,46.730232982363574,40
2143.07,82.88559999999998,82.76002508221373,75.72686418138169,79.07634505269255,43.683680029521184,47.033160900832044,40
2219.24,82.7917,82.01603528277596,75.34992029733151,78.99268756620849,43.02334771656747,46.66611498544445,40
2296.88,82.53,81.74803818512116,75.13713931025625,78.5890079255416,43.159030259579566,46.610898874864915,40
2378.91,81.9983,81.91165831597056,75.25319069741542,78.31481717802077,43.59684113794978,46.658467618555136,40
2462.4,83.5457,83.19390276581917,75.79196060295865,79.00155008797259,44.192352677846586,47.40194216286052,40
2548.83,82.7976,82.62288255532745,75.61517200953026,78.86478286192748,43.75809969339997,47.007710545797195,40
2639.65,82.1171,81.69980761741745,75.01371252736192,78.44395661145141,43.255851005966036,46.68609509005553,40
2731.93,82.1172,81.46196106153863,74.39045415101408,77.78240434451891,43.67955671701972,47.07150691052455,40
2828.61,81.8957,81.66927794505463,74.31902238189426,77.72138169272208,43.947896252332555,47.350255563160374,40
2928.22,82.6796,82.11592752440723,74.6773592888695,78.16161306337041,43.954314461036816,47.43856823553773,40
3030.76,83.0554,82.18008728024704,74.6677107075599,78.19927063450656,43.980816645740475,47.51237657268713,40
3137.7,82.9425,82.01887374242494,74.92485110441703,78.29835236841836,43.72052137400658,47.094022638007914,40
3249.02,83.2155,82.01048118972597,75.07920742792363,78.18676650969194,43.82371468003403,46.93127376180233,40
3363.28,82.69740000000002,82.02424815516164,75.09546569949889,77.93459887420843,44.08964928095321,46.928782455662756,40
3481.93,82.4784,81.95250318918106,75.68143396736414,78.39862912016832,43.553874069012736,46.271069221816916,40
3604.98,82.763,82.42001950505458,76.58169175969923,79.17518903765676,43.24483046739782,45.83832774535536,40
3732.42,82.7884,82.64225241678588,76.8174362471697,79.43760454561499,43.20464787117089,45.824816169616184,40
3864.26,80.8571,81.01114453534241,75.89667625856676,78.72041081913156,42.29073371621085,45.11446827677565,40
4000.49,81.382,80.56907353746689,75.33150692337716,78.27462256722953,42.294450970237364,45.23756661408973,40
4141.11,81.566,80.86538471816036,75.4091708939014,78.32111112750636,42.544273590654,45.45621382425895,40
4287.6,80.1466,79.98629384759755,75.31723932965129,78.08977045342223,41.89652339417532,44.669054517946265,40
4438.48,81.38560000000001,80.56132966080986,75.53909376561359,78.34946618324363,42.211863477566226,45.022235895196275,40
4595.21,80.53199999999998,79.73058915342423,74.8205767599979,77.51595640891911,42.214632744505124,44.91001239342633,40
4756.35,79.6651,79.15024107413443,74.36332487041958,77.1090842640782,42.04115681005622,44.78691620371485,40
4924.8,79.89520000000002,79.79151000203171,74.58502214956903,77.47830590814789,42.313204093883826,45.206487852462686,40
5097.66,81.1317,81.1165769549913,75.74150316220641,78.92014910172021,42.19642785327109,45.37507379278489,40
5277.83,82.1677,82.05208820079353,76.5695275188663,80.02722860991516,42.02485959087838,45.48256068192724,40
5463.87,82.9343,82.6148254890407,76.68367601304791,80.3386214081211,42.2762040809196,45.93114947599278,40
5657.23,82.9654,82.67622336077952,76.29251405679814,79.96148055477417,42.71474280600535,46.38370930398138,40
5856.45,81.8846,82.06263399008262,75.83044546438254,79.25054946983272,42.8120845202499,46.23218852570008,40
6062.99,82.20599999999999,82.57893647575057,75.7504783209355,79.2762441241273,43.302692351623264,46.82845815481507,40
6276.86,82.1154,82.09899706554073,75.19586893502876,78.93124021803018,43.167756847510546,46.90312813051197,40
6498.05,82.4907,82.33855134697819,75.04048563368056,78.67697847474096,43.66157287223723,47.29806571329763,40
6726.56,82.52249999999998,82.12712292413526,74.67189541085816,78.23229058355884,43.89483234057643,47.45522751327711,40
6963.87,81.5722,81.3545588734461,73.98223830883325,77.82202944858935,43.53252942485675,47.37232056461285,40
7209.96,82.9121,82.07637584707534,74.76708483485261,78.70068485057452,43.37569099650082,47.30929101222273,40
7464.84,84.8578,84.07244124694465,75.95761208342279,80.04881078177739,44.02363046516726,48.11482916352186,40
7727.05,86.3837,85.18736605336137,76.53497331556605,80.62779921798085,44.55956683538052,48.652392737795324,40
7999.51,85.9905,84.7624426043449,76.05397691445839,80.02187529620583,44.74056730813906,48.70846568988651,40
8282.23,85.55020000000002,84.3032237989546,75.32607913540957,79.29307514674846,45.01014865220614,48.97714466354503,40
8573.73,85.0956,83.82355504838948,74.67343367235128,78.8185428401735,45.00501220821597,49.1501213760382,40
8876.95,84.934,83.39537763396653,74.13725574676879,78.54779384246228,44.84758379150425,49.258121887197746,40
9188.96,84.06039999999999,82.53962171144761,73.19349072237308,77.62436872206837,44.91525298937924,49.346130989074524,40
9514.16,83.9206,82.31339900923436,72.93449943521489,77.45978055699486,44.8536184522395,49.37889957401947,40
9849.61,84.1823,82.71609518083876,73.1245630399629,77.71402520742176,45.00206997341701,49.59153214087587,40
10196.8,84.8399,83.37521347240586,73.45055279048509,78.1727324222181,45.20248105018776,49.92466068192077,40
10555.7,84.732,83.35194536808237,73.24907765069747,77.91703828746577,45.4349070806166,50.102867717384896,40
10927.7,84.4262,83.12203493758534,72.93893276442337,77.4969505676641,45.62508436992124,50.18310217316197,40
11313.0,83.792,82.58579399430245,72.44549794833225,77.11787429571166,45.46791969859079,50.1402960459702,40
11712.9,83.24199999999999,82.14229755569129,71.87724324876953,76.70745132629902,45.434846229392264,50.265054306921755,40
12126.0,83.4404,82.20217819078741,71.60706232056303,76.54985114098548,45.652327049801926,50.595115870224376,40
