Freq "Front Wall Bounce"
20.5078 37.67873029994047
21.9727 41.70675655215442
23.4375 46.386642337915276
24.9023 48.006686582264734
26.3672 49.05375355798438
27.832 52.0069618262543
29.2969 53.02884642503204
30.7617 53.84427274034903
32.2266 56.10279636962406
33.6914 57.7562677685971
35.1562 59.20337720567231
36.6211 60.9465448406051
38.0859 61.520178176650774
39.5508 63.07479705420843
41.0156 63.9609860693117
42.4805 65.0905315732933
43.9453 66.04328607161071
45.4102 67.0243384706202
46.875 67.94083174983334
48.3398 68.59193768187981
51.2695 69.93648375143663
52.7344 70.58246038070257
54.1992 71.04151286423343
55.6641 71.49895786339584
58.5938 72.29014904216285
60.0586 72.6787033396807
62.9883 73.4394475462711
64.4531 73.74214860323809
67.3828 74.24049219021856
68.8477 74.43526549834476
71.7773 75.04067170800292
74.707 75.65128872182808
77.6367 75.92417335050008
79.1016 76.08960405321311
82.0312 76.73206851657534
84.9609 77.10343474846327
87.8906 77.05115770151374
90.8203 77.75274152006702
95.2148 78.28125393491133
98.1445 78.61128748234566
101.074 79.02164448860967
105.469 79.34426844470536
108.398 79.67454482033317
112.793 80.02501529243341
117.188 80.49939866090988
120.117 80.6243576522739
124.512 80.85015437020262
128.906 81.02831880366344
133.301 81.26896380747824
139.16 81.21262433352555
143.555 81.36850379893197
147.949 81.56987950777952
153.809 81.60189532494502
159.668 81.62527865929317
165.527 81.610508678911
171.387 81.58184774790612
177.246 81.51379106511462
183.105 81.36888594604359
188.965 81.34119330599746
196.289 81.46976259359057
203.613 81.30630009094075
210.938 81.09995116376598
218.262 80.97376320190637
225.586 80.88485415822971
232.91 80.83231919953148
241.699 80.65816471319025
250.488 80.56817166993
259.277 80.53248206904648
268.066 80.32921060980487
276.855 80.17639957510531
287.109 80.23656700376726
297.363 80.01690138509203
307.617 80.03692873647361
319.336 79.78192939103181
329.59 79.74330714501549
341.309 79.52223767190424
353.027 79.518230872579
366.211 79.47496725763591
379.395 79.59973412997739
392.578 79.22622537298608
405.762 79.06980656457947
420.41 79.35512151026867
435.059 78.94729348845505
451.172 79.3583430905757
465.82 78.91896241855135
483.398 78.78845852487277
499.512 78.47915108906489
517.09 77.89535865015472
536.133 76.44698046679284
555.176 76.70224395196664
574.219 83.81378798604631
594.727 84.82644872623851
615.234 83.32299661424214
637.207 82.17158755754531
659.18 81.34159039213601
682.617 81.38017219463822
707.52 80.80431499474525
732.422 80.76482979210229
757.324 80.50110514796408
785.156 80.10267595390198
811.523 80.1645068731336
840.82 80.59089331382782
870.117 80.41351428263951
900.879 81.02480880922488
933.105 81.00387223423152
965.332 81.35824173144789
1000.49 81.85365520933368
1035.64 81.54423454681998
1072.27 75.54840669300847
1108.89 75.58924650470945
1148.44 78.57909983913073
1189.45 80.33854857678462
1230.47 81.03514896380705
1274.41 82.21273145590078
1319.82 81.37113534939428
1366.7 79.48816334621907
1413.57 79.04809024994826
1463.38 79.36860237504247
1516.11 83.92764712306047
1568.85 84.48618216334052
1624.51 83.29141725851431
1681.64 82.45508687807911
1741.7 82.93248617480882
1803.22 84.0464913165647
1866.21 83.75589271826273
1932.13 82.21641008455339
1999.51 81.4800929529501
2069.82 80.07715808552612
2143.07 81.38462468793504
2219.24 81.22252113345743
2296.88 79.87728498525392
2378.91 79.49033745082033
2462.4 80.42687432318624
2548.83 81.37307668699107
2639.65 80.37696442652023
2731.93 80.48456516399287
2828.61 80.97541501984297
2928.22 81.39871655565148
3030.76 81.81187687243994
3137.7 82.1333776863156
3249.02 82.46568776277005
3363.28 81.32275808468053
3481.93 80.5860494674139
3604.98 81.43794287204044
3732.42 81.1909139700691
3864.26 80.44671329135689
4000.49 81.50575874371538
4141.11 81.40354885347503
4287.6 81.81585010159182
4438.48 81.49767339346637
4595.21 82.34139134996207
4756.35 81.24212614332124
4924.8 81.66615726879412
5097.66 82.18305889371211
5277.83 82.52882773025729
5463.87 82.43812327215643
5657.23 83.46516305711808
5856.45 83.0584653088707
6062.99 83.71851768071261
6276.86 83.47293390754626
6498.05 83.35297609351903
6726.56 83.28033341007011
6963.87 82.66688013699628
7209.96 83.15004041524581
7464.84 82.59957783855397
7727.05 82.5833032391937
7999.51 82.3353387237759
8282.23 82.97267708441198
8573.73 83.25393670954952
8876.95 83.29385307062489
9188.96 83.80765700813126
9514.16 83.41131676190678
9849.61 82.81953592475173
10196.8 82.61316463139485
10555.7 82.32169394950739
10927.7 82.16654375243415
11313.0 82.47147278907792
11712.9 82.86209937417817
12126.0 82.96806525514785
12553.7 82.90710295300778
12996.1 82.81872782945933
13454.6 82.68665725026955
13929.2 82.47969460214745
14419.9 82.45892722229465
14928.2 82.71319424870256
15455.6 82.67755510013323
16000.5 82.5718911338227
16564.5 82.15365240316868
17148.9 81.46969477786486
17752.4 80.88093255685271
18379.4 80.29069267993088
19026.9 80.06890728163243
19697.8 80.20316774495541
19999.5 80.24507700962602
