Freq "Listening Window"
20.5078 62.4708424906632
21.9727 64.21598228317261
23.4375 65.15141415035542
24.9023 65.91782437642179
26.3672 66.66295759307424
27.832 67.48796095775948
29.2969 68.21237068664267
30.7617 69.01278424034886
32.2266 69.47959878835506
33.6914 69.85544397776515
35.1562 70.9366117756068
36.6211 71.18886801842085
38.0859 71.64274151807909
39.5508 72.25762407113896
41.0156 72.79081460985545
42.4805 73.27294900300961
43.9453 73.86010522187927
45.4102 74.3368447772941
46.875 74.76077441416031
48.3398 75.0991430763373
51.2695 75.96286354046292
52.7344 76.44684112105944
54.1992 76.82499478318547
55.6641 77.16557158034622
58.5938 77.93244579149082
60.0586 78.30603771542434
62.9883 78.92918333123953
64.4531 79.22972546718705
67.3828 79.67939702409254
68.8477 79.95341621752145
71.7773 80.63064586303709
74.707 81.25307309444106
77.6367 81.78190108312103
79.1016 82.01676125257761
82.0312 82.44792491377672
84.9609 82.78984968185624
87.8906 83.56392593628522
90.8203 83.87290679950831
95.2148 84.43127887195928
98.1445 84.80820102045718
101.074 85.03623095395776
105.469 85.75039890870251
108.398 86.10714079162035
112.793 86.60394035355665
117.188 87.0478019838532
120.117 87.24144408691045
124.512 87.46661452100888
128.906 87.7348487939192
133.301 87.96298542150025
139.16 88.23512797999591
143.555 88.38656854177758
147.949 88.50792361813954
153.809 88.6324834316577
159.668 88.72996750025753
165.527 88.80847501010881
171.387 88.85137612658531
177.246 88.76927987079009
183.105 88.6049498804831
188.965 88.58597752553364
196.289 88.5159438233297
203.613 88.42756962536122
210.938 88.18286531966488
218.262 87.89411908008793
225.586 87.90180393837183
232.91 87.79305798458661
241.699 87.31998649215602
250.488 87.08856510631811
259.277 86.93488672327005
268.066 86.75492317498423
276.855 86.57734204857022
287.109 86.64733842610686
297.363 88.29792917524493
307.617 87.93492971751554
319.336 87.0465213826048
329.59 86.82744264179328
341.309 86.53622129673673
353.027 86.73633937889743
366.211 86.76726899427679
379.395 86.62961032375553
392.578 86.2602137036515
405.762 85.92099266304393
420.41 86.1212851814842
435.059 85.20873843148802
451.172 85.72430528491229
465.82 85.75110141951689
483.398 85.47345812325712
499.512 85.05190491738661
517.09 84.1302071917545
536.133 84.85155460178257
555.176 85.05202890374899
574.219 84.22924582644653
594.727 84.74194660793378
615.234 84.94356100701971
637.207 84.79336195043977
659.18 84.0781333221564
682.617 84.6428328537338
707.52 84.64659885759659
732.422 84.64500698707612
757.324 84.21589693530314
785.156 83.30303637504058
811.523 83.85367326419707
840.82 83.76762485856194
870.117 87.14882562390433
900.879 86.77567990136927
933.105 86.40488258929715
965.332 85.41590449049149
1000.49 85.78393833788923
1035.64 86.25332585326275
1072.27 85.49957469436643
1108.89 85.26734432158194
1148.44 85.71502582970503
1189.45 85.3676260379758
1230.47 86.63339902222845
1274.41 86.22496932083907
1319.82 85.83581415991155
1366.7 85.55818138796796
1413.57 84.77147635139252
1463.38 84.77751001307807
1516.11 85.264114083738
1568.85 84.79823087848493
1624.51 85.0761616281418
1681.64 85.24578126682032
1741.7 85.88834666616803
1803.22 86.19846572681112
1866.21 85.54425209279326
1932.13 85.47396934174593
1999.51 85.77527561351465
2069.82 86.06783889172577
2143.07 86.0962900677871
2219.24 85.88172039528487
2296.88 85.26806335943326
2378.91 85.03076003592126
2462.4 85.76466325960118
2548.83 86.08625508212178
2639.65 85.34448130683056
2731.93 84.81440675660592
2828.61 85.02427910227433
2928.22 86.11311547048568
3030.76 86.41070956010608
3137.7 86.22832770715927
3249.02 86.40089300257065
3363.28 86.36840585147753
3481.93 86.71232795680814
3604.98 87.04990020505055
3732.42 87.74418549331635
3864.26 87.6812705224289
4000.49 87.37879250730677
4141.11 87.75589645026552
4287.6 88.15882094257552
4438.48 88.18708926992069
4595.21 87.76842059976268
4756.35 88.33256068982836
4924.8 89.03906282429658
5097.66 88.89017692608913
5277.83 88.92142390648735
5463.87 88.18341243514035
5657.23 88.0099065195984
5856.45 87.93661622894199
6062.99 88.34926357996218
6276.86 87.62206153976906
6498.05 87.77790549523161
6726.56 87.6644597427385
6963.87 87.38988477810301
7209.96 87.36334642281074
7464.84 87.4654852823259
7727.05 87.53484764039241
7999.51 87.47313969210298
8282.23 87.81636884583192
8573.73 88.516109523679
8876.95 88.33401864502014
9188.96 88.15711975299679
9514.16 88.46309602402862
9849.61 88.65045755224328
10196.8 88.77402820361299
10555.7 88.79200915776327
10927.7 88.79128860439992
11313.0 88.27776123227446
11712.9 87.43565807260772
12126.0 86.69032815031534
12553.7 85.72318924791047
12996.1 85.618533980012
13454.6 85.63041909592188
13929.2 86.2383483593652
14419.9 87.80695595007604
14928.2 89.99735378462573
15455.6 91.25459420465485
16000.5 90.16010501427981
16564.5 87.7680378217344
17148.9 85.81919622942918
17752.4 84.2010021015479
18379.4 82.96695146069807
19026.9 81.87307209766983
19697.8 80.55167768068524
19999.5 80.03288656324335
