Freq "Estimated In-Room Response"
22.4 32.46562392684827
23.0 35.93158053769004
23.6 37.37246232841839
24.0 38.56915348944152
25.0 39.46271839341351
25.8 39.389046038002576
26.5 39.21478109260774
27.2 39.62789743385538
28.0 40.280385038635345
29.0 41.68303806033889
30.0 42.72526195122869
30.7 44.31759174392438
31.5 46.65330138584632
32.5 49.50944189087569
33.5 52.41531709923392
34.5 55.92636227936096
35.5 58.83848526103246
36.5 61.008435632641024
37.5 63.204075739885226
38.7 65.28203535543379
40.0 67.2959991325484
41.2 69.59801617912112
42.5 71.44122914172718
43.7 72.89690250376765
45.0 74.39529008527295
46.2 75.73888719728761
47.5 77.06242175679925
48.7 78.10371093861015
50.0 78.89934748877513
51.5 79.7219069343545
53.0 80.5924894020501
54.5 81.36315115064583
56.0 82.07228194956463
58.0 82.80272086412722
60.0 83.72310125674785
61.5 84.65097089455625
63.0 85.5201149189323
65.0 86.4625027550988
67.0 87.39226751622617
69.0 88.23157582316706
71.0 89.05620310149574
73.0 89.98070823262599
75.0 90.80563047146318
77.5 91.51459040876104
80.0 92.26194881206956
82.5 92.83683678724151
85.0 93.26735054696533
87.5 93.54344786198739
90.0 93.57011133282512
92.5 93.36798339277964
95.0 93.00851165855154
97.5 92.6091670978369
100.0 92.20896503130504
103.0 91.91866975339475
106.0 91.75199516045738
109.0 91.65325723343189
112.0 91.60175353725803
115.0 91.5451566937948
118.0 91.48658356974232
122.0 91.414600732786
125.0 91.36984147699047
128.0 91.34779964462815
132.0 91.3238405423164
136.0 91.30516942981806
140.0 91.1941973652874
145.0 90.99003069192968
150.0 90.67447559752988
155.0 90.2024009492027
160.0 89.77336269237368
165.0 89.69874549898748
170.0 90.01592220802893
175.0 90.37111043894215
180.0 90.57426683532462
185.0 90.5429067986611
190.0 90.16877628922278
195.0 89.6406767546226
200.0 89.10351762397843
206.0 88.60061557471711
212.0 88.33669173907006
218.0 88.38046758333873
224.0 88.62740520780362
230.0 88.87529123757126
236.0 88.9717195026821
240.0 88.9522455359526
250.0 88.77389792355805
258.0 88.43927453291032
265.0 88.00816087045082
272.0 87.33721173917219
280.0 86.62438241915189
290.0 86.32332893343238
300.0 86.44951868532482
307.0 86.80404715614061
315.0 87.34812188897541
325.0 87.80717577763524
335.0 88.06490706865473
345.0 88.15412666337035
355.0 87.9854118978362
365.0 87.66635133954473
375.0 87.31488997106938
387.0 86.9804602348996
400.0 86.8635387386508
412.0 86.88171240804631
425.0 86.75538300543069
437.0 86.42988465777212
450.0 85.61371373491805
462.0 84.65873868160635
475.0 84.55769834887359
487.0 84.55113935602432
500.0 85.03770569922101
515.0 86.0715555939913
530.0 86.6109589232219
545.0 87.00914946786583
560.0 87.20857214999354
580.0 87.0434916441912
600.0 86.87241738718105
615.0 86.94678888168036
630.0 87.15148503649563
650.0 87.29463744460905
670.0 87.37260898817847
690.0 87.31971375538846
710.0 87.16924289360232
730.0 86.97957314729156
750.0 86.70260888629967
775.0 86.74863058440222
800.0 87.07016411747452
825.0 87.40376516495097
850.0 87.34439762652626
875.0 87.05302905144471
900.0 86.88050252666322
925.0 86.95275131843552
950.0 87.2629816629526
975.0 87.42869372026819
1000.0 87.442874456084
1030.0 87.27607746535948
1060.0 87.12408032194723
1090.0 86.96544495969438
1120.0 86.96120960443157
1150.0 86.99703841105874
1180.0 87.13050746914077
1220.0 87.28058958757522
1250.0 87.26168401125385
1280.0 87.24215400908359
1320.0 87.08187136157282
1360.0 86.9578120992751
1400.0 86.90006233153373
1450.0 86.76019782147345
1500.0 86.25727494091298
1550.0 86.1010600569815
1600.0 85.85600052309358
1650.0 84.84895702290947
1700.0 84.61340945462025
1750.0 84.51888947846307
1800.0 83.71871954785523
1850.0 83.10594128409258
1900.0 83.0531758616146
1950.0 83.01065481070601
2000.0 83.07043890206138
2060.0 83.67919239384172
2120.0 83.9524411890187
2180.0 84.08885889867469
2240.0 84.31125088880081
2300.0 84.27931246095555
2360.0 84.04555111465868
2400.0 84.04355521781477
2500.0 84.10448580066286
2580.0 83.76018043023558
2650.0 83.79281504472529
2720.0 83.6673475466599
2800.0 83.00529238665732
2900.0 82.60053188904938
3000.0 82.4296923534899
3070.0 82.21267495178331
3150.0 81.97134808183951
3250.0 81.86073325210975
3350.0 82.1432117276555
3450.0 82.49574895845
3550.0 82.76453569846225
3650.0 83.18564428567058
3750.0 83.47664575602374
3870.0 83.61575950440147
4000.0 84.05093229880104
4120.0 84.34271207361854
4250.0 84.43917424291051
4370.0 84.46946336939014
4500.0 84.73004474837448
4620.0 84.87742698997836
4750.0 84.95020586125138
4870.0 84.90810523467908
5000.0 84.99022262942619
5150.0 84.30616491429996
5300.0 83.93221295312145
5450.0 84.62468764704646
5600.0 84.90591553379438
5800.0 84.94156695878165
6000.0 84.62764048912055
6150.0 84.36152350698804
6300.0 84.21644495680381
6500.0 83.87269828513776
6700.0 83.46551546036112
6900.0 83.25668135162242
7100.0 83.02013991380429
7300.0 82.44720692560189
7500.0 82.70586124733704
7750.0 83.62769763190968
8000.0 84.83268246565443
8250.0 85.91988087280573
8500.0 86.46959748035579
8750.0 86.89343052643879
9000.0 86.27846180589957
9250.0 85.55764441232016
9500.0 84.87312912700456
9750.0 84.44161209697326
10000.0 83.93978966496434
10300.0 83.25238891971061
10600.0 82.82861591010051
10900.0 82.68808318297052
11200.0 82.86599913051548
11500.0 82.64690695138184
11800.0 81.80191449275539
12200.0 82.93913954402866
12500.0 84.13719347258784
12800.0 84.66318248058936
13200.0 83.99813905747597
13600.0 84.38086734804376
14000.0 82.69993670807125
14500.0 81.9272349703512
15000.0 81.14575016947516
15500.0 82.32064202389509
16000.0 81.26918127502343
16500.0 81.93065080583445
17000.0 79.97501676188922
17500.0 78.46905953762558
18000.0 75.23594446923406
18500.0 75.03032650705858
19000.0 73.93402760154437
19500.0 70.45528468246222
