Freq "Sound Power"
22.4 37.959541893504834
23.0 38.952137719740065
23.6 39.937039367613934
24.0 40.92323454484175
25.0 41.89012339186492
25.8 42.88467503975686
26.5 43.87382244366408
27.2 44.86979363778791
28.0 45.85493869327708
29.0 46.86024469868387
30.0 47.848506845214885
30.7 48.842903307946514
31.5 49.841160328997645
32.5 50.83097312404128
33.5 51.796418704107666
34.5 52.763991347596786
35.5 53.72067715866744
36.5 54.67832208906911
37.5 55.59051677811719
38.7 56.49698846082161
40.0 57.37432769066288
41.2 58.23688451624405
42.5 59.03561913664316
43.7 59.833399141656514
45.0 60.57123929200496
46.2 61.263296899649916
47.5 61.91139020634685
48.7 62.50684313468504
50.0 63.06149783472485
51.5 63.5529695553663
53.0 63.984690234981386
54.5 64.36488462344765
56.0 64.70208779661293
58.0 64.99092987886611
60.0 65.25643732114098
61.5 65.49347459686531
63.0 65.75758960513049
65.0 66.04623727549244
67.0 66.35918585333341
69.0 66.74373255192634
71.0 67.17929293573815
73.0 67.66409569541108
75.0 68.19604251615173
77.5 68.70743637236009
80.0 69.19401100192825
82.5 69.63610414560715
85.0 70.03615985593011
87.5 70.40483833101398
90.0 70.77844943485051
92.5 71.17401703832819
95.0 71.63366394159253
97.5 72.12155887209836
100.0 72.59298007313076
103.0 72.97890316340802
106.0 73.27293620971342
109.0 73.46726572216878
112.0 73.60095559930923
115.0 73.72383968575984
118.0 73.882039813283
122.0 74.10410930984541
125.0 74.37437861960274
128.0 74.6246582382501
132.0 74.86446821555823
136.0 75.06408019241617
140.0 75.29187878374924
145.0 75.51332421630123
150.0 75.75009873308069
155.0 75.93049698024919
160.0 76.06560550875511
165.0 76.1479427062496
170.0 76.1542778147792
175.0 76.02584030784054
180.0 75.900930756971
185.0 75.73788998964665
190.0 75.57326390977666
195.0 75.35988842215642
200.0 75.1650163005624
206.0 75.01166066594267
212.0 74.91966904670319
218.0 74.89946444608076
224.0 74.98305327453191
230.0 75.14797188887361
236.0 75.3357070339509
240.0 75.50297716127342
250.0 75.60576041159192
258.0 75.62148284735824
265.0 75.53906308175823
272.0 75.41161780489166
280.0 75.29087253284673
290.0 75.21985377260384
300.0 75.20186285451977
307.0 75.23942790574021
315.0 75.30534082866846
325.0 75.34596268163924
335.0 75.32647373819087
345.0 75.2041462062857
355.0 75.04825130345723
365.0 74.90292111311187
375.0 74.82556900685864
387.0 74.80693737904892
400.0 74.78405839707133
412.0 74.64475431960693
425.0 74.35029931583861
437.0 73.89749604772808
450.0 73.46010857291216
462.0 73.27449653576969
475.0 73.40486076345861
487.0 73.69653099830265
500.0 73.99339275971766
515.0 74.22551809326468
530.0 74.38729256108287
545.0 74.47574932080855
560.0 74.31869127011
580.0 73.83870474979366
600.0 73.13882352962149
615.0 72.44580423498236
630.0 71.88917824676811
650.0 71.5310183365478
670.0 71.34728689487649
690.0 71.15305644649666
710.0 70.71769772932787
730.0 70.12395416139583
750.0 69.61985806392346
775.0 69.19939154877231
800.0 68.94852334873626
825.0 69.01117896740955
850.0 69.05042866623087
875.0 68.7146812303892
900.0 68.41957056521032
925.0 68.62406239457563
950.0 68.78662519725137
975.0 69.02170142974977
1000.0 69.69766710466914
1030.0 71.00710446024662
1060.0 72.33692032785184
1090.0 72.56977318401431
1120.0 71.54348425736299
1150.0 70.23527140444327
1180.0 69.64075124938317
1220.0 69.01341866578566
1250.0 68.46695533053953
1280.0 68.74813945734972
1320.0 69.26386826711321
1360.0 69.28751546631082
1400.0 68.90887225612404
1450.0 68.33655959524505
1500.0 68.30722232210988
1550.0 68.72406659191745
1600.0 69.07642820000983
1650.0 69.24367269019228
1700.0 69.75090532170049
1750.0 70.34193487771432
1800.0 70.63729896542368
1850.0 70.42030382648308
1900.0 70.41209282209107
1950.0 70.00031024602364
2000.0 69.2215165140436
2060.0 68.89424316288105
2120.0 68.66735021946877
2180.0 67.6650582403981
2240.0 67.05554016882944
2300.0 66.48237533992231
2360.0 66.36818960183807
2400.0 66.01309936148124
2500.0 66.45011933647211
2580.0 66.5394784443129
2650.0 66.8885306029857
2720.0 66.55787473562609
2800.0 66.39895316421087
2900.0 67.65363838930618
3000.0 69.15357349952889
3070.0 69.7637863814057
3150.0 69.87431882793658
3250.0 69.94526412305824
3350.0 69.781305772278
3450.0 69.42463038125094
3550.0 68.69992970846963
3650.0 68.12339580856685
3750.0 68.18019015636123
3870.0 68.91496048760597
4000.0 69.37844788908855
4120.0 69.32433980779109
4250.0 68.93387503510554
4370.0 68.68886954882863
4500.0 67.81977205791956
4620.0 67.49325732964024
4750.0 67.43995819860875
4870.0 67.7447829383862
5000.0 67.3536131328138
5150.0 68.0156767243399
5300.0 69.00212992058239
5450.0 69.24372491590124
5600.0 68.15372576749303
5800.0 68.07764799554043
6000.0 68.55105353247042
6150.0 68.6447747301925
6300.0 67.95538147000413
6500.0 68.08024258840696
6700.0 68.31609285677672
6900.0 66.78529892554977
7100.0 65.50887230556869
7300.0 65.41960498605772
7500.0 64.03221606368751
7750.0 64.35377585599281
8000.0 65.71594701434783
8250.0 64.65600838091176
8500.0 65.56068896087628
8750.0 68.95138956776712
9000.0 69.78682540876552
9250.0 69.49900269882406
9500.0 67.82421676823601
9750.0 66.55149309376073
10000.0 66.60842815810842
10300.0 65.91396035714502
10600.0 63.875589980161365
10900.0 64.20334877351385
11200.0 66.40416441464103
11500.0 62.23686421268853
11800.0 64.49042112924413
12200.0 72.11925042431484
12500.0 63.0460084962169
12800.0 64.47588628000301
13200.0 64.45223047332401
13600.0 67.56608671328149
14000.0 66.23924956094241
14500.0 66.8950092405524
15000.0 64.95011433911999
15500.0 61.83373399592247
16000.0 60.58114317331395
16500.0 58.60247332217659
17000.0 60.66895409011521
17500.0 59.60614468681027
18000.0 59.261267861994625
18500.0 58.56738644691126
19000.0 59.02634813274045
19500.0 55.96960333457049
