Freq "Sound Power"
22.4 37.80511151375801
23.0 38.79770733999324
23.6 39.78260898786711
24.0 40.76880416509492
25.0 41.73569301211809
25.8 42.73024466001003
26.5 43.719392063917255
27.2 44.71536325804108
28.0 45.70050831353025
29.0 46.705814318937044
30.0 47.69407646546806
30.7 48.68847292819969
31.5 49.68672994925082
32.5 50.67654274429445
33.5 51.64198832436084
34.5 52.60956096784996
35.5 53.566246778920615
36.5 54.523891709322285
37.5 55.436086398370364
38.7 56.342558081074785
40.0 57.21989731091605
41.2 58.08245413649722
42.5 58.881188756896336
43.7 59.67896876190969
45.0 60.41680891225813
46.2 61.10886651990309
47.5 61.756959826600024
48.7 62.352412754938214
50.0 62.90706745497802
51.5 63.398539175619476
53.0 63.83025985523456
54.5 64.21045424370082
56.0 64.5476574168661
58.0 64.83649949911928
60.0 65.10200694139415
61.5 65.33904421711848
63.0 65.60315922538366
65.0 65.89180689574562
67.0 66.20475547358659
69.0 66.58930217217952
71.0 67.02486255599132
73.0 67.50966531566425
75.0 68.04161213640491
77.5 68.55300599261327
80.0 69.03958062218142
82.5 69.48167376586032
85.0 69.88172947618328
87.5 70.25040795126715
90.0 70.62401905510369
92.5 71.01958665858136
95.0 71.4792335618457
97.5 71.96712849235153
100.0 72.43854969338393
103.0 72.8244727836612
106.0 73.1185058299666
109.0 73.31283534242195
112.0 73.4465252195624
115.0 73.56940930601301
118.0 73.72760943353617
122.0 73.94967893009859
125.0 74.21994823985591
128.0 74.47022785850328
132.0 74.7100378358114
136.0 74.90964981266934
140.0 75.13744840400241
145.0 75.3588938365544
150.0 75.59566835333386
155.0 75.77606660050236
160.0 75.91117512900829
165.0 75.99351232650277
170.0 75.99984743503238
175.0 75.87140992809371
180.0 75.74650037722417
185.0 75.58345960989982
190.0 75.41883353002983
195.0 75.20545804240959
200.0 75.01058592081557
206.0 74.85723028619584
212.0 74.76523866695636
218.0 74.74503406633393
224.0 74.82862289478508
230.0 74.99354150912679
236.0 75.18127665420407
240.0 75.3485467815266
250.0 75.45133003184509
258.0 75.46705246761141
265.0 75.3846327020114
272.0 75.25718742514483
280.0 75.1364421530999
290.0 75.06542339285701
300.0 75.04743247477295
307.0 75.08499752599339
315.0 75.15091044892164
325.0 75.19153230189241
335.0 75.17204335844404
345.0 75.04971582653887
355.0 74.89382092371041
365.0 74.74849073336505
375.0 74.67113862711182
387.0 74.65250699930209
400.0 74.6296280173245
412.0 74.4903239398601
425.0 74.19586893609178
437.0 73.74306566798126
450.0 73.30567819316533
462.0 73.12006615602286
475.0 73.25043038371179
487.0 73.54210061855582
500.0 73.83896237997084
515.0 74.07108771351785
530.0 74.23286218133605
545.0 74.32131894106172
560.0 74.16426089036317
580.0 73.68427437004684
600.0 72.98439314987466
615.0 72.29137385523553
630.0 71.73474786702128
650.0 71.37658795680098
670.0 71.19285651512966
690.0 70.99862606674984
710.0 70.56326734958104
730.0 69.969523781649
750.0 69.46542768417663
775.0 69.04496116902548
800.0 68.79409296898943
825.0 68.85674858766272
850.0 68.89599828648404
875.0 68.56025085064238
900.0 68.2651401854635
925.0 68.4696320148288
950.0 68.63219481750454
975.0 68.86727105000294
1000.0 69.54323672492231
1030.0 70.8526740804998
1060.0 72.18248994810502
1090.0 72.41534280426748
1120.0 71.38905387761616
1150.0 70.08084102469644
1180.0 69.48632086963634
1220.0 68.85898828603884
1250.0 68.3125249507927
1280.0 68.5937090776029
1320.0 69.10943788736638
1360.0 69.133085086564
1400.0 68.75444187637721
1450.0 68.18212921549822
1500.0 68.15279194236305
1550.0 68.56963621217062
1600.0 68.921997820263
1650.0 69.08924231044546
1700.0 69.59647494195366
1750.0 70.1875044979675
1800.0 70.48286858567685
1850.0 70.26587344673625
1900.0 70.25766244234424
1950.0 69.84587986627682
2000.0 69.06708613429677
2060.0 68.73981278313423
2120.0 68.51291983972195
2180.0 67.51062786065127
2240.0 66.90110978908261
2300.0 66.32794496017549
2360.0 66.21375922209124
2400.0 65.85866898173441
2500.0 66.29568895672529
2580.0 66.38504806456608
2650.0 66.73410022323887
2720.0 66.40344435587926
2800.0 66.24452278446404
2900.0 67.49920800955935
3000.0 68.99914311978206
3070.0 69.60935600165887
3150.0 69.71988844818975
3250.0 69.79083374331141
3350.0 69.62687539253118
3450.0 69.27020000150411
3550.0 68.5454993287228
3650.0 67.96896542882003
3750.0 68.02575977661441
3870.0 68.76053010785914
4000.0 69.22401750934172
4120.0 69.16990942804426
4250.0 68.77944465535872
4370.0 68.53443916908181
4500.0 67.66534167817274
4620.0 67.33882694989342
4750.0 67.28552781886192
4870.0 67.59035255863937
5000.0 67.19918275306698
5150.0 67.86124634459307
5300.0 68.84769954083556
5450.0 69.08929453615441
5600.0 67.9992953877462
5800.0 67.9232176157936
6000.0 68.39662315272359
6150.0 68.49034435044567
6300.0 67.8009510902573
6500.0 67.92581220866013
6700.0 68.16166247702989
6900.0 66.63086854580294
7100.0 65.35444192582186
7300.0 65.2651746063109
7500.0 63.87778568394069
7750.0 64.19934547624598
8000.0 65.561516634601
8250.0 64.50157800116493
8500.0 65.40625858112945
8750.0 68.7969591880203
9000.0 69.6323950290187
9250.0 69.34457231907723
9500.0 67.66978638848919
9750.0 66.3970627140139
10000.0 66.4539977783616
10300.0 65.75952997739819
10600.0 63.72115960041454
10900.0 64.04891839376702
11200.0 66.2497340348942
11500.0 62.0824338329417
11800.0 64.3359907494973
12200.0 71.96482004456801
12500.0 62.89157811647007
12800.0 64.32145590025618
13200.0 64.29780009357718
13600.0 67.41165633353467
14000.0 66.08481918119558
14500.0 66.74057886080557
15000.0 64.79568395937316
15500.0 61.679303616175645
16000.0 60.42671279356712
16500.0 58.448042942429765
17000.0 60.51452371036838
17500.0 59.45171430706344
18000.0 59.1068374822478
18500.0 58.41295606716443
19000.0 58.871917752993625
19500.0 55.815172954823666
