Freq "Estimated In-Room Response"
22.4 18.23214880537587
23.0 16.649252845896754
23.6 14.388279534522567
24.0 11.135804723030688
25.0 8.68490382718106
25.8 10.774846933712027
26.5 15.317620815413292
27.2 19.092238803408875
28.0 22.01637682050348
29.0 24.360963083671592
30.0 26.30392459354958
30.7 27.96780680568149
31.5 29.419686815967268
32.5 30.688232247665
33.5 31.825496818279603
34.5 32.88305450047456
35.5 33.81137183139772
36.5 35.171049313401184
37.5 35.973420799496026
38.7 36.68471356757844
40.0 37.663421595060456
41.2 38.349420349213275
42.5 39.19641371064802
43.7 39.73482203704221
45.0 40.48129212154568
46.2 40.93513930375802
47.5 41.5750091209089
48.7 42.162735184640155
50.0 42.720041046335396
51.5 43.427695057242616
53.0 43.97992760830627
54.5 44.66623549362818
56.0 45.25045364429184
58.0 46.02073197152778
60.0 46.54099257249179
61.5 47.24411374887056
63.0 47.9310019637189
65.0 48.60299609650443
67.0 49.21687950174746
69.0 49.824394611524625
71.0 50.44775494896639
73.0 51.05521029560464
75.0 51.54946889593356
77.5 52.172477061539794
80.0 52.623454607897116
82.5 53.22819581049774
85.0 53.806987625554385
87.5 54.3691861774838
90.0 55.060171934903664
92.5 55.61956114541489
95.0 56.24444398999229
97.5 56.881013462998126
100.0 57.530826214499754
103.0 58.235004055366005
106.0 58.84012633426893
109.0 59.60827280272832
112.0 60.235656508364755
115.0 60.91114601438656
118.0 61.49773257250611
122.0 61.98449460152368
125.0 62.438574205088955
128.0 62.77182406149301
132.0 63.06982468136083
136.0 63.31720676446267
140.0 63.542655877108075
145.0 63.76358899497636
150.0 63.92583825743286
155.0 64.03206559988364
160.0 64.04435038918011
165.0 63.936571826767064
170.0 63.735818735759594
175.0 63.48707439079071
180.0 63.248523302866644
185.0 63.0227960625252
190.0 62.805325885613954
195.0 62.59892624165178
200.0 62.39449931799028
206.0 62.172636149178345
212.0 61.959037717565565
218.0 61.67035004685013
224.0 61.33555877169984
230.0 61.03242939344888
236.0 60.90424166618736
240.0 60.86484829659307
250.0 60.81385619102272
258.0 60.66326728518858
265.0 60.44974742493308
272.0 60.18291941784891
280.0 59.90612159830941
290.0 59.73067051092822
300.0 59.724244584907225
307.0 59.91353654547484
315.0 60.15726590076265
325.0 60.338359158636436
335.0 60.50914329086868
345.0 60.74624771073141
355.0 60.838923888692946
365.0 60.71015191569258
375.0 60.662606191110186
387.0 60.88947053118939
400.0 61.2976049889388
412.0 61.555726077315
425.0 61.6200830432697
437.0 61.651525770185074
450.0 61.45204732477636
462.0 60.873391053405825
475.0 60.68028534987543
487.0 61.10711435491439
500.0 61.261266988243975
515.0 61.192076261716224
530.0 60.99193109263766
545.0 60.60219927113502
560.0 60.20822403708033
580.0 60.06218134533479
600.0 59.754451974023496
615.0 58.94053322153776
630.0 58.85306434371759
650.0 58.93506316101083
670.0 59.124304765595056
690.0 59.33833807523527
710.0 58.72842745118983
730.0 58.85371177032822
750.0 59.6646349315095
775.0 60.01425876403157
800.0 59.993031321681045
825.0 59.51672814301138
850.0 59.34643191399111
875.0 59.45859172190207
900.0 59.298523604594536
925.0 58.80108655047425
950.0 58.66673588809542
975.0 58.96506336069993
1000.0 58.629843322473235
1030.0 58.11111708174623
1060.0 58.272746515985105
1090.0 58.13242237474641
1120.0 58.303541739257156
1150.0 58.398345565838284
1180.0 58.27382332493963
1220.0 58.78867955464527
1250.0 58.694032550145536
1280.0 58.30639793332611
1320.0 58.95766371158457
1360.0 59.31172884694489
1400.0 59.41308120442403
1450.0 59.18317280161669
1500.0 59.019959522390565
1550.0 59.155404238642134
1600.0 59.33248937164426
1650.0 59.116923463475956
1700.0 59.5533071404472
1750.0 59.619191664657606
1800.0 59.69885544599509
1850.0 59.40291193889807
1900.0 58.57126232771812
1950.0 58.366536042657
2000.0 58.63492673479665
2060.0 59.08433521997708
2120.0 58.408396937377276
2180.0 58.64979799747189
2240.0 58.76155941408307
2300.0 58.706157863078246
2360.0 58.88720073731473
2400.0 59.39483210715494
2500.0 59.704007300467055
2580.0 59.56466999078674
2650.0 58.932516832388316
2720.0 59.0709162910904
2800.0 59.65565134069011
2900.0 60.02384336856984
3000.0 60.09024041984611
3070.0 59.42372001630848
3150.0 59.0278963385221
3250.0 58.966967314079085
3350.0 58.51893208608546
3450.0 57.89566822056423
3550.0 57.62185349382179
3650.0 57.39573296554198
3750.0 57.254457736597615
3870.0 57.18698804065609
4000.0 57.35193871659608
4120.0 57.36114361130669
4250.0 57.32995575823041
4370.0 57.08083036024793
4500.0 56.68896873590886
4620.0 56.44518747789192
4750.0 56.26022313063831
4870.0 56.31064904624205
5000.0 56.48050813066206
5150.0 56.769213177231435
5300.0 57.423152111789065
5450.0 57.920891373314944
5600.0 57.94622079747673
5800.0 57.74621818275372
6000.0 57.66396438436563
6150.0 57.44883232825977
6300.0 57.229414553345634
6500.0 57.02554924505962
6700.0 56.68747446649117
6900.0 56.38557607930356
7100.0 56.48419594960983
7300.0 56.51972524597994
7500.0 56.56884778077209
7750.0 56.31852899535072
8000.0 55.96988103321969
8250.0 55.813088966976366
8500.0 55.89318636765664
8750.0 56.117751310497496
9000.0 55.87147775410945
9250.0 55.43127513558562
9500.0 55.09082295771975
9750.0 55.172164926266916
10000.0 55.06260138634728
10300.0 55.07305119720557
10600.0 55.34822872783489
10900.0 55.764356377175474
11200.0 55.146877581612046
11500.0 54.44161746042187
11800.0 54.12153940610162
12200.0 53.451998694970925
12500.0 53.453257373193
12800.0 54.05440663752093
13200.0 55.116058652305725
13600.0 56.13696814889083
14000.0 55.63673966788589
14500.0 54.15700486308491
15000.0 52.82510533222515
15500.0 51.55173556967672
16000.0 50.793259317333934
16500.0 50.61054013962229
17000.0 50.55143791371627
17500.0 52.44443596178294
18000.0 52.43241536685862
18500.0 50.57498800651224
19000.0 49.22407854364978
19500.0 47.96523038097156
