Freq "Estimated In-Room Response"
22.4 43.10612253971307
23.0 44.08407396834234
23.6 45.197213725532194
24.0 46.272224056245264
25.0 47.6234896152278
25.8 48.794342461957186
26.5 50.14855943032087
27.2 51.343651457146095
28.0 52.75977225469033
29.0 54.088219192028916
30.0 55.73480697855523
30.7 57.19592359533881
31.5 58.65183187330423
32.5 59.862794670753956
33.5 60.968790079737275
34.5 62.186686582536524
35.5 63.4380617102331
36.5 64.62497960898
37.5 65.69440257202983
38.7 66.67726840045408
40.0 67.62219588586534
41.2 68.53642438138397
42.5 69.3903612889831
43.7 70.17480202099246
45.0 70.83040946149059
46.2 71.1899649415824
47.5 71.16737050663131
48.7 70.7653132484035
50.0 70.57629229640817
51.5 71.06051095077616
53.0 72.24840954834235
54.5 73.62267174065167
56.0 74.76480254930216
58.0 75.48954412662818
60.0 75.86232787209268
61.5 76.10783123684129
63.0 76.38272487169813
65.0 76.53018006348826
67.0 76.57254541850689
69.0 76.71981452298716
71.0 76.9581416302757
73.0 77.16496253601672
75.0 77.58298728509915
77.5 78.27758202116215
80.0 79.01346576214921
82.5 79.85174759923434
85.0 80.5496457874438
87.5 81.01174640057155
90.0 81.20138744052642
92.5 81.3157287915402
95.0 81.54674953176347
97.5 82.17094528531187
100.0 82.97115117374484
103.0 83.62025033056383
106.0 84.05017846558671
109.0 84.39446409436262
112.0 84.81351467902034
115.0 85.14136646005953
118.0 85.2086723891131
122.0 85.2908248168562
125.0 85.72525889666615
128.0 86.14977014678682
132.0 86.18266022078605
136.0 86.04109714081268
140.0 86.10223981385089
145.0 86.18635133746317
150.0 85.89061537877389
155.0 85.5473915051153
160.0 85.27186689231499
165.0 85.02362347264142
170.0 84.80257247977727
175.0 84.78335900980363
180.0 84.81152198737426
185.0 84.74342198822394
190.0 84.32280868478868
195.0 84.08699480707419
200.0 83.93564097209565
206.0 83.68578487606713
212.0 83.65222894087425
218.0 84.18123042677219
224.0 84.05585136696823
230.0 83.8440523329411
236.0 83.8397871404053
240.0 84.03018375390151
250.0 83.68590176536992
258.0 83.69841534325268
265.0 83.45380357317656
272.0 83.05575191297316
280.0 82.92303639566656
290.0 82.891495963471
300.0 83.05637431224312
307.0 83.19521118606234
315.0 83.08184713792012
325.0 82.96782435968917
335.0 82.9759510361577
345.0 82.67792780323228
355.0 82.34174488989787
365.0 82.06078517886921
375.0 81.90243364483375
387.0 81.59549333949
400.0 81.3437294840243
412.0 81.44402908560701
425.0 81.78719089898816
437.0 81.95288403619205
450.0 82.06841871854459
462.0 82.04200125898056
475.0 82.02961047278079
487.0 82.56530844557541
500.0 82.5943075844959
515.0 82.407056892981
530.0 82.00882624178095
545.0 81.93294874063274
560.0 82.42755966999884
580.0 82.64166609373015
600.0 82.65888395693788
615.0 82.61198956094269
630.0 82.40152532390809
650.0 82.51912609775094
670.0 82.48675896416347
690.0 82.45762687355409
710.0 82.60436420096912
730.0 82.25291411276585
750.0 82.10218888600524
775.0 81.63701851676403
800.0 80.9232878349657
825.0 80.58417803638876
850.0 80.54457790228334
875.0 81.34594430958629
900.0 81.7604487950744
925.0 81.73978789468951
950.0 81.27585465252375
975.0 80.96090029233795
1000.0 80.64211570100598
1030.0 80.26110177650186
1060.0 80.11569058806275
1090.0 79.60473696422441
1120.0 79.21693383051505
1150.0 79.05679584380408
1180.0 79.10462929230523
1220.0 79.09302577930892
1250.0 79.49142733485658
1280.0 79.74700077200481
1320.0 79.47270337777015
1360.0 79.14500943913697
1400.0 78.92193553058195
1450.0 78.71360697260776
1500.0 78.86339230642096
1550.0 79.08752295892255
1600.0 78.91730934046952
1650.0 79.33525036975698
1700.0 79.70388809779892
1750.0 79.67134082729687
1800.0 79.3030248939471
1850.0 79.52363754742412
1900.0 80.11869320975067
1950.0 80.49134582652242
2000.0 81.51177809161523
2060.0 81.74956884804116
2120.0 81.89394657660131
2180.0 81.46290660641246
2240.0 82.20687567843005
2300.0 82.3119765604495
2360.0 81.7250377977097
2400.0 81.77333531674653
2500.0 81.38456297364623
2580.0 81.09815254501648
2650.0 80.46673821456275
2720.0 79.96243256959157
2800.0 79.99988242102917
2900.0 79.68836888860886
3000.0 79.58970642573934
3070.0 78.88762454416224
3150.0 77.6445232911025
3250.0 76.2896690183989
3350.0 75.59672164732724
3450.0 75.71246323374102
3550.0 76.63202362845895
3650.0 77.89736306792338
3750.0 78.68153906968077
3870.0 78.97882257202369
4000.0 78.9830912352469
4120.0 79.68035961682662
4250.0 79.81983622241178
4370.0 78.96504071119139
4500.0 77.92836918973295
4620.0 77.53109996317268
4750.0 77.48464430935634
4870.0 77.80117763337395
5000.0 78.07918852843702
5150.0 77.60577215848217
5300.0 76.90640766724913
5450.0 76.69826485983371
5600.0 77.87109586524977
5800.0 78.81586888891304
6000.0 79.58561970627501
6150.0 80.42410202719083
6300.0 80.8350041170587
6500.0 80.35771702636374
6700.0 78.24508718803689
6900.0 75.23697206465006
7100.0 76.05974782453774
7300.0 78.188215479753
7500.0 79.00933201524126
7750.0 80.58910063136464
8000.0 80.86448550616069
8250.0 80.64166066916162
8500.0 80.21602026187881
8750.0 78.01071011748249
9000.0 77.63839413465996
9250.0 78.37356433655064
9500.0 79.29228595124218
9750.0 82.30221830793951
10000.0 84.9162905956707
10300.0 80.69502776773864
10600.0 81.32911242455138
10900.0 82.02808026364401
11200.0 84.37767234453008
11500.0 82.17789906483218
11800.0 81.82574445355682
12200.0 81.45364814056593
12500.0 81.70490814897848
12800.0 82.79374749061755
13200.0 81.43938932722719
13600.0 78.46966972822372
14000.0 79.23153695963083
14500.0 80.40597819195739
15000.0 80.12017975075005
15500.0 77.2968454210012
16000.0 76.77507205394541
16500.0 79.426854258299
17000.0 75.62942650137069
17500.0 75.87119640384763
18000.0 80.46307141934464
18500.0 81.23944740641082
19000.0 78.26194706883412
19500.0 76.23595434748846
