Freq "On Axis"
20.5078 53.9619502939846
23.4375 57.2923502939846
26.3672 61.27395029398461
29.2969 65.2592502939846
32.2266 68.98715029398458
35.1563 72.46605029398461
38.0859 75.4612502939846
41.0156 77.99005029398461
43.9453 79.6074502939846
46.875 80.7135502939846
49.8047 81.38195029398459
52.7344 81.85365029398461
55.6641 82.2108502939846
58.5938 82.5327502939846
61.5234 82.78115029398461
64.4531 83.0404502939846
67.3828 83.32975029398462
70.3125 83.56965029398461
73.2422 83.81525029398459
76.1719 84.1307502939846
79.1016 84.3370502939846
82.0313 84.6611502939846
84.9609 84.91165029398461
87.8906 84.9533502939846
90.8203 84.93015029398461
93.75 85.4400502939846
96.6797 85.5142502939846
102.539 85.82265029398461
105.469 85.9030502939846
108.398 86.0557502939846
111.328 86.20195029398461
117.188 86.38945029398461
120.117 86.54475029398462
125.977 86.5737502939846
128.906 86.57445029398461
134.766 86.2420502939846
137.695 86.2059502939846
143.555 86.24475029398461
149.414 86.1421502939846
155.273 86.1618502939846
158.203 86.15655029398461
164.063 86.30035029398461
169.922 85.6449502939846
175.781 85.5676502939846
181.641 85.4765502939846
190.43 85.2633502939846
196.289 85.1930502939846
202.148 85.1744502939846
210.938 85.08655029398462
216.797 84.8726502939846
225.586 84.90165029398462
234.375 84.9327502939846
240.234 84.62145029398461
249.023 84.59625029398461
257.813 84.60485029398463
266.602 84.09535029398462
278.32 84.0582502939846
287.109 84.05215029398461
295.898 84.03105029398459
307.617 83.8078502939846
319.336 83.6461502939846
331.055 83.17625029398461
342.773 83.19215029398461
354.492 84.93005029398459
366.211 84.7480502939846
377.93 84.65995029398461
392.578 83.8807502939846
407.227 83.24335029398462
421.875 83.5794502939846
436.523 83.75205029398461
451.172 83.9411502939846
465.82 83.78435029398459
483.398 83.48465029398461
500.977 83.4637502939846
518.555 83.1067502939846
536.133 83.6074502939846
553.711 84.13515029398461
574.219 84.1783502939846
594.727 83.8270502939846
615.234 83.9131502939846
638.672 84.4556502939846
659.18 84.64765029398461
682.617 85.9552502939846
706.055 86.5203502939846
732.422 85.2830502939846
758.789 85.0129502939846
785.156 84.96165029398462
811.523 84.96055029398461
840.82 85.14755029398461
870.117 85.2452502939846
902.344 85.4107502939846
931.641 86.03095029398459
966.797 86.3999502939846
999.023 85.9238502939846
1034.18 86.2264502939846
1072.27 86.0690502939846
1110.35 85.5671502939846
1148.44 85.3574502939846
1189.45 85.6335502939846
1230.47 85.8251502939846
1274.41 86.17365029398461
1318.36 85.9193502939846
1365.23 85.2621502939846
1415.04 85.23015029398461
1464.84 85.46905029398461
1514.65 85.6074502939846
1570.31 85.98825029398462
1623.05 85.24385029398461
1681.64 85.1605502939846
1740.23 85.2994502939846
1801.76 86.01745029398461
1866.21 85.6319502939846
1930.66 84.7363502939846
2000.98 85.83915029398462
2071.29 86.28715029398461
2144.53 85.5049502939846
2217.77 84.4873502939846
2296.88 85.20535029398461
2378.91 85.24395029398461
2460.94 84.3875502939846
2548.83 83.9358502939846
2639.65 84.19555029398461
2733.4 83.7945502939846
2827.15 84.2180502939846
2926.76 84.0065502939846
3032.23 84.0800502939846
3137.7 84.4846502939846
3249.02 84.55815029398461
3363.28 84.6562502939846
3483.4 84.8875502939846
3606.45 85.0921502939846
3732.42 84.76355029398461
3864.26 85.0433502939846
3999.02 85.2852502939846
4139.65 85.0288502939846
4286.13 85.35875029398461
4438.48 85.07475029398461
4593.75 85.1439502939846
4757.81 85.20025029398461
4924.8 85.43435029398461
5097.66 85.07055029398461
5279.3 84.48615029398461
5463.87 84.71095029398462
5657.23 84.36425029398461
5856.45 84.52905029398461
6061.52 85.1108502939846
6275.39 85.3615502939846
6498.05 84.71855029398462
6726.56 84.7457502939846
6963.87 84.7972502939846
7209.96 84.4241502939846
7464.84 84.63605029398461
7728.52 84.5905502939846
8000.98 84.8591502939846
8282.23 85.20535029398461
8575.2 85.19535029398462
8876.95 84.5357502939846
9190.43 83.67045029398462
9512.7 83.27935029398459
9849.61 82.2792502939846
10195.3 80.7741502939846
10555.7 80.1808502939846
10927.7 82.0261502939846
11314.5 82.23925029398461
11712.9 81.5618502939846
12126.0 82.0917502939846
12553.7 82.88895029398459
12996.1 82.7437502939846
13453.1 82.94855029398461
13927.7 83.5647502939846
14419.9 83.5550502939846
14929.7 83.55915029398459
15454.1 83.3300502939846
15999.0 82.7334502939846
16564.5 82.50585029398461
17147.5 82.8927502939846
17753.9 86.0772502939846
18377.9 88.27845029398459
19028.3 90.8465502939846
19699.2 92.24475029398461
19998.0 92.02895029398461
