Freq,Floor Bounce,Ceiling Bounce,Front Wall Bounce,Side Wall Bounce,Rear Wall Bounce,Total Early Reflection
20.5078,49.25053269343236,49.44528580332296,49.499719452433126,49.85326982949992,53.09255393371852,50.50596546711746
21.9727,46.9644378756294,47.205766511673986,47.083496424204455,47.4450865523866,52.81284052552401,49.03079069531485
23.4375,50.50301858894967,50.52385118813321,50.711940848514004,50.96830488812721,55.79604851562779,52.2928938629362
24.9023,53.17143897581515,52.870342411974306,52.87264658316455,53.66516265219123,58.37928612700394,54.817483560964305
26.3672,57.0417247552853,56.13314658449964,56.22923328409816,57.226718551611626,60.290361739591106,57.68401569421569
27.832,58.48470142466938,57.7836908725824,58.1739033438207,58.430927009914214,61.35742681992902,59.05923889189232
29.2969,60.727640686076924,60.042464820109316,60.37632903060326,60.671806192069056,63.26053860873283,61.18506904343336
30.7617,62.113054656763495,61.18551528769902,61.52352158716478,62.088216873417,64.89967335064168,62.58553354677353
32.2266,64.71720448085637,63.811217939512915,64.14299607078111,64.69732030951188,67.07411491074285,65.05460823833637
33.6914,66.66462818664762,65.64031464691233,66.06393916101409,66.55038159200701,68.60454548484856,66.83318539689122
35.1562,68.76734262829662,67.88001782706021,68.28518386494919,68.61969012951955,70.33261383100846,68.86238406075141
36.6211,69.9080658295716,69.05907783169934,69.42209105583184,69.79214481853202,71.46590827940902,70.01251219175613
38.0859,71.29351290847418,70.3477658178507,70.78237212577638,71.11579331811627,72.62277024349832,71.303288005216
39.5508,72.51243291038374,71.6317907151939,72.02333453227855,72.37071625363289,73.8685737894853,72.55079514390084
41.0156,73.71788044153038,72.70770825654071,73.12171445529567,73.55268392675572,75.05856398068647,73.70791339321893
42.4805,75.06664048387262,74.08806559141702,74.51842855672608,74.864090071818,76.10881677572424,74.98360606086125
43.9453,76.07350795344267,75.16996234877129,75.56576951756561,75.8765852422077,77.01749419837897,75.98602881968571
45.4102,76.92270982168837,76.00683305558879,76.41126390421485,76.71083611230249,77.7947533583534,76.81144571046461
46.875,77.76929035114692,76.80504918750755,77.18770813690189,77.58710155449106,78.77000952986211,77.6758854065484
48.3398,78.60627528790093,77.51590325742984,78.04613238581172,78.2933617196018,79.13472137427786,78.35308546903092
51.2695,79.84216220756932,78.80488325010187,79.32475978540549,79.52376353723848,80.16341601269086,79.5561369810497
52.7344,80.34823568542267,79.31826711622567,79.8457105376856,80.01563738364818,80.57534899120127,80.04198518014134
54.1992,80.72033961406379,79.68381734823775,80.2124588854101,80.37882781379582,80.90430269164405,80.4004563416922
55.6641,81.00632935926284,79.97081518932897,80.49349058015014,80.66711908787876,81.181151918051,80.68407466553383
58.5938,81.5301869599836,80.47673565064436,81.02725436750588,81.16289556266942,81.5545697121352,81.16787340977852
60.0586,81.78103526204015,80.72117333614837,81.277702245881,81.40487896371577,81.75555500625471,81.40492149711352
62.9883,82.33893034441284,81.31649450329083,81.85308897931723,81.9668233953232,82.26516450400509,81.96304232270352
64.4531,82.50276216716361,81.45523364279775,82.00741988315701,82.11793371363889,82.3984350599134,82.11161242217887
67.3828,82.71422877975351,81.64941552110132,82.22329626954506,82.31021325666956,82.51829747205501,82.29769914908847
68.8477,82.78966234657979,81.72989512930857,82.30399286119804,82.38422062907173,82.56339933593975,82.36838903233878
71.7773,83.25645736296015,82.21646110914148,82.78267243369677,82.85321232712595,82.97260539118884,82.82942052137678
74.707,83.67091200656023,82.64381613277912,83.20854766940958,83.26564532476532,83.30870450806479,83.23190750716218
77.6367,83.72970310747392,82.68749815125312,83.26832214778389,83.30116550297917,83.27343282564557,83.26456097745417
79.1016,83.80381707589324,82.75546847575323,83.35076830484698,83.35745034103074,83.26730561117508,83.3197059356306
82.0312,84.13784760213201,83.10968370866998,83.69649055149286,83.69738016720628,83.59683862931108,83.65994638818233
84.9609,84.2019183879509,83.1930466158501,83.75935501859264,83.81771187879022,83.86129836499003,83.77868372896077
87.8906,84.20429448403625,83.15540043857165,83.74566572832757,83.76848674318286,83.71347082160698,83.73016124565805
90.8203,84.84718317761025,83.80655721935257,84.43523352395088,84.33957009571618,83.98007440668421,84.29707738082259
95.2148,84.52633335764187,83.51186528506159,84.05238655596153,84.1116327033401,84.23291474892632,84.09943515844678
98.1445,84.68814378228566,83.65201386064842,84.24351948463917,84.21159272860913,84.12888458298806,84.19732344580937
101.074,84.78100386701763,83.67017568744511,84.30874436904914,84.29236420990439,84.22100654324588,84.26893148462146
105.469,85.24622514283713,84.22320868460672,84.81243007814764,84.71915191833251,84.32403762413121,84.68064781580757
108.398,85.23932119335947,84.23250565598251,84.8333983572522,84.68458384391305,84.34115998609049,84.68129802985759
112.793,85.3611346095631,84.25066058212582,84.9379330421497,84.74175264092462,84.30411231381325,84.73890152605068
117.188,85.52323486545573,84.37686359862917,85.0978635988841,84.86643525309506,84.13683439893377,84.82870741408878
120.117,85.40142492744852,84.37079674437913,85.03239552952674,84.8447602733213,84.15236566741359,84.7836575588781
124.512,85.18610578217623,84.10044991552988,84.73692698330113,84.65367228227116,84.43047072927955,84.63633880038483
128.906,85.2765383346317,84.12336235829058,84.81220450246131,84.68009950920505,84.40233225274443,84.67647207595599
133.301,85.29544977658814,84.09741639192957,84.83304551898681,84.65914073791795,84.29850274171248,84.65708732906573
139.16,85.26430832542485,84.03469851442783,84.80747903972575,84.58389363239088,84.1533890605906,84.59194781149058
143.555,85.17841417281637,83.94661802772778,84.73457844008514,84.50807495603559,84.06801839926884,84.51051022397212
147.949,85.14358958204066,83.84732150000404,84.67813777975488,84.43773980303324,83.9808851771644,84.44332305348604
153.809,85.06492554020507,83.82101483983001,84.6049950902693,84.35944884833137,83.86167641908821,84.36782670662156
159.668,84.9246985872608,83.56016492326238,84.40441818291521,84.19864847053323,83.94464992365327,84.23063232350803
165.527,85.07225156908258,83.63234458545365,84.55222412096356,84.24616100404154,83.97945997645421,84.32462817476399
171.387,85.07989718967445,83.67726353261273,84.63937454174344,84.22327713542292,83.570733980733,84.27588799744055
177.246,84.86007945004279,83.41918854889516,84.39906927781453,83.98857209906218,83.34878869629404,84.04166649192423
183.105,84.65556676138303,83.18673268493929,84.18294749071869,83.80689671682663,83.28830296177615,83.85924627718035
188.965,84.74071616570127,83.1731881416085,84.26101048712792,83.79799471865486,83.05080297551353,83.85226833918416
196.289,84.67549620772316,83.16524700079198,84.227404537336,83.72783221232548,82.93505486170191,83.79454679606899
203.613,84.50919537565578,82.97804899281229,84.09074488998573,83.55026782496087,82.70436972209967,83.61849764681558
210.938,84.41982485233663,82.87291634506968,83.98879483195536,83.4295662826912,82.56040867542264,83.50862597974013
218.262,84.28412150247173,82.73856596961902,83.85204949869926,83.29674485511198,82.58797019791923,83.40015222508949
225.586,84.22343558917287,82.68001844778975,83.80046718824298,83.18193726094452,82.46408444219898,83.32090437177744
232.91,84.12896104875533,82.58832549989661,83.71188532337588,83.05517588431026,82.1025383078655,83.17921088358449
241.699,83.96563914145706,82.176249427484,83.46653247339513,82.81258450210946,81.78959708148328,82.91594933111402
250.488,83.90809234790247,81.72152951221808,83.35045831096716,82.59606930129276,81.44118221485208,82.70459126221586
259.277,84.00080076517207,82.0455149973098,83.46316694666397,82.5811473202156,81.56986901880582,82.8244172211622
268.066,83.93074589959778,81.61442799328537,83.36919234383383,82.37643795768659,81.19828114704116,82.6201557417029
276.855,83.99663210312654,81.7138417586984,83.55384518506045,82.43621077849187,80.72577884051192,82.64565801767313
287.109,83.55701255685699,81.76538863973927,83.1909069254139,82.31874376841328,81.11305434268925,82.4809561889462
297.363,83.67728217673137,82.0391271373438,83.42552629492364,82.3753659518505,80.9852831983962,82.60764337268846
307.617,83.68110256856126,81.56227244719511,83.21345140590086,82.1756893369555,80.71077095680018,82.40094915620583
319.336,83.590732451546,81.30202577779758,83.15608755835686,81.82111799650693,80.29930428283923,82.19906094102002
329.59,83.48597077211284,81.2627090380258,83.00501524238382,81.94959238774318,80.03689856161976,82.11741607242172
341.309,83.41096329863058,80.96455163482612,82.92153168975075,81.63034787724926,79.69144933487293,81.92484537623186
353.027,83.11954430589462,80.37323575326316,82.63082839848417,81.45190638302228,79.06034015263516,81.56898845469124
366.211,82.90968558265298,80.71067979521283,82.66743015971275,81.39958646958665,78.84922397349355,81.53975763344091
379.395,83.04649624420564,80.8237525933387,82.64903333028771,81.69236631549465,79.43987773853362,81.71519784750447
392.578,82.89872443813218,80.25080205740448,82.40819497331816,81.18333198181834,79.3458540671968,81.4133585033111
405.762,82.52923804591829,80.16412245735457,82.23192510958103,80.98918405451815,78.96839364108638,81.16939605805933
420.41,82.55398555835349,79.78463328751984,82.39166684073263,80.75121877219526,79.00281163636,81.11953743909534
435.059,82.32754533855412,79.53964828671042,82.53351280034857,80.39714820686893,79.38240378588299,81.04741664767586
451.172,83.35052549272316,80.96103848891231,83.63106758809981,80.9580121714546,78.91272998910627,81.89956913437508
465.82,83.30545367926284,81.57472753438118,83.70799624915075,81.4536024526063,78.19930169820996,82.0327036538442
483.398,83.15484153203037,81.80101895119425,83.64027027520672,81.77255453472885,77.9712427555373,82.0545493690693
499.512,83.30804600535896,81.31479553122817,83.45391298985079,81.46971785946037,78.03164692890658,81.90268770119978
517.09,83.80562260991604,81.45012586235983,83.85243939934789,81.87778895080903,78.00875662562974,82.25281851906482
536.133,83.38292502246269,80.6968230102408,83.6539566019955,81.44072239253103,77.65911959813047,81.84659503403672
555.176,83.4527765798962,80.55360601410493,83.86686836107408,81.97200091895037,76.70413682639543,81.94758830304157
574.219,83.60896638477304,80.6386723075654,83.72180237203371,82.12568924978387,76.99294306159113,82.00952089314804
594.727,83.1454575305233,80.36106676578139,83.5717644980921,82.04854518838826,77.65978129307905,81.82532178406643
615.234,82.93209196673718,80.02994495709726,83.48647276794192,81.48768150464632,76.23237146146919,81.48078530016913
637.207,82.89044615430369,79.71750297136317,83.21287010859662,81.57505577736593,76.59593518120563,81.38106951010553
659.18,82.74011742631622,80.06956341109016,83.03131989433035,81.24214682605601,76.04034009512709,81.23077201630046
682.617,82.86606807191129,80.25475062043533,83.22489309838008,81.57755606369302,76.16055530792507,81.42857185196871
707.52,83.37613876321865,80.45861202880344,83.42916128067658,81.6437573260873,76.16396989212858,81.68093889677147
732.422,82.94631793444084,80.80218998691743,83.24604214531819,81.24178912754091,75.53064183243629,81.44481680170475
757.324,82.92094534514928,79.94191112381495,82.71418927535444,80.99325499317003,76.03073643252365,81.12073335782836
785.156,82.14931955241002,82.10356171298409,83.46796811929065,80.69950388955408,75.10321485303818,81.45155370751364
811.523,82.07502704111357,81.32622964491328,83.92885402567173,81.36179409842373,77.01579475233784,81.65067668112472
840.82,83.6800825371756,80.39092855703169,83.41983317944116,80.02685449079189,74.67264542291768,81.41445928345635
870.117,83.37276189420041,80.2761781806707,83.90332522787797,81.30434825981577,76.50689448110809,81.7574587653703
900.879,83.6111924484329,80.17203380509419,84.17081561309804,80.69028707838582,75.04118583746256,81.72681857703337
933.105,82.11497653261681,80.41944861510099,84.39522612103482,80.98190382436549,75.0253608436587,81.49329074847681
965.332,82.30319400553691,80.30871781440578,84.01265217615621,80.75654465297687,75.54462127032873,81.36159277421488
1000.49,82.32984111091861,80.04039584214352,83.21133992191626,79.9708771050333,76.194910076017,80.95082415567926
1035.64,82.13876205380723,79.68472519044789,83.01210622672963,78.78557925646062,74.89443826418207,80.51681584808728
1072.27,81.45845435092102,80.40770517871032,83.15061969913496,78.01098807575369,74.34064894206666,80.38813205905359
1108.89,81.81015141139035,80.2841056828274,82.64131976170994,77.96993205500394,72.07967654738802,80.17853764969439
1148.44,81.52194555059386,78.94628794237055,81.67662527975882,77.89620999625278,69.96382376698097,79.43559271346552
1189.45,81.73950979229393,78.52611236073359,82.43333493300068,78.71574223976873,69.6331178365068,79.8154077291065
1230.47,81.83271604958871,79.14441846622375,82.38979604886386,79.20608535009359,71.00633682604476,80.03367611832657
1274.41,82.08742176081715,78.50626746229213,82.68313936205267,79.40655055147589,71.41417779293035,80.16341922417087
1319.82,82.18612334017591,77.95253914191514,82.91355588281503,79.44441062004579,72.01032242959202,80.23097211358898
1366.7,82.76957779964096,79.16459798141008,83.27422983281569,79.94136879635977,72.15575018434092,80.78699702453068
1413.57,83.21018180120394,78.49211541416645,83.51972879025935,79.5006022029247,70.78217094110936,80.8356599498665
1463.38,83.43980985757695,78.38454129051088,83.30118077232336,79.15505107500844,69.84862187394656,80.75955388597372
1516.11,83.0714036160834,77.85713705679565,82.38325987136717,78.56702087264442,69.1534940944007,80.14624598799637
1568.85,82.54352102031152,79.31639680310877,81.42381937726641,77.82985553358434,69.3586244914312,79.76029710963239
1624.51,82.77792886230552,80.30067508403302,81.48032957821374,77.87122608278777,69.8500617604902,80.07130578964781
1681.64,83.13572770679188,80.65961214930034,82.76768642149219,78.57944889713264,71.66387764768946,80.77851962369989
1741.7,83.75659885875827,77.96271710941065,83.3344762397343,79.61220732591518,71.37061113203013,80.93927884220575
1803.22,84.07317974321347,78.27813657145249,84.03128466005494,79.85257080015042,71.01770603760977,81.3674180438588
1866.21,83.8228177859533,78.76136596536504,83.86078135616637,79.22529735925701,70.75582508161142,81.17377576564795
1932.13,83.61015053624071,78.48719148056752,83.2063755246136,78.39561524082737,69.69632328630034,80.70321190767574
1999.51,82.82823301342363,78.5788725020412,83.21062961451031,78.18734822281239,69.33139708759222,80.39630420468819
2069.82,82.04149025225009,78.08274924569619,83.7003160777226,78.69364650919204,68.83867735459316,80.33774588913785
2143.07,81.61713976263512,77.17703218968549,83.8052178008589,78.74258165363149,68.66188185264171,80.16783482845874
2219.24,81.44110491112151,77.5823366762751,83.34566930868935,78.7254162177045,68.73717065174141,79.95425289839856
2296.88,80.30140911614235,78.53608392871226,81.84739266962313,78.23542151513686,69.80455259509932,79.1143371088807
2378.91,78.28373997074276,78.35590131877106,81.26171518872935,78.27005055014038,70.19057673019758,78.41540172012537
2462.4,77.32558918003869,77.60322592772887,81.85462335186398,79.21730071438984,70.8546300061675,78.58010353437304
2548.83,77.51111107467753,77.64861499528504,81.7105827689532,79.04064981241233,70.09701420876306,78.49108909468255
2639.65,77.62508223896084,78.50347671636571,80.01625406723416,77.22292473193134,68.40728567260979,77.61615100943939
2731.93,76.03251264592508,78.96965997017371,78.44342495929273,75.77033791691828,66.52839042142331,76.64875645933527
2828.61,75.60684513772753,78.56774224662746,78.61053301982871,76.49776309564504,66.96004038786275,76.63707365842154
2928.22,76.08936434056884,78.65898971306545,80.45202343970733,78.22017780988988,68.41136477086236,77.75763782029836
3030.76,76.32175422554339,79.11296080051736,81.69705302844845,79.40720326578555,69.51941104494959,78.67352013486234
3137.7,78.43880940922287,79.24340679760881,82.50948644593771,80.08016776912704,69.91595111088763,79.48123518560377
3249.02,80.62986134772282,80.6410616684911,82.66675867221137,80.28805185141097,70.20342244507088,80.2827802767633
3363.28,81.35031145955993,80.91791619259641,83.55423515807784,80.72892055197602,70.30702799783833,80.90396496463897
3481.93,81.81514178113535,81.65795151975475,84.87664531656118,81.56916017883019,70.87706869835428,81.82700858113579
3604.98,82.12609986518356,81.69934720864875,84.92276566856484,82.22539612599623,71.5105840736809,82.05633458014371
3732.42,81.90405904867995,81.28178436537517,85.26706891486675,82.79342681349804,71.73785291333618,82.20537541312733
3864.26,82.31655985288282,80.60165768652614,84.77442332815745,82.31324582396124,71.12714413018513,81.8687760140722
4000.49,82.66119826055082,79.06808519382385,83.53730826572115,80.88477885149358,69.95815798550214,80.95897463496298
4141.11,82.09539405092923,77.02486421465483,83.2460783877366,79.91230462599479,69.36530977721905,80.2548205672605
4287.6,82.16681252545706,78.90596286237309,82.69001073432638,79.90064752889327,68.86052750858721,80.28276839867817
4438.48,82.20523103289075,79.53712312342155,83.32895672328955,80.43562313399501,69.50049606763635,80.7242622713109
4595.21,82.6796400480712,79.90898094274715,83.32229159401611,80.04865358280891,68.84708077180801,80.84186686141753
4756.35,82.83381841010237,79.8801326877523,82.86890255186177,80.47357326190374,69.33914183824453,80.81358986969603
4924.8,82.09298244072139,79.61612655874565,83.12408880488898,80.75552248226715,69.4394479416623,80.69342074431661
5097.66,81.94111979565578,80.39049699039084,82.84007213010584,80.67701813698359,70.07413753407224,80.68273038093237
5277.83,81.60704849574013,80.30507178773458,82.36064127962088,80.85556107949056,69.2345937231602,80.44874186227386
5463.87,82.10494990857975,80.20815614833997,83.3056438559584,81.12354173956153,69.37186765575038,80.93091252725993
5657.23,82.8489794715669,79.91494007482923,83.48409295057927,80.42974596646852,68.33793453230592,81.01088851126035
5856.45,82.2096799533715,79.10808580852365,83.08520369383744,80.36976665655531,67.92075892955138,80.5409615093549
6062.99,81.09450507434501,78.47558534700151,83.31679369045534,79.94467087677258,67.72355130660812,80.15643752221742
6276.86,80.24382016655241,78.44431131757615,82.49600405253351,79.53823931037063,67.45073058809182,79.53087696694493
6498.05,80.27760468706002,78.09381876818445,82.07158497992589,79.14120104074108,66.89217570323042,79.23393836694648
6726.56,80.17363670258982,78.16284770603376,82.29867368905761,79.25906387608795,67.16973763294564,79.33370986871823
6963.87,80.60757483126989,78.43783982146,82.05360840370172,79.1288450425134,66.59936997393106,79.36168834357548
7209.96,80.43820522784263,78.74835494181566,82.86731413352778,79.87983111788763,67.16602393678488,79.83696878425187
7464.84,79.85175691477845,78.36599200142932,82.99044863713195,79.78499371762042,66.6287315182284,79.67685178607309
7727.05,80.17336109878546,77.76136012335498,83.20976473841108,80.19769095823214,66.76038808648,79.84612544348752
7999.51,80.48263261959215,76.04258420684809,83.9219135163534,80.16536356046622,66.59552618997428,80.06138069161058
8282.23,80.66341249734558,75.28714516796244,82.98568025356235,78.89210315818782,65.30945210020788,79.3453614785344
8573.73,80.0561916683188,75.31381053517755,81.6602216840612,77.30057704413402,63.28244169061715,78.29556585389875
8876.95,80.38967384483546,74.84807817592913,81.3927125943149,76.51626240614678,61.908795022283215,78.11733150410379
9188.96,80.76178687951948,74.38536838259621,81.71284316072774,76.89248387153343,62.24505470765389,78.39530656883358
9514.16,80.88579621135946,74.68178774315957,81.89210304443843,76.94795439811654,61.68701631315737,78.54440175438558
