Freq "Floor Bounce"
20.5078 49.25053269343236
21.9727 46.9644378756294
23.4375 50.50301858894967
24.9023 53.17143897581515
26.3672 57.0417247552853
27.832 58.48470142466938
29.2969 60.727640686076924
30.7617 62.113054656763495
32.2266 64.71720448085637
33.6914 66.66462818664762
35.1562 68.76734262829662
36.6211 69.9080658295716
38.0859 71.29351290847418
39.5508 72.51243291038374
41.0156 73.71788044153038
42.4805 75.06664048387262
43.9453 76.07350795344267
45.4102 76.92270982168837
46.875 77.76929035114692
48.3398 78.60627528790093
51.2695 79.84216220756932
52.7344 80.34823568542267
54.1992 80.72033961406379
55.6641 81.00632935926284
58.5938 81.5301869599836
60.0586 81.78103526204015
62.9883 82.33893034441284
64.4531 82.50276216716361
67.3828 82.71422877975351
68.8477 82.78966234657979
71.7773 83.25645736296015
74.707 83.67091200656023
77.6367 83.72970310747392
79.1016 83.80381707589324
82.0312 84.13784760213201
84.9609 84.2019183879509
87.8906 84.20429448403625
90.8203 84.84718317761025
95.2148 84.52633335764187
98.1445 84.68814378228566
101.074 84.78100386701763
105.469 85.24622514283713
108.398 85.23932119335947
112.793 85.3611346095631
117.188 85.52323486545573
120.117 85.40142492744852
124.512 85.18610578217623
128.906 85.2765383346317
133.301 85.29544977658814
139.16 85.26430832542485
143.555 85.17841417281637
147.949 85.14358958204066
153.809 85.06492554020507
159.668 84.9246985872608
165.527 85.07225156908258
171.387 85.07989718967445
177.246 84.86007945004279
183.105 84.65556676138303
188.965 84.74071616570127
196.289 84.67549620772316
203.613 84.50919537565578
210.938 84.41982485233663
218.262 84.28412150247173
225.586 84.22343558917287
232.91 84.12896104875533
241.699 83.96563914145706
250.488 83.90809234790247
259.277 84.00080076517207
268.066 83.93074589959778
276.855 83.99663210312654
287.109 83.55701255685699
297.363 83.67728217673137
307.617 83.68110256856126
319.336 83.590732451546
329.59 83.48597077211284
341.309 83.41096329863058
353.027 83.11954430589462
366.211 82.90968558265298
379.395 83.04649624420564
392.578 82.89872443813218
405.762 82.52923804591829
420.41 82.55398555835349
435.059 82.32754533855412
451.172 83.35052549272316
465.82 83.30545367926284
483.398 83.15484153203037
499.512 83.30804600535896
517.09 83.80562260991604
536.133 83.38292502246269
555.176 83.4527765798962
574.219 83.60896638477304
594.727 83.1454575305233
615.234 82.93209196673718
637.207 82.89044615430369
659.18 82.74011742631622
682.617 82.86606807191129
707.52 83.37613876321865
732.422 82.94631793444084
757.324 82.92094534514928
785.156 82.14931955241002
811.523 82.07502704111357
840.82 83.6800825371756
870.117 83.37276189420041
900.879 83.6111924484329
933.105 82.11497653261681
965.332 82.30319400553691
1000.49 82.32984111091861
1035.64 82.13876205380723
1072.27 81.45845435092102
1108.89 81.81015141139035
1148.44 81.52194555059386
1189.45 81.73950979229393
1230.47 81.83271604958871
1274.41 82.08742176081715
1319.82 82.18612334017591
1366.7 82.76957779964096
1413.57 83.21018180120394
1463.38 83.43980985757695
1516.11 83.0714036160834
1568.85 82.54352102031152
1624.51 82.77792886230552
1681.64 83.13572770679188
1741.7 83.75659885875827
1803.22 84.07317974321347
1866.21 83.8228177859533
1932.13 83.61015053624071
1999.51 82.82823301342363
2069.82 82.04149025225009
2143.07 81.61713976263512
2219.24 81.44110491112151
2296.88 80.30140911614235
2378.91 78.28373997074276
2462.4 77.32558918003869
2548.83 77.51111107467753
2639.65 77.62508223896084
2731.93 76.03251264592508
2828.61 75.60684513772753
2928.22 76.08936434056884
3030.76 76.32175422554339
3137.7 78.43880940922287
3249.02 80.62986134772282
3363.28 81.35031145955993
3481.93 81.81514178113535
3604.98 82.12609986518356
3732.42 81.90405904867995
3864.26 82.31655985288282
4000.49 82.66119826055082
4141.11 82.09539405092923
4287.6 82.16681252545706
4438.48 82.20523103289075
4595.21 82.6796400480712
4756.35 82.83381841010237
4924.8 82.09298244072139
5097.66 81.94111979565578
5277.83 81.60704849574013
5463.87 82.10494990857975
5657.23 82.8489794715669
5856.45 82.2096799533715
6062.99 81.09450507434501
6276.86 80.24382016655241
6498.05 80.27760468706002
6726.56 80.17363670258982
6963.87 80.60757483126989
7209.96 80.43820522784263
7464.84 79.85175691477845
7727.05 80.17336109878546
7999.51 80.48263261959215
8282.23 80.66341249734558
8573.73 80.0561916683188
8876.95 80.38967384483546
9188.96 80.76178687951948
9514.16 80.88579621135946
9849.61 80.17532787443038
10196.8 79.32269442723641
10555.7 78.43485184952318
10927.7 78.28442476200628
11313.0 78.10041910422734
11712.9 77.38327013422527
12126.0 77.68412220798008
12553.7 78.51625539867659
12996.1 78.09842502562354
13454.6 78.4062135463351
13929.2 77.98476687743141
14419.9 77.65546522786325
14928.2 77.67555228894577
15455.6 77.25501302380206
16000.5 76.64920497012088
16564.5 76.2994090395383
17148.9 76.00064204390358
17752.4 74.8950106615189
18379.4 73.42468777937107
19026.9 71.78319143959062
19697.8 70.23356418378229
19999.5 69.31802844243107
