Freq,Floor Bounce,Ceiling Bounce,Front Wall Bounce,Side Wall Bounce,Rear Wall Bounce,Total Early Reflection
22.4,25.47001488257476,24.16692185116051,24.544767781979488,24.145147883556973,22.65096398260215,24.287842500970953
23.0,26.202319945897727,24.934351408685018,25.31573126164821,24.90337097518531,23.40875339889874,25.043720369832556
23.6,26.935130591779824,25.66692185116051,26.057749113513125,25.664459703460835,24.15315508815212,25.785524103274923
24.0,27.63513059177984,26.434351408685018,26.81573126164824,26.412324573730245,24.912161817848926,26.528485791559035
25.0,28.403069571042522,27.202284613960217,27.586836950971474,27.18094822416856,25.67539604925838,27.296585678682334
25.8,29.13513059177984,27.968450838054338,28.357749113513137,27.950777352013745,26.446356881095852,28.056370877481328
26.5,29.83513059177983,28.702284613960188,29.129133924942863,28.72117740117136,27.23423090206512,28.804299953699854
27.2,30.600767494455624,29.5022846139602,29.914755315292098,29.511098906251448,28.009169075847808,29.587035544484706
28.0,31.368450838054315,30.302284613960182,30.700328942803566,30.300996968165293,28.80916907584782,30.37379372936536
29.0,32.100767494455596,31.102284613960194,31.48618450501948,31.080430612041198,29.61715257335817,31.15087916939413
30.0,32.8669218511605,31.870717324954086,32.28618450501952,31.871153125679314,30.422099020698226,31.935110329016936
30.7,33.600767494455596,32.636635756671865,33.07199384997415,32.66890830738407,31.213002630731353,32.707261472459095
31.5,34.3669218511605,33.43663575667185,33.857756674645316,33.46890830738408,32.04287540577522,33.50013056208658
32.5,35.100767494455624,34.23663575667189,34.6577566746453,34.24868376263095,32.8412727958935,34.2798162871114
33.5,35.8669218511605,35.03663575667187,35.44347267302078,35.03889719381306,33.63839203610445,35.06618292073935
34.5,36.599999999999994,35.77071732495409,36.22880715674529,35.818078696982354,34.44298599464352,35.83040972020041
35.5,37.3669218511605,36.570717324954074,37.00032894280355,36.61807869698234,35.23660254804872,36.61536615884643
36.5,38.133589826879984,37.370717324954086,37.80032894280356,37.40799300010059,36.05683500869324,37.408401648154864
37.5,38.8669218511605,38.136635756671865,38.60032894280354,38.2079930001006,36.86608558220695,38.18734004086542
38.7,39.66692185116048,38.936635756671876,39.41442746339749,39.02814102593072,37.69202679996607,38.99832916418765
40.0,40.43358982687997,39.73663575667186,40.21442746339744,39.818078696982354,38.492026799966084,39.788548034483824
41.2,41.19999999999999,40.5715080078694,41.02880715674527,40.61807869698234,39.316850621042306,40.59457100664494
42.5,42.099999999999994,41.37150800786938,41.886184505019514,41.457150938949184,40.15213176327583,41.44349080452247
43.7,42.900000000000006,42.23663575667186,42.71442746339744,42.318078696982354,41.016850621042295,42.28447644650501
45.0,43.69999999999999,43.0715080078694,43.60032894280354,43.136419969036524,41.857038553080116,43.12014772980109
46.2,44.599999999999994,43.971508007869375,44.457424491358154,44.03641996903653,42.746987774754274,44.00909566042412
47.5,45.5,44.838211298887416,45.38585448910237,44.9274701343797,43.641717652437165,44.906255904330564
48.7,46.400000000000006,45.738211298887435,46.30032894280356,45.83641996903653,44.53606350792299,45.81044814035742
50.0,47.3669218511605,46.63821129888743,47.214755315292095,46.77778868832871,45.45311164507531,46.73994271803406
51.5,48.3,47.60306957104251,48.17166275391891,47.697878460233085,46.394715491276486,47.68322420654462
53.0,49.19999999999999,48.503069571042516,49.114755315292086,48.64801603724071,47.31708352829506,48.606308579146244
54.5,50.20000000000002,49.40306957104251,50.04346508697898,49.577788688328724,48.2527840144453,49.54714890867845
56.0,51.099999999999994,50.33821129888743,50.98618450501951,50.49787846023308,49.16847081005068,50.46992993121958
58.0,52.0669218511605,51.23821129888742,51.9147553152921,51.42885978417635,50.100798060448426,51.40292260235309
60.0,53.0,52.17150800786939,52.82913392494288,52.31902839036887,51.005539815087474,52.319034799462315
61.5,53.900000000000006,53.03821129888742,53.743465086978986,53.23866897230623,51.90420464249445,53.219590921227635
63.0,54.8,53.93821129888744,54.62913392494288,54.1190283903689,52.78825551783859,54.110063647003514
65.0,55.7,54.80306957104253,55.54346508697898,55.01832440239393,53.688147209688154,55.00641210894156
67.0,56.599999999999994,55.70306957104252,56.429133924942875,55.88818097234787,54.573011594717485,55.89490365502226
69.0,57.5,56.60306957104251,57.34346508697898,56.79808236613388,55.488147209688165,56.802360138229645
71.0,58.400000000000006,57.471508007869375,58.25742449135814,57.688180972347865,56.38233626815749,57.69668227729912
73.0,59.3,58.40306957104252,59.15742449135814,58.60011161323311,57.30252408858533,58.60805746488953
75.0,60.26692185116049,59.30306957104251,60.08651449586094,59.51971698124383,58.21852855043754,59.53670211645141
77.5,61.133589826879984,60.17150800786938,60.986514495860945,60.41093733931115,59.09741738535381,60.41798832754276
80.0,61.96692185116051,61.07150800786937,61.886514495860965,61.26916110520138,59.95434880237681,61.28765516057996
82.5,62.83358982687997,61.87150800786938,62.71508314243883,62.09021485008081,60.76991070004809,62.11634833654283
85.0,63.633589826879984,62.67150800786938,63.515083142438826,62.880064160549125,61.554465763235356,62.91206910755676
87.5,64.36692185116051,63.406905010354606,64.27264843113159,63.600835024966585,62.28458599600056,63.64841512811516
90.0,65.03358982687996,64.10690501035458,64.94346508697897,64.27034812961203,62.937956079614366,64.32099077767631
92.5,65.70076749445562,64.70690501035459,65.58683695097147,64.88124820905306,63.55786895172365,64.95195628582519
95.0,66.30076749445561,65.30690501035458,66.18683695097148,65.46329794000172,64.12697730483396,65.54395813856246
97.5,66.80076749445563,65.80690501035458,66.77264843113159,66.01284014747407,64.69768523623682,66.0839419086117
100.0,67.40076749445561,66.40690501035459,67.31573126164821,66.55398374284206,65.21838433331398,66.64761426620866
103.0,67.90076749445562,66.90690501035459,67.84444218802072,67.0465341736784,65.72321687835081,67.15356847932412
106.0,68.30076749445561,67.3069050103546,68.2871668922436,67.49418852553089,66.16894192579062,67.57952221213637
109.0,68.66845083805433,67.6760917544922,68.65905509047516,67.814957800168,66.48857901090747,67.9323962284733
112.0,68.86845083805433,67.90690501035459,68.85905509047515,68.02684009519692,66.70248196715752,68.14252809632703
115.0,68.93435140868502,67.9760917544922,68.94444218802072,68.09675591779151,66.72307381619216,68.20796984035206
118.0,68.76845083805432,67.84283030471974,68.77361898907654,67.93730222419272,66.56952209027104,68.0501224927592
122.0,68.46845083805431,67.57609175449221,68.47361898907656,67.6285580962265,66.23639356919655,67.75009309122606
125.0,68.06845083805433,67.1069050103546,68.05905509047516,67.20780452016443,65.80069290609238,67.32434851940086
128.0,67.56845083805433,66.70690501035459,67.61573126164822,66.80780452016444,65.3619732419607,66.88506566331799
132.0,67.30076749445561,66.4760917544922,67.3013081360778,66.52042875138257,65.0718729495489,66.6064656526026
136.0,67.16845083805433,66.37609175449221,67.20130813607778,66.42042875138254,65.01838487578831,66.50547833881278
140.0,67.26845083805432,66.50690501035459,67.3013081360778,66.53145468327989,65.16931942359813,66.62089496822809
145.0,67.46845083805432,66.67609175449222,67.48780434360351,66.67929672104091,65.40502748541732,66.80671194717677
150.0,67.56845083805433,66.80690501035458,67.64444218802072,66.83081447774791,65.61416625310395,66.9518873935419
155.0,67.60306957104251,66.80690501035458,67.70227231096948,66.82185307203937,65.70288896039851,66.98486337134742
160.0,67.60306957104251,66.70690501035459,67.70227231096948,66.70323031071683,65.6350735613618,66.93301826317361
165.0,67.50306957104252,66.54283030471974,67.63173283446659,66.51775829673626,65.4621454966111,66.8011013674083
170.0,67.37150800786937,66.31227178315619,67.51963474575118,66.27564203162837,65.15918682937371,66.61026842424195
175.0,67.27150800786939,66.08219967332305,67.41963474575118,66.03284054896899,64.8199459269642,66.42618709698887
180.0,67.1069050103546,65.8489851487955,67.27914727976263,65.7986472068051,64.43526770010996,66.21254898663918
185.0,66.94044167945492,65.71916705502754,67.14931870409933,65.62080501822001,64.13233183079751,66.04234708454102
190.0,66.90690501035459,65.61916705502753,67.0929926436339,65.52921014114693,63.937930459354334,65.95960854399912
195.0,66.90690501035459,65.68982856673472,67.1196347457512,65.59573052287192,63.91003404542727,65.9882759933831
200.0,67.0069050103546,65.81916705502755,67.20454428904085,65.76535182269498,64.02589747043754,66.10462538804761
206.0,67.27150800786939,66.11916705502753,67.40454428904084,66.08271667986918,64.24471374100489,66.3635339458856
212.0,67.53663575667186,66.41916705502754,67.68780434360352,66.43308836676916,64.43901938288747,66.64737284997828
218.0,67.86845083805433,66.71916705502754,67.97328801689967,66.80689477255542,64.58249855799534,66.9472069197561
224.0,68.16845083805433,66.91916705502754,68.17328801689968,67.02256325038337,64.62846283048654,67.15768763542175
230.0,68.26845083805433,67.01916705502754,68.3317328344666,67.15949040113634,64.60012059073213,67.26561057485064
236.0,68.27150800786939,67.01916705502754,68.3317328344666,67.12256325038337,64.5379844937988,67.25250558675418
240.0,68.17150800786939,66.81916705502753,68.30454428904085,66.91201256442285,64.46222128364772,67.1339707488226
250.0,68.07609175449223,66.58982856673471,68.24931870409932,66.61867561027924,64.28979976495816,66.97917333534485
258.0,67.9760917544922,66.26588846059687,68.16648155756405,66.34146633890221,64.00701958894831,66.79176401647604
265.0,67.94576719438469,66.07662798253904,68.16648155756405,66.15192894016162,63.63247964332757,66.67830481706532
272.0,67.94576719438469,66.04898359150843,68.2228586333877,66.11887256987333,63.24764716963972,66.64701941685857
280.0,67.98219967332304,66.24898359150842,68.3365655624132,66.2444547264027,63.04939160507081,66.72973039226483
290.0,67.98219967332304,66.54898359150842,68.48170461979825,66.46306122615884,63.04528503670892,66.8656737550858
300.0,67.98982856673472,66.83752777300026,68.64041664080356,66.61583027824189,63.17230954773541,67.00674912080595
307.0,67.98982856673472,67.10963256681619,68.74222170189805,66.69853659538944,63.296477034623635,67.11509317587992
315.0,67.89897445130926,67.23752777300028,68.77482805279108,66.67435301102628,63.2314711529136,67.11880621094645
325.0,67.670829702843,67.23752777300028,68.69530824346191,66.44230850979547,62.968873787122206,66.9786794646727
335.0,67.32179738688895,67.19897445130925,68.4995778688683,66.11078816569281,62.653004113552356,66.74841407858773
345.0,67.02179738688895,67.13752777300027,68.360762840062,65.83675303688128,62.36973944152008,66.5564235745513
355.0,66.88219812790055,67.13752777300027,68.25757304052422,65.72809403175286,62.12103491086013,66.45719455741528
365.0,67.00963256681621,67.20963256681621,68.23422299219573,65.80502802229805,61.8744445825498,66.49100314935095
375.0,67.09897445130926,67.17082970284298,68.22567982240601,65.92912654145059,61.638127573030005,66.50526640710257
387.0,67.13257218046559,67.03752777300028,68.19231809011151,65.95140644330061,61.45961223496124,66.46483858476432
400.0,67.09897445130926,66.9096325668162,68.14738767640054,65.8979486015194,61.2913928256731,66.39453630923018
412.0,66.99897445130925,66.78219812790056,68.1610247430264,65.9118391735158,61.10440641807047,66.3379044679158
425.0,66.80963256681619,66.95521969308379,68.23338849099713,66.04596925295844,60.876567867512136,66.36736491692864
437.0,66.66194867563766,67.1950645803583,68.39332979173264,66.21593949269725,60.65415584039084,66.46069059009525
450.0,66.592378988098,67.3950645803583,68.5975640487726,66.3342817031053,60.46345600035906,66.5714290235594
462.0,66.70982855556755,67.3950645803583,68.84624629512439,66.39037861807799,60.14732931235349,66.67155951797307
475.0,66.80982855556756,67.43546263134682,69.0615403272645,66.49072647595939,59.874711354781596,66.78028697799681
487.0,66.90982855556756,67.56194867563767,69.1485264096008,66.58078370494974,59.769016329650725,66.87201182153171
500.0,66.92875610128314,67.76194867563765,69.21824399991118,66.66649056276765,59.977527670341374,66.9709414699536
515.0,66.80497668676807,68.1026545034034,69.27274380689717,66.80241755084754,60.36726416471717,67.09059879937153
530.0,66.70497668676808,68.47641629732153,69.2817624374694,67.01849885216689,60.688490153418556,67.2270957963126
545.0,66.7672655885961,68.7179278976485,69.30455874229852,67.1500813454133,60.665781101684075,67.33489714797719
560.0,66.8252645392885,68.81792789764852,69.24865957364794,67.08019056739866,60.45049799592152,67.33314639419244
580.0,66.66726558859611,68.9026545034034,69.18167418313274,66.85193529694749,60.28734863746047,67.25982554665035
600.0,66.44258273663014,68.6179278976485,69.01858766587249,66.33595989347276,59.96234556103964,66.98143680729513
615.0,66.13469773360899,68.0672655885961,68.62558628722581,65.48555836455274,59.22845067045084,66.46899328156903
630.0,65.7599996174499,67.71832544184971,68.22114138920053,64.62110993242214,58.33985256223713,65.99881948708294
650.0,65.64413052381576,67.6377673428554,68.09823280959934,64.19118805691403,57.72031573829722,65.83039509626481
670.0,65.77783080594571,67.32545123408708,67.94829257963852,63.98534146851645,57.077945531411785,65.66626045531223
690.0,65.53435140868503,66.68204905670953,67.11221726299733,63.20292670158577,56.18970490973787,65.01990326483161
710.0,65.40231994589774,66.26226919657725,66.25267242424351,62.39348909500106,55.51211142647804,64.47427175580825
730.0,65.87001488257476,66.62021956404323,66.26077907220655,62.696663953593,55.73851431983243,64.74765104196766
750.0,66.43663575667186,66.76226919657724,66.33790901910942,63.291076196155146,56.093186656056574,65.04893251436648
775.0,66.87071732495409,65.68204905670954,65.90751957376503,62.87454686162192,55.48191390741667,64.6993639669833
800.0,66.87717895989803,64.62545123408711,66.01693922237517,62.52763433261745,54.686724195932385,64.42592087818868
825.0,66.77697211958267,64.37106744273919,66.68210265339462,62.681341241565846,54.50990050233764,64.5611181379855
850.0,66.6236110299371,64.10982855556756,67.14651881913625,62.68873976931823,54.6423017498295,64.62528393247673
875.0,67.09965439277178,64.42875610128314,67.45688863992734,62.83490197980632,54.75415934879712,64.96604737481428
900.0,67.8560388500297,65.59664781293232,67.75113367795856,63.099374214928986,55.21163676857954,65.57831165273063
925.0,68.0441577493485,66.20962074754836,67.7472221475895,63.345279597858095,55.72783494055581,65.80676393357805
950.0,68.12104166298748,66.01845254529692,67.71946878285564,63.49698317376105,55.452757162875514,65.79531105596001
975.0,68.07717895989803,65.59080616590045,67.38578593244753,62.849136055201285,54.20803636862097,65.49344525879478
1000.0,67.42179738688895,64.76382205324666,67.13783314027671,62.47543255356507,53.74991162644076,64.96841844758197
1030.0,67.5094224842602,64.17450358348684,67.49518837782159,62.91338314791581,53.7096039685388,65.06734684921688
1060.0,67.00324612052704,63.35519220018267,66.8991510624592,61.76365209611883,52.413498630596635,64.39428196313364
1090.0,66.4447529719088,62.92696820294228,66.78576953735944,61.54287465494281,52.109607636909686,64.05929968899467
1120.0,66.76665411820049,62.76493035341096,67.27536644284578,61.76855046864648,52.52618378476501,64.36522484045736
1150.0,66.69804670748718,61.35800804769342,67.13860377734369,61.40645371166174,52.13549758514486,64.06972674646514
1180.0,66.67523823794748,60.974503583486864,67.30103102884365,61.79649562134607,51.64685200336609,64.12707792332603
1220.0,65.69265755490996,60.92672208916905,66.91098478518144,61.81406350884352,51.37805300340064,63.6221636014139
1250.0,65.35315297924208,60.21923785438673,66.89261824079146,61.35492767937501,50.81297946841329,63.36785176457887
1280.0,64.78127869327915,58.2422920764254,66.68483532442806,60.96416706305206,49.47558932107643,62.865630917633766
1320.0,65.12470872985774,58.248851359173074,67.14441755265788,61.99193014775352,50.819011229759866,63.34719376361309
1360.0,65.00146480937386,59.09124872640115,66.90216934964776,62.73366910000159,52.54552382704496,63.39692076424049
1400.0,65.14258273663015,59.1034858149106,67.02296765317936,62.48162401326118,52.766514586820406,63.455542995747805
1450.0,64.3778308059457,59.09080616590043,66.95606856280122,62.555613874855425,52.55037417992429,63.219647211465144
1500.0,64.2744935103044,59.56226741403313,66.40387102950494,61.87394532653316,51.37675431021607,62.84466826781585
1550.0,63.54942181474027,58.804735301185744,65.76206843787547,60.209173938356386,48.94915792481292,61.99778848287676
1600.0,63.06194697319562,57.870717324954086,65.83211934770364,60.57352545990872,48.22994916164639,61.86062896254319
1650.0,62.29046221610058,57.43752777300027,65.4153089211497,60.534309715797306,48.460523956131524,61.41732672713559
1700.0,62.360965142371825,57.33342548668362,65.0725702687637,60.54686879857874,48.4593908306029,61.26022497606962
1750.0,61.29749950966175,57.37183354972274,65.43739365908851,60.707016183583434,48.38459762823227,61.23018974622735
1800.0,60.03833499684072,57.44019355535909,65.34407060207553,60.34760088112657,47.604281667619276,60.8830954396671
1850.0,58.35177437534742,58.24050345837429,65.21286259817823,60.11460018188282,46.967826735159136,60.60599327393018
1900.0,57.01213611976861,59.22656501805082,64.80650357524364,59.50577177404547,46.123428486669894,60.250869361863835
1950.0,57.47535221477996,59.94746976708663,64.75281728750574,59.43637564509048,45.15073142309467,60.37066554030105
2000.0,60.57624587333282,60.24986250663915,64.85739036941234,59.603671671809195,45.47918213405802,60.940746661935464
2060.0,62.70853968442108,60.97244826645843,64.80620176511614,59.41978089898322,46.541639088037215,61.49897554764134
2120.0,64.59965439277178,60.80784363371622,64.84603954592525,59.344920506902966,46.98641218491183,62.0684345071363
2180.0,65.62104166298748,61.52413245863548,64.40957791976507,59.41991936192552,46.4582374919338,62.42955692295034
2240.0,67.31406839527003,61.9964086156607,63.42130648037447,57.4746003353075,46.34900298005648,62.91015718189166
2300.0,67.31853025325682,62.01442345365729,62.93079537427187,56.104318274467374,44.352012940554744,62.73334281572275
2360.0,67.22643552695028,60.899654392771794,62.83614677085188,55.10885354800649,43.8716227350281,62.44540113476202
2400.0,65.88134835276018,59.400000000000006,62.86757835222433,54.89074907277839,43.0078690453943,61.466517170030244
2500.0,64.44095559035176,58.75498857039963,62.65726019457368,54.09283939765601,42.96627335260894,60.53181990949503
2580.0,63.70199903162157,58.75623495782838,62.37744834118084,53.69057853423044,42.19539924687459,60.06515088388001
2650.0,63.07106744273918,59.08795498774302,62.61901050644073,53.377752273861816,41.879452133001166,59.911833132316616
2720.0,63.09674297331736,59.28099763229997,63.69113705425896,54.23936255429989,42.678174669993155,60.42262624612272
2800.0,63.42812233674837,59.27167525581382,63.83517645019347,53.86892659481519,42.75247532926093,60.59070068773423
2900.0,63.257598821275394,58.830447001105384,64.55408646508936,54.54497536470251,42.623708191410174,60.819141565356205
3000.0,63.732689956103115,58.172879377982326,64.84787670447894,54.895576484473764,43.325732547886446,61.07357244370456
3070.0,63.93674241995144,58.5079107556345,65.32563918482587,55.15400302286132,43.154569640949944,61.42491077754343
3150.0,64.89586994447201,59.271508007869386,66.29731940344776,55.87244724622914,44.061200046857664,62.35940000506311
3250.0,65.45383142699927,59.085094858023766,66.57414608030507,56.30635423520903,43.667327241525896,62.70207386891167
