Freq "Rear Wall Bounce"
22.4 23.59147031171608
23.0 24.34925972801267
23.6 25.09366141726605
24.0 25.852668146962856
25.0 26.61590237837231
25.8 27.386863210209782
26.5 28.17473723117905
27.2 28.949675404961738
28.0 29.74967540496175
29.0 30.5576589024721
30.0 31.362605349812156
30.7 32.15350895984528
31.5 32.98338173488915
32.5 33.78177912500743
33.5 34.57889836521838
34.5 35.38349232375745
35.5 36.17710887716265
36.5 36.99734133780717
37.5 37.80659191132088
38.7 38.63253312908
40.0 39.432533129080014
41.2 40.257356950156236
42.5 41.09263809238976
43.7 41.957356950156225
45.0 42.797544882194046
46.2 43.687494103868204
47.5 44.582223981551095
48.7 45.47656983703692
50.0 46.39361797418924
51.5 47.335221820390416
53.0 48.25758985740899
54.5 49.19329034355923
56.0 50.10897713916461
58.0 51.041304389562356
60.0 51.946046144201404
61.5 52.84471097160838
63.0 53.72876184695252
65.0 54.628653538802084
67.0 55.513517923831415
69.0 56.428653538802095
71.0 57.32284259727142
73.0 58.24303041769926
75.0 59.15903487955147
77.5 60.03792371446774
80.0 60.89485513149074
82.5 61.710417029162016
85.0 62.494972092349286
87.5 63.22509232511449
90.0 63.878462408728296
92.5 64.49837528083758
95.0 65.06748363394789
97.5 65.63819156535075
100.0 66.15889066242791
103.0 66.66372320746474
106.0 67.10944825490455
109.0 67.4290853400214
112.0 67.64298829627145
115.0 67.66358014530609
118.0 67.51002841938497
122.0 67.17689989831048
125.0 66.74119923520631
128.0 66.30247957107463
132.0 66.01237927866283
136.0 65.95889120490224
140.0 66.10982575271206
145.0 66.34553381453125
150.0 66.55467258221788
155.0 66.64339528951244
160.0 66.57557989047574
165.0 66.40265182572503
170.0 66.09969315848764
175.0 65.76045225607812
180.0 65.37577402922389
185.0 65.07283815991144
190.0 64.87843678846826
195.0 64.8505403745412
200.0 64.96640379955147
206.0 65.18522007011882
212.0 65.3795257120014
218.0 65.52300488710927
224.0 65.56896915960047
230.0 65.54062691984606
236.0 65.47849082291273
240.0 65.40272761276165
250.0 65.23030609407209
258.0 64.94752591806224
265.0 64.5729859724415
272.0 64.18815349875365
280.0 63.98989793418474
290.0 63.98579136582285
300.0 64.11281587684934
307.0 64.23698336373756
315.0 64.17197748202753
325.0 63.909380116236136
335.0 63.593510442666286
345.0 63.31024577063401
355.0 63.06154123997406
365.0 62.81495091166373
375.0 62.578633902143935
387.0 62.40011856407517
400.0 62.23189915478703
412.0 62.0449127471844
425.0 61.817074196626066
437.0 61.59466216950477
450.0 61.40396232947299
462.0 61.08783564146742
475.0 60.815217683895526
487.0 60.709522658764655
500.0 60.918033999455304
515.0 61.3077704938311
530.0 61.628996482532486
545.0 61.606287430798005
560.0 61.39100432503545
580.0 61.2278549665744
600.0 60.90285189015357
615.0 60.16895699956477
630.0 59.28035889135106
650.0 58.66082206741115
670.0 58.018451860525715
690.0 57.1302112388518
710.0 56.45261775559197
730.0 56.67902064894636
750.0 57.033692985170504
775.0 56.4224202365306
800.0 55.627230525046315
825.0 55.45040683145157
850.0 55.58280807894343
875.0 55.69466567791105
900.0 56.15214309769347
925.0 56.66834126966974
950.0 56.393263491989444
975.0 55.1485426977349
1000.0 54.69041795555469
1030.0 54.65011029765273
1060.0 53.354004959710565
1090.0 53.050113966023616
1120.0 53.46669011387894
1150.0 53.07600391425879
1180.0 52.58735833248002
1220.0 52.31855933251457
1250.0 51.75348579752722
1280.0 50.41609565019036
1320.0 51.759517558873796
1360.0 53.48603015615889
1400.0 53.707020915934336
1450.0 53.49088050903822
1500.0 52.31726063933
1550.0 49.88966425392685
1600.0 49.17045549076032
1650.0 49.401030285245454
1700.0 49.39989715971683
1750.0 49.3251039573462
1800.0 48.544787996733206
1850.0 47.908333064273066
1900.0 47.063934815783824
1950.0 46.0912377522086
2000.0 46.41968846317195
2060.0 47.482145417151145
2120.0 47.92691851402576
2180.0 47.39874382104773
2240.0 47.28950930917041
2300.0 45.292519269668674
2360.0 44.81212906414203
2400.0 43.94837537450823
2500.0 43.90677968172287
2580.0 43.13590557598852
2650.0 42.819958462115096
2720.0 43.618680999107085
2800.0 43.69298165837486
2900.0 43.564214520524104
3000.0 44.266238877000376
3070.0 44.095075970063874
3150.0 45.001706375971594
3250.0 44.607833570639826
3350.0 45.66724563151912
3450.0 46.67307769379656
3550.0 47.55138044929073
3650.0 47.383241234875115
3750.0 46.03164871443141
3870.0 45.152501898954796
4000.0 43.773978577643106
4120.0 43.173816998532146
4250.0 42.64200764978881
4370.0 42.73959078385835
4500.0 42.375015439518506
4620.0 42.30524741839017
4750.0 42.38534533039777
4870.0 42.68819845407273
5000.0 44.38239739767161
5150.0 44.55151058267933
5300.0 44.410380822894865
5450.0 43.477706171613846
5600.0 41.92300424960479
5800.0 41.61632831158002
6000.0 41.69363104727984
6150.0 40.77169155484208
6300.0 39.40059912810875
6500.0 38.51397833579185
6700.0 38.272868609601744
6900.0 37.511522949966746
7100.0 37.580428629590756
7300.0 37.81644089268349
7500.0 37.851583999699386
7750.0 37.0178103590724
8000.0 35.86478751093273
8250.0 35.13770256751255
8500.0 34.59733169332719
8750.0 33.84356021374879
9000.0 35.391549895938965
9250.0 34.29121424227162
9500.0 35.09276824139357
9750.0 36.811540092594726
10000.0 36.46716308524441
10300.0 34.404930326138015
10600.0 32.65424408721091
10900.0 33.462806133894134
11200.0 32.534941547421425
11500.0 32.745916113661536
11800.0 28.393301873598602
12200.0 30.173900117802276
12500.0 28.637871743241078
12800.0 30.630300285438693
13200.0 29.857620978752323
13600.0 30.437535569365025
14000.0 31.073887049409677
14500.0 32.16462791027516
15000.0 26.947828498970694
15500.0 27.144711400136487
16000.0 30.61639245643005
16500.0 23.34663911714526
17000.0 23.413169789736315
17500.0 26.1400654249571
18000.0 24.193724811121285
18500.0 25.464130259311787
19000.0 25.40439818668682
19500.0 22.482399309346448
