Freq "On Axis"
20.5078 47.19575757575757
21.9727 54.34805757575759
23.4375 55.86415757575759
24.9023 60.190557575757566
26.3672 61.44605757575758
27.832 64.60455757575758
29.2969 66.97555757575758
30.7617 69.20095757575758
32.2266 71.32515757575757
33.6914 73.28505757575758
35.1562 75.06245757575758
36.6211 76.69375757575757
38.0859 77.95735757575758
39.5508 79.17215757575758
41.0156 80.21545757575758
42.4805 81.08135757575758
43.9453 81.85985757575757
45.4102 82.38475757575758
46.875 82.83765757575758
48.3398 83.22625757575759
51.2695 83.8131575757576
52.7344 84.02985757575757
54.1992 84.21475757575757
55.6641 84.35165757575759
58.5938 84.58345757575758
60.0586 84.69805757575757
62.9883 84.82165757575758
64.4531 84.79505757575758
67.3828 84.94605757575758
68.8477 85.01465757575758
71.7773 85.07635757575758
74.707 85.10515757575757
77.6367 85.10795757575758
79.1016 85.08965757575758
82.0312 84.95405757575756
84.9609 84.98615757575757
87.8906 85.13135757575756
90.8203 85.30875757575758
95.2148 85.27085757575759
98.1445 85.23745757575756
101.074 85.21415757575758
105.469 85.09115757575758
108.398 85.15065757575758
112.793 85.01205757575758
117.188 84.99525757575756
120.117 85.2968575757576
124.512 85.24925757575758
128.906 85.16825757575758
133.301 85.05065757575758
139.16 84.71935757575758
143.555 84.8088575757576
147.949 85.11005757575758
153.809 84.95365757575757
159.668 84.79985757575758
165.527 84.69415757575757
171.387 84.98975757575758
177.246 84.93485757575758
183.105 84.62245757575758
188.965 84.66935757575757
196.289 83.91265757575758
203.613 83.66455757575758
210.938 84.69535757575758
218.262 84.31125757575758
225.586 84.18045757575757
232.91 84.97335757575757
241.699 84.36065757575759
250.488 84.91465757575756
259.277 85.20905757575758
268.066 84.48535757575758
276.855 84.51025757575758
287.109 84.58475757575758
297.363 84.80465757575757
307.617 83.86855757575758
319.336 83.46555757575759
329.59 84.25355757575758
341.309 84.41045757575758
353.027 85.42765757575758
366.211 84.54395757575756
379.395 84.24715757575757
392.578 83.85135757575756
405.762 84.14965757575757
420.41 83.61725757575758
435.059 84.15525757575757
451.172 83.71535757575758
465.82 82.74115757575758
483.398 83.80355757575758
499.512 82.75245757575757
517.09 83.56485757575757
536.133 83.73725757575758
555.176 83.71305757575757
574.219 83.37645757575758
594.727 82.05225757575758
615.234 82.10995757575758
637.207 85.32795757575758
659.18 85.38605757575758
682.617 86.06905757575758
707.52 85.15625757575759
732.422 83.34275757575756
757.324 83.86505757575759
785.156 83.81595757575758
811.523 85.09355757575759
840.82 85.17925757575756
870.117 87.17485757575758
900.879 86.79535757575758
933.105 85.69345757575758
965.332 85.96875757575758
1000.49 85.18085757575759
1035.64 84.72425757575758
1072.27 83.35615757575758
1108.89 84.40825757575757
1148.44 83.78705757575757
1189.45 82.98245757575758
1230.47 83.69215757575758
1274.41 83.24335757575759
1319.82 83.50365757575759
1366.7 83.95425757575758
1413.57 83.57405757575759
1463.38 84.30215757575758
1516.11 84.25265757575758
1568.85 84.12445757575756
1624.51 83.97875757575758
1681.64 84.58945757575759
1741.7 85.16975757575757
1803.22 85.12615757575757
1866.21 85.07425757575758
1932.13 84.63675757575758
1999.51 85.2583575757576
2069.82 84.85235757575758
2143.07 84.87195757575759
2219.24 84.54085757575757
2296.88 84.66545757575759
2378.91 84.30165757575757
2462.4 85.10895757575759
2548.83 85.59765757575758
2639.65 85.23545757575758
2731.93 84.58525757575758
2828.61 84.64355757575758
2928.22 84.71025757575758
3030.76 84.73425757575757
3137.7 85.22875757575758
3249.02 84.23965757575758
3363.28 85.54075757575758
3481.93 85.19185757575758
3604.98 85.99365757575757
3732.42 85.82755757575757
3864.26 85.89635757575758
4000.49 85.39625757575757
4141.11 85.13285757575758
4287.6 84.78835757575757
4438.48 84.99345757575756
4595.21 84.68835757575758
4756.35 85.65275757575759
4924.8 85.21325757575758
5097.66 85.72835757575758
5277.83 86.16855757575757
5463.87 85.68915757575758
5657.23 85.77885757575758
5856.45 85.73575757575756
6062.99 85.78565757575758
6276.86 85.53675757575758
6498.05 85.47365757575758
6726.56 85.97235757575758
6963.87 85.91435757575758
7209.96 85.78555757575758
7464.84 85.59955757575757
7727.05 85.75825757575758
7999.51 85.73105757575757
8282.23 85.41625757575758
8573.73 85.23375757575758
8876.95 84.60215757575756
9188.96 84.18535757575756
9514.16 84.26155757575758
9849.61 84.62725757575757
10196.8 84.51195757575758
10555.7 84.09085757575758
10927.7 84.09825757575759
11313.0 85.21285757575757
11712.9 85.94975757575756
12126.0 86.20115757575758
12553.7 86.41865757575758
12996.1 86.7684575757576
13454.6 87.13845757575757
13929.2 87.51425757575758
14419.9 87.85835757575757
14928.2 87.15775757575759
15455.6 85.86205757575758
16000.5 85.04755757575758
16564.5 85.79785757575758
17148.9 86.77865757575758
17752.4 86.92795757575757
18379.4 85.13365757575758
19026.9 83.95935757575758
19697.8 81.9260575757576
19999.5 79.92595757575758
