Freq "On Axis"
20.5078 58.92813636363634
21.9727 60.92323636363635
23.4375 62.456836363636356
24.9023 63.36363636363636
26.3672 63.94003636363635
27.832 64.55203636363636
29.2969 65.75333636363634
30.7617 66.43413636363637
32.2266 66.97533636363636
33.6914 67.61143636363636
35.1562 68.31183636363637
36.6211 68.94433636363635
38.0859 69.41163636363636
39.5508 69.72073636363636
41.0156 70.44543636363636
42.4805 70.82263636363635
43.9453 70.98543636363635
45.4102 71.59103636363635
46.875 72.09213636363636
48.3398 72.50733636363636
51.2695 72.67943636363636
52.7344 73.54633636363636
54.1992 74.38023636363634
55.6641 75.32003636363635
58.5938 75.06113636363635
60.0586 75.36173636363635
62.9883 75.97043636363635
64.4531 76.04953636363636
67.3828 76.49853636363636
68.8477 76.77813636363634
71.7773 77.31753636363635
74.707 77.76043636363634
77.6367 78.16833636363636
79.1016 78.43323636363635
82.0312 79.02193636363636
84.9609 79.07213636363636
87.8906 79.71513636363635
90.8203 80.00443636363636
95.2148 80.76193636363635
98.1445 80.94883636363637
101.074 80.99423636363635
105.469 81.31353636363636
108.398 81.68543636363636
112.793 81.79443636363635
117.188 82.20483636363635
120.117 82.52963636363636
124.512 82.70943636363636
128.906 82.95453636363636
133.301 83.03053636363636
139.16 82.97453636363636
143.555 83.32883636363637
147.949 83.59123636363636
153.809 83.61913636363634
159.668 83.76873636363635
165.527 83.70623636363636
171.387 83.76363636363635
177.246 83.72853636363635
183.105 83.80453636363636
188.965 83.70973636363635
196.289 83.96953636363635
203.613 83.81203636363635
210.938 83.71623636363636
218.262 83.57973636363634
225.586 83.78103636363637
232.91 83.57583636363636
241.699 83.29243636363636
250.488 83.67373636363634
259.277 83.47043636363635
268.066 83.27893636363635
276.855 83.34433636363636
287.109 83.05943636363635
297.363 83.24253636363636
307.617 82.88803636363635
319.336 82.67823636363636
329.59 82.49813636363635
341.309 82.63953636363634
353.027 82.44553636363635
366.211 82.93643636363636
379.395 82.14013636363636
392.578 81.69363636363636
405.762 82.39433636363636
420.41 82.21663636363635
435.059 82.18913636363634
451.172 82.40753636363635
465.82 81.97523636363636
483.398 81.70393636363636
499.512 82.12863636363636
517.09 82.04373636363636
536.133 82.61733636363635
555.176 82.19663636363636
574.219 82.99273636363635
594.727 83.30043636363635
615.234 83.71493636363634
637.207 84.08353636363636
659.18 84.59983636363636
682.617 85.14223636363634
707.52 85.20533636363633
732.422 85.07843636363636
757.324 84.79133636363636
785.156 84.47463636363635
811.523 84.65943636363637
840.82 84.52153636363637
870.117 84.57513636363636
900.879 84.25923636363636
933.105 84.18733636363635
965.332 83.97443636363637
1000.49 83.59783636363636
1035.64 83.29573636363635
1072.27 82.73843636363635
1108.89 82.89273636363636
1148.44 82.94723636363635
1189.45 82.97103636363636
1230.47 82.93483636363636
1274.41 82.49303636363635
1319.82 82.08753636363635
1366.7 81.55733636363635
1413.57 81.71323636363634
1463.38 82.66983636363635
1516.11 82.90043636363636
1568.85 82.57223636363635
1624.51 81.98573636363635
1681.64 82.02353636363635
1741.7 82.90433636363636
1803.22 82.94203636363635
1866.21 81.90303636363636
1932.13 81.44803636363635
1999.51 82.25813636363635
2069.82 82.12843636363635
2143.07 81.20953636363636
2219.24 82.09053636363636
2296.88 82.80883636363636
2378.91 82.39223636363637
2462.4 81.33433636363635
2548.83 80.94313636363636
2639.65 80.32873636363637
2731.93 80.91323636363636
2828.61 81.11343636363635
2928.22 79.90683636363636
3030.76 80.83293636363635
3137.7 81.54833636363635
3249.02 81.50123636363635
3363.28 81.23193636363634
3481.93 81.36063636363636
3604.98 82.08433636363635
3732.42 82.80103636363636
3864.26 83.12373636363635
4000.49 83.35553636363636
4141.11 83.81273636363636
4287.6 84.12503636363634
4438.48 84.73203636363635
4595.21 85.58683636363635
4756.35 86.09633636363635
4924.8 85.29593636363636
5097.66 86.48213636363636
5277.83 85.37393636363636
5463.87 85.38403636363635
5657.23 85.25043636363635
5856.45 85.00803636363635
6062.99 84.10553636363636
6276.86 83.85263636363636
6498.05 82.98703636363635
6726.56 82.24233636363635
6963.87 81.49793636363636
7209.96 81.91013636363635
7464.84 83.04963636363634
7727.05 83.36403636363636
7999.51 84.27633636363636
8282.23 84.53583636363636
8573.73 84.32343636363636
8876.95 84.23733636363636
9188.96 84.07803636363634
9514.16 84.11363636363636
9849.61 83.92473636363637
10196.8 84.00473636363635
10555.7 83.94013636363634
10927.7 83.75873636363636
11313.0 83.46353636363635
11712.9 82.71933636363636
12126.0 81.95793636363636
12553.7 81.38513636363635
12996.1 81.31483636363636
13454.6 81.29283636363634
13929.2 81.25523636363634
14419.9 81.77763636363636
14928.2 82.51053636363635
15455.6 83.46973636363636
16000.5 83.99113636363636
16564.5 84.18523636363635
17148.9 84.32503636363636
17752.4 84.22763636363635
18379.4 83.63723636363636
19026.9 82.86683636363635
19697.8 82.18273636363635
19999.5 81.88713636363636
