Freq,On Axis,Listening Window,Sound Power,Early Reflections,Early Reflections DI,Sound Power DI,DI offset
20.5078,66.7494,66.77326110262935,68.31552836133768,67.14125679693034,49.63200430569901,48.457732741291665,50
21.9727,70.5187,70.53530686211751,71.5980982095856,70.7595477334901,49.77575912862741,48.93720865253191,50
23.4375,73.18410000000002,73.1895788054113,74.08644629520373,73.34509621023913,49.84448259517217,49.10313251020757,50
24.9023,75.55129999999998,75.55753017242394,76.11793812080516,75.6058592015373,49.95167097088664,49.439592051618774,50
26.3672,77.5617,77.55724012052912,77.91474523164113,77.53097199986838,50.02626812066073,49.64249488888798,50
27.832,79.34500000000001,79.3306457872594,79.43703466435927,79.20094741280796,50.129698374451436,49.893611122900126,50
29.2969,81.3144,81.29544513774367,81.24117826971299,81.09982695267,50.19561818507367,50.05426686803068,50
30.7617,82.5631,82.54260822369652,82.42886948015224,82.33735614131434,50.205252082382174,50.113738743544275,50
32.2266,83.7089,83.68379097725783,83.45781763155274,83.4337559249452,50.250035052312626,50.225973345705086,50
33.6914,84.7795,84.75191724310024,84.45319334469472,84.47379753519174,50.2781197079085,50.29872389840551,50
35.1562,85.6412,85.61110518842217,85.26188245092587,85.31685756751389,50.29424762090828,50.349222737496305,50
36.6211,86.5565,86.52027152581341,86.03759432185429,86.16895212694398,50.351319398869435,50.48267720395913,50
38.0859,87.2494,87.21159540039112,86.68261916940952,86.84277441766174,50.368820982729375,50.5289762309816,50
39.5508,87.9388,87.89616736575954,87.26354196201373,87.48315082621771,50.41301653954183,50.632625403745806,50
41.0156,88.5753,88.52790056329088,87.79388565237794,88.07103408720785,50.456866476083036,50.73401491091295,50
42.4805,89.1573,89.10485607698467,88.20701784703991,88.57579369581036,50.52906238117431,50.89783822994477,50
43.9453,89.7843,89.73088295841698,88.68798418577386,89.14330796331942,50.58757499509757,51.04289877264313,50
45.4102,89.85630000000002,89.81278803310008,89.04354978463978,89.34605372128685,50.46673431181323,50.7692382484603,50
46.875,90.1042,90.06047274431488,89.33866434741252,89.61987362415945,50.440599120155426,50.72180839690236,50
48.3398,90.5209,90.47602188517824,89.78469024018379,90.04894101135481,50.42708087382343,50.69133164499445,50
51.2695,91.1268,91.0759270881435,90.33338661857253,90.62842111854897,50.44750596959453,50.74254046957097,50
52.7344,91.5083,91.45409697000368,90.63592589539819,90.97385178848883,50.480245181514846,50.81817107460549,50
54.1992,91.7386,91.68129843785269,90.83979713923145,91.19028871702969,50.491009720823,50.84150129862124,50
55.6641,91.98039999999999,91.92021099946227,91.04372553422326,91.41404878333084,50.50616221613143,50.876485465239014,50
58.5938,92.4197,92.35216219313422,91.36240855894933,91.79757503173171,50.55458716140251,50.98975363418489,50
60.0586,92.582,92.51053782014372,91.46907019518414,91.93113374653596,50.57940407360776,51.04146762495958,50
62.9883,92.9243,92.84378813998323,91.54890937609896,92.15458911865842,50.68919902132481,51.29487876388427,50
64.4531,93.098,93.01854737346989,91.66876642555411,92.30913881460928,50.7094085588606,51.349780947915775,50
67.3828,93.26020000000001,93.1912975775963,92.09124757169609,92.59151434782953,50.59978322976677,51.100050005900215,50
68.8477,93.2917,93.22116566370384,92.16887421655065,92.63888744827095,50.58227821543289,51.052291447153195,50
71.7773,93.30919999999999,93.23189720389524,92.15691999632266,92.633949047092,50.59794815680324,51.07497720757259,50
74.707,93.31080000000001,93.22600031685003,92.07346768661895,92.58935393581493,50.636646381035106,51.15253263023108,50
77.6367,93.2078,93.11707144604769,91.90757602482499,92.45167200341906,50.665399442628626,51.2094954212227,50
79.1016,93.1811,93.0872819211022,91.84184721933767,92.40205269493264,50.68522922616957,51.24543470176454,50
82.0312,93.1595,93.05540842569688,91.65180177291906,92.29511482270583,50.760293602991055,51.403606652777825,50
84.9609,93.2785,93.16519179272387,91.58613399489364,92.32356900864168,50.84162278408219,51.57905779783023,50
87.8906,93.6356,93.51859735293996,91.96570757872425,92.69522563085967,50.823371722080296,51.552889774215714,50
90.8203,93.7246,93.59987704596112,91.94816539091364,92.74002933423381,50.85984771172731,51.65171165504748,50
95.2148,93.4304,93.29980755902756,91.4964814982681,92.37352814088153,50.926279418146024,51.80332606075946,50
98.1445,93.21590000000002,93.07732684035018,91.19183289040839,92.11072368932531,50.96660315102487,51.88549394994179,50
101.074,93.1792,93.03177398268939,90.91490567656679,91.96941621408912,51.062357768600265,52.1168683061226,50
105.469,93.23020000000001,93.0860083571285,90.72696961330917,91.93820438160682,51.14780397552168,52.35903874381934,50
108.398,92.9191,92.77734084103781,90.55949104514266,91.6869488118064,51.09039202923141,52.21784979589515,50
112.793,92.0818,91.92161093027026,89.73023942967731,90.81847260598543,51.10313832428483,52.19137150059295,50
117.188,92.3919,92.20303440507807,89.42768734756193,90.86501905609983,51.338015348978246,52.77534705751614,50
120.117,92.9432,92.75961253057883,89.99233495884003,91.42002464393042,51.33958788664842,52.7672775717388,50
124.512,92.9454,92.76381237097516,90.12032662474353,91.47378560231192,51.29002676866324,52.64348574623163,50
128.906,93.1119,92.91983685045967,89.93315543418268,91.52194117206383,51.39789567839584,52.986681416276994,50
133.301,92.9515,92.78165760046416,89.6449735641586,91.37478645535394,51.406871145110216,53.13668403630555,50
139.16,91.7545,91.58934095455378,88.79000110933877,90.29070565686469,51.29863529768909,52.799339845215,50
143.555,92.10200000000002,91.89610947554604,88.66733325912949,90.37432599235363,51.52178348319241,53.22877621641655,50
147.949,92.97100000000002,92.76623303979339,89.49369358021724,91.2353657655599,51.530867274233486,53.27253945957615,50
153.809,92.7307,92.5534387890082,89.12654051838456,91.03762411804759,51.51581467096061,53.42689827062364,50
159.668,90.90570000000001,90.76519006380899,87.95823187624566,89.44457893349542,51.320611130313566,52.806958187563325,50
165.527,91.2435,91.00350183138238,87.31000903822014,89.15162081306516,51.851881018317215,53.693492793162235,50
171.387,92.2794,92.09156098318783,88.01316009098275,90.25209053253614,51.83947045065169,54.07840089220508,50
177.246,91.9841,91.84883012295286,87.91905796821685,90.16015870405978,51.68867141889308,53.929772154736014,50
183.105,91.2183,91.05573286862051,87.88966534199893,89.64660442660603,51.40912844201448,53.166067526621575,50
188.965,92.2867,92.07884672489595,88.41219844980104,90.42381599545301,51.65503072944294,53.666648275094914,50
196.289,92.4044,92.22303384152261,88.42441113370081,90.554450502179,51.66858333934361,53.79862270782179,50
203.613,92.0494,91.86161511079396,88.00353382162079,90.13700373016788,51.72461138062609,53.85808128917317,50
210.938,92.5856,92.40669773283369,88.11426120235647,90.57070259812701,51.83599513470668,54.29243653047722,50
218.262,92.01960000000001,91.86401229516302,88.07623897166556,90.2175093860534,51.64650290910963,53.78777332349746,50
225.586,90.65990000000001,90.53781798057773,87.51672117110593,89.2157706505933,51.32204732998443,53.0210968094718,50
232.91,92.0722,91.76601625454124,87.85347044996881,90.03422676787014,51.731789486671104,53.91254580457243,50
241.699,92.4175,92.1502279295697,87.99574782959182,90.29039570310309,51.85983222646661,54.154480099977874,50
250.488,91.8833,91.58071819538928,87.28902425213452,89.47425602066902,52.106462174720264,54.29169394325476,50
259.277,93.0545,92.82209707982153,88.06383729494168,90.62615638379182,52.19594069602971,54.758259784879854,50
268.066,91.5879,91.47780110363063,88.37510349334171,90.06484616135074,51.41295494227988,53.102697610288914,50
276.855,90.5828,90.33118456186838,87.17789399142033,88.7800443810198,51.55114018084858,53.15329057044805,50
287.109,93.2041,92.59032568065389,87.52595973250085,90.17815945788396,52.412166222769926,55.06436594815304,50
297.363,93.73480000000002,93.18303305292537,87.57085644154702,90.6854136951559,52.497619357769466,55.612176611378345,50
307.617,93.9943,93.58704481913972,87.94832495803327,90.946660577115,52.64038424202472,55.63871986110645,50
319.336,92.3875,92.00115805684052,86.7893912259609,89.44447350212339,52.55668455471714,55.211766830879625,50
329.59,93.0107,92.56438684685565,87.51664219800044,90.08883731679465,52.475549530061,55.047744648855215,50
341.309,92.26810000000002,91.84091672322809,86.64644076151225,89.53967307629175,52.30124364693634,55.19447596171584,50
353.027,93.1969,92.74817617720205,87.79778806119769,90.42875052442034,52.31942565278172,54.95038811600436,50
366.211,93.5564,93.1163835968984,87.85551481152257,90.86619088572942,52.25019271116898,55.260868785375834,50
379.395,93.8598,93.32353296631896,88.2307671388855,90.96841573695865,52.35511722936032,55.09276582743347,50
392.578,92.7993,92.37368213627236,87.89984184305328,90.20577836763196,52.1679037686404,54.473840293219084,50
405.762,94.0073,93.40844761565616,87.95497347855253,90.8223674787822,52.58608013687396,55.453474137103626,50
420.41,91.76549999999999,91.45877386962516,87.28871751540045,90.08831054318874,51.37046332643642,54.17005635422471,50
435.059,93.2618,92.76376035257894,87.39777335135442,90.50878868083106,52.25497167174788,55.365987001224525,50
451.172,91.94949999999999,91.53822454504115,87.08562332851119,89.87724834913313,51.66097619590802,54.452601216529956,50
465.82,90.1297,89.86813665781858,86.65021053133445,89.13107127002075,50.73706538779783,53.21792612648413,50
483.398,92.6704,92.31435683648435,88.00189959751366,90.83616480575853,51.47819203072582,54.312457238970694,50
499.512,91.9281,91.52792457619331,87.75968041988891,90.77978154675968,50.748143029433635,53.768244156304405,50
517.09,93.3096,92.9492002582408,87.54055066110091,91.27286428521555,51.676335973025246,55.408649597139885,50
536.133,92.8997,92.57299082698988,86.77353015101406,90.4979435844917,52.07504724249819,55.79946067597582,50
555.176,92.0088,91.44147530758926,85.56809485970423,89.5223390504045,51.91913625718476,55.873380447885026,50
574.219,93.3281,92.57013550530327,85.16554058572258,89.38543051361597,53.1847049916873,57.40459491958069,50
594.727,93.20110000000001,92.45498701234726,84.70472988132704,88.82465448852398,53.630332523823284,57.75025713102022,50
615.234,92.3723,91.75435316786768,84.34920667967089,87.8819770334417,53.87237613442598,57.40514648819679,50
637.207,92.6219,91.90570761374757,84.17138837945559,87.52653338195505,54.37917423179252,57.73431923429197,50
659.18,92.40910000000001,91.74736889982917,84.22374332227835,87.24941821593738,54.49795068389179,57.52362557755082,50
682.617,91.6484,90.9706975479496,84.13308710583937,86.33122530624856,54.63947224170104,56.83761044211023,50
707.52,92.8625,92.05783771333364,84.96448463063165,87.17399819133728,54.883839521996364,57.093353082701995,50
732.422,92.3383,91.62242834518209,85.12950076347255,87.20119852964051,54.42122981554158,56.49292758170954,50
757.324,92.3709,91.5574638989405,85.45903008845094,87.44334745567559,54.114116443264905,56.09843381048955,50
785.156,93.4449,92.52652989333139,86.407726419051,88.51290558126506,54.01362431206633,56.118803474280384,50
811.523,93.2536,92.181972964336,86.36356622617133,89.02365685191377,53.15831611242223,55.81840673816467,50
840.82,93.7756,92.7902227290699,86.70016425473929,89.82176062730277,52.96846210176713,56.090058474330604,50
870.117,93.7367,92.71510115901573,87.11069179524006,90.02021015359074,52.69489100542499,55.60440936377567,50
900.879,93.5574,92.47683102736181,86.98662030225132,89.85238973815828,52.62444128920353,55.49021072511049,50
933.105,93.09590000000001,92.18571845187245,86.64066492077448,89.62026274251086,52.565455709361586,55.54505353109796,50
965.332,91.89380000000001,91.3901777488603,86.70462519767261,89.34331894671045,52.04685880214984,54.68555255118768,50
1000.49,91.2946,90.83583656619402,85.82833210027721,88.78164866742557,52.05418789876845,55.00750446591681,50
1035.64,90.6621,90.37844164319799,85.53467323186591,88.55770932704739,51.8207323161506,54.84376841133208,50
1072.27,90.1722,90.4268254907381,85.36011283122265,88.61849916429651,51.80832632644159,55.066712659515446,50
1108.89,92.0392,91.4197218192599,85.73945665500533,89.17278951269313,52.24693230656678,55.68026516425458,50
1148.44,92.6951,92.00332984311261,86.03367785026283,89.3598333415689,52.64349650154371,55.969651992849776,50
1189.45,93.063,92.0662785160189,85.93979227631732,89.26986122308257,52.796417292936326,56.12648623970158,50
1230.47,92.4622,91.8621705032877,85.8955260727022,89.20644386939755,52.655726633890154,55.966644430585504,50
1274.41,92.8475,92.04164836727085,85.47500716076766,88.65180160351385,53.389846763757006,56.56664120650319,50
1319.82,92.9505,91.93906969760937,85.23427176246686,88.50901048439555,53.43005921321382,56.70479793514251,50
1366.7,92.8066,92.18040971207603,85.40639852767988,88.83758817400745,53.34282153806858,56.774011184396144,50
1413.57,93.4446,92.32214633678156,85.31797299658257,88.70264629358238,53.61950004319918,57.00417334019899,50
1463.38,92.86149999999999,92.20044379675532,84.97851145984467,88.36853934042043,53.8319044563349,57.221932336910655,50
1516.11,91.9189,91.7898182747417,84.57365563867656,87.90975639020058,53.88006188454112,57.21616263606515,50
1568.85,92.61730000000001,92.0301140082975,84.68425229820346,88.14819056770328,53.88192344059422,57.34586171009404,50
1624.51,92.8821,92.47454178873508,84.98847204768818,88.52905698675254,53.945484801982545,57.486069741046904,50
1681.64,92.9502,92.45413280361508,84.81866670326679,88.38051687458453,54.07361592903055,57.635466100348296,50
1741.7,91.7777,92.30219328887162,84.89905615610503,88.23836873487222,54.063824553999396,57.40313713276659,50
1803.22,92.3839,92.0618225876138,84.80160754049281,88.08562997570331,53.97619261191049,57.260215047120994,50
1866.21,93.3249,92.64002490198014,85.1878273682663,88.74736186029995,53.892663041680194,57.45219753371384,50
1932.13,92.8943,92.76356101818064,85.20858365832284,88.89071176575347,53.87284925242717,57.5549773598578,50
1999.51,92.3329,92.61244690034954,84.82685497064709,88.52608170995245,54.08636519039709,57.78559192970245,50
2069.82,93.1084,92.54057769308629,84.91115090646905,88.62690191889064,53.91367577419565,57.629426786617245,50
2143.07,93.261,92.87111224347161,85.17370647526714,89.03730472626475,53.833807517206864,57.697405768204476,50
2219.24,92.30210000000001,92.71705600301799,85.02254285574595,88.69837057281337,54.01868543020461,57.69451314727203,50
2296.88,91.8294,92.3094023655783,84.78589681847124,88.32842079304474,53.98098157253355,57.52350554710705,50
2378.91,92.221,92.3059619054708,84.77985740022709,88.33307741886952,53.972884486601274,57.52610450524371,50
2462.4,91.7815,92.47036378582693,84.82499641511768,88.3921659118774,54.078197873949534,57.64536737070925,50
2548.83,92.3358,92.4015788412486,84.68777503070092,88.20038916253826,54.201189678710335,57.713803810547674,50
2639.65,92.38289999999999,92.44478951703454,84.65150146565801,88.2097959728853,54.23499354414923,57.79328805137652,50
2731.93,91.7939,92.27047562800892,84.60123596677374,87.9755135798235,54.294962048185425,57.66923966123518,50
2828.61,92.0419,92.21619452434345,84.62119584456698,87.9515964937706,54.264598030572856,57.59499867977647,50
2928.22,92.32540000000002,92.39530497841487,84.55396899429306,88.08567376361218,54.30963121480269,57.84133598412181,50
3030.76,92.5631,92.51624196861572,84.50325226247824,88.05315504238949,54.463086926226225,58.012989706137475,50
3137.7,92.0418,92.11146937372934,84.38529129707759,87.850730157262,54.26073921646733,57.72617807665175,50
3249.02,92.9826,92.8253045181615,84.77602832820051,88.48638541880457,54.33891909935693,58.04927618996099,50
3363.28,91.9136,92.16093948292915,84.42714438561357,87.9599744633377,54.20096501959145,57.73379509731558,50
3481.93,92.9402,92.57876528668112,84.70094474080872,88.3920661008434,54.186699185837725,57.877820545872396,50
3604.98,91.8069,92.25637327194204,84.3427290360472,87.9610292503725,54.295344021569534,57.913644235894836,50
3732.42,92.5298,92.53650985253778,84.41193929571877,88.13027253303311,54.40623731950467,58.12457055681901,50
3864.26,92.0373,92.21378378320648,84.080047370914,87.77950805144418,54.4342757317623,58.13373641229248,50
4000.49,92.1477,92.35846609175762,84.13807985698689,87.86085596168023,54.49761013007739,58.22038623477073,50
4141.11,91.5758,92.0544637979905,83.81340430313676,87.5433101203074,54.5111536776831,58.24105949485373,50
4287.6,92.6513,92.47382643185504,84.00514144624186,87.82884962763147,54.644976804223575,58.46868498561318,50
4438.48,92.28600000000002,92.38847145308267,83.85149354899194,87.63737241838638,54.751099034696296,58.53697790409073,50
4595.21,92.5572,92.7225736759907,84.00199929420005,87.84740184237978,54.87517183361092,58.720574381790655,50
4756.35,92.57970000000002,92.74107992663565,83.88623034745724,87.77905600557087,54.962023921064784,58.854849579178406,50
4924.8,92.9174,92.86513506331222,83.92146236147715,87.8248118249888,55.040323238323424,58.94367270183507,50
5097.66,93.0698,93.1093099676841,83.96420297448721,87.94178784009786,55.16752212758624,59.14510699319689,50
5277.83,93.1903,93.14461656417737,84.05443803123481,87.97556000724248,55.16905655693489,59.09017853294256,50
5463.87,93.3008,93.2247862458554,83.92104647150984,87.9530820713934,55.271704174462,59.30373977434556,50
5657.23,93.6953,93.29727960926496,83.8698955146381,87.95194513264161,55.34533447662335,59.42738409462686,50
5856.45,93.61719999999998,93.06422812572778,83.48696042896741,87.69337635566713,55.37085177006065,59.57726769676037,50
6062.99,93.5092,92.61505620172777,82.94628562407834,87.11982959494635,55.495226606781415,59.668770577649425,50
6276.86,93.181,92.22933155273918,82.49401705814175,86.79884927930904,55.430482273430144,59.73531449459743,50
6498.05,92.835,92.01770539804929,82.06993371931352,86.40723935298686,55.610466045062424,59.94777167873576,50
6726.56,92.8782,91.76478574019842,81.77222492140321,86.08363878237448,55.68114695782394,59.99256081879521,50
6963.87,92.47360000000002,91.33827520409032,81.21151964798952,85.55889987016927,55.77937533392105,60.126755556100804,50
7209.96,92.3886,91.11168762992746,80.69485440470376,85.24418347271808,55.86750415720938,60.4168332252237,50
7464.84,92.7642,91.5823988598204,81.01873519736888,85.5963155114727,55.986083348347705,60.56366366245152,50
7727.05,93.6061,92.63028929057025,81.96768518345576,86.6750687088867,55.95522058168355,60.66260410711449,50
7999.51,93.9538,93.10496073374279,82.2828538367783,87.10371833947679,56.001242394266,60.822106896964485,50
8282.23,94.10190000000001,93.03556036019599,82.00771241753944,86.97023749969945,56.065322860496536,61.02784794265655,50
8573.73,93.7481,92.7898351872529,81.49929166727293,86.63273814967229,56.15709703758061,61.29054351997998,50
8876.95,93.5046,92.52852390426494,81.10780921754842,86.3307674971829,56.19775640708204,61.42071468671652,50
9188.96,93.38,92.30289143022031,80.80757729563867,86.10618266765557,56.19670876256474,61.49531413458165,50
9514.16,92.8057,91.67776013591454,80.14691436364767,85.48149669804877,56.19626343786577,61.53084577226687,50
9849.61,90.9633,89.88423627709336,78.2002033336138,83.7745364469522,56.10969983014117,61.684032943479565,50
10196.8,90.8936,89.44070998295561,77.7647600113094,83.45649045328341,55.9842195296722,61.675949971646205,50
10555.7,92.7531,91.23553598977831,79.5821465706867,85.32704775140306,55.908488238375256,61.65338941909161,50
10927.7,93.1724,91.92834767629355,80.4788408694681,86.13313215959441,55.795215516699145,61.449506806825454,50
11313.0,91.98219999999999,90.81960513839567,79.29976110060804,84.93814893848942,55.88145619990625,61.519844037787635,50
11712.9,92.0964,90.45386811016667,78.28693419335777,84.11866114926103,56.33520696090564,62.1669339168089,50
12126.0,92.4781,90.05391357255756,77.32782118553446,83.4001865253306,56.653727047226965,62.7260923870231,50
