Freq,Floor Bounce,Ceiling Bounce,Front Wall Bounce,Side Wall Bounce,Rear Wall Bounce,Total Early Reflection
20.5078,63.087735405090314,60.5441377130029,62.14911372996713,61.75114068006337,60.84056657607337,61.77241528761596
21.9727,65.98080705616013,62.34598935227143,64.51716137174799,64.29803834981502,63.62488736838026,64.31483870078401
23.4375,69.25534941780245,66.63300397992441,68.16937104511513,67.9429881935528,67.33161935524691,67.95566108217696
24.9023,70.26992971928075,66.52339329483655,68.75220615609692,68.56092894325656,68.03082213831766,68.59366046108988
26.3672,73.90666461825303,70.90927433881512,72.61893688791241,72.59798005024838,72.41439413017827,72.59185437729778
27.832,75.59848694178123,72.93197995531902,74.45099951053894,74.32196869150273,73.95874628143005,74.33733270659405
29.2969,77.948300990831,75.52435114701134,76.87229652886236,76.7807050780029,76.4916874864995,76.7930096568131
30.7617,79.77625425842608,77.38724228877334,78.71062885948467,78.591734815167,78.25425543440917,78.61283273559334
32.2266,81.86737418301617,79.39428027385412,80.80367593048672,80.6612494926812,80.27914444590719,80.67529968598178
33.6914,83.84538317210928,81.64049397664618,82.89707431500887,82.751073052234,82.38041394147704,82.76261353993465
35.1562,85.68118789896135,83.48729281621974,84.74888542280164,84.58651157337597,84.17102944381803,84.5951187568262
36.6211,87.19184028018043,85.08307084414149,86.29635049260182,86.13037619465008,85.71717377013132,86.13973939296432
38.0859,88.62761898310579,86.5712671619044,87.76766456137275,87.59090176730976,87.14645061226655,87.59491607090027
39.5508,89.85510807340052,87.8918643193233,89.03462937347531,88.85322631497334,88.40207950180768,88.85746731531938
41.0156,90.73786539714132,88.82545486721617,89.94288684241343,89.78069885721446,89.35855996498424,89.77596352612676
42.4805,91.58247927799232,89.66345591868055,90.80021144151388,90.6139508569412,90.15012834119668,90.61029890730806
43.9453,92.24068357997228,90.35288942274477,91.48286304341387,91.27547847225975,90.76790959448081,91.2720920035005
45.4102,92.82686067542878,90.9997795081306,92.09410489327337,91.88710565172101,91.39004658426344,91.88489929013372
46.875,93.2021446733698,91.38544816540117,92.47304242326726,92.27675571310684,91.82422415873454,92.27607852822628
48.3398,93.58729213152598,91.81852326716904,92.8831349345825,92.6819986829249,92.22642522376995,92.68137494292549
51.2695,94.07160944316423,92.33755261477043,93.39268684404703,93.18397957376821,92.72962664118654,93.18362080233379
52.7344,94.2591313797915,92.54886105305147,93.60226823565164,93.37171190311807,92.8733106792091,93.3718943389184
54.1992,94.48683435694832,92.84019462453321,93.86918009440826,93.60813491325314,92.99180036565005,93.60102500553847
55.6641,94.54755704456288,92.92492400050227,93.92970496691,93.68317053696762,93.13393906568649,93.68285264293101
58.5938,94.74443270659685,93.09415339446979,94.11586266058436,93.8772789131215,93.37037715985112,93.87928463061971
60.0586,94.86684831695227,93.23830213384738,94.25226284639882,93.99981736282477,93.46116974244612,94.00271496671961
62.9883,94.98504530259743,93.3978674470829,94.3849474511772,94.14367848637767,93.64606379809786,94.147884599855
64.4531,95.01699331440798,93.4289979163212,94.42015199950146,94.17587061541235,93.68975015293712,94.18252541184495
67.3828,94.99548033480706,93.38986775923335,94.39716208277564,94.14695510485856,93.67597616980241,94.1576490145926
68.8477,95.05350798191178,93.45771447824202,94.46206530052515,94.20608325858569,93.74091892451173,94.22023436183864
71.7773,95.17856688243498,93.59407879504872,94.60417033141732,94.32217841495485,93.84443600055717,94.3451705644695
74.707,95.26736609974272,93.73679550679933,94.7154305487578,94.43084162042915,93.94579572637203,94.45403405493641
77.6367,95.29761828586135,93.75703181572608,94.74232125737798,94.4543313603753,93.99991330917605,94.48478961561057
79.1016,95.33014407299706,93.77569152973103,94.77795362502098,94.47347723271179,93.98874888973815,94.50518741497872
82.0312,95.33963082047867,93.77677778206095,94.79933518670923,94.46671132236408,93.90654042648258,94.49642045261027
84.9609,95.34350966300114,93.78798607304853,94.81848607603484,94.47320694742521,93.85251220941515,94.49529686010806
87.8906,95.29721904959527,93.86984023441826,94.81988870494389,94.4848360303072,93.97666410588853,94.52240195943676
90.8203,95.23941026576128,93.75239897574595,94.73478614505959,94.37279090673366,93.94932338882367,94.44322677209877
95.2148,95.38884449163608,93.85898252569646,94.88924058909134,94.49992549061879,93.93412094355125,94.55306697870691
98.1445,95.36088358846929,93.88245335960596,94.88941132282818,94.46579444462728,93.87528864814317,94.53346272426825
101.074,95.24306813097755,93.70504297564578,94.74934448546458,94.32310110338923,93.78066179822191,94.39972190862623
105.469,95.41050302952213,93.82783944465443,94.9249641496251,94.42654850163035,93.75611399145839,94.5160117761218
108.398,95.61908066218743,94.13123880394465,95.19524742305065,94.65324771854537,93.82611490509382,94.73525472002422
112.793,95.6125638029052,94.06244417266655,95.17060996249822,94.64214703943023,93.73779756109954,94.69981517094216
117.188,95.44980303145422,93.81440241433916,94.98488277745395,94.43708707635805,93.71819870481472,94.53237972043367
120.117,95.54661596334348,93.89132587630141,95.06431124617174,94.49042133464879,93.66474933409918,94.58883716433925
124.512,95.4834759196568,93.90624541979236,95.01848944646201,94.48784149617536,93.58451079721695,94.55206948250677
128.906,95.22636357851837,93.59947308007662,94.73777098220671,94.23467945367211,93.58985061671908,94.325179947536
133.301,95.26919335152265,93.49953407389083,94.74341610527638,94.16962237918027,93.54382890111668,94.29984534688583
139.16,95.39220865055667,93.53899785686578,94.86693323080235,94.20112945263773,93.36210865570024,94.34141825600645
143.555,95.30170275627344,93.49854799166539,94.81403725243402,94.15314943832759,93.25907091204256,94.27402538448729
147.949,95.05276975204126,93.18253874043079,94.55305520151788,93.90925210154347,93.10939671299953,94.02810657235675
153.809,94.9906357929995,93.09778062073656,94.51422247724754,93.81404795540121,92.9995536979666,93.95342169584129
159.668,95.22645848674875,93.15544618106242,94.68487453433278,93.89866633534231,93.14482819583638,94.10181262762542
165.527,95.19345227935474,93.43277488619647,94.79905579742797,93.92973520548989,93.09182792156959,94.16288448903023
171.387,95.13504819986727,93.25869123435005,94.70265540521488,93.81752440178369,92.82020620431064,94.03318662633295
177.246,94.99671203924021,93.2197911685702,94.60572519388113,93.67436308033395,92.48368950229127,93.89116592263896
183.105,94.65007566647677,92.89816968806602,94.19546262203727,93.4061012190444,92.32215194125908,93.57621871243992
188.965,94.71726151476862,92.65739403664784,94.27471011891937,93.3615268223893,92.39545127191667,93.57447938606175
196.289,94.83611945948792,92.86283010513938,94.41750206882487,93.42168573549178,92.26933193151638,93.66563325757552
203.613,94.71858165921213,92.63222902797456,94.32562798396724,93.2903876471029,92.06729755666896,93.52084533090797
210.938,94.23615655423043,92.16775940117152,93.92861203939175,92.77533788727476,91.99501393744228,93.11679685932194
218.262,94.1995116493824,91.9327066220135,93.84003935223653,92.49453217592676,92.2688756928049,93.04219284280335
225.586,94.86289377308925,92.33628201643955,94.50403178332158,92.85456134437572,91.97745816951438,93.46499052822102
232.91,94.75623506841983,92.16261827505731,94.39583324223688,92.75495415875046,91.34195638562281,93.27746245617006
241.699,94.58915827659752,91.8202574767857,94.18819716559614,92.65263420471368,91.11509581244874,93.07719843211807
250.488,95.15843912915582,91.91204368051865,94.64522830786538,92.86336706100087,90.8690090786921,93.38540262188897
259.277,95.14064682055626,92.38143515822107,94.74159073556874,93.06306693536456,90.7347793483112,93.49671923151791
268.066,94.61630334185412,91.87226821002211,94.2406960169487,92.69494139147136,90.09265859452724,92.99740478120191
276.855,94.50932966434215,92.07723890662109,94.14872704195635,92.74906340352061,89.9398342029393,92.96957201225325
287.109,94.00989512239723,92.064385159159,94.01419636860415,92.51199874450505,90.1557708140813,92.77196926297216
297.363,94.44660824732864,92.45029024521054,94.50063639650303,92.75784231800574,89.58128424667213,93.07749513727599
307.617,94.28378946533414,92.0527499800593,93.94577110187588,92.63740691028336,89.18164450450531,92.75550077904235
319.336,94.5535668596517,91.93392385958344,94.32178263009831,92.55907286769511,89.26579979284963,92.90768330146946
329.59,94.08897269397434,92.10459715175753,94.0222869728952,92.91260850419441,88.82044083430546,92.75536402420909
341.309,94.06410058941373,92.12393988786407,94.12398515446296,92.6776317266072,89.64548548030369,92.80522633704753
353.027,94.18390911495298,91.78658531331249,94.08711097005656,92.97345150343475,89.28519685069384,92.79829178497431
366.211,94.6918952484251,91.73116891774178,94.5906602256888,92.90534299404828,88.51779408713628,93.00003936261247
379.395,94.82712532145825,92.60878793830616,94.72786374116632,93.60114573955849,89.23346760176739,93.40925127646692
392.578,93.68259741156335,92.0035132078447,93.45871243247466,92.93826073938516,88.81751909662052,92.48821931212356
405.762,93.72799714729103,90.8409202514771,93.8023931663705,92.38297987762189,88.51402067283207,92.26054681900123
420.41,93.61259079082794,90.8065954937197,93.71715766349368,92.5689725146141,87.84688642271468,92.18586212679196
435.059,93.40027082218361,90.84274684993623,93.69669173554348,92.45496830032923,87.80602269272404,92.0993462777353
451.172,94.10639096492491,88.99406630980066,93.54211719229633,92.25316392313184,87.96286134378026,92.00498902190294
465.82,94.00751726337772,88.19247134199875,93.23018109702215,91.53588741074621,87.8171094483414,91.64879025387123
483.398,94.01412734635804,87.53233693275666,93.27481220669785,90.60865995838876,86.42123017313105,91.33622791902428
499.512,94.34799985540147,87.73486649594244,93.51651549717387,91.27222996495739,86.68477676668152,91.68423924346166
517.09,93.95757934224292,88.94538490136746,93.71269241462933,91.5907001431806,87.21796363921018,91.81402932974123
536.133,94.12691826590532,89.05325214212246,94.07897201737032,91.3529043675728,86.28532788642968,91.8972169934946
555.176,93.62924992367289,89.14322928149976,93.41354060136133,91.16539900985921,85.43238144966912,91.44825150695272
574.219,94.16494780139382,89.04268936690957,93.29975154506971,91.0493540498604,85.94506316962142,91.59299763832763
594.727,93.08403338790492,89.21482512981464,92.11816888576698,88.86127029590628,84.842807320028,90.4702587045158
615.234,88.62024670784852,91.05449623439313,90.64396643361205,87.41781881011858,80.82292769598416,88.8481151122184
637.207,92.71915300902633,92.84458423766849,95.10297502726573,91.76741070599324,86.60286077522906,92.54945673956897
659.18,93.10977650451836,92.37287645359763,94.80982732975156,91.68313564893913,86.32975031629336,92.40699048759524
682.617,92.85361469665773,92.31584826218995,94.83552545277612,91.46348719788449,85.56505184372926,92.27332205041633
707.52,94.30651203791179,91.12396291007313,94.1849880750666,90.60964069876111,85.51195997513777,92.10513272475764
732.422,92.44870407299278,90.08898927297489,92.20243031105097,89.02867294747428,83.27150899776902,90.37474708843152
757.324,90.55116106862513,91.11659610032432,92.35557765649396,88.32222122080861,83.52358458768937,90.04601172900405
785.156,92.82214429187215,91.32674238129233,93.73718590890681,89.56430722401072,83.54676028775134,91.31472706421343
811.523,92.85932105865587,92.08555371392404,94.40517708777226,90.17703114074482,84.93908968189307,91.85203949751067
840.82,93.6224187852989,93.66260593740282,95.40756898583106,91.09124405694195,83.71776831398996,92.84264226870496
870.117,94.3402357851721,92.86993921568558,95.97960917898583,91.91927948049846,83.69577360914116,93.18284924501405
900.879,95.69632468285162,93.50356159325105,96.25143193596465,91.77722797894177,83.66469459751853,93.7691599585626
933.105,95.25081346771333,93.20200295905228,95.78246404584537,91.54002327279576,82.78745096967796,93.36168516009806
965.332,95.50709670705501,92.9431218786279,95.73669572306135,91.44531196149741,82.61992668886724,93.3637106086129
1000.49,95.14253696999029,92.62611311827658,94.85789868233798,91.17114484057898,82.16378089085998,92.84793885551392
1035.64,95.44754391292633,92.28480978078372,94.53857266993785,90.63514237388515,81.38248381743044,92.71206700775667
1072.27,95.62707897915007,91.2463025614571,93.00023185836349,88.78655507181884,80.50691490951526,91.95891832870153
1108.89,94.62879895073304,90.7023023544117,92.68007812406346,87.94031849451997,79.32666672267754,91.2321698672067
1148.44,94.21407191054818,90.91603280604393,92.36528259598846,87.34887894581473,79.75803876122454,90.95885863144558
1189.45,93.70342741742607,89.92633758981333,92.68787402934632,87.9577083868097,80.40656423521386,90.73411343614825
1230.47,93.7076806698944,89.08012298232732,93.06107352705901,87.77068878590886,80.47983185662623,90.71234129245694
1274.41,93.60485935406193,89.1140483662329,93.06664739848237,87.79440206451326,79.7441649638763,90.66778786728182
1319.82,93.12564870062235,88.47011534661381,93.79117216970995,88.4463947481326,80.465929907842,90.76383425744777
1366.7,92.58883637939097,88.13761766190764,93.65351906137911,88.08387896799366,79.36127698305944,90.4258801303134
1413.57,91.37365095651934,87.01027911807492,93.1186405944388,87.83240810374117,79.1275697517166,89.65089076076045
1463.38,90.64349609058064,87.50640559652129,92.52010572180248,87.28619867523894,79.09469417599887,89.16551290187327
1516.11,88.68933861923009,84.96716304348604,92.00281591091317,86.2161250432266,77.31398189136311,87.94007618382514
1568.85,88.01773121304211,84.80371620194815,91.41499130722889,85.75990272707577,78.06651364898872,87.42208797045306
1624.51,87.6323110710342,85.65721480000484,92.34172522275507,86.41212455659493,77.57056344801099,88.00326567993832
1681.64,87.00746055921421,84.96769934807962,93.26723473691092,87.20066699171429,77.60630729856989,88.47614871233733
1741.7,87.17807856093853,84.11253005074961,94.174864557497,88.34526567216989,78.38353008353398,89.18777015867701
1803.22,87.32230034079741,82.58244788153567,93.86612250433991,87.91362757534958,78.49971583123028,88.86038216672503
1866.21,87.10138852869595,84.12527679371591,92.9643877564692,87.07892497907758,77.76951875525597,88.22265724410819
1932.13,88.04046849089255,84.26175666095587,92.36337117601778,86.73531399845457,77.49349484051959,87.99969832169461
1999.51,88.8564145703298,85.89579533171559,93.1638518236879,87.48440139923821,77.81234294818574,88.86478906965917
2069.82,89.59774957876631,87.03358056470756,93.91619290792929,88.1539741042727,77.31551328271951,89.62664600502015
2143.07,90.20352227214809,87.49214260044637,93.63538452507375,88.11545673432036,77.48794109567459,89.65948851047989
2219.24,90.01000158526365,86.5064581909827,92.26318554559548,86.96911472508454,76.31254205268883,88.66166741410316
2296.88,90.30995127738784,86.89505170094068,91.43733321217388,86.52292179460318,76.19869794915363,88.38373231677785
2378.91,89.62422347547567,86.20844071745427,92.47259717736758,87.23419835546972,76.09789211832575,88.65880766589368
2462.4,89.45955552900975,86.94892435042016,94.30478085106982,88.56875655684026,76.25251899071583,89.85359417813534
2548.83,89.49825033500473,88.73202549378651,94.8296113404472,88.93831948828094,76.84147011768772,90.4216193733517
2639.65,90.12461571852575,89.79378362939818,94.0246934832927,88.65986733062371,77.41535750386498,90.25189956790256
2731.93,90.37902937208315,88.61987279763842,93.09613342567992,87.80847105538462,76.47974518631172,89.54924535370012
2828.61,90.81137847633072,88.02955653562472,93.64313515233346,87.79049291567567,76.27450134808943,89.82096503969818
2928.22,91.73875681990442,87.9746754414353,94.27285739888606,88.45188536208289,76.51499367454983,90.44491966040145
3030.76,91.97046180531747,87.79741422172106,94.30790619610305,88.66653562892145,76.33002128701031,90.53183292309302
3137.7,91.32484547890294,87.94129655655942,93.94208482564835,87.97381210062309,76.40098928520409,90.11030994675411
3249.02,91.25455277053489,88.00302322274612,93.30428448428651,87.49442382144207,76.19937896986094,89.74022307554762
3363.28,91.08770603363699,87.63047360618621,93.79334575787153,87.60462988628488,75.66452533838462,89.88751990736152
3481.93,91.3323430372817,88.07507322066847,94.35142606023324,88.70314009207573,76.64785416829673,90.42391414565334
3604.98,91.81220919177099,87.75544308318652,94.76621660554218,89.56576198338816,77.24129553741467,90.84119486624644
3732.42,91.9052369651677,88.20304860895564,95.15098336248738,89.6122018197504,76.44235415621782,91.1022914275125
3864.26,92.67544152431245,87.93703499627122,93.93152080631333,88.05119414338498,74.77969156099746,90.50344963251769
4000.49,91.05564818015499,86.93567695479308,93.70426777518246,88.00328509719557,74.69524857220716,89.80133186354497
4141.11,90.69745132782231,86.78461162282076,93.82911203535541,88.04824129165678,74.29983920721233,89.7598586859792
4287.6,90.59340592195247,87.32852306395192,93.52770076538498,87.55426938404234,74.41332985307629,89.57805243689754
4438.48,90.86345723493564,87.12668038418346,93.41839349287646,87.9744913923718,74.88231895385437,89.62943796348549
4595.21,91.20307530097412,86.6508021981408,93.11128015461895,87.57398782532377,74.86470322447416,89.47567163160846
4756.35,91.63139116977308,87.31568508805393,94.02826568787339,88.57382728466024,75.51944724099376,90.23574438424815
4924.8,91.82237333097238,86.90149684702963,94.11813742269118,89.00725365437054,75.86016206457464,90.35564580032576
5097.66,92.12722554548208,87.80039751677398,94.20614333892931,89.00905251301864,75.21793841519218,90.5674107535418
5277.83,92.60838400663842,87.60241263614738,94.40439008892878,89.38369262759889,74.90067327195878,90.83115321580175
5463.87,92.93498657200018,86.92135962127102,94.44156472090174,89.21665243127993,75.40936191792957,90.86945529743991
5657.23,92.15269731453142,87.56680183474792,94.26866578808102,89.36773183942286,75.15214291285224,90.63117009926171
5856.45,92.08850699054182,87.20089523942637,94.11298279908289,88.9781404695393,75.18064623633647,90.44840430791172
6062.99,91.4370089267199,86.80816254842622,94.51543665934486,89.75401572962404,75.44458940294925,90.55386922889579
6276.86,91.36867148834125,87.08044608655348,94.38272113132162,89.34354362991405,75.16796748893255,90.42724863032436
6498.05,91.64258728015916,86.83786873580817,94.70384120714617,89.84173032540112,74.47989477593137,90.71041519863762
6726.56,90.8060191345165,86.4983154368613,94.73602171595823,89.78585557649353,74.67729962129158,90.49797503482088
6963.87,91.1777716835705,86.71816666193752,94.89488342950061,89.94881219456124,74.00361492725074,90.70503470464641
7209.96,91.17961961587903,86.4648544832501,95.13961875264965,90.39475298954571,74.82384497213926,90.89642338727207
7464.84,91.75931352843998,86.61698689460961,94.51947176501514,89.53368845020867,73.57836995970737,90.57693570705467
7727.05,91.35056643258918,86.20868014732942,95.00525471994898,89.97234723248361,73.60812100738403,90.76653197946447
7999.51,90.92354670061091,85.9801595893753,94.42954372565232,89.35073833799376,72.64981129825408,90.24142825771511
8282.23,91.03439928129488,85.34843021387694,94.3769914333069,89.06818678670703,71.91238920301437,90.14830114902742
8573.73,90.23458558070826,84.8721818413977,93.63416933759942,88.46076661050913,71.42423752535628,89.43195671270698
8876.95,89.98364762254658,84.37922034997304,93.1516966477596,87.91099508665278,70.89111059126691,88.9948921322084
9188.96,89.03968323471238,83.81732397140694,92.2763416776263,86.90465690380226,69.31718062345811,88.10276706847685
9514.16,89.12456216101353,83.57318679064129,92.59239729415367,87.11353787558939,69.4341732970768,88.3057282143168
