Freq "Front Wall Bounce"
20.0 26.890554000000037
20.290899 27.137553999999994
20.586 27.445554999999985
20.8855 27.80155399999998
21.189301 28.17855499999999
21.497499 28.531554999999997
21.8102 28.83755499999998
22.127399 29.080555000000004
22.4492 29.24455499999999
22.775801 29.31955500000001
23.1071 29.300554000000005
23.443199 29.183553999999987
23.7841 28.974553999999983
24.1301 28.687555000000003
24.4811 28.336555000000004
24.8372 27.941554999999994
25.1984 27.518554999999992
25.564899 27.078554000000025
25.9368 26.60755500000002
26.3141 26.079555999999997
26.6968 25.438555000000008
27.0851 24.650554999999997
27.479099 23.741554000000008
27.878799 22.99655500000003
28.2843 23.038555000000002
28.6957 24.367554000000013
29.1131 26.552555000000012
29.536501 28.933553999999987
29.966101 31.207553999999988
30.402 33.323555
30.8442 35.321552
31.2929 37.58655200000001
31.748 39.86555100000001
32.209801 41.007553
32.678299 42.810554999999994
33.153599 44.60655199999999
33.635899 46.347553000000005
34.125099 48.02255199999999
34.621498 49.62455400000002
35.125 51.15855400000001
35.635899 52.62455400000002
36.154301 54.03355400000001
36.680199 55.39055299999998
37.213699 56.70155299999999
37.755 57.971554
38.3041 59.19855100000001
38.861301 60.38455200000001
39.426498 61.524551
40.0 62.619552999999996
40.581799 63.66655299999999
41.1721 64.666557
41.771 65.62455699999998
42.378502 66.540558
42.9949 67.42155500000001
43.6203 68.298553
44.254799 69.31455199999999
44.898499 69.963554
45.551498 70.641556
46.2141 71.38355999999999
46.886299 72.094559
47.568298 72.77256
48.260201 73.417557
48.962101 74.031555
49.674301 74.614555
50.396801 75.16940730823038
51.129902 75.69825543910815
51.8736 76.20310739364652
52.628101 76.6839471296475
53.3936 77.14278960718443
54.1702 77.58363180526906
54.958099 78.00947168337147
55.7575 78.42330119994112
56.568501 78.91114133503949
57.391399 79.30297002779137
58.226101 79.59979529756951
59.073 79.97262206376371
59.932301 80.33344528445376
60.804 80.67826696072312
61.6884 81.00808703050694
62.585701 81.32189745293995
63.496 81.62171320835309
64.419601 81.90652023450758
65.356598 82.17833051237017
66.307297 82.43813697931304
67.271698 82.68593963565462
68.250198 82.92273740007369
69.242897 83.18753325234293
70.250099 83.40332213029335
71.271896 83.57711501536417
72.308601 83.78290384356085
73.360298 83.98568259798978
74.427399 84.18246119432796
75.509903 84.37424063318278
76.608299 84.55901981443068
77.722603 84.73778373520904
78.853104 84.91055533654229
80.0 85.07632057817754
81.163597 85.25007739767665
82.3442 85.40883873282532
83.541901 85.5485915652055
84.757 85.66633783366203
85.989899 85.79309145609699
87.240601 85.91083043243005
88.509598 86.01757166210514
89.797 86.11330812308694
91.103104 86.1980387549306
92.4282 86.27076449865059
93.772598 86.3384892911737
95.136597 86.38720507170902
96.520401 86.42192479900336
97.924301 86.44663741395142
99.348602 86.46234385459536
100.794 86.46604497869482
102.26 86.46074688865569
103.747 86.44744050348069
105.256 86.42813361858074
106.787 86.39881223476655
108.34 86.36949435286051
109.916 86.33717276838325
111.515 86.28984748221973
113.137 86.22451149526783
114.783 86.13917460316435
116.452 86.03482801213403
118.146 85.92048231262063
119.865 85.79712850565792
121.608 85.69877079751332
123.377 85.62441077879964
125.171 85.55104465582892
126.992 85.48666801934633
128.839 85.42829007571137
130.713 85.37090662095147
132.615 85.30051645117246
134.543 85.22812297789993
136.5 85.14671958706522
138.486 85.06431228005286
140.5 84.9718962633325
142.544 84.87347712818365
144.617 84.78105708113314
146.721 84.70162371361914
148.855 84.62818823222905
151.02 84.55473843354498
153.217 84.49029311424246
155.445 84.43483548097873
157.706 84.38436912558849
160.0 84.33990004989082
162.327 84.30142125573124
164.688 84.26294354011381
167.084 84.22145270014683
169.514 84.1679529427029
171.98 84.1054438601784
174.481 84.041935659525
177.019 83.96141393334057
179.594 83.86688568391321
182.206 83.7683509135642
184.856 83.69281141994414
187.545 83.64726300082407
190.273 83.60369765875846
193.041 83.56213119170133
195.849 83.5105616023491
198.697 83.44297789343688
201.587 83.36738965860293
204.52 83.2907856962586
207.494 83.22417541851388
210.512 83.18055821485103
213.574 83.15893608850233
216.681 83.1472998383017
219.833 83.13465446765171
223.03 83.1200009800038
226.274 83.09834197012381
229.565 83.0606664417212
232.905 82.99898698993192
236.292 82.93329302730855
239.729 82.87659094494873
243.216 82.83687674703171
246.754 82.82415323359608
250.343 82.83642140902887
253.984 82.8526760736376
257.678 82.85392102791226
261.426 82.84016307252955
265.229 82.81438600835715
269.087 82.77759584047767
273.001 82.73879537005863
276.972 82.70698639846908
281.0 82.67416793120705
285.088 82.63633136217933
289.234 82.5994911050548
293.441 82.5426335542059
297.709 82.46376071586306
302.04 82.39587718884155
306.433 82.34098118348061
310.89 82.31907729902869
315.412 82.34115133876337
320.0 82.372222106209
324.655 82.39127140514202
329.377 82.38631224312694
334.168 82.35033322085204
339.028 82.32934734633277
343.959 82.33334222087348
348.962 82.34632464958842
354.038 82.35929243787675
359.188 82.35224839142822
364.412 82.3111855194759
369.713 82.25510822177185
375.09 82.21301471136255
380.546 82.19390938879444
386.081 82.22078426450325
391.697 82.29464094302162
397.394 82.38048243535928
403.175 82.43931514388282
409.039 82.44612028322688
414.989 82.4369182566513
421.025 82.43669307653145
427.149 82.45444834994026
433.362 82.50119288721692
439.665 82.54091649908835
446.06 82.56461479408986
452.548 82.57430158390207
459.131 82.56096747813835
465.809 82.56761849190218
472.584 82.58923523576664
479.458 82.60893132096251
486.432 82.63665756165382
493.507 82.65265277246485
500.0 82.65265277246485
515.0 82.70574752636685
530.0 82.73931814816919
545.0 82.75815698006434
560.0 82.76839334915678
580.0 82.77909230512158
600.0 82.79692062336495
615.0 82.81970280981301
630.0 82.8532559775771
650.0 82.91386126251135
670.0 82.99051126431439
690.0 83.08051494982325
710.0 83.18096576413903
730.0 83.2904333613028
750.0 83.40990036531916
775.0 83.57496611054309
800.0 83.75764281446135
825.0 83.95179614661886
850.0 84.14410693629972
875.0 84.32035395731945
900.0 84.4717883836951
925.0 84.59876120732804
950.0 84.71038847652154
975.0 84.82146644919627
1000.0 84.94835749230279
1030.0 85.13444214231316
1060.0 85.35522724581554
1090.0 85.5891054811385
1120.0 85.80320873698699
1150.0 85.96801354675583
1180.0 86.06380781680491
1220.0 86.08650689846921
1250.0 86.03057676005862
1280.0 85.91032445818618
1320.0 85.65708140661066
1360.0 85.2843050544992
1400.0 84.77249784784107
1450.0 83.98517997628366
1500.0 83.18330487013992
1550.0 82.5023150971597
1600.0 81.89179205176909
1650.0 81.16298097808459
1700.0 80.21792025116797
1750.0 79.16731794584513
1800.0 78.2499344755382
1850.0 77.71015483099194
1900.0 77.7263474235204
1950.0 78.2815493622494
2000.0 79.11212560535978
2060.0 80.06734063048211
2120.0 80.81797701047698
2180.0 81.4435173354338
2240.0 82.01930168552994
2300.0 82.5397217480533
2360.0 82.9909083448512
2430.0 83.47783724213068
2500.0 83.9800146674464
2580.0 84.52842336899319
2650.0 84.93604539004814
2720.0 85.29896719716581
2800.0 85.63662553106158
2900.0 85.89120441907161
3000.0 86.04459641400221
3070.0 86.09151549120085
3150.0 86.16982776022749
3250.0 86.33928675261515
3350.0 86.48892006452988
3450.0 86.6070299209004
3550.0 86.64773561466004
3650.0 86.63872260918797
3750.0 86.63764540125437
3870.0 86.68684612864975
4000.0 86.8297366196788
4120.0 87.04845619263146
4250.0 87.29688365131148
4370.0 87.47624897306108
4500.0 87.0090609663942
4620.0 85.36391989898227
4750.0 83.54686185980188
4870.0 83.38998417158237
5000.0 84.45707948565122
5150.0 85.47209956026313
5300.0 86.02911906124916
5450.0 86.4229859498111
5600.0 86.69690041563135
5800.0 86.8435240453119
6000.0 86.77728223868677
6150.0 86.776136890609
6300.0 86.97830631615604
6500.0 87.49457411644732
6700.0 88.00695331466542
6900.0 88.3243074418437
7100.0 88.5500025868804
7300.0 88.92056587141141
7500.0 89.35783684017174
7750.0 89.79167259679247
8000.0 90.15514515260047
8250.0 90.60568966840302
8500.0 91.08013372520216
8750.0 91.29004113237428
9000.0 91.08519228554592
9250.0 90.59581434732684
9500.0 90.03904230268817
9750.0 89.58747480668649
10000.0 89.45013815812288
10300.0 89.69098528984468
10600.0 89.62474645855056
10900.0 88.94210964538148
11200.0 88.42736887968965
11500.0 88.32284929848478
11800.0 88.1905933193275
12200.0 87.66824266686264
12500.0 86.93716617477386
12800.0 86.00512597216772
13200.0 84.90920372153704
13600.0 84.3869205713322
14000.0 84.51345016481021
14500.0 84.96428139984297
15000.0 85.10552923857227
15500.0 85.34581801531034
16000.0 85.77809749979959
16500.0 86.14270031174661
17000.0 86.29407947514173
17500.0 86.27066718942082
18000.0 86.14357741056729
18500.0 85.9386854579707
19000.0 85.61533620718853
19500.0 85.11226100060878
