Freq "Side Wall Bounce"
20.0 26.89055400000001
20.290899 27.137554000000023
20.586 27.445555000000013
20.8855 27.80155400000001
21.189301 28.178555000000017
21.497499 28.531554999999997
21.8102 28.83755500000001
22.127399 29.080555000000004
22.4492 29.24455499999999
22.775801 29.31955500000001
23.1071 29.300554000000005
23.443199 29.183554000000015
23.7841 28.974554000000012
24.1301 28.687555000000003
24.4811 28.336555000000004
24.8372 27.941554999999994
25.1984 27.518554999999992
25.564899 27.078553999999997
25.9368 26.60755499999999
26.3141 26.079556000000025
26.6968 25.438555000000008
27.0851 24.650554999999997
27.479099 23.741554000000008
27.878799 22.996555
28.2843 23.03855500000003
28.6957 24.367553999999984
29.1131 26.552554999999984
29.536501 28.933554000000015
29.966101 31.207554000000016
30.402 33.323555
30.8442 35.321552
31.2929 37.58655199999998
31.748 39.86555100000001
32.209801 41.007553
32.678299 42.810554999999994
33.153599 44.60655199999999
33.635899 46.347553000000005
34.125099 48.02255199999999
34.621498 49.62455399999999
35.125 51.15855400000001
35.635899 52.62455399999999
36.154301 54.03355400000001
36.680199 55.39055300000001
37.213699 56.70155299999999
37.755 57.971554
38.3041 59.19855100000001
38.861301 60.384552
39.426498 61.524551
40.0 62.619552999999996
40.581799 63.66655299999999
41.1721 64.666557
41.771 65.624557
42.378502 66.540558
42.9949 67.421555
43.6203 68.298553
44.254799 69.314552
44.898499 69.96355399999999
45.551498 70.64155600000001
46.2141 71.38356
46.886299 72.094559
47.568298 72.77256
48.260201 73.41755700000002
48.962101 74.031555
49.674301 74.614555
50.396801 75.16716402247663
51.129902 75.69373629789082
51.8736 76.19627985474328
52.628101 76.674778026857
53.3936 77.13124518508084
54.1702 77.56967800522321
54.958099 77.99307384933167
55.7575 78.40442406357417
56.568501 78.8897493419729
57.391399 79.27902672115007
58.226101 79.57326452771851
59.073 79.94346648224023
59.932301 80.3016269276253
60.804 80.6437478980031
61.6884 80.97082841375358
62.585701 81.28185983642315
63.496 81.57885686844301
64.419601 81.86080452943968
65.356598 82.12971453325329
66.307297 82.38657889469475
67.271698 82.63139763931548
68.250198 82.86516848342254
69.242897 83.12689412426052
70.250099 83.33956858704349
71.271896 83.51020259711001
72.308601 83.71278715201728
73.360298 83.91231600525
74.427399 84.10579783029038
75.509903 84.29423366265296
76.608299 84.47562092459548
77.722603 84.65094459764667
78.853104 84.8202267652044
80.0 84.98245281151335
81.163597 85.15261976657602
82.3442 85.30773966515126
83.541901 85.44379924400079
84.757 85.557799556843
85.989899 85.68075332364009
87.240601 85.79463857750666
88.509598 85.89747074556593
89.797 85.98924251195552
91.103104 86.06995194776351
92.4282 86.13859914874348
93.772598 86.20218714670376
95.136597 86.24670701134902
96.520401 86.27717112581243
97.924301 86.29756758941458
99.348602 86.30889645741941
100.794 86.30815650552651
102.26 86.29835541524906
103.747 86.28048294196607
105.256 86.25654387215233
106.787 86.22252427070161
108.34 86.18844220344175
109.916 86.15128746560669
111.515 86.09906012802055
113.137 86.02875326252737
114.783 85.93837367363949
116.452 85.82891570576696
118.146 85.70938390154075
119.865 85.58076934364323
121.608 85.47707937985624
123.377 85.39730956631857
125.171 85.318459254352
126.992 85.24851801067064
128.839 85.18449819036324
130.713 85.12139262911138
132.615 85.04519716884766
134.543 84.96692142431873
136.5 84.87954973063353
138.486 84.79108819838847
140.5 84.6925351913713
142.544 84.58789031890231
144.617 84.48915894929729
146.721 84.40332270452143
148.855 84.32339595767834
151.02 84.2433635886051
153.217 84.17224148456884
155.445 84.11001602416928
157.706 84.05268486093087
160.0 84.00125413991218
162.327 83.95571700824223
164.688 83.91008137927832
167.084 83.86133017467078
169.514 83.80047078998392
171.98 83.73049692339666
174.481 83.65942197669449
177.019 83.57122566404536
179.594 83.46891516760917
182.206 83.36249067213183
184.856 83.27895114220543
187.545 83.22528955197866
190.273 83.17349810461894
193.041 83.12358978873112
195.849 83.0635628186647
198.697 82.9874064117737
201.587 82.90312436464578
204.52 82.81770270204261
207.494 82.74215708390025
210.512 82.68947812748077
213.574 82.65866808930954
216.681 82.6377150274208
219.833 82.61562421167838
223.03 82.59139691571518
226.274 82.56003002513238
229.565 82.51251283384182
232.905 82.44085225663372
236.292 82.36504398757488
239.729 82.29808577142015
243.216 82.24797393884519
246.754 82.22470864247516
250.343 82.22629122914532
253.984 82.23171387247612
257.678 82.22197776038455
261.426 82.19708709540247
265.229 82.16002309499994
269.087 82.11179216017204
273.001 82.0613945316921
276.972 82.01782946605736
281.0 81.97309639641475
285.088 81.92317828792297
289.234 81.87409592006264
293.441 81.8048272942542
297.709 81.71337490039767
302.04 81.63273794095974
306.433 81.5649180803732
310.89 81.52991455459312
315.412 81.53871076810768
320.0 81.55632314446697
324.655 81.56173112666215
329.377 81.54294830704669
334.168 81.49295803297579
339.028 81.45777393131266
343.959 81.44737839688351
348.962 81.44577597544509
354.038 81.4439622345488
359.188 81.42193776394696
364.412 81.365696283157
369.713 81.29423420987602
375.09 81.23655341376667
380.546 81.20165037333629
386.081 81.2125178993233
391.697 81.27015263360704
397.394 81.33955843001004
403.175 81.38173390604355
409.039 81.37166405008297
414.989 81.34536154734931
421.025 81.3278113540623
427.149 81.32801230425555
433.362 81.3569713391166
439.665 81.37867642865933
446.06 81.38411851681808
452.548 81.3753096448885
459.131 81.34323583756375
465.809 81.33090425314396
472.584 81.33329098735227
479.458 81.33350518507308
486.432 81.34149607133655
493.507 81.33750090466765
500.0 81.33750090466765
515.0 81.37474119809582
530.0 81.39572465077313
545.0 81.40624125917557
560.0 81.4129644697638
580.0 81.42482178279005
600.0 81.4463242134789
615.0 81.46929697127501
630.0 81.4960363336078
650.0 81.53081323197588
670.0 81.55654043889608
690.0 81.56792563779908
710.0 81.56573214139176
730.0 81.55778216478373
750.0 81.5588127535311
775.0 81.59419590990953
800.0 81.68464401962021
825.0 81.82960291840843
850.0 82.00621039191287
875.0 82.17881203560906
900.0 82.31326480033258
925.0 82.38835751153684
950.0 82.40292047427435
975.0 82.37723776898277
1000.0 82.34809777532092
1030.0 82.35864791018665
1060.0 82.45035401952292
1090.0 82.61184183775092
1120.0 82.79527581357337
1150.0 82.94603526304101
1180.0 83.0249948314872
1220.0 83.0129744119358
1250.0 82.92734798081452
1280.0 82.77731525877496
1320.0 82.47861158098753
1360.0 82.03971603662404
1400.0 81.44950695972966
1450.0 80.61041095847807
1500.0 79.86907150074555
1550.0 79.27604407959288
1600.0 78.60876911692945
1650.0 77.61511702418267
1700.0 76.28875955908981
1750.0 74.86053329559672
1800.0 73.60759537519752
1850.0 72.84187174614576
1900.0 72.8823323799783
1950.0 73.6870776452401
2000.0 74.78411726403124
2060.0 75.9208014126057
2120.0 76.78400677077238
2180.0 77.52114148863777
2240.0 78.20324247029701
2300.0 78.83913008808162
2360.0 79.44930369014476
2430.0 80.12309459063141
2500.0 80.66702734142594
2580.0 81.09280041412353
2650.0 81.43087998456033
2720.0 81.79822542069849
2800.0 82.17523598731798
2900.0 82.52675536539391
3000.0 82.78009738781671
3070.0 82.91053914840163
3150.0 83.04141033336936
3250.0 83.16246396013958
3350.0 83.27002159795977
3450.0 83.41640373399417
3550.0 83.51684183626404
3650.0 83.56703963800312
3750.0 83.60367395376801
3870.0 83.68586656740342
4000.0 83.8075784563213
4120.0 83.9448563001188
4250.0 84.10870758116043
4370.0 84.24485757416772
4500.0 84.0122554261888
4620.0 83.23861066556918
4750.0 82.4247486467596
4870.0 82.22490974339124
5000.0 82.3815161169612
5150.0 82.49779050776124
5300.0 82.45271636974567
5450.0 82.43707030311857
5600.0 82.54104149506095
5800.0 82.7241756913906
6000.0 82.81523130617072
6150.0 82.78816955608646
6300.0 82.8366854227385
6500.0 83.17362577405602
6700.0 83.60853966119075
6900.0 83.81395191647668
7100.0 83.63257219901251
7300.0 83.32683759590935
7500.0 83.07623638699371
7750.0 82.71013320539782
8000.0 82.3239522170047
8250.0 82.08059174293888
8500.0 81.9721172274769
8750.0 82.03425691141413
9000.0 82.28722875286236
9250.0 82.57102182189341
9500.0 82.72455999610737
9750.0 82.80045856149596
10000.0 82.9789775878228
10300.0 83.29910639534452
10600.0 83.40525683173178
10900.0 83.26838994971533
11200.0 83.11434706175955
11500.0 83.04469270232167
11800.0 82.97792053485917
12200.0 82.69867881358275
12500.0 82.18798386708426
12800.0 81.36279952414067
13200.0 79.91670837000663
13600.0 78.28593802491496
14000.0 76.55289997129898
14500.0 74.28442588130592
15000.0 72.1367067833956
15500.0 70.21224404926376
16000.0 69.10524390570868
16500.0 68.76066388277526
17000.0 69.30644835789634
17500.0 70.24072343379086
18000.0 70.94355482305357
18500.0 71.47750737202065
19000.0 71.9405848755017
19500.0 72.2066955860232
