Freq "Total Early Reflection"
20.0 27.358727280870568
20.290899 27.605727280870582
20.586 27.913728280870572
20.8855 28.26972728087057
21.189301 28.646728280870576
21.497499 28.999728280870556
21.8102 29.305728280870568
22.127399 29.548728280870563
22.4492 29.71272828087055
22.775801 29.787728280870567
23.1071 29.768727280870564
23.443199 29.651727280870574
23.7841 29.44272728087057
24.1301 29.155728280870562
24.4811 28.804728280870563
24.8372 28.409728280870553
25.1984 27.98672828087055
25.564899 27.546727280870556
25.9368 27.07572828087055
26.3141 26.547729280870584
26.6968 25.906728280870567
27.0851 25.118728280870556
27.479099 24.209727280870567
27.878799 23.46472828087056
28.2843 23.50672828087059
28.6957 24.835727280870543
29.1131 27.020728280870543
29.536501 29.401727280870574
29.966101 31.675727280870575
30.402 33.79172828087056
30.8442 35.789725280870556
31.2929 38.05472528087054
31.748 40.33372428087057
32.209801 41.47572628087056
32.678299 43.27872828087055
33.153599 45.07472528087055
33.635899 46.815726280870564
34.125099 48.49072528087055
34.621498 50.09272728087055
35.125 51.62672728087057
35.635899 53.09272728087055
36.154301 54.50172728087057
36.680199 55.85872628087057
37.213699 57.16972628087055
37.755 58.43972728087056
38.3041 59.66672428087057
38.861301 60.85272528087056
39.426498 61.99272428087056
40.0 63.087726280870555
40.581799 64.13472628087055
41.1721 65.13473028087056
41.771 66.09273028087055
42.378502 67.00873128087056
42.9949 67.88972828087056
43.6203 68.76672628087056
44.254799 69.78272528087057
44.898499 70.43172728087055
45.551498 71.10972928087057
46.2141 71.85173328087056
46.886299 72.56273228087056
47.568298 73.24073328087056
48.260201 73.88573028087058
48.962101 74.49972828087056
49.674301 75.08272828087055
50.396801 75.6347997993214
51.129902 76.16082903905858
51.8736 76.66282413320566
52.628101 77.14076836770698
53.3936 77.59667607770615
54.1702 78.03454397416589
54.958099 78.45736938857836
55.7575 78.86814363724669
56.568501 79.35288746386743
57.391399 79.74157781615916
58.226101 80.03522321389143
59.073 80.40482722888216
59.932301 80.76238419457303
60.804 81.1038962861345
61.6884 81.43036245411014
62.585701 81.74077406775305
63.496 82.03714591284874
64.419601 82.3184629550106
65.356598 82.5867370031515
66.307297 82.84296002824117
67.271698 83.08713222376579
68.250198 83.32025121255839
69.242897 83.58131980340097
70.250099 83.79333200344587
71.271896 83.96329866572366
72.308601 84.16521077674903
73.360298 84.36406223413837
74.427399 84.5568616506479
75.509903 84.74461027262038
76.608299 84.92530542827888
77.722603 85.0999323119143
78.853104 85.26851305418532
80.0 85.43003315100904
81.163597 85.59948968536497
82.3442 85.75389475488068
83.541901 85.88923529597099
84.757 86.00251244395488
85.989899 86.12473895015091
87.240601 86.23789312322721
88.509598 86.33999038761205
89.797 86.43102365721583
91.103104 86.51099113337281
92.4282 86.57889305648148
93.772598 86.64173260243774
95.136597 86.68550100224304
96.520401 86.71521086296096
97.924301 86.73485047026412
99.348602 86.7454200696545
100.794 86.74391843407835
102.26 86.73335388064825
103.747 86.71471633597584
105.256 86.69001046846358
106.787 86.65522275398229
108.34 86.62037167445231
109.916 86.58244696103884
111.515 86.52944913100009
113.137 86.45837170812324
114.783 86.3672214896048
116.452 86.25699376142607
118.146 86.1366926334767
119.865 86.00730970539632
121.608 85.9028532843598
123.377 85.82231857654108
125.171 85.74270591247931
126.992 85.67200457365836
128.839 85.6072279152944
130.713 85.54336895297087
132.615 85.4664237465997
134.543 85.38740331467658
136.5 85.29929146808324
138.486 85.21009499569627
140.5 85.11081330526727
142.544 85.00544597662937
144.617 84.90599944613571
146.721 84.81945538134633
148.855 84.73882924856427
151.02 84.65810636520987
153.217 84.5863030999952
155.445 84.52340695080552
157.706 84.46541580090526
160.0 84.41333666380255
162.327 84.36716356460529
164.688 84.3209050449718
167.084 84.27154470268269
169.514 84.21009113755484
171.98 84.13953853353755
174.481 84.06790152689172
177.019 83.97916040761744
179.594 83.87632342419721
182.206 83.76939183872311
184.856 83.68536552550803
187.545 83.6312384215551
190.273 83.57900390409294
193.041 83.52867600128072
195.849 83.46825415761397
198.697 83.39172883248446
201.587 83.30710485078288
204.52 83.22136946949934
207.494 83.14553990871923
210.512 83.09260787537943
213.574 83.06157706727241
216.681 83.0404369427027
219.833 83.01819427519975
223.03 82.99385185538073
226.274 82.96240806371735
229.565 82.91485381162968
232.905 82.84319766046988
236.292 82.76743698476369
239.729 82.70057128767795
243.216 82.65059868822007
246.754 82.62752120143793
250.343 82.62934203087276
253.984 82.63505530760443
257.678 82.62566424524333
261.426 82.6011751410966
265.229 82.56457137732232
269.087 82.51686144823525
273.001 82.46704785878651
276.972 82.42413220103369
281.0 82.38011613052812
285.088 82.33098544876891
289.234 82.28276288889992
293.441 82.21442945010699
297.709 82.12399007934442
302.04 82.04444697071557
306.433 81.9778040900884
310.89 81.94406380019495
315.412 81.95421246330108
320.0 81.97326953706528
324.655 81.98021757528608
329.377 81.96307300312405
334.168 81.9148227554266
339.028 81.88148341343205
343.959 81.87304114640092
348.962 81.87350399728811
354.038 81.8738711086757
359.188 81.85414672316547
364.412 81.80032781853777
369.713 81.73141554799777
375.09 81.67641470451014
380.546 81.64432672592383
386.081 81.6581479727438
391.697 81.71887976300175
397.394 81.79152961772735
403.175 81.83710161481491
409.039 81.83058396434471
414.989 81.80799503449691
421.025 81.7943237301797
427.149 81.7985741740599
433.362 81.83175805353395
439.665 81.85786815614883
446.06 81.86790104083336
452.548 81.86387376274075
459.131 81.83677819425097
465.809 81.8296259148391
472.584 81.83739903827859
479.458 81.84321286892182
486.432 81.85702208770424
493.507 81.8590694692927
500.0 81.8590694692927
515.0 81.87993213228481
530.0 81.87875104040617
545.0 81.86205033014726
560.0 81.83861871371664
580.0 81.81212275426775
600.0 81.8068538966297
615.0 81.8242106722482
630.0 81.8632067748977
650.0 81.94272201288102
670.0 82.04274543960268
690.0 82.14979848755502
710.0 82.25047323119878
730.0 82.3362236154553
750.0 82.40535211006622
775.0 82.47810341420004
800.0 82.55615679738688
825.0 82.66029135580214
850.0 82.80021206266848
875.0 82.96844395706353
900.0 83.14488277153075
925.0 83.30627255010921
950.0 83.43542016749004
975.0 83.52748368127277
1000.0 83.59166316310665
1030.0 83.66058880009334
1060.0 83.75715869451938
1090.0 83.90252257780293
1120.0 84.08798959198788
1150.0 84.27850380006069
1180.0 84.42585816384604
1220.0 84.50590068394004
1250.0 84.45523716260958
1280.0 84.30017910448211
1320.0 83.96674666142803
1360.0 83.52740108165905
1400.0 83.01454551428203
1450.0 82.34177255240193
1500.0 81.74272319742883
1550.0 81.29225022603882
1600.0 80.93423464054612
1650.0 80.51747656620316
1700.0 79.9318087007882
1750.0 79.20049323391972
1800.0 78.48457139989443
1850.0 77.99071338218485
1900.0 77.8227670289129
1950.0 77.9192472877117
2000.0 78.17852082135879
2060.0 78.63031924146941
2120.0 79.17374519860284
2180.0 79.692882336753
2240.0 80.07980574261104
2300.0 80.36731261738703
2360.0 80.6521170573404
2430.0 80.9922680246929
2500.0 81.30381947056074
2580.0 81.6877220576815
2650.0 82.0678455423018
2720.0 82.40128851714505
2800.0 82.68199264482857
2900.0 82.9541753284844
3000.0 83.13668006558584
3070.0 83.25553715424023
3150.0 83.41801044281881
3250.0 83.59494296166524
3350.0 83.73931779539359
3450.0 83.88034850379896
3550.0 83.95478509259497
3650.0 83.97732760981944
3750.0 83.96393731740983
3870.0 83.9596303107566
4000.0 84.04660720175153
4120.0 84.20425761185308
4250.0 84.39298465184578
4370.0 84.55003237415745
4500.0 84.35229644138882
4620.0 83.62236018222426
4750.0 82.86489550360841
4870.0 82.77980926371093
5000.0 83.19109805293087
5150.0 83.62121456740299
5300.0 83.89575121837785
5450.0 84.14348793161743
5600.0 84.30575834179346
5800.0 84.36579509438
6000.0 84.38080129801156
6150.0 84.3692545071917
6300.0 84.41415797302811
6500.0 84.66751109834156
6700.0 85.03860830289106
6900.0 85.29516522565432
7100.0 85.4021002374871
7300.0 85.55957505216631
7500.0 85.80458676432383
7750.0 86.05865025596908
8000.0 86.246520935814
8250.0 86.48569879556491
8500.0 86.74808525826565
8750.0 86.84121890595321
9000.0 86.65975934340997
9250.0 86.29906954926706
9500.0 85.89129708636816
9750.0 85.52843133570224
10000.0 85.39117909622284
10300.0 85.57744915441415
10600.0 85.57531873538146
10900.0 85.1246655430776
11200.0 84.77037975598327
11500.0 84.71870334763032
11800.0 84.7040596106478
12200.0 84.52122680700629
12500.0 84.22616323964465
12800.0 83.84615950689333
13200.0 83.38623284736963
13600.0 83.11773743344793
14000.0 83.02034947458816
14500.0 82.91380284927536
15000.0 82.60677166214032
15500.0 82.1644106090354
16000.0 81.80554897918405
16500.0 81.62324794213704
17000.0 81.50212854871926
17500.0 81.32455264682213
18000.0 81.03404542843829
18500.0 80.6626531335632
19000.0 80.21646826431669
19500.0 79.64660067295145
