Freq "Listening Window"
22.4 48.201023431428325
23.0 49.25687346670088
23.6 50.17900455186677
24.0 51.00102343142834
25.0 52.079004551866774
25.8 53.079004551866774
26.5 53.97900455186678
27.2 54.412774491759365
28.0 53.701023431428325
29.0 52.64626604093081
30.0 51.268451108236434
30.7 51.80102343142832
31.5 52.77900455186676
32.5 53.54626604093082
33.5 53.46845110823645
34.5 53.16845110823647
35.5 53.412774491759365
36.5 55.66845110823647
37.5 57.32396706349803
38.7 60.16845110823647
40.0 62.68029051301849
41.2 64.28029051301849
42.5 65.36845110823646
43.7 66.40230289017074
45.0 68.36845110823646
46.2 70.08029051301847
47.5 72.95811305476978
48.7 75.00230289017074
50.0 76.48029051301847
51.5 77.81352244685293
53.0 79.86998063741736
54.5 81.5358749790765
56.0 82.9358749790765
58.0 84.06998063741734
60.0 85.06998063741733
61.5 86.0478034020105
63.0 86.58209117309346
65.0 86.56998063741734
67.0 86.67202043255398
69.0 86.63765274441137
71.0 86.28331839224492
73.0 86.07202043255397
75.0 85.93993898818466
77.5 85.83993898818466
80.0 85.66215631694091
82.5 85.5621563169409
85.0 86.0621563169409
87.5 85.50835717164281
90.0 85.87625356664995
92.5 85.57625356664994
95.0 85.41139495694996
97.5 85.51139495694996
100.0 85.41139495694996
103.0 85.57953268428992
106.0 85.60206038873585
109.0 85.42638765290769
112.0 85.47136216145043
115.0 85.40582600647026
118.0 85.53043075900857
122.0 85.26658008845698
125.0 85.21286524893361
128.0 84.971293123367
132.0 85.17129312336702
136.0 84.97650548930464
140.0 85.14612513345213
145.0 85.17988155742306
150.0 85.2380609998267
155.0 85.17796701580052
160.0 85.20468450104681
165.0 85.48769248551963
170.0 85.54197326051334
175.0 85.42632120466718
180.0 85.37380189225448
185.0 85.45102164502055
190.0 85.7030552518408
195.0 85.94459703092815
200.0 85.99749581658645
206.0 85.79598126737841
212.0 85.29344087864175
218.0 84.76985869270024
224.0 84.57247884324016
230.0 85.23630442898411
236.0 85.15902934269731
240.0 84.90011325203025
250.0 84.68576605960105
258.0 84.73742562293728
265.0 84.85210255617355
272.0 84.57411965538317
280.0 83.95400104175229
290.0 84.08938015339234
300.0 84.22770516149657
307.0 84.19497381141696
315.0 84.12038975086705
325.0 83.93294211110322
335.0 83.81631232246679
345.0 83.769705449006
355.0 83.75117464585341
365.0 83.6216709399464
375.0 83.28772301675409
387.0 82.97587732767381
400.0 82.72109506972666
412.0 82.53475234868152
425.0 82.36066184979425
437.0 82.279960986091
450.0 82.06813264182064
462.0 81.33648110782318
475.0 80.49140394885359
487.0 81.31756779273621
500.0 82.46220166792706
515.0 82.67483101239083
530.0 82.33746210100844
545.0 81.98730190486981
560.0 81.88938362991199
580.0 82.01948787871706
600.0 82.2221662761361
615.0 82.15332718787883
630.0 81.92900161080408
650.0 81.72916244844372
670.0 81.31319823449569
690.0 81.04923680365728
710.0 81.26953144274874
730.0 81.76220849668992
750.0 82.02447943571408
775.0 82.03766349841376
800.0 81.6909356216628
825.0 81.82286192409438
850.0 82.44883536681286
875.0 82.28376351686038
900.0 81.6198554929079
925.0 81.32409716823217
950.0 81.24924076060589
975.0 80.86509324283904
1000.0 80.80100325437745
1030.0 81.13068690744035
1060.0 80.91776513691954
1090.0 79.92315384584143
1120.0 79.5417847622201
1150.0 79.68171875417363
1180.0 79.55226853023147
1220.0 79.29693649365305
1250.0 79.14071995477646
1280.0 79.1087460609394
1320.0 78.93737727811583
1360.0 78.60093695923933
1400.0 78.68574550523518
1450.0 78.83025030533857
1500.0 79.12836897629815
1550.0 78.81740226036511
1600.0 78.80412585091202
1650.0 79.48246582138195
1700.0 79.58301099634446
1750.0 79.80324287355178
1800.0 79.41532587507908
1850.0 78.6289238189875
1900.0 78.09213200242381
1950.0 77.8979536720784
2000.0 78.49758487787437
2060.0 77.74104576398739
2120.0 77.2492000509195
2180.0 78.2839926792028
2240.0 79.09167191327484
2300.0 79.78014305972148
2360.0 80.27565253092538
2400.0 79.77661663313653
2500.0 78.67782265229611
2580.0 76.77046087552435
2650.0 76.03384503310508
2720.0 77.80199222186005
2800.0 77.2590997460993
2900.0 77.0270042781532
3000.0 76.16333346202137
3070.0 73.54735703928962
3150.0 74.13626079963505
3250.0 76.54048764458634
3350.0 78.06747914790922
3450.0 78.76233205731717
3550.0 79.36983000155806
3650.0 79.42186376816527
3750.0 80.07722230500124
3870.0 81.1416624617043
4000.0 81.56105165719791
4120.0 80.79789504435226
4250.0 79.29592945481664
4370.0 77.33247728531154
4500.0 78.33346160856858
4620.0 78.12556872377132
4750.0 77.11712626152905
4870.0 77.76657372648768
5000.0 79.37547289637081
5150.0 80.22380063825564
5300.0 78.82982818865372
5450.0 77.14501705928981
5600.0 78.33142296107073
5800.0 81.09734011485122
6000.0 81.49523740706269
6150.0 80.99574302540934
6300.0 80.7669261858484
6500.0 80.16593795533096
6700.0 79.72555137066675
6900.0 76.37708356705463
7100.0 71.7385195155608
7300.0 75.5442988466553
7500.0 73.96404819983061
7750.0 73.29982395579844
8000.0 74.67639035868794
8250.0 75.92276268764368
8500.0 76.08307511727395
8750.0 79.54080049168293
9000.0 81.69268914934206
9250.0 83.65242848550163
9500.0 85.0392331638916
9750.0 83.16958368912896
10000.0 83.51091881172349
10300.0 83.34362336258425
10600.0 84.29709959472487
10900.0 84.29534238384628
11200.0 84.1499492662582
11500.0 83.52269414370178
11800.0 82.13662747619006
12200.0 83.02597409943647
12500.0 83.01851706369395
12800.0 82.9019685153649
13200.0 79.8441217873614
13600.0 82.95323811095568
14000.0 81.88376346869057
14500.0 81.4322339200046
15000.0 81.49941929089951
15500.0 79.4576274574759
16000.0 78.26723516624114
16500.0 79.04832371383694
17000.0 76.72924740818927
17500.0 73.98421453501558
18000.0 69.36841500746209
18500.0 67.2534517066588
19000.0 61.9148022728251
19500.0 55.397598438106996
