Freq "Listening Window"
22.4 48.20102343142831
23.0 49.25687346670087
23.6 50.17900455186678
24.0 51.00102343142832
25.0 52.07900455186679
25.8 53.07900455186676
26.5 53.979004551866765
27.2 54.41277449175935
28.0 53.70102343142831
29.0 52.646266040930826
30.0 51.268451108236476
30.7 51.801023431428334
31.5 52.77900455186675
32.5 53.5462660409308
33.5 53.468451108236465
34.5 53.168451108236454
35.5 53.41277449175935
36.5 55.668451108236454
37.5 57.323967063498046
38.7 60.168451108236454
40.0 62.680290513018505
41.2 64.28029051301849
42.5 65.36845110823647
43.7 66.40230289017073
45.0 68.36845110823646
46.2 70.08029051301848
47.5 72.95811305476978
48.7 75.00230289017072
50.0 76.48029051301849
51.5 77.81352244685294
53.0 79.86998063741736
54.5 81.53587497907651
56.0 82.93587497907652
58.0 84.06998063741734
60.0 85.06998063741734
61.5 86.04780340201049
63.0 86.58209117309347
65.0 86.56998063741734
67.0 86.67202043255396
69.0 86.63765274441137
71.0 86.28331839224494
73.0 86.07202043255397
75.0 85.93993898818466
77.5 85.83993898818466
80.0 85.66215631694091
82.5 85.5621563169409
85.0 86.06215631694089
87.5 85.50835717164283
90.0 85.87625356664995
92.5 85.57625356664994
95.0 85.41139495694996
97.5 85.51139495694997
100.0 85.41139495694996
103.0 85.57953268428992
106.0 85.60206038873584
109.0 85.42638765290769
112.0 85.47136216145043
115.0 85.40582600647028
118.0 85.53043075900858
122.0 85.26658008845696
125.0 85.2128652489336
128.0 84.971293123367
132.0 85.17129312336701
136.0 84.97650548930466
140.0 85.14612513345214
145.0 85.17988155742304
150.0 85.23806099982671
155.0 85.17796701580053
160.0 85.20468450104681
165.0 85.48769248551963
170.0 85.54197326051336
175.0 85.42632120466719
180.0 85.37380189225448
185.0 85.45102164502056
190.0 85.70305525184078
195.0 85.94459703092816
200.0 85.99749581658644
206.0 85.79598126737842
212.0 85.29344087864175
218.0 84.76985869270024
224.0 84.57247884324015
230.0 85.2363044289841
236.0 85.15902934269732
240.0 84.90011325203027
250.0 84.68576605960105
258.0 84.7374256229373
265.0 84.85210255617355
272.0 84.57411965538317
280.0 83.95400104175228
290.0 84.08938015339233
300.0 84.22770516149656
307.0 84.19497381141697
315.0 84.12038975086705
325.0 83.9329421111032
335.0 83.81631232246677
345.0 83.769705449006
355.0 83.75117464585342
365.0 83.62167093994638
375.0 83.28772301675407
387.0 82.97587732767383
400.0 82.72109506972667
412.0 82.53475234868151
425.0 82.36066184979424
437.0 82.279960986091
450.0 82.06813264182064
462.0 81.33648110782318
475.0 80.49140394885359
487.0 81.3175677927362
500.0 82.46220166792705
515.0 82.67483101239083
530.0 82.33746210100843
545.0 81.98730190486982
560.0 81.88938362991198
580.0 82.01948787871707
600.0 82.2221662761361
615.0 82.15332718787882
630.0 81.9290016108041
650.0 81.72916244844372
670.0 81.31319823449567
690.0 81.0492368036573
710.0 81.26953144274874
730.0 81.76220849668994
750.0 82.02447943571408
775.0 82.03766349841375
800.0 81.6909356216628
825.0 81.82286192409437
850.0 82.44883536681286
875.0 82.28376351686039
900.0 81.61985549290792
925.0 81.32409716823219
950.0 81.24924076060589
975.0 80.86509324283904
1000.0 80.80100325437743
1030.0 81.13068690744036
1060.0 80.91776513691956
1090.0 79.92315384584144
1120.0 79.54178476222012
1150.0 79.68171875417362
1180.0 79.55226853023149
1220.0 79.29693649365306
1250.0 79.14071995477646
1280.0 79.1087460609394
1320.0 78.93737727811585
1360.0 78.60093695923935
1400.0 78.68574550523519
1450.0 78.83025030533857
1500.0 79.12836897629815
1550.0 78.81740226036513
1600.0 78.80412585091202
1650.0 79.48246582138196
1700.0 79.58301099634444
1750.0 79.80324287355178
1800.0 79.41532587507909
1850.0 78.62892381898749
1900.0 78.09213200242382
1950.0 77.89795367207839
2000.0 78.49758487787439
2060.0 77.7410457639874
2120.0 77.2492000509195
2180.0 78.28399267920278
2240.0 79.09167191327485
2300.0 79.78014305972147
2360.0 80.2756525309254
2400.0 79.77661663313653
2500.0 78.67782265229611
2580.0 76.77046087552435
2650.0 76.03384503310508
2720.0 77.80199222186003
2800.0 77.25909974609928
2900.0 77.02700427815319
3000.0 76.16333346202138
3070.0 73.54735703928961
3150.0 74.13626079963505
3250.0 76.54048764458632
3350.0 78.06747914790921
3450.0 78.76233205731717
3550.0 79.36983000155807
3650.0 79.42186376816525
3750.0 80.07722230500123
3870.0 81.1416624617043
4000.0 81.56105165719792
4120.0 80.79789504435227
4250.0 79.29592945481666
4370.0 77.33247728531155
4500.0 78.33346160856857
4620.0 78.12556872377131
4750.0 77.11712626152904
4870.0 77.76657372648766
5000.0 79.37547289637082
5150.0 80.22380063825565
5300.0 78.82982818865374
5450.0 77.14501705928981
5600.0 78.33142296107073
5800.0 81.09734011485124
6000.0 81.49523740706267
6150.0 80.99574302540934
6300.0 80.76692618584842
6500.0 80.16593795533096
6700.0 79.72555137066676
6900.0 76.37708356705463
7100.0 71.73851951556078
7300.0 75.54429884665531
7500.0 73.96404819983061
7750.0 73.29982395579846
8000.0 74.67639035868793
8250.0 75.92276268764367
8500.0 76.08307511727394
8750.0 79.54080049168293
9000.0 81.69268914934207
9250.0 83.65242848550162
9500.0 85.03923316389161
9750.0 83.16958368912896
10000.0 83.5109188117235
10300.0 83.34362336258425
10600.0 84.29709959472488
10900.0 84.29534238384628
11200.0 84.14994926625822
11500.0 83.52269414370178
11800.0 82.13662747619004
12200.0 83.02597409943645
12500.0 83.01851706369395
12800.0 82.90196851536491
13200.0 79.8441217873614
13600.0 82.9532381109557
14000.0 81.88376346869057
14500.0 81.4322339200046
15000.0 81.49941929089951
15500.0 79.45762745747588
16000.0 78.26723516624115
16500.0 79.04832371383694
17000.0 76.72924740818927
17500.0 73.98421453501558
18000.0 69.3684150074621
18500.0 67.25345170665878
19000.0 61.91480227282511
19500.0 55.39759843810701
