Freq "On Axis"
22.4 48.20000000000002
23.0 49.29999999999998
23.6 50.20000000000002
24.0 51.0
25.0 52.099999999999994
25.8 53.099999999999994
26.5 54.0
27.2 54.400000000000006
28.0 53.70000000000002
29.0 52.70000000000002
30.0 51.29999999999998
30.7 51.79999999999998
31.5 52.79999999999998
32.5 53.599999999999994
33.5 53.5
34.5 53.20000000000002
35.5 53.400000000000006
36.5 55.70000000000002
37.5 57.400000000000006
38.7 60.2
40.0 62.7
41.2 64.30000000000001
42.5 65.4
43.7 66.4
45.0 68.4
46.2 70.1
47.5 73.0
48.7 75.0
50.0 76.5
51.5 77.9
53.0 79.9
54.5 81.6
56.0 83.0
58.0 84.1
60.0 85.1
61.5 86.1
63.0 86.6
65.0 86.6
67.0 86.7
69.0 86.7
71.0 86.4
73.0 86.1
75.0 86.0
77.5 85.9
80.0 85.70000000000002
82.5 85.6
85.0 86.1
87.5 85.6
90.0 86.0
92.5 85.70000000000002
95.0 85.5
97.5 85.6
100.0 85.5
103.0 85.70000000000002
106.0 85.70000000000002
109.0 85.6
112.0 85.6
115.0 85.5
118.0 85.70000000000002
122.0 85.4
125.0 85.4
128.0 85.1
132.0 85.3
136.0 85.1
140.0 85.3
145.0 85.4
150.0 85.4
155.0 85.4
160.0 85.4
165.0 85.79999999999998
170.0 85.79999999999998
175.0 85.70000000000002
180.0 85.6
185.0 85.6
190.0 85.9
195.0 86.1
200.0 86.1
206.0 85.9
212.0 85.4
218.0 84.9
224.0 84.9
230.0 85.70000000000002
236.0 85.5
240.0 85.3
250.0 85.1
258.0 85.2
265.0 85.3
272.0 85.0
280.0 84.30000000000001
290.0 84.4
300.0 84.5
307.0 84.5
315.0 84.4
325.0 84.2
335.0 84.2
345.0 84.2
355.0 84.1
365.0 83.9
375.0 83.5
387.0 83.20000000000002
400.0 82.9
412.0 82.5
425.0 82.1
437.0 82.0
450.0 82.0
462.0 81.4
475.0 80.4
487.0 81.0
500.0 82.19999999999999
515.0 82.4
530.0 82.1
545.0 81.5
560.0 81.2
580.0 81.2
600.0 81.5
615.0 81.80000000000001
630.0 82.0
650.0 81.9
670.0 81.4
690.0 81.1
710.0 81.3
730.0 81.9
750.0 82.19999999999999
775.0 82.1
800.0 81.7
825.0 81.6
850.0 82.1
875.0 81.80000000000001
900.0 80.9
925.0 80.70000000000002
950.0 81.0
975.0 81.0
1000.0 81.1
1030.0 81.4
1060.0 80.5
1090.0 78.1
1120.0 77.4
1150.0 78.6
1180.0 79.1
1220.0 79.4
1250.0 79.5
1280.0 79.5
1320.0 79.30000000000001
1360.0 79.0
1400.0 79.1
1450.0 79.4
1500.0 80.3
1550.0 80.2
1600.0 80.3
1650.0 80.5
1700.0 79.6
1750.0 79.5
1800.0 78.8
1850.0 77.7
1900.0 76.80000000000001
1950.0 76.0
2000.0 77.19999999999999
2060.0 76.6
2120.0 76.6
2180.0 78.9
2240.0 79.9
2300.0 80.6
2360.0 81.0
2400.0 80.4
2500.0 78.4
2580.0 75.9
2650.0 75.9
2720.0 77.4
2800.0 76.1
2900.0 75.3
3000.0 74.69999999999999
3070.0 72.5
3150.0 75.5
3250.0 77.7
3350.0 78.8
3450.0 79.0
3550.0 79.6
3650.0 79.6
3750.0 79.69999999999999
3870.0 79.69999999999999
4000.0 79.4
4120.0 79.6
4250.0 77.7
4370.0 73.29999999999998
4500.0 72.5
4620.0 67.5
4750.0 68.20000000000002
4870.0 74.2
5000.0 77.5
5150.0 80.0
5300.0 80.0
5450.0 78.9
5600.0 79.2
5800.0 82.1
6000.0 82.7
6150.0 82.3
6300.0 81.4
6500.0 80.9
6700.0 80.6
6900.0 77.4
7100.0 72.0
7300.0 67.1
7500.0 63.900000000000006
7750.0 69.9
8000.0 70.6
8250.0 68.4
8500.0 72.5
8750.0 75.6
9000.0 77.8
9250.0 81.1
9500.0 82.0
9750.0 83.9
10000.0 86.5
10300.0 86.7
10600.0 86.1
10900.0 82.1
11200.0 82.4
11500.0 82.0
11800.0 78.6
12200.0 77.9
12500.0 77.5
12800.0 81.4
13200.0 74.1
13600.0 68.29999999999998
14000.0 77.9
14500.0 81.5
15000.0 81.7
15500.0 79.2
16000.0 80.3
16500.0 80.4
17000.0 78.5
17500.0 74.30000000000001
18000.0 70.6
18500.0 68.6
19000.0 65.0
19500.0 58.8
