Freq,On Axis,Listening Window,Sound Power,Early Reflections,Early Reflections DI,Sound Power DI,DI offset
20.5078,58.13747575757577,58.03787751300206,62.53323008381301,60.77259844606897,37.26527906693309,35.50464742918905,40
21.9727,59.334775757575756,59.14752327981853,62.89978251454477,61.340854846878244,37.806668432940285,36.24774076527376,40
23.4375,61.102175757575765,61.01583929221033,65.31114048612376,63.60558508982682,37.41025420238351,35.70469880608657,40
24.9023,62.631575757575774,62.55560381767609,66.64915045771403,65.0020573412843,37.55354647639179,35.90645335996206,40
26.3672,64.67347575757577,64.5948778270639,67.91701677571102,66.5218880692207,38.0729897578432,36.67786105135288,40
27.832,66.01227575757576,65.96598585363984,69.44433242500097,68.00599765019533,37.95998820344451,36.52165342863887,40
29.2969,67.99137575757575,67.94687295756067,70.76588667087445,69.53702882037348,38.40984413718719,37.18098628668622,40
30.7617,69.33087575757577,69.31044815742118,72.14283489641319,70.91258981676641,38.397858340654764,37.167613261007986,40
32.2266,70.97387575757577,70.96295772551929,73.51371008015224,72.38119639689988,38.58176132861941,37.44924764536705,40
33.6914,72.41017575757577,72.41085238112306,74.81497531757715,73.73601732178881,38.67483505933426,37.59587706354591,40
35.1563,73.75757575757576,73.76466742885701,75.97758696726308,74.96902158583612,38.79564584302089,37.78708046159393,40
36.6211,75.05957575757577,75.0735417296273,77.14077619055917,76.1870183678359,38.88652336179139,37.93276553906813,40
38.0859,76.20667575757577,76.22529747046075,78.15068715519283,77.25253644988001,38.972761020580734,38.07461031526792,40
39.5508,77.24147575757576,77.26550214272346,79.10829746003971,78.24357046236764,39.02193168035582,38.157204682683755,40
41.0156,78.26987575757576,78.29851068211046,80.02351206117734,79.20774217915583,39.09076850295463,38.27499862093312,40
42.4805,79.21187575757577,79.2424773093482,80.85610916343214,80.08436207423088,39.15811523511732,38.386368145916066,40
43.9453,79.93167575757577,79.96435581526225,81.48182814878948,80.748919758954,39.21543605630825,38.48252766647278,40
45.4102,80.64457575757577,80.67902746831602,82.10928397534909,81.41246802262111,39.26655944569491,38.569743492966936,40
46.875,81.26817575757576,81.30524032983989,82.64699269380097,81.99262176075523,39.31261856908466,38.65824763603892,40
48.3398,81.74327575757577,81.783948193379,83.10595511306738,82.46064296066324,39.32330523271577,38.67799308031162,40
51.2695,82.65697575757576,82.6983378394884,83.87241668362877,83.28996143690064,39.40837640258776,38.82592115585963,40
52.7344,82.98277575757577,83.02752609261546,84.19327089481658,83.61511893559714,39.41240715701832,38.83425519779888,40
54.1992,83.29637575757577,83.34148326452689,84.44111659694475,83.89257292667101,39.44891033785588,38.900366667582134,40
55.6641,83.62047575757578,83.66436875326008,84.67515704070028,84.16569802493517,39.49867072832491,38.98921171255979,40
58.5938,84.20657575757576,84.24820168357971,85.13658716294123,84.68125508982843,39.56694659375128,39.11161452063848,40
60.0586,84.41177575757578,84.45363236710031,85.30441480548338,84.86537669204546,39.58825567505485,39.149217561616936,40
62.9883,84.71017575757577,84.75384899290896,85.5686492056548,85.14548974414546,39.60835924876349,39.18519978725416,40
64.4531,84.85487575757577,84.8994381271612,85.69780842205361,85.28152464928573,39.617913477875476,39.20162970510759,40
67.3828,85.08647575757578,85.13170817343484,85.88591089745431,85.48910130389419,39.64260686954066,39.245797275980536,40
68.8477,85.14967575757576,85.19530085347165,85.93101395413069,85.54218860013539,39.65311225333626,39.26428689934096,40
71.7773,85.40657575757578,85.45079043452755,86.11435827514721,85.7585574871434,39.69223294738414,39.33643215938034,40
74.707,85.74547575757578,85.78582633499063,86.3311231159052,86.03149634370426,39.75432999128637,39.45470321908543,40
77.6367,85.87207575757577,85.91324875636114,86.43666997861541,86.14724268594775,39.7660060704134,39.47657877774573,40
79.1016,85.89837575757576,85.9389913795508,86.43838945190711,86.15986347254153,39.77912790700927,39.500601927643686,40
82.0313,85.97597575757577,86.01502873612776,86.46784707018233,86.21008937367678,39.80493936245098,39.54718166594543,40
84.9609,86.07217575757576,86.11066021821091,86.53939828158877,86.2914936438511,39.81916657435981,39.571261936622136,40
87.8906,86.11607575757577,86.15213391798765,86.52159139707248,86.30089279928868,39.85124111869898,39.63054252091517,40
90.8203,86.08687575757577,86.12215572791571,86.4654609380753,86.25780925909493,39.864346468820784,39.656694789840415,40
95.2148,86.23927575757577,86.26860043232753,86.47160991271728,86.3319081573036,39.93669227502393,39.79699051961025,40
98.1445,86.23597575757577,86.26576577154651,86.47935308885555,86.3332227797653,39.93254299178122,39.786412682690965,40
101.074,86.23057575757576,86.25958620885352,86.46498408243333,86.32376001874465,39.93582619010887,39.79460212642019,40
105.469,86.10867575757577,86.1309536187558,86.21841196333673,86.13534513213577,39.99560848662003,39.91254165541906,40
108.398,86.22287575757576,86.24271108294658,86.29039763572867,86.2262510323418,40.01646005060478,39.95231344721792,40
112.793,86.27887575757578,86.29975751539311,86.34542019359179,86.28246431132956,40.01729320406355,39.95433732180132,40
117.188,86.26477575757576,86.27693998960937,86.21662538596543,86.20295935543174,40.07398063417763,40.060314603643945,40
120.117,86.24017575757577,86.25101267145118,86.18337437800787,86.17237704182949,40.07863562962169,40.06763829344331,40
124.512,86.26227575757576,86.27247018048703,86.2234629836519,86.20167547453903,40.070794705948,40.049007196835134,40
128.906,86.13507575757576,86.1422119016763,86.05207750619304,86.0493893454053,40.092822556271,40.09013439548326,40
133.301,86.01337575757577,86.01794977488208,85.9086558514068,85.91353899180778,40.1044107830743,40.10929392347528,40
139.16,85.86757575757576,85.86634947039522,85.69199832165549,85.72471800608771,40.14163146430751,40.17435114873973,40
143.555,85.81247575757577,85.80449835583667,85.54536928635842,85.6177944032332,40.186703952603466,40.25912906947825,40
147.949,85.73527575757576,85.72182333082112,85.37556994028752,85.48899860972658,40.232824721094545,40.346253390533604,40
153.809,85.68667575757577,85.66729818504943,85.19354478869039,85.37022305693303,40.297075128116404,40.473753396359044,40
159.668,85.67977575757577,85.65946254780718,85.15521429527784,85.34516826555584,40.31429428225134,40.50424825252934,40
165.527,85.65277575757577,85.63282171846406,85.16630949831438,85.33234457480499,40.300477143659066,40.46651222014968,40
171.387,85.60237575757577,85.5752779801955,85.04849488908513,85.2563536060138,40.31892437418169,40.52678309111036,40
177.246,85.41317575757577,85.38541905564566,84.84471699102794,85.0607933357416,40.32462571990406,40.54070206461772,40
183.105,85.12827575757575,85.08556873764812,84.44195910882019,84.69673788815996,40.38883084948816,40.64360962882793,40
188.965,85.17367575757577,85.1229898382623,84.2363624727555,84.61655872154148,40.50643111672082,40.8866273655068,40
196.289,85.11577575757576,85.06619033141047,84.20100702891236,84.5812333488675,40.48495698254297,40.86518330249811,40
203.613,84.97457575757576,84.91536314270525,83.95790230182887,84.3848693419056,40.53049380079965,40.95746084087638,40
210.938,84.93957575757577,84.87276662439211,83.75597001273476,84.2706675482008,40.60209907619131,41.11679661165735,40
218.262,84.85967575757576,84.79397372930015,83.6352092017749,84.17662730143479,40.61734642786536,41.15876452752525,40
225.586,84.74217575757578,84.66943791625985,83.52341533156506,84.04586167604549,40.62357624021436,41.14602258469479,40
232.91,84.83137575757577,84.75200030977534,83.38094954474795,84.04075124369842,40.71124906607692,41.37105076502739,40
241.699,84.71797575757577,84.64378935946104,83.33897841834401,83.96919343453405,40.67459592492699,41.304810941117026,40
250.488,84.60707575757577,84.51098903448894,82.90770824949969,83.67947993978623,40.83150909470271,41.60328078498925,40
259.277,84.99917575757578,84.92523070810834,83.31991038325592,84.10170878229383,40.82352192581452,41.60532032485243,40
268.066,84.14937575757577,84.0637607624232,82.8319133754508,83.40413933423707,40.65962142818613,41.231847386972404,40
276.855,84.35977575757578,84.26662860620222,82.54509998282639,83.3608716714257,40.90575693477652,41.72152862337583,40
287.109,84.24167575757576,84.14439718198827,82.515738833693,83.31910969383993,40.825287488148334,41.62865834829526,40
297.363,83.96107575757577,83.83283547655434,82.20160463714447,82.98461550042998,40.848219976124355,41.63123083940987,40
307.617,84.39977575757577,84.28950949047228,82.43823139001393,83.37088601880757,40.918623471664716,41.85127810045836,40
319.336,83.81737575757577,83.68250465215073,82.1030269609554,82.88981156843289,40.792693083717836,41.57947769119532,40
329.59,84.05727575757577,83.90456031929916,82.09938234049866,83.0048887933461,40.89967152595307,41.8051779788005,40
341.309,84.04507575757577,83.85544569474834,82.31991836824258,83.04986707692936,40.80557861781898,41.53552732650576,40
353.027,84.67097575757577,84.41307377529102,81.99427469419837,83.1332462440212,41.27982753126983,42.41879908109266,40
366.211,85.35767575757576,85.1226493997733,82.33094277190264,83.6882111353568,41.4344382644165,42.79170662787065,40
379.395,85.99487575757578,85.80799017809409,82.80937416113059,84.30645435992292,41.50153581817116,42.998616016963496,40
392.578,85.32337575757577,85.15575502479754,82.56519071252232,83.84094105581472,41.31481396898282,42.59056431227522,40
405.762,84.89397575757579,84.65458651285087,81.93158755365987,83.21974625052383,41.43484026232704,42.722998959191,40
420.41,85.39957575757578,85.16393269272788,81.74596619076429,83.46479895585327,41.699133736874614,43.41796650196359,40
435.059,85.26897575757577,85.01947713830728,81.62095041061136,83.2627614524654,41.75671568584188,43.39852672769592,40
451.172,85.97377575757577,85.7838356705681,81.79408940034325,83.82705592255665,41.95677974801144,43.98974627022484,40
465.82,85.00367575757576,84.94415088497038,81.81099584756824,83.44878399753017,41.49536688744021,43.13315503740215,40
483.398,84.35247575757577,84.22604694166598,81.73318101205047,83.05707583236558,41.1689711093004,42.49286592961552,40
499.512,85.41897575757577,85.19139571657291,81.7938645383353,83.5103134606984,41.681082255874514,43.397531178237614,40
517.09,85.32197575757579,85.15230809294243,81.87681213961807,83.56234886364263,41.58995922929981,43.275495953324366,40
536.133,86.14327575757576,85.89669879430727,82.14446017132356,83.89912342873114,41.997575365576125,43.75223862298371,40
555.176,86.79397575757577,86.6459982967655,82.90378343364785,84.72214876936566,41.92384952739984,43.74221486311765,40
574.219,86.65127575757577,86.42526275117072,83.39594893934554,84.80612971486171,41.61913303630901,43.029313811825176,40
594.727,87.31197575757577,86.95281605105568,83.21190181519826,84.95890617203263,41.99390987902305,43.74091423585742,40
615.234,87.77517575757577,87.44294449864834,83.07950312524284,85.23083212271645,42.212112375931895,44.36344137340551,40
637.207,87.23687575757577,86.90377326642628,82.86270480144826,84.81205203043302,42.09172123599326,44.041068464978025,40
659.18,87.49207575757578,87.19968957114199,82.52150009263171,84.7240097011761,42.47567986996589,44.678189478510276,40
682.617,87.37517575757579,87.11035874446705,82.59928612922593,84.73820236720331,42.372156377263735,44.51107261524112,40
707.52,87.15017575757577,86.9055523894197,82.65713390595414,84.81896623186984,42.08658615754986,44.24841848346556,40
732.422,87.02547575757578,86.80152379857067,82.42973560887589,84.64404556008225,42.15747823848842,44.37178818969478,40
757.324,87.22027575757576,86.85446690452355,82.36555457084062,84.71717891115088,42.13728799337267,44.48891233368293,40
785.156,87.53997575757577,87.24332044265486,82.3124311431569,84.95737322107354,42.285947221581324,44.93088929949796,40
811.523,87.32597575757578,86.97312788865982,81.97800417696882,84.5150056646675,42.45812222399232,44.995123711690994,40
840.82,87.76057575757577,87.36610339903716,82.04104232499351,84.6336786132484,42.73242478578875,45.325061074043646,40
870.117,87.65297575757577,87.24055686764746,81.77546230069349,84.40221846424625,42.83833840340121,45.465094566953965,40
900.879,87.91957575757579,87.49106157558232,81.69719664370301,84.47953018763899,43.011531387943336,45.79386493187931,40
933.105,87.91357575757577,87.40606469498084,81.39182139394231,84.23889450953548,43.16717018544536,46.01424330103853,40
965.332,87.99527575757577,87.47610410723283,81.27350781773535,84.17838605004393,43.2977180571889,46.20259628949748,40
1000.49,88.05807575757575,87.51218923602462,81.10786329243818,84.01695053926994,43.49523869675468,46.40432594358644,40
1035.64,87.95617575757576,87.3948019119994,80.81373873514255,83.64628774434016,43.74851416765924,46.581063176856844,40
1072.27,87.62157575757576,87.15537980993874,80.59412746439205,83.37282165083029,43.78255815910845,46.56125234554669,40
1108.89,86.96377575757577,86.65401052871024,80.31047512856642,83.00981702995226,43.644193498757986,46.34353540014382,40
1148.44,86.31317575757578,85.87690943962977,79.79661748093885,82.25792961665812,43.61897982297165,46.08029195869092,40
1189.45,85.67847575757577,85.25026955423749,79.41848469254086,81.6372806123822,43.61298894185529,45.83178486169663,40
1230.47,85.87287575757577,85.34053828217854,79.56860292015489,81.8866610037001,43.453877278478444,45.771935362023655,40
1274.41,86.06187575757576,85.55011077017204,79.58743771008183,81.89761250006978,43.65249827010226,45.96267306009021,40
1319.82,86.03767575757577,85.45841018137925,79.47559712020103,81.62049363081512,43.83791655056413,45.98281306117822,40
1366.7,85.35787575757577,85.01197714878104,79.29345646939117,81.2636151100978,43.74836203868324,45.71852067938987,40
1413.57,85.15697575757576,84.68982455784915,79.42195997820815,81.06143864737179,43.62838591047736,45.267864579641,40
1463.38,86.31727575757577,85.64974356723673,79.74174386146507,81.58772125771347,44.06202230952326,45.90799970577166,40
1516.11,86.95817575757577,86.42015871837674,80.12797178672477,82.1976234692133,44.22253524916344,46.29218693165197,40
1568.85,86.60807575757578,86.03680506034593,80.17765114520728,81.92249271597926,44.11431234436667,45.85915391513865,40
1624.51,85.81817575757577,85.42541651770432,80.1208096892245,81.34134435221816,44.08407216548616,45.30460682847982,40
1681.64,85.87697575757576,85.69118497932459,80.04580506799192,81.76058779271992,43.93059718660467,45.64537991133267,40
1741.7,86.76717575757579,86.40781400106397,80.86216285295606,82.70795967122709,43.69985432983688,45.54565114810791,40
1803.22,86.51117575757577,86.22415814324096,81.26187963675352,82.62335292375249,43.600805219488464,44.962278506487436,40
1866.21,86.25387575757577,85.82502005154448,81.27313713702836,82.57981097820786,43.245209073336625,44.55188291451613,40
1932.13,85.92027575757575,85.66984534381955,81.21476604948168,83.18767437527204,42.48217096854751,44.455079294337864,40
1999.51,85.68707575757577,85.45503159787931,81.00197251329595,82.86042341200769,42.59460818587162,44.45305908458336,40
2069.82,85.16597575757577,85.61350521884401,81.41986884763593,83.1722151671353,42.441290051708705,44.193636371208086,40
2143.07,84.62067575757577,85.13066262897769,81.70979706348514,83.25385168268971,41.876810946287975,43.42086556549255,40
2219.24,85.55317575757576,85.8082622261128,81.78599789530453,83.52739478808961,42.28086743802319,44.02226433080827,40
2296.88,84.52517575757577,85.54405955272165,81.6619670063271,83.60441823004068,41.93964132268097,43.882092546394546,40
2378.91,84.39027575757578,85.04324388785012,81.8322985867355,83.5939227790421,41.44932110880802,43.21094530111462,40
2462.4,85.20287575757578,85.79885772205729,82.09743848856772,83.81538235845036,41.98347536360693,43.701419233489574,40
2548.83,84.90097575757576,85.4090039051486,81.77402848034802,83.70931684332685,41.69968706182175,43.63497542480057,40
2639.65,85.77907575757578,86.0027828612678,82.02510015423779,84.05130547169384,41.95147738957397,43.97768270703001,40
2731.93,86.59507575757577,86.55821339630404,82.15506756444265,84.11730822879119,42.44090516751285,44.403145831861394,40
2828.61,86.26307575757576,86.18887926351837,81.64363240131539,84.02702985239888,42.16184941111949,44.54524686220299,40
2928.22,86.77207575757578,86.61212105008839,81.65618026913671,84.23996677761866,42.37215427246973,44.95594078095168,40
3030.76,86.75787575757577,86.62851093810691,81.42636004456455,84.31816121212313,42.310349725983784,45.20215089354237,40
3137.7,86.66807575757576,86.5062427481684,81.09890755778312,84.08415691807565,42.422085830092755,45.40733519038528,40
3249.02,87.17727575757579,86.68520402074876,80.86013826919516,84.00915459822964,42.676049422519114,45.825065751553595,40
3363.28,87.38377575757578,86.75771399224564,80.72665741573252,83.83497468478788,42.92273930745776,46.03105657651312,40
3481.93,87.61257575757577,86.81030728148232,80.7609277202767,83.75752932910427,43.05277795237805,46.049379561205626,40
3604.98,87.86027575757576,86.87587813684189,80.67297798509071,83.52576074226508,43.35011739457681,46.20290015175118,40
3732.42,87.74877575757577,86.63174462205266,80.52329120430397,83.39057701930774,43.24116760274492,46.10845341774869,40
3864.26,88.09097575757576,86.78909904740001,80.3257601356116,83.45746302979553,43.33163601760448,46.46333891178841,40
4000.49,87.88007575757577,86.4516544329673,79.70459468974735,83.18785395410858,43.26380047885873,46.74705974321995,40
4141.11,88.25737575757577,86.60202475238141,79.55515226185919,83.17691966539456,43.42510508698685,47.04687249052222,40
4287.6,87.94627575757578,86.35003674065844,79.13203384378559,82.95743656938612,43.39260017127232,47.21800289687285,40
4438.48,87.76567575757576,86.25439984301306,78.93951562216009,82.82146892657488,43.43293091643818,47.314884220852974,40
4595.21,87.63797575757579,86.17766893871212,78.50299201248576,82.59253468524298,43.585134253469136,47.674676926226354,40
4756.35,87.23337575757577,85.94758044041174,78.13888555004597,82.31176364405593,43.63581679635581,47.80869489036577,40
4924.8,86.65977575757577,85.60993023233809,77.6783198263173,81.99160822422337,43.61832200811472,47.93161040602078,40
5097.66,86.80907575757577,85.78444903457273,77.51611088796712,81.98296029325385,43.80148874131888,48.268338146605615,40
5277.83,86.55557575757575,85.55009462657549,77.19763081660653,81.78620732773416,43.763887298841325,48.35246380996895,40
5463.87,86.25017575757578,85.1463127480612,76.91955426232705,81.53724570714108,43.609067040920124,48.22675848573415,40
5657.23,86.37717575757577,85.02608028655717,76.76212596771043,81.4069612411412,43.61911904541597,48.26395431884674,40
5856.45,86.67787575757576,84.90796523015126,76.5172620200994,81.1893771062137,43.718588123937565,48.39070321005187,40
6062.99,86.68377575757577,84.61901985815254,76.25018767111389,80.85990952456427,43.75911033358827,48.36883218703865,40
6276.86,86.91147575757577,84.72375562804645,76.2954499909579,80.79853967888658,43.92521594915986,48.42830563708854,40
6498.05,87.16687575757577,85.06538359264945,76.65541554423476,81.01151097765475,44.0538726149947,48.4099680484147,40
6726.56,87.06757575757578,85.21723300742954,76.98926088490637,81.1464810825826,44.070751924846945,48.22797212252317,40
6963.87,86.95977575757577,85.14386529895263,77.14229586515293,81.15838719474824,43.98547810420439,48.0015694337997,40
7209.96,86.61567575757577,84.99720428695143,77.19172139337408,81.02260077598307,43.974603510968365,47.80548289357735,40
7464.84,86.11707575757578,84.82715820008269,77.19320961324148,80.89858494801112,43.92857325207157,47.633948586841214,40
7727.05,85.85517575757578,84.86382824336619,77.17998776751202,80.89329718112909,43.9705310622371,47.68384047585417,40
7999.51,85.84027575757577,84.98781267495441,77.10047416728808,80.84903327975434,44.138779395200075,47.88733850766633,40
