Freq "Listening Window"
20.5078 58.36450175542629
21.9727 59.47414752224276
23.4375 61.34246353463456
24.9023 62.88222806010032
26.3672 64.92150206948813
27.832 66.29261009606407
29.2969 68.2734971999849
30.7617 69.63707239984544
32.2266 71.28958196794352
33.6914 72.73747662354728
35.1563 74.09129167128124
36.6211 75.40016597205152
38.0859 76.55192171288496
39.5508 77.59212638514771
41.0156 78.62513492453469
42.4805 79.56910155177243
43.9453 80.29098005768648
45.4102 81.00565171074025
46.875 81.63186457226413
48.3398 82.11057243580323
51.2695 83.02496208191262
52.7344 83.35415033503969
54.1992 83.66810750695112
55.6641 83.99099299568431
58.5938 84.57482592600395
60.0586 84.78025660952454
62.9883 85.08047323533319
64.4531 85.22606236958542
67.3828 85.4583324158591
68.8477 85.52192509589588
71.7773 85.77741467695178
74.707 86.11245057741486
77.6367 86.23987299878537
79.1016 86.26561562197504
82.0313 86.34165297855199
84.9609 86.43728446063514
87.8906 86.47875816041189
90.8203 86.44877997033993
95.2148 86.59522467475175
98.1445 86.59239001397073
101.074 86.58621045127776
105.469 86.45757786118001
108.398 86.56933532537082
112.793 86.62638175781734
117.188 86.60356423203359
120.117 86.57763691387541
124.512 86.59909442291126
128.906 86.46883614410054
133.301 86.34457401730631
139.16 86.19297371281945
143.555 86.1311225982609
147.949 86.04844757324534
153.809 85.99392242747366
159.668 85.98608679023144
165.527 85.95944596088829
171.387 85.90190222261973
177.246 85.71204329806989
183.105 85.41219298007235
188.965 85.44961408068653
196.289 85.3928145738347
203.613 85.2419873851295
210.938 85.19939086681634
218.262 85.12059797172438
225.586 84.99606215868408
232.91 85.07862455219956
241.699 84.97041360188527
250.488 84.83761327691316
259.277 85.25185495053256
268.066 84.39038500484743
276.855 84.59325284862645
287.109 84.4710214244125
297.363 84.15945971897857
307.617 84.61613373289651
319.336 84.00912889457496
329.59 84.23118456172338
341.309 84.18206993717257
353.027 84.73969801771526
366.211 85.44927364219751
379.395 86.13461442051832
392.578 85.48237926722177
405.762 84.98121075527511
420.41 85.49055693515214
435.059 85.34610138073153
451.172 86.11045991299233
465.82 85.27077512739461
483.398 84.55267118409022
499.512 85.51801995899714
517.09 85.47893233536666
536.133 86.22332303673151
555.176 86.97262253918973
574.219 86.75188699359497
594.727 87.27944029347991
615.234 87.76956874107258
637.207 87.23039750885052
659.18 87.52631381356622
682.617 87.4369829868913
707.52 87.23217663184391
732.422 87.1281480409949
757.324 87.18109114694778
785.156 87.56994468507912
811.523 87.29975213108405
840.82 87.6927276414614
870.117 87.56718111007169
900.879 87.81768581800654
933.105 87.73268893740509
965.332 87.80272834965704
1000.49 87.83881347844886
1035.64 87.72142615442363
1072.27 87.48200405236295
1108.89 86.98063477113448
1148.44 86.203533682054
1189.45 85.57689379666172
1230.47 85.66716252460276
1274.41 85.87673501259627
1319.82 85.78503442380348
1366.7 85.33860139120526
1413.57 85.01644880027338
1463.38 85.97636780966096
1516.11 86.74678296080097
1568.85 86.36342930277014
1624.51 85.75204076012855
1681.64 86.01780922174882
1741.7 86.7344382434882
1803.22 86.55078238566519
1866.21 86.15164429396873
1932.13 85.99646958624378
1999.51 85.78165584030356
2069.82 85.94012946126824
2143.07 85.45728687140192
2219.24 86.13488646853702
2296.88 85.87068379514588
2378.91 85.36986813027436
2462.4 86.12548196448151
2548.83 85.73562814757283
2639.65 86.32940710369202
2731.93 86.88483763872827
2828.61 86.5155035059426
2928.22 86.93874529251262
3030.76 86.95513518053114
3137.7 86.83286699059263
3249.02 87.01182826317297
3363.28 87.08433823466987
3481.93 87.13693152390657
3604.98 87.20250237926612
3732.42 86.9583688644769
3864.26 87.11572328982427
4000.49 86.77827867539153
4141.11 86.92864899480564
4287.6 86.67666098308268
4438.48 86.58102408543729
4595.21 86.50429318113635
4756.35 86.27420468283597
4924.8 85.93655447476232
5097.66 86.11107327699696
5277.83 85.87671886899972
5463.87 85.47293699048542
5657.23 85.35270452898142
5856.45 85.2345894725755
6062.99 84.94564410057677
6276.86 85.05037987047066
6498.05 85.39200783507368
6726.56 85.54385724985377
6963.87 85.47048954137685
7209.96 85.32382852937565
7464.84 85.15378244250692
7727.05 85.19045248579042
7999.51 85.31443691737864
8282.23 85.37319042501872
8573.73 85.71430346436384
8876.95 86.06532900687048
9188.96 86.38745781026026
9514.16 86.52173475446726
9849.61 86.50928872420715
10196.8 86.50207448585311
10555.7 86.49280197850062
10927.7 86.39629703735498
11313.0 86.13557367553113
11712.9 85.96688793121564
12126.0 85.99405837538315
12553.7 85.67065051893594
12996.1 84.86122714038417
13454.6 84.07142646849573
13929.2 83.5906355153048
14419.9 83.22242397335438
14928.2 83.07946090352986
15455.6 82.91611005669324
16000.5 82.49608802093591
16564.5 81.84670404554122
17148.9 81.14816683767192
17752.4 80.77056379790544
18379.4 80.49263848713456
19026.9 80.10125571574785
19697.8 79.56617485304568
19999.5 79.37076988200371
