Freq "Ceiling Bounce"
20.5078 65.14583683089703
21.9727 65.18226721326111
23.4375 63.81425483660267
24.9023 64.25002657289313
26.3672 66.34989979750138
27.832 68.41133924477289
29.2969 70.15667165138993
30.7617 72.19088844930008
32.2266 73.51866218012027
33.6914 74.7981571773971
35.1562 75.63044157019984
36.6211 76.83917171805939
38.0859 77.7829204781131
39.5508 78.32693440049515
41.0156 78.86742106535587
42.4805 80.05726807684249
43.9453 80.62125964291553
45.4102 81.17894830586026
46.875 81.59219097194607
48.3398 82.02758267083406
51.2695 82.69864971145645
52.7344 83.03416934098186
54.1992 83.3282868924856
55.6641 83.50956676918221
58.5938 84.0852395896823
60.0586 84.35580613190903
62.9883 84.87032898416899
64.4531 85.03918076373992
67.3828 85.39313628827439
68.8477 85.57658491643762
71.7773 85.84817488190485
74.707 86.14910094356578
77.6367 86.38232332937731
79.1016 86.5067781603993
82.0312 86.58516779314208
84.9609 86.83629186369602
87.8906 86.75604037503591
90.8203 86.97436508238694
95.2148 86.84310904325382
98.1445 86.77851152392391
101.074 86.6923293439503
105.469 86.7895702965182
108.398 86.88806886039528
112.793 86.93778303885868
117.188 86.7925355507746
120.117 86.80623411664315
124.512 86.93317957892633
128.906 86.8019094303284
133.301 86.71067243935887
139.16 86.41410896298689
143.555 86.2018324113116
147.949 85.95703949317338
153.809 85.83510033414153
159.668 85.61677572016336
165.527 85.70986984161244
171.387 85.66354732386866
177.246 85.35711407334612
183.105 84.7768741750091
188.965 84.63163325866786
196.289 85.03526706647668
203.613 84.70117362652118
210.938 84.46760879004528
218.262 84.09966577500099
225.586 84.00513305278655
232.91 84.15617896503936
241.699 84.19258929740664
250.488 83.5727541924507
259.277 84.11009059729021
268.066 84.04376952037912
276.855 83.420588372177
287.109 83.88339724298058
297.363 83.7272103652385
307.617 83.7675277478419
319.336 83.47352454651805
329.59 82.80378764003552
341.309 82.67294124036779
353.027 83.19227753151874
366.211 83.36881174820816
379.395 83.06533546593373
392.578 82.62596968421434
405.762 83.21081994034562
420.41 83.35708869926394
435.059 82.87199885876113
451.172 82.70946285987179
465.82 83.66195733933586
483.398 82.21087027273191
499.512 82.94722635676256
517.09 82.9285319841192
536.133 83.289273678976
555.176 83.06096205525073
574.219 82.67605110631933
594.727 83.28275778898991
615.234 83.71309014331763
637.207 82.3892064220902
659.18 83.4451148461128
682.617 83.66684938128266
707.52 83.10473026768501
732.422 83.73266586597083
757.324 83.97938504282321
785.156 84.27231420160814
811.523 86.80089829250424
840.82 88.70439565370519
870.117 81.49425643902164
900.879 88.20590657950139
933.105 87.6568299938974
965.332 86.36083156687577
1000.49 86.39617340132047
1035.64 85.06135329149154
1072.27 86.15427308802623
1108.89 85.72630665204777
1148.44 87.18335541927252
1189.45 87.55912504240546
1230.47 87.4399662344136
1274.41 89.564137616993
1319.82 87.66357343786785
1366.7 87.78515001578364
1413.57 87.9646893489396
1463.38 87.5704917355923
1516.11 88.1652717124536
1568.85 87.52777589242987
1624.51 87.575636514443
1681.64 86.56531162049008
1741.7 87.25768286525587
1803.22 87.47531505297447
1866.21 87.8427355469138
1932.13 87.30038502421543
1999.51 86.39295173600806
2069.82 85.32347281823927
2143.07 83.76674935849897
2219.24 82.5833924484113
2296.88 80.37604645251152
2378.91 77.46423973916755
2462.4 76.17052295346262
2548.83 75.09594966219643
2639.65 77.679199205443
2731.93 78.89499776057328
2828.61 80.36224549708787
2928.22 81.05948497010344
3030.76 82.07495746076184
3137.7 83.01679623505187
3249.02 83.81235215026123
3363.28 84.02874350152351
3481.93 84.44948213227414
3604.98 84.75302697576687
3732.42 85.5383066841561
3864.26 85.38044901199832
4000.49 85.43431610353726
4141.11 85.45708317368461
4287.6 85.2205515877076
4438.48 85.14908158235339
4595.21 85.39288185318905
4756.35 85.51679565258799
4924.8 85.27234926040555
5097.66 85.37582181800151
5277.83 85.24925106967136
5463.87 85.17251093811369
5657.23 84.38014697075054
5856.45 84.22655474147183
6062.99 84.1309096037186
6276.86 84.14792047506059
6498.05 84.04362023224085
6726.56 83.5328226105825
6963.87 83.23552310932789
7209.96 82.38107230768449
7464.84 81.8126247768625
7727.05 81.68603163933265
7999.51 81.51613852747751
8282.23 81.17632652925774
8573.73 80.6087902002679
8876.95 80.12205295446975
9188.96 80.09297504978127
9514.16 80.15122646652792
9849.61 81.01384433302775
10196.8 81.56665206773083
10555.7 81.87221206693867
10927.7 81.71879826245919
11313.0 80.94962634263725
11712.9 80.71473190653217
12126.0 80.66045844665517
12553.7 80.80750215720873
12996.1 80.59747930194591
13454.6 79.68423541557148
13929.2 78.58902570030659
14419.9 76.68709084310615
14928.2 73.87815426628224
15455.6 72.24284359621619
16000.5 70.57023867755512
16564.5 70.09114917754009
17148.9 71.4544294176561
17752.4 74.14804216083569
18379.4 74.93131905854696
19026.9 73.62168430553434
19697.8 71.59406321117986
19999.5 70.26531268374002
