Freq "Sound Power"
20.0 21.85631205663796
20.2909 22.472993275049276
20.586 23.081364958320705
20.8855 23.70084824119124
21.1893 24.405907480958746
21.4975 25.180599299296574
21.8102 25.95788587817046
22.1274 26.66363432246743
22.4492 27.23566743832876
22.7758 27.650567626384458
23.1071 27.94102656665649
23.4432 28.19633282907185
23.7841 28.532033929387893
24.1301 28.993757211237295
24.4811 29.51860440362367
24.8372 30.00497831100043
25.1984 30.381070186843402
25.5649 30.65228379353428
25.9368 30.913761185527022
26.3141 31.310114681568876
26.6968 31.93707476005335
27.0851 32.7487331987422
27.4791 33.599981600160504
27.8788 34.3407984859802
28.2843 34.91566478660246
28.6957 35.34943350222656
29.1131 35.72181151560454
29.5365 36.135568229459125
29.9661 36.664219944969574
30.402 37.31693263734965
30.8442 38.03964814450589
31.2929 38.7519527894633
31.748 39.41377793612148
32.2098 40.021005209501794
32.6783 40.58577212057625
33.1536 41.12728422492452
33.6359 41.65405553077912
34.1251 42.17244050164567
34.6215 42.69954950438358
35.125 43.2629384348173
35.6359 43.87769277779145
36.1543 44.51332666847813
36.6802 45.12889831466565
37.2137 45.70855213823155
37.755 46.28099771700727
38.3041 46.87277062364467
38.8613 47.481356468503535
39.4265 48.0833092527467
40.0 48.67083275393425
40.5818 49.25589651012852
41.1721 49.845621523411396
41.771 50.42711844973937
42.3785 50.996116935603936
42.9949 51.570319724417885
43.6203 52.15390837021256
44.2548 52.72732278931852
44.8985 53.279596624860886
45.5515 53.83530994767837
46.2141 54.40767328892764
46.8863 54.96207926946623
47.5683 55.47372550617082
48.2602 55.979886086991684
48.9621 56.50533281388152
49.6743 57.02701162414206
50.3968 57.51505895822467
51.1299 57.98387560410514
51.8736 58.45408372124216
52.6281 58.91521074906986
53.3936 59.358617082418476
54.1702 59.78795345169385
54.9581 60.20464425808564
55.7575 60.60541382732259
56.5685 60.989839209148286
57.3914 61.35262496976296
58.2261 61.68802332967161
59.073 62.00431098828294
59.9323 62.30481605229822
60.804 62.575085374513776
61.6884 62.82522165007211
62.5857 63.06870764512283
63.496 63.28034876384197
64.4196 63.44687712193267
65.3566 63.595231005230616
66.3073 63.74468651683938
67.2717 63.87114647318067
68.2502 63.98257989716055
69.2429 64.13541168180194
70.2501 64.25526521000336
71.2719 64.34698414530482
72.3086 64.54850506080332
73.3603 64.66021967512864
74.4274 64.67562780600244
75.5099 64.7596962953022
76.6083 64.82104266619497
77.7226 64.90809622520948
78.8531 64.99369566648747
80.0 65.07455359677837
81.1636 65.1525066162933
82.3442 65.22181010124723
83.5419 65.27378840675577
84.757 65.32345633446513
85.9899 65.38887561435723
87.2406 65.42791657719737
88.5096 65.4639586976668
89.797 65.48761712474904
91.1031 65.49486067232803
92.4282 65.50088885708274
93.7726 65.52083875167466
95.1366 65.54873890785402
96.5204 65.59237652850206
97.9243 65.65869740191616
99.3486 65.74189621288713
100.794 65.8191245041419
102.26 65.90304086829795
103.747 65.98417664028236
105.256 66.07731173176512
106.787 66.13245220531388
108.34 66.17168195366942
109.916 66.21629825320055
111.515 66.28291854584083
113.137 66.3554436380503
114.783 66.41220444136364
116.452 66.46390841272051
118.146 66.50976781964543
119.865 66.55137643986521
121.608 66.6124843107842
123.377 66.68562346769097
125.171 66.76545037745687
126.992 66.83064479999379
128.839 66.89901145178013
130.713 66.96598823456644
132.615 67.03729246767763
134.543 67.10894021699686
136.5 67.18733923103059
138.486 67.25758967062106
140.5 67.33702883183952
142.544 67.40723032883452
144.617 67.39713210103413
146.721 67.41873646455691
148.855 67.50192363316643
151.02 67.58296321794163
153.217 67.60302389471902
155.445 67.5159894229149
157.706 67.46263853620728
160.0 67.54954909018109
162.327 67.66146891431899
164.688 67.74984324242547
167.084 67.88563673488991
169.514 67.9336621058246
171.98 67.67242239857512
174.481 67.63936425082419
177.019 67.62966017801203
179.594 67.5294045688094
182.206 67.5096687512615
184.856 67.53145617230138
187.545 67.52849789932176
190.273 67.45439876452699
193.041 67.4479070487465
195.849 67.49736567495445
198.697 67.58937661483414
201.587 67.54858322420287
204.52 67.57631423043803
207.494 67.60717807804343
210.512 67.58188666250423
213.574 67.43160431753466
216.681 67.37019338433247
219.833 67.47458402084092
223.03 67.54082495312882
226.274 67.53044023067743
229.565 67.42567213673601
232.905 67.40956158899833
236.292 67.41937439795383
239.729 67.50126695548227
243.216 67.52471069603672
246.754 67.47207020746205
250.343 67.48842791041857
253.984 67.43451406412996
257.678 67.37994525999099
261.426 67.21804534071589
265.229 67.14412965404063
269.087 67.20016081162379
273.001 67.25325596907435
276.972 67.182117952165
281.0 67.1346703963995
285.088 67.17699908902996
289.234 67.33845986048144
293.441 67.43640874431875
297.709 67.18574255339624
302.04 67.2622174478769
306.433 66.93116111530632
310.89 66.8276668940737
315.412 66.65938866137466
320.0 66.67281812827221
324.655 66.59931694283235
329.377 66.69488345105779
334.168 66.83901582717093
339.028 66.61892295978627
343.959 66.52797869861983
348.962 66.51738843821671
354.038 66.281606001192
359.188 66.19652895189063
364.412 66.21739345766727
369.713 66.1713287562853
375.09 66.12129022371504
380.546 66.00711653374168
386.081 66.01824014286477
391.697 65.83992173075654
397.394 65.74700373834999
403.175 65.85684478974268
409.039 65.79429440255352
414.989 65.75455181569106
421.025 65.67943017044655
427.149 65.55780030105363
433.362 65.57037023384179
439.665 65.58301992447767
446.06 65.50913344010996
452.548 65.50688164842563
459.131 65.53883073790449
465.809 65.61300032596601
472.584 65.61695587376042
479.458 65.54911885523711
486.432 65.65713389686796
493.507 65.6741076026329
500.686 65.62838127190018
507.968 65.65472667982843
515.357 65.61972158378036
522.853 65.60629008336984
530.458 65.58395568762464
538.174 65.5190544844852
546.002 65.45286749999391
553.943 65.38134015221206
562.001 65.29129367758583
570.175 65.21137703477879
578.469 65.1237609199556
586.883 65.00588090099981
595.419 64.89956387053337
604.08 64.80719202421677
612.866 64.70798456669111
621.78 64.6196490549056
630.824 64.54139397836242
640.0 64.47821987234381
649.309 64.43027442889161
658.753 64.39542829498275
668.335 64.3741677722642
678.056 64.36729833453012
687.919 64.37343201892884
697.925 64.3888134090692
708.077 64.41328736241243
718.376 64.44426908371365
728.825 64.47949664186893
739.426 64.51712744463785
750.181 64.55436848774184
761.093 64.59136703299515
772.163 64.6256027323724
783.394 64.6563669776886
794.789 64.68373478263112
806.349 64.70709135670583
818.078 64.7260540476467
829.977 64.74082408799651
842.05 64.75292381019382
854.298 64.76234652702229
866.724 64.76932408410771
879.33 64.77518485469984
892.12 64.7795804885072
905.097 64.78353037826088
918.262 64.78746229137357
931.618 64.78940971414075
945.169 64.78968005613598
958.917 64.78552326523399
972.864 64.77695622440251
987.015 64.7602340725111
1001.37 64.72837615095847
1015.94 64.68529509996605
1030.71 64.62978889944385
1045.71 64.55822253273098
1060.92 64.47250954038537
1076.35 64.37620478097291
1092.0 64.27355699455983
1107.89 64.16946730192771
1124.0 64.07355717343384
1140.35 63.99495258459302
1156.94 63.94136567449567
1173.77 63.921302713141486
1190.84 63.93516112114865
1208.16 63.98127983155203
1225.73 64.05354184306317
1243.56 64.14197277651829
1261.65 64.2329310490778
1280.0 64.31144229688329
1298.62 64.36553316277687
1317.51 64.38306048548876
1336.67 64.35564845067285
1356.11 64.27755333706108
1375.84 64.14670609573609
1395.85 63.965765846411244
1416.15 63.74603821773849
1436.75 63.502765395138255
1457.65 63.257198368785666
1478.85 63.034567660736045
1500.36 62.86370717884839
1522.19 62.76049747935187
1544.33 62.729987452550915
1566.79 62.75958429204641
1589.58 62.82419283026839
1612.7 62.89281318875197
1636.16 62.93946408780779
1659.95 62.94740999285406
1684.1 62.911283910118016
1708.6 62.83951800327074
1733.45 62.74787123668388
1758.66 62.65560004336521
1784.24 62.57784625960048
1810.19 62.52224144634053
1836.52 62.48163645751458
1863.24 62.44384447036556
1890.34 62.39335861129902
1917.83 62.320166274074836
1945.73 62.22276734937111
1974.03 62.10955142526808
2002.74 61.99528080772889
2031.87 61.89826264002548
2061.43 61.83319073834397
2091.41 61.80787669956298
2121.83 61.81725900770863
2152.69 61.84446040318899
2184.01 61.86517352282584
2215.77 61.856169225317544
2248.0 61.80234857192342
2280.7 61.70482408991849
2313.87 61.57429030254475
2347.53 61.425463546932946
2381.68 61.26694999324681
2416.32 61.0932890149472
2451.46 60.89469446888823
2487.12 60.66892704245947
2523.3 60.43494994109109
2560.0 60.22879683625588
2597.24 60.088018003767615
2635.01 60.02427550646483
2673.34 60.0239039420712
2712.23 60.05112840691736
2751.68 60.070141607774445
2791.7 60.0618497130108
2832.31 60.03339373824842
2873.5 60.015806227086
2915.3 60.031897918555046
2957.7 60.06401211193349
3000.72 60.05426995148369
3044.37 59.96001038503057
3088.65 59.81258173148714
3133.58 59.70785435973647
3179.16 59.7081114959678
3225.4 59.762750941862166
3272.31 59.77727718279232
3319.91 59.74218624553272
3368.2 59.739525935538694
3417.19 59.81001936580083
3466.89 59.88196284595445
3517.32 59.90186008405934
3568.48 59.95540888456594
3620.39 60.151155462017044
3673.05 60.412449967168214
3726.47 60.54950515380396
3780.67 60.52066112145849
3835.67 60.48065698888924
3891.46 60.54427150103251
3948.06 60.623500359385034
4005.49 60.63333765043883
4063.75 60.67873930662839
4122.86 60.853702973132016
4182.82 61.03692447535035
4243.66 61.10961411719968
4305.39 61.18098036089091
4368.01 61.352912675422246
4431.55 61.48771983199802
4496.01 61.5084343423118
4561.4 61.59773551461487
4627.75 61.79300718171602
4695.06 61.88936974614994
4763.35 61.966456200304705
4832.64 62.23791426020166
4902.93 62.4682170701757
4974.24 62.45783033164696
5046.6 62.501753440461655
5120.0 62.705744991737475
5194.47 62.84038473356806
5270.03 62.913398630368334
5346.68 62.87666790567738
5424.45 62.65164951353995
5503.35 62.52074914721551
5583.4 62.42198438613069
5664.61 62.139465782672914
5747.01 62.07400218658313
5830.6 62.18190577020178
5915.41 62.191515046546215
6001.45 62.280186268687444
6088.74 62.22883304662302
6177.3 62.18823007638028
6267.15 62.33628456023732
6358.31 62.373845672577616
6450.8 62.58034601556193
6544.62 62.7498287134963
6639.82 62.84145661169566
6736.4 62.96080431860676
6834.38 62.892233197724366
6933.79 62.89337789856427
7034.64 62.57287157018837
7136.96 62.224851528917185
7240.77 61.95054645010903
7346.09 61.67648617722203
7452.94 61.64878150184438
7561.35 61.668672355117565
7671.33 61.96611672065448
7782.91 62.203039402695
7896.12 62.5533536863164
8010.97 62.629199336650984
8127.49 62.788232617492426
8245.71 62.71456580940179
8365.65 62.66069980222473
8487.33 62.419971734442996
8610.78 62.216556129749875
8736.03 61.87634129047868
8863.09 61.54619259316857
8992.01 61.238558268256924
9122.8 61.051082064239125
9255.5 61.07636527102598
9390.12 61.06472540131885
9526.7 61.10098891426445
9665.27 61.04522449575863
9805.86 61.03983605174449
9948.49 61.08808364234065
10093.2 61.037968156037635
10240.0 61.00068768961036
10388.9 60.95517789241518
10540.1 60.92515907906842
10693.4 61.05893475091946
10848.9 61.236428294963574
11006.7 61.41870187880973
11166.8 61.57076524558531
11329.2 61.55393008758932
11494.0 61.48927084918313
11661.2 61.45927101803761
11830.8 61.45407194811838
12002.9 61.34907091645729
12177.5 61.19589178183544
12354.6 60.996825026861245
12534.3 60.789324182072335
12716.6 60.61898579882663
12901.6 60.50797797413384
13089.2 60.29971246040378
13279.6 60.05121296407253
13472.8 59.78302299667547
13668.8 59.631589388223546
13867.6 59.495565414843924
14069.3 59.35779623879594
14273.9 59.200389545288516
14481.5 58.99274602205182
14692.2 58.79524697760867
14905.9 58.65332274885958
15122.7 58.471457495398155
15342.7 58.151715296215215
15565.8 57.748998197957235
15792.2 57.372805443646456
16021.9 57.153465876121786
16255.0 57.00315885333589
16491.4 56.699115778513786
16731.3 56.25711216452795
16974.7 55.845070269338876
17221.6 55.568061589300015
17472.1 55.33573414272111
17726.2 55.032849115498934
17984.0 54.65101432890732
18245.6 54.300696362945516
18511.0 53.967507852742074
18780.2 53.60067796550224
19053.4 53.28896356608615
19330.5 53.04987536845218
19611.7 52.855626680026816
19897.0 52.582303626161774
