Freq "Sound Power"
20.0 21.400664257895812
20.2909 22.017345476307156
20.586 22.625717159578556
20.8855 23.245200442449118
21.1893 23.950259682216597
21.4975 24.724951500554425
21.8102 25.50223807942831
22.1274 26.207986523725282
22.4492 26.78001963958664
22.7758 27.19491982764231
23.1071 27.48537876791434
23.4432 27.74068503032973
23.7841 28.076386130645744
24.1301 28.538109412495146
24.4811 29.06295660488155
24.8372 29.54933051225828
25.1984 29.925422388101254
25.5649 30.19663599479216
25.9368 30.458113386784902
26.3141 30.854466882826756
26.6968 31.48142696131123
27.0851 32.29308540000008
27.4791 33.144333801418384
27.8788 33.88515068723808
28.2843 34.46001698786034
28.6957 34.89378570348441
29.1131 35.266163716862394
29.5365 35.679920430716976
29.9661 36.20857214622745
30.402 36.8612848386075
30.8442 37.58400034576374
31.2929 38.29630499072118
31.748 38.95813013737936
32.2098 39.565357410759674
32.6783 40.1301243218341
33.1536 40.671636426182374
33.6359 41.19840773203697
34.1251 41.71679270290352
34.6215 42.243901705641434
35.125 42.80729063607515
35.6359 43.42204497904933
36.1543 44.05767886973601
36.6802 44.67325051592351
37.2137 45.25290433948942
37.755 45.82534991826515
38.3041 46.41712282490252
38.8613 47.0257086697614
39.4265 47.62766145400457
40.0 48.215184955192115
40.5818 48.80024871138639
41.1721 49.38997372466926
41.771 49.97147065099723
42.3785 50.54046913686179
42.9949 51.11467192567574
43.6203 51.69826057147043
44.2548 52.271674990576386
44.8985 52.823948826118766
45.5515 53.379662148936234
46.2141 53.95202549018549
46.8863 54.506431470724095
47.5683 55.01807770742869
48.2602 55.52423828824956
48.9621 56.049685015139374
49.6743 56.57136382539993
50.3968 57.059411159482536
51.1299 57.52822780536302
51.8736 57.99843592250002
52.6281 58.45956295032774
53.3936 58.902969283676356
54.1702 59.33230565295172
54.9581 59.74899645934349
55.7575 60.14976602858046
56.5685 60.53419141040615
57.3914 60.89697717102082
58.2261 61.232375530929474
59.073 61.548663189540804
59.9323 61.84916825355609
60.804 62.11943757577164
61.6884 62.36957385132999
62.5857 62.61305984638071
63.496 62.82470096509982
64.4196 62.99122932319054
65.3566 63.13958320648848
66.3073 63.289038718097245
67.2717 63.41549867443854
68.2502 63.52693209841841
69.2429 63.679763883059806
70.2501 63.79961741126124
71.2719 63.891336346562696
72.3086 64.09285726206119
73.3603 64.20457187638652
74.4274 64.21998000726032
75.5099 64.30404849656006
76.6083 64.36539486745284
77.7226 64.45244842646734
78.8531 64.53804786774532
80.0 64.61890579803622
81.1636 64.69685881755116
82.3442 64.7661623025051
83.5419 64.81814060801364
84.757 64.86780853572299
85.9899 64.93322781561511
87.2406 64.97226877845523
88.5096 65.00831089892466
89.797 65.03196932600692
91.1031 65.0392128735859
92.4282 65.04524105834062
93.7726 65.06519095293253
95.1366 65.0930911091119
96.5204 65.13672872975994
97.9243 65.20304960317402
99.3486 65.28624841414498
100.794 65.36347670539976
102.26 65.44739306955582
103.747 65.52852884154021
105.256 65.62166393302297
106.787 65.67680440657175
108.34 65.71603415492729
109.916 65.76065045445841
111.515 65.8272707470987
113.137 65.89979583930817
114.783 65.9565566426215
116.452 66.0082606139784
118.146 66.0541200209033
119.865 66.09572864112307
121.608 66.15683651204206
123.377 66.22997566894884
125.171 66.30980257871474
126.992 66.37499700125166
128.839 66.44336365303799
130.713 66.5103404358243
132.615 66.58164466893551
134.543 66.65329241825472
136.5 66.73169143228846
138.486 66.80194187187894
140.5 66.88138103309738
142.544 66.95158253009238
144.617 66.94148430229201
146.721 66.96308866581478
148.855 67.04627583442429
151.02 67.12731541919949
153.217 67.1473760959769
155.445 67.06034162417276
157.706 67.00699073746515
160.0 67.09390129143897
162.327 67.20582111557685
164.688 67.29419544368332
167.084 67.4299889361478
169.514 67.47801430708247
171.98 67.216774599833
174.481 67.18371645208205
177.019 67.1740123792699
179.594 67.07375677006726
182.206 67.05402095251937
184.856 67.07580837355924
187.545 67.07285010057963
190.273 66.99875096578485
193.041 66.99225925000438
195.849 67.04171787621232
198.697 67.133728816092
201.587 67.09293542546074
204.52 67.1206664316959
207.494 67.15153027930131
210.512 67.1262388637621
213.574 66.97595651879254
216.681 66.91454558559033
219.833 67.0189362220988
223.03 67.08517715438668
226.274 67.0747924319353
229.565 66.97002433799388
232.905 66.9539137902562
236.292 66.96372659921171
239.729 67.04561915674012
243.216 67.06906289729459
246.754 67.0164224087199
250.343 67.03278011167643
253.984 66.97886626538784
257.678 66.92429746124886
261.426 66.76239754197374
265.229 66.68848185529849
269.087 66.74451301288164
273.001 66.79760817033221
276.972 66.72647015342288
281.0 66.67902259765737
285.088 66.72135129028783
289.234 66.8828120617393
293.441 66.98076094557663
297.709 66.7300947546541
302.04 66.80656964913477
306.433 66.4755133165642
310.89 66.37201909533157
315.412 66.20374086263253
320.0 66.21717032953006
324.655 66.14366914409021
329.377 66.23923565231564
334.168 66.38336802842878
339.028 66.16327516104414
343.959 66.0723308998777
348.962 66.06174063947458
354.038 65.82595820244987
359.188 65.7408811531485
364.412 65.76174565892515
369.713 65.71568095754316
375.09 65.6656424249729
380.546 65.55146873499955
386.081 65.56259234412263
391.697 65.38427393201441
397.394 65.29135593960787
403.175 65.40119699100055
409.039 65.33864660381138
414.989 65.29890401694891
421.025 65.22378237170442
427.149 65.1021525023115
433.362 65.11472243509965
439.665 65.12737212573553
446.06 65.05348564136781
452.548 65.05123384968348
459.131 65.08318293916237
465.809 65.15735252722388
472.584 65.16130807501828
479.458 65.09347105649496
486.432 65.20148609812583
493.507 65.21845980389077
500.686 65.17273347315805
507.968 65.1990788810863
515.357 65.16407378503823
522.853 65.15064228462772
530.458 65.1283078888825
538.174 65.06340668574306
546.002 64.9972197012518
553.943 64.92569235346991
562.001 64.83564587884369
570.175 64.75572923603664
578.469 64.66811312121347
586.883 64.55023310225768
595.419 64.44391607179124
604.08 64.35154422547464
612.866 64.25233676794898
621.78 64.16400125616346
630.824 64.08574617962029
640.0 64.02257207360168
649.309 63.97462663014947
658.753 63.939780496240616
668.335 63.91851997352205
678.056 63.911650535787984
687.919 63.917784220186704
697.925 63.93316561032705
708.077 63.9576395636703
718.376 63.988621284971515
728.825 64.02384884312681
739.426 64.0614796458957
750.181 64.0987206889997
761.093 64.135719234253
772.163 64.16995493363027
783.394 64.20071917894646
794.789 64.22808698388897
806.349 64.25144355796368
818.078 64.27040624890456
829.977 64.28517628925438
842.05 64.29727601145169
854.298 64.30669872828015
866.724 64.31367628536557
879.33 64.31953705595771
892.12 64.32393268976506
905.097 64.32788257951874
918.262 64.33181449263145
931.618 64.33376191539861
945.169 64.33403225739383
958.917 64.32987546649187
972.864 64.32130842566038
987.015 64.30458627376898
1001.37 64.27272835221633
1015.94 64.22964730122392
1030.71 64.17414110070172
1045.71 64.10257473398885
1060.92 64.01686174164324
1076.35 63.92055698223079
1092.0 63.817909195817705
1107.89 63.71381950318556
1124.0 63.61790937469172
1140.35 63.5393047858509
1156.94 63.48571787575352
1173.77 63.46565491439935
1190.84 63.47951332240652
1208.16 63.525632032809895
1225.73 63.59789404432105
1243.56 63.68632497777615
1261.65 63.77728325033567
1280.0 63.85579449814115
1298.62 63.909885364034736
1317.51 63.92741268674661
1336.67 63.900000651930725
1356.11 63.821905538318944
1375.84 63.69105829699396
1395.85 63.51011804766911
1416.15 63.29039041899637
1436.75 63.04711759639612
1457.65 62.80155057004353
1478.85 62.57891986199391
1500.36 62.40805938010624
1522.19 62.30484968060975
1544.33 62.27433965380878
1566.79 62.30393649330428
1589.58 62.36854503152625
1612.7 62.43716539000984
1636.16 62.48381628906566
1659.95 62.49176219411193
1684.1 62.455636111375895
1708.6 62.383870204528606
1733.45 62.29222343794174
1758.66 62.19995224462308
1784.24 62.12219846085834
1810.19 62.066593647598395
1836.52 62.02598865877246
1863.24 61.98819667162343
1890.34 61.9377108125569
1917.83 61.86451847533269
1945.73 61.767119550628976
1974.03 61.65390362652593
2002.74 61.539633008986755
2031.87 61.442614841283344
2061.43 61.37754293960184
2091.41 61.35222890082085
2121.83 61.361611208966494
2152.69 61.388812604446855
2184.01 61.40952572408371
2215.77 61.40052142657541
2248.0 61.34670077318128
2280.7 61.24917629117637
2313.87 61.11864250380262
2347.53 60.96981574819081
2381.68 60.81130219450468
2416.32 60.63764121620507
2451.46 60.43904667014611
2487.12 60.213279243717324
2523.3 59.979302142348956
2560.0 59.77314903751376
2597.24 59.632370205025495
2635.01 59.5686277077227
2673.34 59.56825614332905
2712.23 59.59548060817522
2751.68 59.61449380903231
2791.7 59.60620191426867
2832.31 59.577745939506286
2873.5 59.56015842834387
2915.3 59.57625011981291
2957.7 59.60836431319136
3000.72 59.598622152741555
3044.37 59.50436258628844
3088.65 59.35693393274501
3133.58 59.252206560994324
3179.16 59.252463697225664
3225.4 59.30710314312003
3272.31 59.32162938405017
3319.91 59.2865384467906
3368.2 59.283878136796574
3417.19 59.35437156705869
3466.89 59.42631504721231
3517.32 59.446212285317216
3568.48 59.499761085823806
3620.39 59.69550766327491
3673.05 59.956802168426094
3726.47 60.09385735506183
3780.67 60.06501332271637
3835.67 60.0250091901471
3891.46 60.08862370229038
3948.06 60.1678525606429
4005.49 60.1776898516967
4063.75 60.22309150788625
4122.86 60.39805517438988
4182.82 60.58127667660821
4243.66 60.65396631845756
4305.39 60.72533256214879
4368.01 60.89726487668011
4431.55 61.03207203325587
4496.01 61.05278654356965
4561.4 61.14208771587272
4627.75 61.3373593829739
4695.06 61.43372194740782
4763.35 61.51080840156257
4832.64 61.78226646145954
4902.93 62.01256927143356
4974.24 62.002182532904826
5046.6 62.04610564171952
5120.0 62.25009719299534
5194.47 62.38473693482592
5270.03 62.457750831626186
5346.68 62.42102010693526
5424.45 62.196001714797816
5503.35 62.06510134847339
5583.4 61.966336587388554
5664.61 61.683817983930766
5747.01 61.61835438784101
5830.6 61.726257971459646
5915.41 61.735867247804066
6001.45 61.82453846994531
6088.74 61.77318524788089
6177.3 61.73258227763816
6267.15 61.88063676149517
6358.31 61.91819787383548
6450.8 62.12469821681978
6544.62 62.29418091475418
6639.82 62.38580881295354
6736.4 62.50515651986461
6834.38 62.436585398982245
6933.79 62.43773009982212
7034.64 62.117223771446234
7136.96 61.76920373017505
7240.77 61.494898651366896
7346.09 61.2208383784799
7452.94 61.193133703102234
7561.35 61.21302455637543
7671.33 61.51046892191235
7782.91 61.74739160395286
7896.12 62.097705887574264
8010.97 62.17355153790885
8127.49 62.33258481875029
8245.71 62.258918010659656
8365.65 62.20505200348259
8487.33 61.96432393570086
8610.78 61.76090833100773
8736.03 61.42069349173653
8863.09 61.090544794426435
8992.01 60.7829104695148
9122.8 60.59543426549699
9255.5 60.62071747228384
9390.12 60.60907760257673
9526.7 60.645341115522314
9665.27 60.5895766970165
9805.86 60.58418825300235
9948.49 60.632435843598515
10093.2 60.5823203572955
10240.0 60.545039890868225
10388.9 60.499530093673044
10540.1 60.46951128032629
10693.4 60.60328695217733
10848.9 60.78078049622144
11006.7 60.96305408006759
11166.8 61.11511744684317
11329.2 61.09828228884719
11494.0 61.033623050440994
11661.2 61.00362321929548
11830.8 60.99842414937625
12002.9 60.89342311771516
12177.5 60.74024398309331
12354.6 60.541177228119096
12534.3 60.333676383330186
12716.6 60.163338000084494
12901.6 60.05233017539169
13089.2 59.84406466166166
13279.6 59.5955651653304
13472.8 59.327375197933335
13668.8 59.1759415894814
13867.6 59.039917616101775
14069.3 58.90214844005382
14273.9 58.74474174654637
14481.5 58.537098223309684
14692.2 58.339599178866536
14905.9 58.19767495011746
15122.7 58.01580969665602
15342.7 57.696067497473095
15565.8 57.293350399215115
15792.2 56.91715764490431
16021.9 56.69781807737965
16255.0 56.54751105459377
16491.4 56.24346797977165
16731.3 55.80146436578582
16974.7 55.38942247059674
17221.6 55.11241379055788
17472.1 54.880086343978974
17726.2 54.5772013167568
17984.0 54.19536653016519
18245.6 53.84504856420338
18511.0 53.51186005399995
18780.2 53.14503016676011
19053.4 52.83331576734402
19330.5 52.59422756971004
19611.7 52.39997888128468
19897.0 52.126655827419626
