Freq,On Axis,Listening Window,Sound Power,Early Reflections,Early Reflections DI,Sound Power DI,DI offset
20.5078125,67.68801508219481,67.05723243397792,68.14510650709815,67.46425109124343,39.59298134273449,38.91212592687977,40
23.4375,69.00304958130377,68.45598775967207,69.4400175860379,68.81695587461918,39.63903188505289,39.01597017363417,40
26.3671875,70.29535856479424,69.8774290037305,70.7003257879566,70.16815223685005,39.70927676688045,39.1771032157739,40
29.296875,71.54022888139384,71.26375083683213,71.90874690180136,71.47862232167185,39.78512851516028,39.355003935030766,40
32.2265625,72.70868581094854,72.56307477896905,73.04212052673279,72.70879171847017,39.85428306049889,39.520954252236265,40
35.15625,73.78494759624502,73.75072907483137,74.0874411776309,73.8383571948312,39.912371880000165,39.663287897200476,40
38.0859375,74.76333841899923,74.81964897465295,75.03992584239715,74.8605934991497,39.95905547550325,39.779723132255796,40
41.015625,75.64283138514959,75.77006778009087,75.89863026449213,75.77476696415965,39.995300815931216,39.87143751559874,40
43.9453125,76.42591616756792,76.60674142314429,76.66571366675525,76.58424699403476,40.02249442910953,39.94102775638903,40
46.875,77.11836071223784,77.33807040870406,77.34638567759168,77.29594758766343,40.04212282104062,39.99168473111237,40
49.8046875,77.72783143856543,77.97423399130103,77.94769501640168,77.91868732036124,40.05554667093979,40.02653897489935,40
52.734375,78.26271119765951,78.52578389071367,78.47744450148637,78.46187460373278,40.06390928698089,40.048339389227294,40
55.6640625,78.73165095716367,78.99167551074687,78.90247028309159,78.90940993611727,40.0822655746296,40.089205227655285,40
58.59375,79.14339837236956,79.3976686561144,79.27189279374458,79.2992718990097,40.09839675710471,40.12577586236982,40
61.5234375,79.50643646431136,79.75440282329976,79.59549575349226,79.6425844887822,40.11181833451755,40.1589070698075,40
64.453125,79.82877651779394,80.069790335578,79.88003718955406,79.94697682697795,40.12281350860006,40.189753146023946,40
67.3828125,80.11760911801146,80.34980860250914,80.1301455571991,80.21741859413547,40.132390008373676,40.21966304531004,40
70.3125,80.37885824635002,80.59909309126111,80.3491118767189,80.457085820042,40.142007271219114,40.24998121454222,40
73.2421875,80.61687569135992,80.82136004480867,80.53942670208735,80.66811084871256,40.15324919609611,40.28193334272132,40
76.171875,80.83452673619252,81.01977164482442,80.70335773512997,80.85235543380689,40.167416211017525,40.31641390969445,40
79.1015625,81.03355125458506,81.19701285965994,80.84326806157732,81.01182358367615,40.18518927598379,40.353744798082616,40
82.03125,81.21504024351763,81.35512348509833,80.96151899293059,81.14863463747538,40.20648884762295,40.39360449216774,40
84.9609375,81.37992025043923,81.49549710478944,81.06031729696389,81.2649300516652,40.23056705312423,40.43517980782555,40
87.890625,81.52922726867322,81.61919867017798,81.14174442984529,81.36292378835361,40.25627488182437,40.47745424033269,40
90.8203125,81.66408582175467,81.72719330649178,81.20773412869818,81.444865023833,40.28232828265878,40.51945917779361,40
93.75,81.78557135857244,81.8206172862306,81.26004097661647,81.51298375694545,40.307633529285155,40.560576309614135,40
96.6796875,81.8946800984607,81.90106270249223,81.30035255690677,81.56952397903751,40.33153872345471,40.60071014558545,40
99.609375,81.99228374380316,81.97058286752926,81.33032947779476,81.61663261006176,40.3539502574675,40.6402533897345,40
102.5390625,82.07391422370642,82.02748411057999,81.34800359443823,81.6526510600073,40.37483305057269,40.679480516141766,40
105.46875,82.15066436595073,82.08085729242086,81.36058194505674,81.68465382749913,40.396203464921726,40.72027534736412,40
108.3984375,82.21736510195166,82.12691259212484,81.36450464176177,81.70894707385315,40.417965518271686,40.76240795036307,40
111.328125,82.27455688301501,82.16573714515368,81.35976268888312,81.7252221412147,40.440515003938984,40.80597445627056,40
114.2578125,82.32317108894264,82.19735646843479,81.34674138939917,81.7335339744437,40.46382249399109,40.85061507903562,40
117.1875,82.36454412462706,82.22204983320594,81.32646513462498,81.73462995134787,40.487419881858074,40.89558469858096,40
120.1171875,82.40027928305777,82.24045572072913,81.30050056487688,81.72988934817752,40.51056637255161,40.939955155852246,40
123.046875,82.4319843922477,82.25353680923587,81.27064509859403,81.72101050051302,40.53252630872285,40.98289171064184,40
125.9765625,82.46097538817004,82.26247278878155,81.23852844630092,81.70958580508965,40.552886983691906,41.02394434248063,40
128.90625,82.48808181526157,82.26856908094243,81.2052944810533,81.69677051206297,40.57179856887946,41.06327459988913,40
131.8359375,82.5135869643568,82.27312151190006,81.17143609299204,81.6831289572651,40.58999255463496,41.10168541890802,40
134.765625,82.53727779923584,82.27726464709042,81.13684155981707,81.66869719436241,40.60856745272801,41.14042308727335,40
137.6953125,82.55870960611688,82.28185113286385,81.10101873728011,81.6532387549106,40.628612377953246,41.180832395583735,40
140.625,82.57746247607555,82.28735122059764,81.06340871037409,81.63653380396326,40.65081741663438,41.22394251022355,40
143.5546875,82.59334503779357,82.2937783971125,81.0236512237028,81.61859570576269,40.67518269134982,41.270127173409705,40
146.484375,82.60652848490416,82.30076953870899,80.9817595450979,81.59973357984663,40.70103595886236,41.31900999361109,40
149.4140625,82.61748654545887,82.30773303217597,80.93821530167524,81.58053718615304,40.72719584602294,41.36951773050073,40
152.34375,82.6269601982789,82.31415046261941,80.89396990482904,81.56178759587027,40.75236286674914,41.420180557790374,40
155.2734375,82.63580400375999,82.31980890939863,80.85033787026767,81.54434683238944,40.775462077009195,41.469471039130966,40
158.203125,82.64491945459625,82.32493900250198,80.80876902220332,81.52903602170672,40.79590298079526,41.516169980298656,40
161.1328125,82.65513039351553,82.3301875573095,80.77054995875827,81.51652647236511,40.813661084944385,41.559637598551234,40
164.0625,82.6671223449062,82.33644841231798,80.73652156050025,81.50726509667552,40.82918331564245,41.59992685181773,40
166.9921875,82.6813080262039,82.34462142532313,80.70691622432084,81.50144605985763,40.8431753654655,41.63770520100229,40
169.921875,82.69779096193734,82.35547238836209,80.68140685208347,81.4990660579014,40.856406330460686,41.67406553627862,40
172.8515625,82.71632628249225,82.3695058257764,80.65931237575995,81.49997113961184,40.869534686164556,41.71019345001645,40
175.78125,82.73642039478368,82.38696436546877,80.63987974739541,81.50391241694278,40.88305194852599,41.74708461807336,40
178.7109375,82.75744324714739,82.4077581662506,80.622485302401,81.51051637980399,40.897241786446614,41.7852728638496,40
181.640625,82.77875799116,82.43138807940537,80.60665906609073,81.51921178113082,40.912176298274545,41.82472901331464,40
184.5703125,82.79977649106414,82.45684773150126,80.5919403253788,81.52913015919911,40.92771757230214,41.864907406122455,40
187.5,82.81997317990547,82.48259150354802,80.57763106175452,81.53904044998129,40.943551053566736,41.904960441793506,40
190.4296875,82.83880152777391,82.50666988315024,80.56262661367649,81.54740682000612,40.95926306314412,41.94404326947375,40
193.359375,82.85564467538994,82.52700389739636,80.54541331997648,81.55254077699419,40.97446312040216,41.98159057741988,40
196.2890625,82.86979053754487,82.54179213182334,80.5242651429393,81.5528386553464,40.98895347647694,42.01752698888404,40
199.21875,82.88055014401714,82.54987349294403,80.49758158548894,81.54702846329191,41.00284502965212,42.052291907455086,40
202.1484375,82.88741384366237,82.55097739585227,80.46428664406113,81.53441270547782,41.01656469037445,42.08669075179114,40
205.078125,82.89021708812382,82.54577568351144,80.4241575950261,81.51503568164554,41.030740001865894,42.121618088485334,40
208.0078125,82.88924331804598,82.53573117629773,80.37800812817528,81.48976722505658,41.04596395124115,42.15772304812245,40
210.9375,82.88524855461993,82.5228234210478,80.32765275722534,81.4602804557389,41.06254296530891,42.195170663822466,40
213.8671875,82.87931787959734,82.50923601558189,80.27565297750405,81.42888879480513,41.08034722077676,42.23358303807784,40
216.796875,82.87274406465986,82.49709017555759,80.22489341630522,81.39825223145974,41.09883794409785,42.27219675925237,40
219.7265625,82.8668008545906,82.48822184954837,80.17808735081017,81.37099784942482,41.11722400012354,42.31013449873819,40
222.65625,82.86263016980203,82.48403548756276,80.13737578399224,81.34931774444317,41.134717743119595,42.34665970357052,40
225.5859375,82.86113305618775,82.48537732280603,80.10409052884847,81.33465181363275,41.150725509173284,42.38128679395756,40
228.515625,82.8628994866491,82.4924394659606,80.07874876597738,81.32751307171706,41.16492639424354,42.41369069998322,40
231.4453125,82.86817460252387,82.50470598709987,80.06120092683496,81.32750476379809,41.17720122330178,42.44350506026491,40
234.375,82.87684890106377,82.52103382016783,80.05086346143007,81.333516479396,41.187517340771834,42.47017035873776,40
237.3046875,82.88846201818566,82.53984286049254,80.04692035491315,81.34402129547777,41.19582156501477,42.492922505579386,40
240.234375,82.9022714030026,82.55944939213013,80.04844807451332,81.35739862586658,41.202050766263554,42.51100131761682,40
243.1640625,82.9173881763783,82.57837924106475,80.05445415673299,81.37217936564528,41.20619987541947,42.523925084331765,40
246.09375,82.93293950245909,82.59560227241562,80.06386835638995,81.38718434807757,41.20841792433805,42.53173391602567,40
249.0234375,82.94824242314546,82.61056962786807,80.07552428689891,81.40154445096329,41.20902517690479,42.53504534096916,40
251.953125,82.96297456685045,82.62306563905709,80.08816942860439,81.41464275655457,41.20842288250252,42.5348962104527,40
254.8828125,82.97721626795453,82.63301403170368,80.10054092055637,81.42605778251036,41.206956249193325,42.53247311114731,40
257.8125,82.99144389700086,82.64033344697194,80.11152991288358,81.43558042971355,41.20475301725838,42.528803534088354,40
260.7421875,83.00630963178519,82.64495752566752,80.12038142343303,81.4432768160445,41.20168070962302,42.52457610223449,40
263.671875,83.02244948567908,82.64700732679998,80.1269010551946,81.44958649735273,41.19742082944725,42.520106271605385,40
266.6015625,83.04023392587565,82.64703693967962,80.1315543691357,81.45536369349036,41.19167324618927,42.515482570543924,40
269.53125,83.05968563007187,82.64621802157004,80.13542479657073,81.46182212808307,41.184395893486965,42.510793224999304,40
272.4609375,83.08058753053501,82.6463445546853,80.13996808013718,81.47036426168677,41.17598029299853,42.50637647454812,40
275.390625,83.10273709161041,82.64964438769388,80.14665915271767,81.48237107455594,41.16727331313794,42.50298523497621,40
278.3203125,83.12629525530743,82.65845224911301,80.15666629311303,81.49905590191499,41.159396347198026,42.50178595599998,40
281.25,83.15199489580698,82.6748356505945,80.17064453353497,81.52136735846915,41.15346829212535,42.504191117059534,40
284.1796875,83.18105270386788,82.70022293576018,80.18868115158492,81.5499267801636,41.15029615559658,42.511541784175265,40
287.109375,83.2148514514022,82.73515438273738,80.21043430870756,81.58497828824109,41.15017609449629,42.524720074029815,40
290.0390625,83.25448591268724,82.7793281153426,80.23547926895225,81.62650103394057,41.15282708140202,42.54384884639035,40
292.96875,83.30036943386337,82.8317946450681,80.26359968736449,81.67424496493337,41.157549680134736,42.56819495770361,40
295.8984375,83.351835699993,82.89094856622458,80.29467418821875,81.72740707870535,41.163541487519225,42.59627437800583,40
298.828125,83.40686601329885,82.95423839682559,80.32820755105911,81.78406152715618,41.170176869669405,42.62603084576648,40
301.7578125,83.462455445105,83.01830802861704,80.36310671718283,81.84119833246137,41.17710969615567,42.65520131143421,40
304.6875,83.5391357498448,83.1075507345836,80.41489752529128,81.91994737293953,41.187603361644065,42.69265320929232,40
307.6171875,83.56118583470096,83.13369731832175,80.4314630215267,81.9427621294384,41.190935188883344,42.702234296795055,40
310.546875,83.6063775580584,83.18710422385357,80.46542769533934,81.98958392791187,41.1975202959417,42.72167652851422,40
313.4765625,83.64783863709545,83.23630582484809,80.4986376862667,82.03257632731327,41.20372949753482,42.737668138581384,40
316.40625,83.68614304803761,83.28135860235113,80.53083846056002,82.07192173512388,41.209436867227254,42.750520141791114,40
319.3359375,83.72189706161221,83.3222151626277,80.5615374649849,82.10761334109527,41.214601821532426,42.760677697642805,40
322.265625,83.75550088730604,83.35857967363414,80.5899372564385,82.13929087343672,41.21928880019742,42.768642417195636,40
325.1953125,83.78707189159695,83.39009705630662,80.61507256160084,82.16639898558199,41.22369807072462,42.775024494705775,40
328.125,83.81652032108349,83.41659007925549,80.6359846461448,82.1884137573179,41.22817632193758,42.78060543311068,40
331.0546875,83.84356176834419,83.43818073646418,80.65187137461768,82.20498606773157,41.23319466873261,42.78630936184649,40
333.984375,83.86786521231542,83.45535194767513,80.66223811098288,82.21607692638509,41.23927502129004,42.79311383669224,40
336.9140625,83.88925971047135,83.46900643984884,80.66708734544076,82.22212840319237,41.24687803665647,42.80191909440808,40
339.84375,83.90789996356662,83.4805023681425,80.66704616118406,82.22419490300074,41.25630746514176,42.813456206958435,40
342.7734375,83.92438502786763,83.49154579701533,80.66336291630861,82.22391132290163,41.267634474113706,42.82818288070672,40
345.703125,83.93968326350691,83.50399522824227,80.65774840926275,82.22329868740337,41.2806965408389,42.84624681897952,40
348.6328125,83.95498480613936,83.51959931506053,80.65212013747168,82.22447613445175,41.29512318060878,42.86747917758885,40
351.5625,83.97148134803729,83.5397855636099,80.64832168926962,82.22936285753087,41.310422706079024,42.891463874340275,40
354.4921875,83.99015207146198,83.565443616803,80.64780966841879,82.2393485288404,41.3260950879626,42.91763394838421,40
357.421875,84.01157108534326,83.59680716947601,80.65146151724674,82.25511078029785,41.34169638917815,42.945345652229264,40
360.3515625,84.03581867167638,83.63341617424936,80.65947862591108,82.27651450158177,41.35690167266759,42.973937548338284,40
363.28125,84.0624927926312,83.67420381163123,80.67145198352215,82.30270614550967,41.371497666121556,43.00275182810908,40
366.2109375,84.09077902739921,83.71764843909152,80.68652513231171,82.33230684338706,41.38534159570446,43.031123306779804,40
369.140625,84.11964049713835,83.76200129688485,80.70363211529349,82.3636896920864,41.39831160479845,43.05836918159136,40
372.0703125,84.14801097415699,83.8055292057968,80.72173716012406,82.39526754378089,41.41026166201591,43.08379204567274,40
375.0,84.1749986624166,83.84671930331514,80.73999837117688,82.4257070837723,41.421012219542845,43.10672093213826,40
377.9296875,84.20001316041741,83.88440780334291,80.7578163807685,82.45401851291408,41.430389290428835,43.12659142257441,40
380.859375,84.22279131842296,83.91782507759268,80.77479135977042,82.47954865938075,41.43827641821193,43.14303371782226,40
383.7890625,84.24334859824637,83.94658048564503,80.79060322855702,82.50188987350202,41.444690612143006,43.15597725708801,40
386.71875,84.26186364665918,83.97057902490121,80.80488752476518,82.52076016978455,41.44981885511666,43.165691500136035,40
389.6484375,84.27852311011307,83.98994562521958,80.81717487112066,82.53593109685785,41.454014528361725,43.17277075409892,40
392.578125,84.29341893915222,84.00496860689798,80.82691550598197,82.54722499981396,41.45774360708401,43.178053100916,40
395.5078125,84.30657237657428,84.01608081276169,80.8335953286932,82.55457609203316,41.46150472072853,43.18248548406848,40
398.4375,84.31796538300809,84.0238417584615,80.8368897461074,82.55812478782849,41.46571697063301,43.1869520123541,40
401.3671875,84.32763866855551,84.0289116074752,80.83678986528517,82.55828025660325,41.47063135087194,43.192121742190025,40
404.296875,84.33576540481651,84.03204058193973,80.83365720063956,82.55573018730949,41.47631039463023,43.19838338130016,40
407.2265625,84.34266452704645,84.03395463206449,80.82816159514195,82.55135770115763,41.482596930906865,43.20579303692254,40
410.15625,84.34872673621815,84.03530534089123,80.82112787271929,82.54610427872427,41.489201062166956,43.21417746817194,40
413.0859375,84.35430440280577,84.03653937078215,80.8133393916008,82.5408037414889,41.49573562929325,43.223199979181345,40
416.015625,84.35958500497328,84.0378576999145,80.80535354089413,82.53603046077632,41.50182723913818,43.232504159020365,40
418.9453125,84.36449963844487,84.03919640195261,80.79740422112029,82.53202489346369,41.50717150848892,43.24179218083232,40
421.875,84.36871991124409,84.04023991413759,80.7893886374058,82.52867101763161,41.51156889650598,43.25085127673178,40
424.8046875,84.37170596364726,84.04052375251351,80.78096022490541,82.52558427126907,41.51493948124444,43.259563527608094,40
427.734375,84.3728230290861,84.03953377152432,80.77168055836583,82.52223131620771,41.51730245531661,43.26785321315849,40
430.6640625,84.37147526365833,84.03683962753959,80.76117721087434,82.51808568419699,41.5187539433426,43.275662416665256,40
433.59375,84.36725509729797,84.03221046467193,80.74926382151227,82.51276029644583,41.5194501682261,43.28294664315966,40
436.5234375,84.35996550802115,84.0256667070741,80.73597964807922,82.50607370640157,41.51959300067253,43.28968705899487,40
439.453125,84.34970029310922,84.01748248898292,80.72154405430854,82.49804506337689,41.51943742560603,43.29593843467438,40
442.3828125,84.33676721750376,84.00810900702729,80.70624923499756,82.48881088815486,41.51929811887243,43.30185977202973,40
445.3125,84.32163420884609,83.99803653999071,80.69031782334694,82.47850062617803,41.519535913812675,43.30771871664376,40
448.2421875,84.30483534806667,83.9876767219617,80.67378874616941,82.46712273033614,41.52055399162556,43.3138879757923,40
451.171875,84.28690606596355,83.9772416200706,80.65645570601693,82.45448981944575,41.522751800624846,43.32078591405367,40
454.1015625,84.2683116774261,83.9667014733772,80.63788751486932,82.44022180256216,41.526479670815036,43.32881395850788,40
457.03125,84.24944301759665,83.95581009043902,80.61750276529526,82.42381216920911,41.5319979212299,43.33830732514376,40
459.9609375,84.23057072897635,83.94416658011568,80.59467303953807,82.40473405265246,41.53943252746322,43.34949354057761,40
462.890625,84.21188193214206,83.93131160014447,80.56882168471705,82.3825264191449,41.54878518099957,43.36248991542742,40
465.8203125,84.19343684352602,83.91678848653913,80.53948081108902,82.35686047181653,41.5599280147226,43.37730767545011,40
468.75,84.17518793379486,83.90017495036099,80.50630053178591,82.32752893563817,41.57264601472282,43.39387441857508,40
471.6796875,84.1569505601248,83.88107756648692,80.46903488671413,82.29442499182792,41.586652574659,43.412042679772796,40
474.609375,84.13842882639469,83.85909411050987,80.42751219421052,82.25748630597832,41.601607804531554,43.43158191629935,40
477.5390625,84.11917845558764,83.83381883592433,80.38163901855663,82.21668665118585,41.61713218473848,43.45217981736771,40
480.46875,84.09867844406273,83.80481352155971,80.33140690390562,82.17201946131921,41.6327940602405,43.47340661765409,40
483.3984375,84.07634875671798,83.77168185017614,80.27696925902364,82.12357515854472,41.64810669163141,43.49471259115249,40
486.328125,84.05163965051733,83.73413428315911,80.21869086482174,82.07159112059003,41.66254316256908,43.51544341833737,40
489.2578125,84.024066915307,83.69208054263869,80.15718152590736,82.01650539522262,41.67557514741607,43.53489901673133,40
492.1875,83.99330047976646,83.64567464288899,80.09327590346226,81.95895576143786,41.68671888145113,43.552398739426735,40
495.1171875,83.95921886028754,83.59537373314714,80.02801045416899,81.89978758641917,41.695586146727976,43.56736327897815,40
