Freq "Estimated In-Room Response"
20.5078 50.57256882198156
21.9727 51.919878614393085
23.4375 54.065499113103655
24.9023 58.04083111247387
26.3672 60.95468799958972
27.832 62.93779802437017
29.2969 65.46932853391986
30.7617 67.73854392502945
32.2266 70.34920584544747
33.6914 72.78515404033445
35.1562 75.17898884688357
36.6211 77.30069560216053
38.0859 78.9167194090369
39.5508 79.83052294631693
41.0156 80.14986605632211
42.4805 80.18063071903005
43.9453 80.07913027302887
45.4102 80.31583197477327
46.875 80.16623798438016
48.3398 80.10472217309918
51.2695 80.09571694344329
52.7344 80.12568927115029
54.1992 80.18394990116737
55.6641 80.31258345898165
58.5938 80.60960641877769
60.0586 80.80393891215434
62.9883 81.16308054119366
64.4531 81.3615280797464
67.3828 81.78032775400021
68.8477 81.97296203228395
71.7773 82.36978822837509
74.707 82.86342614426393
77.6367 83.2220830896247
79.1016 83.43007278036683
82.0312 83.727928705286
84.9609 84.03063367040569
87.8906 84.35381291836245
90.8203 84.7825646586654
95.2148 85.14969482821483
98.1445 85.43853666739402
101.074 85.66336746043972
105.469 85.79605374400276
108.398 85.89855391976555
112.793 85.88121388462191
117.188 85.68080663768772
120.117 85.79852628176432
124.512 85.96768367692617
128.906 85.76065796078868
133.301 85.47369126616539
139.16 85.25202169858208
143.555 85.1528462299849
147.949 85.45697020106357
153.809 85.46877009534117
159.668 85.04701738366231
165.527 84.86200727576828
171.387 84.78736631946869
177.246 84.83474809033792
183.105 84.78986354998237
188.965 84.89371790179972
196.289 84.84231379934786
203.613 84.85026992175632
210.938 84.66553964323987
218.262 84.73901611085695
225.586 84.35116267115525
232.91 84.04993152462508
241.699 83.96668091583213
250.488 85.41131890676492
259.277 84.81437322940148
268.066 84.80181325750104
276.855 84.63140716090108
287.109 83.96059130157109
297.363 83.84035515291569
307.617 83.35281940692529
319.336 83.51490695804054
329.59 83.905598680258
341.309 83.74352001788725
353.027 83.64991293570746
366.211 83.60847329630468
379.395 83.754532707368
392.578 84.59006746219667
405.762 84.09692359437422
420.41 84.01190651680658
435.059 83.34621815525364
451.172 82.35182950536255
465.82 83.28694635286887
483.398 83.57004902625654
499.512 83.7198926869642
517.09 82.841718568518
536.133 83.00056713419815
555.176 83.28344239405136
574.219 82.83352516583906
594.727 83.10550835793234
615.234 83.36304465739946
637.207 83.64738725504806
659.18 83.88629052482155
682.617 83.30816221480352
707.52 83.16527479392077
732.422 83.07645958455038
757.324 83.80543018468836
785.156 83.69436714079352
811.523 83.22303397231623
840.82 83.85168439201321
870.117 83.89164444551378
900.879 82.89886450616888
933.105 82.31523480165295
965.332 82.34604597749674
1000.49 82.16602247574453
1035.64 81.51060063787736
1072.27 81.74374075265179
1108.89 81.8006592899798
1148.44 81.30732537073459
1189.45 81.18570471249225
1230.47 81.46138345867188
1274.41 81.23380106651025
1319.82 81.86580670440974
1366.7 81.9554526059586
1413.57 82.25224172305302
1463.38 82.49589494959035
1516.11 82.26808091224079
1568.85 82.03299382286421
1624.51 81.98515472194997
1681.64 82.39053287859893
1741.7 82.42905702630124
1803.22 82.56221193388357
1866.21 82.17125500308508
1932.13 81.99746047460775
1999.51 81.76261131481378
2069.82 81.52610978352743
2143.07 81.10940343050198
2219.24 80.87668033084898
2296.88 81.53557889986045
2378.91 81.41873722855901
2462.4 81.019062555748
2548.83 81.1760004496035
2639.65 81.77962980232694
2731.93 81.75366299286057
2828.61 81.56616398230263
2928.22 81.16441443738866
3030.76 81.31143553280724
3137.7 81.52888667729668
3249.02 80.7599186123937
3363.28 81.01554066401194
3481.93 80.9756799981127
3604.98 80.72960073457038
3732.42 80.77641434851311
3864.26 80.49784778202311
4000.49 80.81737448506179
4141.11 80.71511609607961
4287.6 80.4097256763029
4438.48 80.80371706260745
4595.21 80.33995859508093
4756.35 80.48537223148743
4924.8 80.30640448696865
5097.66 80.52148356987048
5277.83 80.37225354897161
5463.87 80.51970280193434
5657.23 80.39766109005964
5856.45 80.37736092121253
6062.99 80.50584654266599
6276.86 80.49864956304775
6498.05 80.44912811536594
6726.56 80.66852596228743
6963.87 80.69242612571362
7209.96 80.71340854015138
7464.84 80.54652602261169
7727.05 80.16497617613139
7999.51 80.00930132499654
8282.23 79.84632855709138
8573.73 80.11411813817325
8876.95 80.56541918149574
9188.96 80.59049355537253
9514.16 80.50364497196878
9849.61 80.5069526175485
10196.8 80.5483215792576
10555.7 80.47411519947742
10927.7 80.4529526751396
11313.0 80.54222784615956
11712.9 80.59028019247688
12126.0 80.6486208230602
12553.7 80.57245366810086
12996.1 80.1979986559547
13454.6 79.93230486698947
13929.2 80.36567454615881
14419.9 80.75062194216376
14928.2 80.85943713131753
15455.6 80.46758631333707
16000.5 79.92235503432774
16564.5 79.57981962244425
17148.9 79.20746491146748
17752.4 78.61557373348911
18379.4 77.79651945841255
19026.9 76.74651275076933
19697.8 76.08236413140642
19999.5 75.73760876109675
