Freq "Early Reflections"
20.5078 58.682834835525625
23.4375 62.00576767185868
26.3672 65.05093567156389
29.2969 68.44374043705959
32.2266 71.61036158243765
35.1563 74.76078968290861
38.0859 77.59899587029193
41.0156 80.03532940764481
43.9453 81.70270675009851
46.875 82.77943824394461
49.8047 83.2726265356809
52.7344 83.44579084548296
55.6641 83.48090488446672
58.5938 83.51288808230309
61.5234 83.42873117819546
64.4531 83.41389232457051
67.3828 83.44314967227974
70.3125 83.48858877774947
73.2422 83.57636543574688
76.1719 83.71234355290726
79.1016 83.761520258835
82.0313 83.96685557553259
84.9609 84.15763340907282
87.8906 84.10751148994513
90.8203 84.09552950381274
93.75 84.45026304599709
96.6797 84.50367419948478
102.539 84.7546564208245
105.469 84.87852702544416
108.398 85.02232855766427
111.328 85.15065455245039
117.188 85.39141715571256
120.117 85.58111941773615
125.977 85.72636993656386
128.906 85.67384861192653
134.766 85.65061750565616
137.695 85.71569378518075
143.555 85.83615936888557
149.414 85.9698364183986
155.273 86.11673737367146
158.203 86.15629612748188
164.063 86.18663071636031
169.922 86.09024116564254
175.781 85.98763387306023
181.641 85.93635366651824
190.43 85.95803735223635
196.289 85.8844837588515
202.148 85.84804443081893
210.938 85.7302009776674
216.797 85.57296335426068
225.586 85.58879380250164
234.375 85.55524178713335
240.234 85.40027885719051
249.023 85.29097730866349
257.813 85.39947322918711
266.602 84.971532269893
278.32 84.76666080369239
287.109 84.7974962485169
295.898 84.82572271089984
307.617 84.72928436433217
319.336 84.51983681670828
331.055 84.21905651923214
342.773 83.74175232887102
354.492 83.84639320036418
366.211 83.94379606090456
377.93 84.0916675870115
392.578 83.62435693965665
407.227 83.57299805027007
421.875 83.84496399764251
436.523 83.64177081562002
451.172 83.74572380952873
465.82 83.39415023623904
483.398 83.1054584268111
500.977 83.11536909017062
518.555 83.33339501771667
536.133 83.59811171776522
553.711 83.21657784574812
574.219 83.05099693199448
594.727 82.76149933554403
615.234 82.53591527419229
638.672 83.13386843472443
659.18 82.86714204336481
682.617 83.20154356316708
706.055 83.89221515715947
732.422 83.29067851471949
758.789 82.87502515707293
785.156 82.74972901380981
811.523 82.69747423863788
840.82 83.04173470008243
870.117 83.30492474293665
902.344 83.78697970016597
931.641 83.43688362326
966.797 83.13068010179232
999.023 83.01115360640745
1034.18 83.050331975859
1072.27 83.0169694092354
1110.35 82.86039761332535
1148.44 82.67262038175286
1189.45 82.70307920073884
1230.47 82.5282432484109
1274.41 82.26692310217112
1318.36 81.94369755926398
1365.23 81.28017093119749
1415.04 80.64422058695757
1464.84 80.58699349882659
1514.65 80.66652459048218
1570.31 80.25776352186236
1623.05 79.7545654479164
1681.64 79.42250500763366
1740.23 79.63869400786768
1801.76 79.62372464493912
1866.21 79.47695998402108
1930.66 78.92581776892771
2000.98 79.57688438053358
2071.29 80.23257903515119
2144.53 80.00033647289851
2217.77 79.58815345742701
2296.88 80.42839049991287
2378.91 80.7923326907246
2460.94 80.62640045875047
2548.83 80.59634607086133
2639.65 81.27015813263955
2733.4 81.43451587228776
2827.15 81.83807687607758
2926.76 82.28546348890869
3032.23 82.37107294644272
3137.7 82.53309699380301
3249.02 82.54323693730507
3363.28 82.45271984071573
3483.4 82.58774416628341
3606.45 82.52430860432129
3732.42 82.52139807483914
3864.26 82.56965754031594
3999.02 82.3651117170779
4139.65 82.69671020550017
4286.13 83.2747473188549
4438.48 83.54780318631835
4593.75 83.69032655447498
4757.81 83.93036902191321
4924.8 83.59003789897176
5097.66 83.22006759751947
5279.3 82.99105023971029
5463.87 82.74936897017379
5657.23 82.57383650865995
5856.45 82.59078336970622
6061.52 82.56071794244515
6275.39 82.63245903572856
6498.05 82.97622564951777
6726.56 83.12864005591923
6963.87 83.1210173510857
7209.96 82.85393536908633
7464.84 82.54824877938549
7728.52 82.44717461758228
8000.98 82.58041277932237
8282.23 82.66301619587557
8575.2 82.56882309561692
8876.95 82.22049738112443
9190.43 81.7873454918727
9512.7 81.56485330817371
9849.61 81.51890190014458
10195.3 81.55160336316138
10555.7 81.49355754776076
10927.7 81.34809929599034
11314.5 81.14032747856608
11712.9 80.81335306466988
12126.0 80.76399793324181
12553.7 80.7788831641996
12996.1 80.68776278304125
13453.1 80.46112260514067
13927.7 80.17481206348629
14419.9 79.92333156674393
14929.7 79.88220420596808
15454.1 79.9664703865493
15999.0 80.05909904933395
16564.5 80.52184577586632
17147.5 80.32640684202732
17753.9 80.6221319421447
18377.9 80.97348227662754
19028.3 81.54491232731314
19699.2 82.21885998809142
19998.0 82.42723787274554
