Freq,On Axis,Listening Window,Sound Power,Early Reflections,Early Reflections DI,Sound Power DI,DI offset
22.4,45.4645569620253,48.33168792509629,46.38463008966387,47.790032063239195,40.541655861857095,41.94705783543242,40
23.0,45.76455696202528,48.96282188541248,47.158669160050934,48.437425249145306,40.525396636267175,41.80415272536155,40
23.6,46.26455696202528,49.633952532522684,48.01694201637305,49.098794395593146,40.53515813692954,41.617010516149634,40
24.0,46.76455696202528,50.2457897269921,48.9215516522746,49.71376138943019,40.53202833756191,41.3242380747175,40
25.0,47.364556962025304,50.501446060888284,49.66323158493476,50.061427383776575,40.44001867711171,40.83821447595352,40
25.8,47.864556962025304,50.33286798220992,50.159048192406104,50.17954648600944,40.153321496200476,40.173819789803815,40
26.5,48.56455696202529,49.968230908952435,50.58952949299287,50.27350129996769,39.694729608984744,39.37870141595957,40
27.2,49.26455696202528,49.56762882344519,50.9356987066039,50.39039675021955,39.17723207322564,38.63193011684129,40
28.0,50.364556962025304,49.54945841669219,51.47178113253888,50.79550183854032,38.75395657815187,38.07767728415331,40
29.0,51.364556962025304,49.873047310755894,52.037079123779236,51.319289890431165,38.55375742032473,37.83596818697666,40
30.0,52.16455696202529,50.32728363970743,52.4677763588674,51.78645570724585,38.54082793246158,37.859507280840035,40
30.7,52.9645569620253,51.00407335693863,52.97636219908334,52.36270966444421,38.64136369249442,38.02771115785529,40
31.5,53.9645569620253,52.06351865449996,53.62428391178089,53.129377414340794,38.934141240159164,38.439234742719066,40
32.5,55.06455696202529,53.35573763141487,54.323068267584446,54.01334285432303,39.34239477709184,39.03266936383042,40
33.5,56.16455696202529,54.651943545484684,55.05318079735572,54.945507228337036,39.70643631714765,39.59876274812896,40
34.5,57.16455696202529,55.98060874331988,55.79126202695984,55.88437712142688,40.096231621893,40.189346716360035,40
35.5,58.364556962025304,57.30724987433878,56.610296661326586,56.91398727834299,40.39326259599579,40.69695321301219,40
36.5,59.4645569620253,58.56950243583124,57.487145545254734,57.9726320517298,40.596870384101436,41.082356890576506,40
37.5,60.56455696202529,59.83102787727306,58.4130339933899,59.050145922957924,40.780881954315134,41.417993883883156,40
38.7,61.66455696202529,61.065011873176516,59.445042680289944,60.199920629080125,40.86509124409639,41.61996919288657,40
40.0,62.864556962025304,62.387211900593954,60.60123693951819,61.45475182091717,40.93246007967679,41.785974961075766,40
41.2,64.16455696202529,63.75926597455448,61.894441558252154,62.80462757744279,40.954638397111694,41.864824416302326,40
42.5,65.26455696202528,64.90013260253703,63.02939195879911,63.94428180165882,40.95585080087821,41.87074064373792,40
43.7,66.3645569620253,66.14126404376943,64.28398544888871,65.20308149211654,40.938182551652886,41.85727859488071,40
45.0,67.46455696202528,67.21697893450833,65.43032912973577,66.3247897609749,40.89218917353344,41.786649804772566,40
46.2,68.46455696202527,68.32655054146296,66.555960416791,67.43750756264372,40.88904297881925,41.77059012467197,40
47.5,69.66455696202529,69.50273898654913,67.79835510425228,68.64314843366213,40.859590552887,41.70438388229685,40
48.7,70.7645569620253,70.61312453655525,68.97963944024056,69.81021650952206,40.80290802703318,41.633485096314686,40
50.0,71.7645569620253,71.65737025723375,70.06881961212237,70.86839278662158,40.78897747061217,41.58855064511138,40
51.5,72.66455696202529,72.57833391909563,71.03145131385351,71.80093349374393,40.7774004253517,41.54688260524212,40
53.0,73.46455696202527,73.42346232524918,71.93137394463379,72.66836366170445,40.75509866354473,41.492088380615385,40
54.5,74.2645569620253,74.2671150207454,72.79355820110568,73.51518475903497,40.75193026171043,41.47355681963971,40
56.0,75.06455696202529,75.06711502074539,73.65912878553598,74.34692485487072,40.72019016587467,41.40798623520941,40
58.0,76.06455696202529,75.98902089746623,74.63620386128231,75.30513552275764,40.683885374708595,41.35281703618392,40
60.0,76.9645569620253,76.9214185275557,75.64634856257955,76.27857795357711,40.64284057397859,41.275069964976154,40
61.5,77.86455696202529,77.8214185275557,76.5538224318798,77.17059348488723,40.65082504266847,41.26759609567591,40
63.0,78.76455696202528,78.7430471591544,77.49888199683694,78.09473723294836,40.64830992620604,41.24416516231746,40
65.0,79.86455696202528,79.8430471591544,78.65491388036428,79.24052018365309,40.602526975501306,41.18813327879012,40
67.0,80.96455696202527,80.9430471591544,79.76261907003368,80.32962058376954,40.613426575384864,41.180428089120724,40
69.0,82.06455696202529,81.97629281914115,80.85079268274053,81.39149937703893,40.584793442102225,41.12550013640062,40
71.0,83.06455696202529,82.97629281914114,81.87463886253342,82.3998662622542,40.57642655688693,41.10165395660772,40
73.0,83.76455696202528,83.75407185745213,82.66665348888365,83.17685864532606,40.57721321212607,41.08741836856848,40
75.0,84.4645569620253,84.37629281914114,83.33294079315762,83.82815138830684,40.548141430834306,41.04335202598352,40
77.5,85.36455696202529,85.30928591260249,84.25092596703873,84.74228711091718,40.566998801685315,41.058359945563765,40
80.0,86.26455696202528,86.18748806450593,85.11644495388472,85.61686322981555,40.57062483469038,41.071043110621204,40
82.5,86.9645569620253,86.88748806450592,85.75890958566696,86.28709920878364,40.60038885572227,41.12857847883896,40
85.0,87.36455696202528,87.26558025782835,86.0925521732084,86.64747459270309,40.618105665125256,41.17302808461994,40
87.5,87.56455696202529,87.46558025782834,86.2079663867937,86.79481679547955,40.67076346234879,41.257613871034636,40
90.0,88.06455696202529,87.96558025782835,86.66213566054871,87.27823919206814,40.68734106576021,41.303444597279636,40
92.5,88.86455696202529,88.68825744474033,87.30790001646872,87.95826739857141,40.72999004616892,41.38035742827161,40
95.0,89.56455696202529,89.44406383214498,87.98553124887056,88.66653134813461,40.777532484010365,41.45853258327442,40
97.5,90.16455696202529,90.04406383214499,88.55086462239895,89.25108304904674,40.792980783098244,41.49319920974604,40
100.0,90.96455696202527,90.77833391909563,89.22317518514926,89.95287110002904,40.82546281906659,41.55515873394637,40
103.0,91.56455696202529,91.3671150207454,89.76197924897775,90.52300066108428,40.84411435966112,41.60513577176765,40
106.0,91.9645569620253,91.7671150207454,90.0981193284823,90.89779145468954,40.869323566055854,41.668995692263096,40
109.0,92.16455696202529,91.96711502074541,90.27768800724644,91.09319258959486,40.87392243115055,41.68942701349897,40
112.0,92.36455696202528,92.17833391909564,90.4977410086337,91.30015914222129,40.878174776874346,41.68059291046194,40
115.0,92.46455696202528,92.27833391909563,90.59916871510109,91.40268677919339,40.87564713990224,41.67916520399454,40
118.0,92.46455696202528,92.30120440325457,90.63668376090587,91.43680601853272,40.86439838472185,41.664520642348705,40
122.0,92.56455696202529,92.37833391909562,90.6795618330018,91.48487302258174,40.893460896513886,41.698772086093825,40
125.0,92.66455696202529,92.4460970031406,90.7213059737205,91.5344972947659,40.911599708374695,41.72479102942009,40
128.0,92.56455696202529,92.35737025723377,90.62334346126511,91.45532329293256,40.902046964301206,41.73402679596866,40
132.0,92.46455696202528,92.25737025723376,90.48456972650364,91.34309435762673,40.914275899607034,41.77280053073012,40
136.0,92.36455696202528,92.15737025723377,90.26451998209487,91.1728322510151,40.98453800621867,41.8928502751389,40
140.0,92.26455696202531,92.0037420488379,90.01065622877708,90.97917377988833,41.02456826894958,41.99308582006083,40
145.0,92.06455696202529,91.81512563953517,89.72865136212847,90.752426898442,41.06269874109317,42.086474277406694,40
150.0,91.9645569620253,91.74861468083778,89.52432547748487,90.62984989499465,41.118764785843126,42.22428920335291,40
155.0,92.06455696202529,91.79481351160773,89.3718474336237,90.58025035321869,41.21456315838904,42.42296607798403,40
160.0,91.9645569620253,91.69481351160775,89.06718918063729,90.38643455393526,41.30837895767249,42.62762433097046,40
165.0,91.9645569620253,91.61866844086099,88.801357056698,90.23655702097142,41.38211141988957,42.81731138416299,40
170.0,91.9645569620253,91.69481351160775,88.6843208284312,90.24338700608185,41.4514265055259,43.01049268317655,40
175.0,92.06455696202529,91.73027692155429,88.50692318531047,90.19398883041006,41.53628809114423,43.22335373624382,40
180.0,92.16455696202529,91.85340120887857,88.44633710569279,90.24643787998556,41.606963328893,43.407064103185775,40
185.0,92.36455696202528,91.9458398512402,88.39854828327144,90.28371190177822,41.662127949461976,43.547291567968756,40
190.0,92.46455696202528,92.07936701570827,88.35372413185284,90.33712124573736,41.74224576997091,43.72564288385543,40
195.0,92.46455696202528,92.09883595381027,88.2659172135781,90.31747567100567,41.7813602828046,43.83291874023216,40
200.0,92.46455696202528,92.13372705826474,88.18468933871257,90.30665546681932,41.82707159144542,43.949037719552166,40
206.0,92.46455696202528,92.0579189546847,88.01003299316527,90.19000003237973,41.867918922304966,44.04788596151943,40
212.0,92.26455696202531,91.90276323797946,87.72683575798246,89.98606099909748,41.91670223888198,44.175927479997,40
218.0,92.06455696202529,91.65791895468469,87.39422867973161,89.70919723599481,41.94872171868988,44.26369027495308,40
224.0,91.9645569620253,91.52658095557892,87.11115274722813,89.51038036161886,42.016200593960065,44.41542820835079,40
230.0,91.86455696202529,91.4076775737298,86.83876648787181,89.31911254060898,42.088565033120815,44.56891108585799,40
236.0,91.7645569620253,91.31986313682759,86.6118837126555,89.18603356634418,42.133829570483414,44.707979424172095,40
240.0,91.7645569620253,91.26772484374708,86.36861491223483,89.04483667702897,42.22288816671811,44.89910993151224,40
250.0,91.7645569620253,91.23760030385894,86.14500144589174,88.94703552425479,42.29056477960415,45.092598857967204,40
258.0,91.7645569620253,91.21643861127528,85.94224461645335,88.84155238144528,42.37488622983,45.27419399482193,40
265.0,91.7645569620253,91.21643861127528,85.75987451555984,88.78127841729413,42.43516019398115,45.456564095715436,40
272.0,91.7645569620253,91.19834549988815,85.5769297143187,88.68068428992208,42.517661209966064,45.621415785569454,40
280.0,91.7645569620253,91.13231941674225,85.34963457500751,88.55869225139443,42.573627165347816,45.782684841734735,40
290.0,91.56455696202529,90.98059111447446,85.06888822169932,88.3493602256663,42.63123088880816,45.91170289277514,40
300.0,91.56455696202529,90.89342982998218,84.80189506051632,88.17834367712153,42.71508615286065,46.091534769465866,40
307.0,91.46455696202528,90.83028648344495,84.57855738649769,88.03692974729188,42.79335673615307,46.25172909694726,40
315.0,91.46455696202528,90.82495825354803,84.42611335186263,87.95926511082597,42.865693142722066,46.39884490168541,40
325.0,91.56455696202529,90.91306442945883,84.36586306250216,87.97043843115124,42.94262599830759,46.54720136695667,40
335.0,91.56455696202529,90.89616815820077,84.20799163178351,87.87797188468144,43.01819627351932,46.68817652641725,40
345.0,91.36455696202529,90.65863516936673,83.80723227318703,87.54887802881292,43.10975714055381,46.85140289617971,40
355.0,90.96455696202527,90.2046826310733,83.21903400015945,87.01857146756198,43.18611116351131,46.98564863091384,40
365.0,90.8645569620253,90.05555039486207,82.86869095202445,86.74260017734807,43.312950217514,47.186859442837616,40
375.0,90.96455696202527,90.11890392394993,82.75097510645101,86.67238979022824,43.44651413372169,47.36792881749892,40
387.0,90.8645569620253,89.96282884230123,82.4187149489728,86.39502282272542,43.56780601957581,47.54411389332843,40
400.0,90.46455696202528,89.57572009656627,81.85294613658661,85.86105272311458,43.71466737345169,47.72277395997966,40
412.0,90.16455696202529,89.22500204343466,81.31110454724471,85.33728414414158,43.88771789929308,47.913897496189946,40
425.0,90.06455696202529,89.09724304074913,81.05190071731998,85.06598647772641,44.03125656302272,48.04534232342915,40
437.0,90.2645569620253,89.20996997201476,81.05090173514019,84.9955012648715,44.214468707143254,48.159068236874575,40
450.0,90.46455696202528,89.38212761932573,81.17006516070846,84.98562757115708,44.39650004816865,48.21206245861727,40
462.0,90.7645569620253,89.69492298338722,81.46043471229906,85.12821892979566,44.56670405359155,48.23448827108815,40
475.0,91.16455696202529,90.04921917177286,81.87922592603591,85.34861761493158,44.70060155684128,48.16999324573695,40
487.0,91.56455696202529,90.40320213823361,82.40445347538338,85.56319383433289,44.84000830390072,47.99874866285023,40
500.0,91.9645569620253,90.69341040712526,82.96921154174989,85.810152191656,44.883258215469255,47.72419886537537,40
515.0,91.9645569620253,90.7507683959904,83.26366066322839,85.93926848261354,44.81149991337686,47.48710773276201,40
530.0,91.86455696202529,90.69910349392548,83.26979157504103,86.04060061944604,44.65850287447944,47.42931191888445,40
545.0,91.56455696202529,90.5620501503357,83.17541756993809,86.1559911927923,44.406058957543394,47.3866325803976,40
560.0,91.26455696202528,90.39191786880464,83.02639255294126,86.27151890861845,44.12039896018619,47.36552531586338,40
580.0,90.7645569620253,90.09271564362423,82.89958878811741,86.28766856683158,43.80504707679265,47.19312685550682,40
600.0,90.16455696202529,89.69347759539286,82.8166202111956,86.20924316347758,43.48423443191528,46.876857384197265,40
615.0,89.86455696202528,89.49612595707104,82.8751174115927,86.23570156800996,43.260424389061086,46.62100854547835,40
630.0,89.56455696202529,89.29055938647979,82.9603062020819,86.2517445790353,43.03881480744448,46.33025318439789,40
650.0,89.2645569620253,89.03478254557713,82.90492340243445,86.18044346990338,42.85433907567375,46.12985914314268,40
670.0,89.06455696202529,88.78233942968886,82.710301204376,86.01027171725347,42.77206771243539,46.072038225312866,40
690.0,88.96455696202528,88.52308450411476,82.34130756322033,85.75715749901799,42.76592700509677,46.18177694089444,40
710.0,88.96455696202528,88.27959274101546,81.88132834366435,85.43076767472954,42.848825066285926,46.39826439735111,40
730.0,89.06455696202529,88.13493483726153,81.43093744691014,85.14465864819456,42.99027618906696,46.70399739035139,40
750.0,89.16455696202529,88.15917411994006,81.16070189096244,85.01334554535538,43.145828574584684,46.99847222897762,40
775.0,89.36455696202529,88.30074450649099,81.06666851252994,85.01173039711871,43.289014109372275,47.23407599396104,40
800.0,89.66455696202529,88.48294759193637,81.0596495586388,85.07653732703825,43.40641026489811,47.42329803329757,40
825.0,89.86455696202528,88.62970183124898,81.0813375352734,85.13524241526295,43.49445941598603,47.548364295975574,40
850.0,89.96455696202528,88.74213725742705,81.10727751431308,85.17420583236216,43.567931425064884,47.634859743113964,40
875.0,89.96455696202528,88.7421673579288,80.97167256621131,85.04653709892064,43.69563025900817,47.770494791717496,40
900.0,89.86455696202528,88.66839641662965,80.79152661050937,84.86719918938208,43.80119722724757,47.87686980612028,40
925.0,89.76455696202531,88.62944032253368,80.6390033897339,84.73436245027695,43.895077872256735,47.99043693279978,40
950.0,89.76455696202531,88.66445642580544,80.663590739133,84.7404017154824,43.924054710323034,48.00086568667244,40
975.0,89.76455696202531,88.85103842207414,81.01160740591551,85.02350641834967,43.82753200372447,47.83943101615863,40
1000.0,89.86455696202528,89.14485071297658,81.63052228941268,85.52310481740976,43.62174589556682,47.514328423563896,40
1030.0,89.76455696202531,89.33557502491506,82.2728450977834,86.0332880489565,43.30228697595855,47.062729927131656,40
1060.0,89.76455696202531,89.48233349442951,82.72719654751566,86.3978940004667,43.084439493962805,46.75513694691385,40
1090.0,89.76455696202531,89.51357842023911,82.82811166861165,86.4850199969165,43.02855842332261,46.68546675162746,40
1120.0,89.96455696202528,89.41885970486966,82.49894364582697,86.27378114703579,43.14507855783387,46.91991605904269,40
1150.0,89.96455696202528,89.09392286534047,81.78605850685163,85.74069901947077,43.35322384586971,47.30786435848884,40
1180.0,89.76455696202531,88.6075298310568,80.90873791719689,85.06339587722343,43.54413395383337,47.69879191385991,40
1220.0,89.56455696202529,88.18529418818956,80.25882859833459,84.57406262024206,43.6112315679475,47.92646558985497,40
1250.0,89.56455696202529,88.09310079336532,80.12012701660217,84.52456341175385,43.56853738161148,47.972973776763155,40
1280.0,89.66455696202529,88.24665018957383,80.3763439280727,84.7712677950797,43.47538239449413,47.87030626150113,40
1320.0,89.56455696202529,88.35942096497169,80.6691650561025,85.03243979704943,43.326981167922256,47.69025590886919,40
1360.0,89.36455696202529,88.41868909734669,80.79220883971816,85.14572433460562,43.27296476274107,47.62648025762853,40
1400.0,89.2645569620253,88.45422997858275,80.7892666323789,85.12849205693087,43.32573792165188,47.66496334620385,40
1450.0,89.06455696202529,88.48787756487475,80.75015508925678,85.07808732003559,43.40979024483916,47.73772247561797,40
1500.0,88.96455696202528,88.43339656531153,80.63932504742236,84.94877737406873,43.4846191912428,47.794071517889165,40
1550.0,88.96455696202528,88.19787942752028,80.34831172542859,84.68468524051043,43.513194187009844,47.84956770209169,40
1600.0,89.2645569620253,87.88749078929263,79.83471407571331,84.24711273557311,43.640378053719516,48.05277671357932,40
1650.0,89.4645569620253,87.5939383222733,79.29379953694765,83.76432779620721,43.82961052606609,48.30013878532566,40
1700.0,89.56455696202529,87.49115762605837,78.99507398845185,83.44409234060409,44.04706528545428,48.49608363760652,40
1750.0,89.56455696202529,87.54447675814703,78.96235235759708,83.36334797795834,44.181128780188686,48.582124400549944,40
1800.0,89.36455696202529,87.72305660538483,79.18868203046547,83.55817832883064,44.16487827655419,48.534374574919354,40
1850.0,88.96455696202528,87.86078494053451,79.56812608222575,83.93065801081032,43.930126929724196,48.29265885830877,40
1900.0,88.56455696202529,87.87000450485884,79.86334313733813,84.14380427325494,43.7262002316039,48.00666136752071,40
1950.0,88.46455696202527,87.72470495692279,79.81942750649542,83.99398995125955,43.73071500566324,47.90527745042738,40
2000.0,88.66455696202529,87.56107783183076,79.61089725289581,83.68970875405653,43.87136907777423,47.95018057893495,40
2060.0,89.06455696202529,87.5660961780091,79.65558649406422,83.71183426189396,43.85426191611515,47.91050968394488,40
2120.0,89.36455696202529,87.7182887380531,79.83769247721203,83.9775114839373,43.7407772541158,47.880596260841074,40
2180.0,89.2645569620253,87.89435960002832,79.86695750835362,84.10251926551345,43.79184033451487,48.0274020916747,40
2240.0,88.86455696202529,87.97868415856884,79.80724943708064,84.08158672693294,43.8970974316359,48.1714347214882,40
2300.0,88.56455696202529,87.79569780187627,79.60685767836691,83.90716361026254,43.88853419161373,48.188840123509365,40
2360.0,88.66455696202529,87.48533827190276,79.2403918890634,83.59640557614576,43.888932695757006,48.24494638283936,40
2400.0,88.96455696202528,87.38056219940152,78.89891618259024,83.36446873422707,44.01609346517445,48.48164601681128,40
2500.0,89.2645569620253,87.42353959947651,78.63107322289319,83.17026258195853,44.25327701751799,48.79246637658332,40
2580.0,89.4645569620253,87.66488748833251,78.54882191883944,83.13178967165824,44.53309781667427,49.116065569493074,40
2650.0,89.2645569620253,87.83430477285177,78.63225035731979,83.23180316168447,44.6025016111673,49.202054415531975,40
2720.0,88.66455696202529,87.65565842279739,78.58723256197253,83.1759617312815,44.47969669151588,49.06842586082486,40
2800.0,88.86455696202529,87.51366097876414,78.43664282009107,83.02836043077464,44.485300547989496,49.07701815867307,40
2900.0,89.16455696202529,87.48380348903432,78.24589340297133,82.8501264713854,44.63367701764892,49.23791008606298,40
