Freq "Front Wall Bounce"
20.5078 41.14605417339811
21.9727 56.45373932844777
23.4375 59.39326087775541
24.9023 63.12522173709593
26.3672 67.8607368319457
27.832 70.9146637363107
29.2969 73.76646679004611
30.7617 76.32130890754968
32.2266 78.77815881795483
33.6914 81.20676501081144
35.1562 83.14901073342375
36.6211 84.93167636025109
38.0859 86.56533319895324
39.5508 88.01243414002045
41.0156 89.29888229686662
42.4805 90.13421091598649
43.9453 90.69700364131369
45.4102 90.99568358224307
46.875 91.33609789895259
48.3398 91.6478646259432
51.2695 91.91074893532698
52.7344 91.88561811299468
54.1992 91.90935655610109
55.6641 91.95321600944413
58.5938 91.89287243637901
60.0586 91.84336346770156
62.9883 91.62885120427569
64.4531 91.53318498090329
67.3828 91.39029176617582
68.8477 91.35188865577403
71.7773 91.44227791291894
74.707 91.4858339157248
77.6367 91.44904565321454
79.1016 91.40616559388795
82.0312 91.38083721609547
84.9609 91.34123544739404
87.8906 91.06514527259819
90.8203 90.81950511101103
95.2148 90.8610577073095
98.1445 90.52410406178971
101.074 90.08614152063548
105.469 90.40732315889129
108.398 90.6433719340863
112.793 90.4684573936398
117.188 89.90629335314584
120.117 89.6378975895353
124.512 88.91135103379085
128.906 87.65097319980416
133.301 87.42132842508359
139.16 90.96670842540311
143.555 89.04970671747873
147.949 87.7841629002713
153.809 87.83730867504968
159.668 88.79045051536761
165.527 90.94047243796709
171.387 91.97210623875327
177.246 92.39044519209803
183.105 91.55446297025517
188.965 91.43030050689481
196.289 92.76579266376592
203.613 92.0429103467948
210.938 91.44975256111464
218.262 90.97874531900388
225.586 91.31052865446709
232.91 92.07048647696163
241.699 91.28203239720455
250.488 91.36954501081848
259.277 92.29888235343715
268.066 91.55845548040884
276.855 91.02410356583275
287.109 90.8467146108891
297.363 90.92506465817601
307.617 91.74019617291472
319.336 91.20973710473568
329.59 92.94996355279184
341.309 92.42691164942326
353.027 92.88366281078899
366.211 91.83438932132317
379.395 91.94830155208658
392.578 92.08582911137637
405.762 92.10704115200483
420.41 92.84266506451775
435.059 91.56813729760387
451.172 91.2779388457998
465.82 90.61133583438786
483.398 91.37495242353341
499.512 90.28049838340479
517.09 89.99057582818772
536.133 89.29915369366006
555.176 87.48150149076763
574.219 88.66123658238728
594.727 87.59782972866019
615.234 88.10043826997938
637.207 87.5263818053591
659.18 86.79169456452502
682.617 87.74320514681361
707.52 87.22481629501192
732.422 87.69807145275348
757.324 87.12176141955078
785.156 87.05415022669861
811.523 87.61654928022261
840.82 87.24448445588824
870.117 87.65925334926325
900.879 88.26938689996088
933.105 88.398967895455
965.332 88.63617442594551
1000.49 87.94089426790345
1035.64 88.19691923021094
1072.27 87.90082198695654
1108.89 87.9151743519093
1148.44 88.44058372239101
1189.45 88.2755005823694
1230.47 88.27471101879586
1274.41 88.51925717667467
1319.82 88.63409915475205
1366.7 89.07535907171766
1413.57 88.77616718066415
1463.38 88.36262890773104
1516.11 88.33067356635735
1568.85 87.29644433077371
1624.51 86.86681298349126
1681.64 87.39926526181013
1741.7 87.87714329941251
1803.22 88.32732010654942
1866.21 88.1306280968514
1932.13 87.59373673576667
1999.51 87.8266372003935
2069.82 87.6740279217876
2143.07 88.39482992965202
2219.24 88.27134860258998
2296.88 87.55782505533175
2378.91 86.92035214399147
2462.4 87.10744834870097
2548.83 88.1752322234616
2639.65 87.80261772949336
2731.93 86.55201413513953
2828.61 86.02849078048108
2928.22 85.92530683362467
3030.76 85.67118432733423
3137.7 86.38135533450934
3249.02 86.77272525901627
3363.28 86.45138248834583
3481.93 87.23297041494894
3604.98 87.8297414899805
3732.42 89.30690710387304
3864.26 90.11915838959254
4000.49 89.7073182884551
4141.11 89.92853285062843
4287.6 89.40363284097901
4438.48 89.25213392492148
4595.21 89.72269707170307
4756.35 89.86529985217932
4924.8 89.57009983371171
5097.66 89.47200720179407
5277.83 89.3557681507721
5463.87 89.55419593261706
5657.23 88.0896319945374
5856.45 88.48168823913538
6062.99 88.64673941027587
6276.86 88.9231697736682
6498.05 89.38460859528922
6726.56 89.00152041449705
6963.87 87.57418357740042
7209.96 87.50874925959384
7464.84 86.7770307885664
7727.05 87.29961205906508
7999.51 89.52965064929921
8282.23 90.76910279429383
8573.73 89.09733866173491
8876.95 88.49404796063953
9188.96 88.0336504723585
9514.16 89.16887861745826
9849.61 92.67559768749595
10196.8 91.4315892095359
10555.7 82.87318932722857
10927.7 90.25770197549005
11313.0 92.04394259756278
11712.9 93.740266414746
12126.0 94.10119236132495
12553.7 92.5550709240806
12996.1 89.00367671358902
13454.6 87.84494765471258
13929.2 88.95830073587746
14419.9 91.87617023391462
14928.2 94.53903910114707
15455.6 92.19763577927769
16000.5 94.39049673480969
16564.5 94.36787233634541
17148.9 82.37142114637327
17752.4 90.71716427133325
18379.4 91.3105076621807
19026.9 89.55847358069497
19697.8 87.49259484883359
19999.5 87.18141995845494
