Freq,Floor Bounce,Ceiling Bounce,Front Wall Bounce,Side Wall Bounce,Rear Wall Bounce,Total Early Reflection
20.5078,53.586391663918334,48.644716860822086,51.1107625518261,50.900176901844844,50.24651786166373,51.2029772851578
21.9727,58.50779009682833,54.53380163271191,56.65631654591621,56.567657070989895,56.340541081720545,56.70355022030702
23.4375,59.91934141658041,56.5835067284342,58.30437163685593,58.199131019049105,57.88664351953301,58.31099182293198
24.9023,62.32803608124948,59.337319188503955,60.890979235254946,60.79826428960206,60.495543523176934,60.876460974728104
26.3672,64.27470343114791,61.63456608338171,63.01325507136984,62.916383904258566,62.6150636085373,62.97431861704861
27.832,65.9064741822893,63.56259023979564,64.78595410523917,64.69551974920465,64.42348506815225,64.74070622038957
29.2969,67.33223427237075,65.0898256677369,66.28693933762223,66.16821971796404,65.81875352250138,66.20101120389474
30.7617,68.88592441115111,66.87295267145986,67.95570075219447,67.85695518902946,67.55757354109048,67.87515326243683
32.2266,69.90066405908455,68.06563542430995,69.04919652929513,68.96710684419844,68.7484572028796,68.98647557703418
33.6914,70.79507100249113,69.01368263855596,69.985885520869,69.88607943353463,69.62396687197153,69.89953091535351
35.1562,71.7260121668897,70.04281460347582,70.96403770777692,70.88298870421426,70.65853510317255,70.88889705954888
36.6211,72.37805298830813,70.72078486181654,71.64289303508039,71.55027442790029,71.29434666739239,71.55065880249632
38.0859,73.04716222968122,71.43230479393355,72.33427681153913,72.25475151361587,72.0360758879792,72.25215882465572
39.5508,73.6922610908569,72.1671788424548,73.0253502983388,72.93729834021813,72.72713285972051,72.93782715879952
41.0156,74.16925067035933,72.69060315710075,73.5300035518949,73.43300529288001,73.19838078127906,73.43092672780146
42.4805,74.72161262017997,73.2807481186501,74.1020259525501,74.01031238050768,73.79796595591392,74.00765903975542
43.9453,75.12855077401359,73.72072386549144,74.52804510217209,74.42934570360578,74.22054649402494,74.42950095461474
45.4102,75.64412582574528,74.22681212118543,75.04940691124968,74.93450673422689,74.67203315628463,74.93041999196508
46.875,76.09546935456444,74.67175295357131,75.50718341716136,75.3774091852515,75.05655379370127,75.3677917604941
48.3398,76.54642372103555,75.13579269080158,75.96869386480282,75.83289174378285,75.48869975112592,75.82057551413267
51.2695,77.41856813356317,76.04251635665833,76.86097878509187,76.73082017765704,76.420269074969,76.71902134255534
52.7344,77.8262829604993,76.46549205493324,77.27701080630341,77.14689832872126,76.84660121026805,77.13622488840699
54.1992,78.29055827437267,76.98134724334969,77.76216181682034,77.6353465730131,77.36297094830451,77.62829197930036
55.6641,78.72950144591985,77.43906984659618,78.21172054308028,78.08517427109732,77.80521678599685,78.0754674758926
58.5938,79.56937441721922,78.24594405004244,79.05156352931428,78.89257153540872,78.57680450775194,78.89036587483504
60.0586,80.04433888950592,78.719789711475,79.54255106303806,79.34297462328762,78.87354238225232,79.33094152685238
62.9883,80.79272585760255,79.50127165391424,80.2906590514107,80.13240257257532,79.77283464735012,80.120755276356
64.4531,81.22632163433346,79.92952042844242,80.72347657995498,80.56402971577252,80.24021439638973,80.55912614952229
67.3828,82.05338088463084,80.75631770588576,81.55926115769498,81.3865102777927,81.03861871144834,81.38172799405442
68.8477,82.33577449089624,81.05964557972338,81.85188730661653,81.68154197803872,81.35049906569772,81.67787029939007
71.7773,83.08564490740423,81.84007054326703,82.62055781228122,82.44001285759009,82.10860805957404,82.44021655885106
74.707,83.9714914478569,82.72591331701435,83.50987218381066,83.3149588927474,82.95545701928916,83.31740601643692
77.6367,84.54913565996834,83.31565809415233,84.09456392761876,83.89819946587059,83.5541776804536,83.90363822180548
79.1016,84.75077559668696,83.51252615634726,84.29728482796132,84.09476442191078,83.74652061338476,84.10194280164527
82.0312,85.40562656117204,84.14864704220159,84.95257457837143,84.73431079419073,84.36764431542004,84.74436241908495
84.9609,86.0997775039221,84.83199782031913,85.65251012870222,85.41408866821011,85.00768673803415,85.42510216203434
87.8906,86.31598902709996,85.06164135377016,85.86973789550943,85.65450905397627,85.29489991291882,85.66167522205254
90.8203,86.602051710459,85.30836624636996,86.15283787794587,85.90599904317068,85.62118404797498,85.9408410883052
95.2148,87.27258236381792,85.99298628060481,86.83937436339602,86.56703660991336,86.12051175036552,86.58401982719042
98.1445,87.30979308991533,86.03373816508126,86.87498499331303,86.6093476409448,86.21181834859134,86.63229692901379
101.074,87.200873312326,85.89963467773558,86.75290046699702,86.4999588340165,86.25428642683589,86.54404714992911
105.469,87.43325393732141,86.06964850306778,86.98703333837003,86.6657882778151,86.29138961214163,86.71691226169938
108.398,87.421045131367,86.00745370446441,86.97234562024637,86.62920127644139,86.22517700092817,86.6810107845213
112.793,87.43705583508576,85.96710068274861,86.97470958829744,86.59767136234564,86.11614116469417,86.65275113639586
117.188,87.28953754145986,85.7553423622789,86.82187589344481,86.40066613910508,85.81897577844491,86.45721594804806
120.117,87.32044679199464,85.74510969148763,86.81947890760887,86.40121288153348,85.73206800868198,86.44771077459775
124.512,87.23151158268348,85.56327191539127,86.68800158976188,86.28870037345992,85.70261200950159,86.33937684129108
128.906,87.06597794615264,85.3191788685257,86.49194112812827,86.0876259139155,85.49673800152394,86.14016540909329
133.301,86.84148705738782,85.00333215325995,86.24066556854231,85.82641701901788,85.26336931047044,85.88606249105563
139.16,86.55109964151526,84.55742623043771,85.89394180422569,85.46560014152122,84.93861934197129,85.53850716285581
143.555,86.38720883197158,84.18690330141212,85.65344424622397,85.2143158053254,84.68843087830909,85.2932787876594
147.949,86.1734200762542,83.73427444086101,85.36800962666146,84.90699388589636,84.4821860544996,85.01062128534714
153.809,86.0318480790063,83.31570775714982,85.17081165590346,84.62673161337695,84.09165380508095,84.74580797964202
159.668,85.97650409295488,83.19853140066714,85.08956079404196,84.5448052498208,83.94768899698545,84.65554492590395
165.527,85.8242675357387,82.75283989099232,84.7965635254098,84.23476123697756,83.66983449888704,84.37910614022239
171.387,85.72614764916726,82.20938640993734,84.55114277627378,83.94543623651363,83.16766550997504,84.08479393643904
177.246,85.31322480364625,81.4133704355743,84.0020015520429,83.44947996749883,82.71998108954631,83.57170889025517
183.105,84.88815802332803,80.75817850754949,83.47523738144372,82.9335663282006,82.359847023974,83.09007952076432
188.965,84.62777393188522,80.37581031557538,83.19250091226922,82.53606420229278,81.90522669224711,82.75191700667449
196.289,84.21553696111327,80.05954994935963,82.73794225390102,82.15572350431208,81.2036231306102,82.30144187426134
203.613,83.58259069611762,79.3359702404687,82.07262355629109,81.43130205059222,80.61667161164362,81.64024186048879
210.938,83.04779783595906,79.34175568595552,81.62804475697068,81.07539069323347,80.21350072530251,81.24691146432377
218.262,82.45380446957799,78.98072782693193,81.05203788538225,80.41326484146902,80.15009763992438,80.76230635575953
225.586,82.15405674592594,79.06874381904042,81.01120897236879,80.08519359930519,79.5423422826653,80.51622961233733
232.91,81.94061289819268,79.35199604275721,80.9780196799703,79.97600889302169,79.01519384848598,80.3893242794272
241.699,81.8985234482104,79.60658490635774,81.04640176225487,80.0540302191725,78.65292783890814,80.3980822360901
250.488,82.13209332044659,80.24245619462457,81.41679480570596,80.37823779949079,78.40556345932963,80.68979690991225
259.277,81.41268735670144,80.21171120417013,80.94720502602809,80.02585096617315,78.42515222877202,80.31805189279319
268.066,81.3374323437954,80.37937482542306,81.00393642189806,80.00554725152529,77.9937697157878,80.28841277218449
276.855,80.7654481093733,80.53786159203719,80.75032561393445,79.84923944497619,78.07969697692162,80.10443808066772
287.109,80.77164374113156,80.90199069827219,81.05638263515482,79.90321821821061,78.227852008718,80.2886026585529
297.363,81.27075772484704,81.51390921209676,81.82193150529339,80.61707661665177,77.9970214083088,80.83603296869138
307.617,81.79411319037759,81.68950388625755,82.06089516213919,81.06990015984661,78.43862979139803,81.18706769355138
319.336,82.06144060225019,82.01890857667573,82.46945056194258,81.42111314615865,78.75846761017786,81.5250644487423
329.59,82.39778123690024,82.18772102225519,82.78647084275708,81.83532675535987,79.1079158052948,81.83644753001954
341.309,82.43900154994216,82.06575685445006,82.79285826352118,81.64064821172734,79.36934283394257,81.81200185564981
353.027,82.71506432954499,82.43313244614882,83.25590080067046,82.2129089617494,79.14185642850039,82.15968310595758
366.211,83.19969331357305,82.5983464472114,83.67002150422482,82.30025093395034,78.72068244579401,82.39522217280805
379.395,82.81925221634681,82.09316864430829,83.06329246127855,82.18693487907791,78.86770007267255,82.03187308052196
392.578,82.77707256333618,82.1543154901226,83.36040347599679,82.23632157039219,79.30589991242495,82.16502333812451
405.762,83.16051520691227,82.35140436225447,83.74113529814232,82.39408900895648,79.21309729850397,82.41800525783948
420.41,83.56115800868069,82.63663129366972,83.92427958285798,83.16552639223791,79.62880405329709,82.81710980390761
435.059,84.18334794828002,82.16529855772815,84.3122474046858,82.80387106747266,79.78907381739936,82.93383329298068
451.172,85.16489898898458,82.10563694387247,85.14497398338884,83.80379552702077,80.13777435162123,83.65912936430051
465.82,84.95530454770412,82.28140220201101,85.13786779375238,83.90056050210023,80.11033567653811,83.64210142436777
483.398,84.93709626173616,82.0038285891512,84.87112658957284,83.29528036811236,80.23958596671386,83.41049360625126
499.512,85.16385778339509,81.34347630419428,84.89233776221107,82.65226070316282,79.41821337289221,83.20046779153003
517.09,85.24724846621578,80.9645031918962,84.94860636533531,82.3238876508182,78.68991085149347,83.08286342348433
536.133,85.4745317621779,80.31066966276985,84.89888028517419,82.6604721495309,77.81390339617461,83.0710003161802
555.176,84.85431368590014,79.85123504257602,84.08543036570768,82.50714143651689,78.07474045492944,82.55715527279247
574.219,84.31096274237544,80.0356019754835,83.30145139238368,81.05794776923685,77.42911287474433,81.86069812557508
594.727,83.21062466474118,79.72439360098677,82.87835505577274,80.18758755425122,76.24758181816945,81.09826659464727
615.234,83.59947062613486,81.38635182865475,83.44992779585962,81.15330812627104,76.79771856432198,81.85385630361037
637.207,84.6203102276138,82.21339693461847,84.35711387550575,81.71106203867683,77.00207603153288,82.68284778722253
659.18,83.4068314164055,83.0905805671859,84.80195742869347,82.62743589706655,76.89056954418416,82.81932068135664
682.617,84.40394449983042,84.48660365501712,85.55833522653559,82.86785085925985,78.01673663376538,83.70380067817922
707.52,84.58777211702096,84.04777152842209,85.96779788283695,83.77448884607755,77.71035249753795,83.92425600922026
732.422,84.8672313523025,83.5948766423661,86.67489664038607,84.00115204012162,78.95886070327808,84.25045464914429
757.324,85.66445295243948,84.56050057773926,87.00583783905202,84.39087949618221,78.8428842604291,84.79320616809427
785.156,85.20387150366565,83.8621696669619,86.45695461580733,83.81576145623782,77.61789740599833,84.20148443272065
811.523,86.01510425037115,83.32900230972756,86.62730784176046,84.69869548842912,78.52125574801931,84.5965432314479
840.82,85.60119850896507,82.03269547923641,86.60362091125,83.33728247283129,77.88193755743379,84.00495769944088
870.117,85.73006796237867,82.41672993782907,86.30888736869406,83.43148455458926,76.32982498172704,83.94220634112668
900.879,85.67750281224421,82.45109583885616,85.62377422524152,82.31504326106463,76.11388589634316,83.50947563176169
933.105,85.18147851568027,82.10551650018218,85.51679908355376,82.30013472311816,74.79041654807651,83.21499086860271
965.332,84.73089039055264,82.79155704532175,85.43592868769522,82.22403987859846,75.33747020472391,83.17260279370568
1000.49,84.65735462427372,82.09701319965697,85.30154300723142,82.05199306180458,75.46107840630171,82.96153456148365
1035.64,85.27416210974093,81.35091015607829,85.15044043520648,82.3663901319494,75.67744734962015,83.0539286843337
1072.27,85.39679698134908,82.82142877516425,85.21532741721941,82.17675004432584,76.08896407609643,83.32833741974527
1108.89,84.71509639920302,83.32573177120656,85.51294558283035,82.34236792994062,75.80315788498623,83.33093923563922
1148.44,84.60616383722376,83.91724855043043,85.6688143155962,82.0323430287526,75.07650997155892,83.40839059496909
1189.45,84.14707665114729,83.69486484075675,85.93196052748733,82.41322020521213,74.95982635254403,83.39072477252239
1230.47,84.19965891791131,83.41953616308001,86.54015425700692,82.34828198780528,74.66324189286867,83.55868039497226
1274.41,84.22363182843422,83.11058460144534,86.00754476136234,81.95400510947474,74.26428777994711,83.22817764682245
1319.82,84.32103351756152,82.08457660277594,85.23804714854532,81.293112492674,74.27662462760937,82.68374091786698
1366.7,83.64163572659227,80.5363552724354,83.71787083221895,79.9278612323383,71.99302837344445,81.42392151031406
1413.57,82.77416991999233,79.73587472061922,83.03752238881083,78.75287865932404,70.90795465808685,80.58530515989483
1463.38,81.83617856414193,78.10072779038177,82.62849083294645,78.41964026120098,70.52830968057118,79.8331636502652
1516.11,82.59676132186503,78.15322093000648,83.99330903899157,79.56782206153444,71.56943408036076,80.81259985517772
1568.85,82.86288786117179,78.55700656221725,83.9824685799239,79.70349720165234,71.7932354991864,80.96036849643147
1624.51,82.1197807258135,76.8946987175401,82.2706584814669,78.02566409955855,70.32090068319962,79.58809355818782
1681.64,80.96584837263225,75.64818959629145,81.66089921790388,77.60771686234148,70.2712677662365,78.76789631308006
1741.7,79.99982029593401,75.22549979211225,82.00389054319984,77.79304928795187,69.98062136692953,78.59799040201352
1803.22,78.82917728747276,73.05183043300121,82.24348616172736,77.85873477640374,69.40820574170291,78.24766825861272
1866.21,78.39088916677255,72.23032436319653,81.74999409159692,77.41042333514966,69.30761361708383,77.7668097033234
1932.13,77.72178663950687,71.38571199733379,81.22478172438274,77.11874521569324,69.51716561624292,77.25870556431778
1999.51,76.7655687223922,70.49112469055164,81.3971097655706,77.28018203409208,69.69577539928538,77.15018489517557
2069.82,76.34378907133699,71.6752323848541,81.6680122891681,77.68589795330129,70.12412665433683,77.3815565992874
2143.07,76.76267407093883,72.90842282159252,81.31181162194171,77.55810903509034,69.91501040220737,77.30864910844127
2219.24,76.63714386956724,74.69758355804836,81.19224452719456,77.68618453264098,69.9323147079759,77.41514459023122
2296.88,76.7065460651745,76.05942703835163,82.1215243674819,78.59362427235388,71.09216611668639,78.26575812620992
2378.91,77.86971347344179,76.82142588276112,81.9057681569189,78.7844211035083,70.8457846364168,78.47763142160687
2462.4,78.086724434905,77.70773958246627,80.98447266211929,78.37748937627225,70.32611136864313,78.17441395585567
2548.83,78.1936904419594,78.377070902465,81.94951090182751,79.46304101534992,70.87232153538599,78.94364880160643
2639.65,78.7134525977371,78.66421702663465,82.21365273914178,80.17633899200344,71.61667457578058,79.37536843484861
2731.93,79.46340570499616,78.90595351825576,81.64244499569875,79.93361224033487,71.41345128131421,79.288071048642
2828.61,79.83136228647628,78.77662084454558,82.32174635522607,80.1932119947234,71.10253860336374,79.63559376582677
2928.22,80.31294934842299,79.13267710299226,83.18953188832137,80.92047229462696,71.44453236025329,80.29667616004645
3030.76,80.10568642823803,79.60153855032421,83.17113949585989,81.00789520665248,71.86225609479821,80.35604484791095
3137.7,80.07577803640852,80.4783077895499,83.2106767350326,81.06985473721826,72.02605065676839,80.54402364257666
3249.02,79.95304226358715,81.2554377651442,83.76460474421835,81.48386405988376,72.25311173011548,80.98927364615692
3363.28,80.38566810543733,81.53720318403143,83.6374538298115,81.84232525926728,72.45087434559869,81.16107893862066
3481.93,80.95620948089925,81.65489483879593,83.70896697488527,82.10830426616687,72.7747001747982,81.38211016510628
3604.98,81.37938137696639,81.57631456447457,83.66014280058873,82.23753479347798,72.75138110432722,81.45920441437332
3732.42,81.71981632878003,81.5463639786809,84.39932434469307,83.13983201122176,73.44321536984822,82.01336232276947
3864.26,82.08665687223808,81.78070425115867,84.29142162896285,82.86172528763781,72.95817392577395,82.00864707163377
4000.49,82.52181259762918,81.84755655388217,85.17707221487521,83.21558809015262,73.29214877990937,82.51470513552684
4141.11,82.89112914425606,82.2395865976381,84.89189226277892,83.46722229856957,73.50003451298068,82.62495856710365
4287.6,83.79854422751937,82.22944212744417,85.16839163742816,83.20829407544664,72.88840666792827,82.85285318791455
4438.48,83.68023406112893,82.45026161168373,84.72724472235038,83.58388889222682,73.04261431551228,82.8081836174599
4595.21,83.88452852750791,82.6100306948533,84.76452114802586,83.32290122009435,72.64189936835284,82.83222938451942
4756.35,84.42049656816367,82.47060406724472,84.33144278397664,83.1443446912309,72.59500815319694,82.78254428924048
4924.8,84.12796842730945,82.29003433362527,84.04810446869766,83.20511583591464,71.75712738019972,82.58294576297064
5097.66,84.49372266560457,82.19368347167024,84.09688226282303,83.13364704707611,71.84727675031861,82.67203128174397
5277.83,84.38922143963592,82.545618951369,83.95420753892112,83.31858919339882,71.56698381474428,82.70472975531942
5463.87,84.26569127762912,82.56234058013742,84.82280653210896,82.84915653565295,71.0361511003369,82.81682883920536
5657.23,84.20064448852244,82.48680587462388,84.54426929954587,82.8135764685303,71.50373328027848,82.69681215814734
5856.45,83.87911222685275,82.47999168822507,84.57296596208845,82.70995055968089,70.92323550990281,82.58599774196115
6062.99,83.57268444438719,82.40377079986875,84.14561936325353,81.99883551230376,70.82709890743826,82.21090673764135
6276.86,83.84169823204115,82.1430894028484,84.28092081925168,82.12363155920613,70.77408936272543,82.2993072803265
6498.05,83.19935758214216,81.8179685369709,83.85806909466345,81.57071044045716,69.5613430447051,81.79899982731101
6726.56,82.33545086966376,81.60128040139239,83.56556134576118,81.34251492154823,69.36864292131791,81.38587208440393
6963.87,82.4931058057731,81.06961222052303,83.78139257946454,81.07921601718996,68.82225990817417,81.33644247160692
7209.96,82.40255688742612,80.78143829562961,83.82147333723844,80.87748789061204,68.97744509711119,81.23826412917694
7464.84,82.39983693501985,80.44413991444354,83.50942295152515,80.81841224037598,68.94941309566585,81.055022722234
7727.05,82.49765300572865,80.252172521709,83.54626108727325,80.85406212749679,68.5624777516197,81.06458964986014
7999.51,82.38529243201623,79.90136282599252,83.65063361043528,80.34844591291687,68.34692083262044,80.91954104997387
8282.23,82.29852779463923,79.8516424375349,83.45581396059501,79.93965488606544,67.86391093246631,80.73901126943142
8573.73,82.15126168688793,79.87078259042377,83.52986710735505,79.43359356936116,67.32885225506631,80.64286446263695
8876.95,82.50208079371704,79.61321422081306,83.84417377040816,79.01480725116835,66.95625261674306,80.76562974021189
9188.96,82.57547132505823,79.1215001170601,84.07332548969507,78.76303421937831,66.65497326416121,80.77688528703877
9514.16,82.5239260799501,79.03265177157526,84.33393268230284,78.53676520961601,66.37250744435634,80.83388904948947
