Freq,Floor Bounce,Ceiling Bounce,Front Wall Bounce,Side Wall Bounce,Rear Wall Bounce,Total Early Reflection
20.5078,53.79574620937288,48.85407140627663,51.320117097280644,51.10953144729939,50.45587240711828,51.412331830612345
21.9727,58.717144642282875,54.74315617816646,56.86567109137076,56.77701161644444,56.54989562717509,56.91290476576157
23.4375,60.12869596203495,56.79286127388875,58.51372618231048,58.40848556450365,58.095998064987555,58.52034636838653
24.9023,62.537390626704024,59.5466737339585,61.10033378070949,61.007618835056604,60.70489806863148,61.08581552018265
26.3672,64.48405797660246,61.84392062883626,63.222609616824386,63.12573844971311,62.82441815399184,63.183673162503155
27.832,66.11582872774385,63.771944785250184,64.99530865069372,64.9048742946592,64.63283961360679,64.95006076584411
29.2969,67.5415888178253,65.29918021319145,66.49629388307677,66.37757426341858,66.02810806795593,66.41036574934928
30.7617,69.09527895660565,67.0823072169144,68.16505529764902,68.06630973448401,67.76692808654502,68.08450780789137
32.2266,70.11001860453909,68.27498996976449,69.25855107474968,69.17646138965299,68.95781174833415,69.19583012248873
33.6914,71.00442554794567,69.22303718401051,70.19524006632355,70.09543397898918,69.83332141742608,70.10888546080805
35.1562,71.93536671234425,70.25216914893036,71.17339225323147,71.0923432496688,70.8678896486271,71.09825160500343
36.6211,72.58740753376267,70.93013940727108,71.85224758053494,71.75962897335484,71.50370121284693,71.76001334795086
38.0859,73.25651677513576,71.6416593393881,72.54363135699367,72.46410605907042,72.24543043343374,72.46151337011027
39.5508,73.90161563631145,72.37653338790935,73.23470484379334,73.14665288567268,72.93648740517506,73.14718170425407
41.0156,74.37860521581388,72.8999577025553,73.73935809734944,73.64235983833456,73.4077353267336,73.64028127325601
42.4805,74.93096716563451,73.49010266410464,74.31138049800464,74.21966692596223,74.00732050136847,74.21701358520997
43.9453,75.33790531946813,73.93007841094598,74.73739964762663,74.63870024906032,74.42990103947949,74.63885550006928
45.4102,75.85348037119982,74.43616666663998,75.25876145670422,75.14386127968143,74.88138770173917,75.13977453741963
46.875,76.30482390001899,74.88110749902586,75.7165379626159,75.58676373070604,75.26590833915581,75.57714630594865
48.3398,76.7557782664901,75.34514723625612,76.17804841025736,76.0422462892374,75.69805429658047,76.02993005958722
51.2695,77.62792267901771,76.25187090211287,77.07033333054642,76.94017472311158,76.62962362042354,76.92837588800988
52.7344,78.03563750595384,76.67484660038778,77.48636535175795,77.35625287417581,77.0559557557226,77.34557943386153
54.1992,78.49991281982722,77.19070178880423,77.97151636227488,77.84470111846764,77.57232549375905,77.8376465247549
55.6641,78.9388559913744,77.64842439205073,78.42107508853482,78.29452881655186,78.01457133145139,78.28482202134714
58.5938,79.77872896267377,78.45529859549698,79.26091807476882,79.10192608086327,78.78615905320649,79.09972042028959
60.0586,80.25369343496047,78.92914425692955,79.7519056084926,79.55232916874216,79.08289692770687,79.54029607230693
62.9883,81.00208040305709,79.71062619936879,80.50001359686524,80.34175711802986,79.98218919280467,80.33010982181054
64.4531,81.435676179788,80.13887497389696,80.93283112540952,80.77338426122706,80.44956894184428,80.76848069497683
67.3828,82.26273543008539,80.96567225134031,81.76861570314952,81.59586482324724,81.24797325690288,81.59108253950896
68.8477,82.54512903635079,81.26900012517793,82.06124185207108,81.89089652349327,81.55985361115226,81.88722484484461
71.7773,83.29499945285878,82.04942508872158,82.82991235773576,82.64936740304464,82.31796260502858,82.64957110430561
74.707,84.18084599331145,82.93526786246889,83.7192267292652,83.52431343820194,83.1648115647437,83.52676056189146
77.6367,84.75849020542289,83.52501263960687,84.30391847307331,84.10755401132513,83.76353222590815,84.11299276726002
79.1016,84.96013014214151,83.72188070180181,84.50663937341587,84.30411896736533,83.9558751588393,84.31129734709981
82.0312,85.61498110662659,84.35800158765613,85.16192912382597,84.94366533964528,84.57699886087458,84.9537169645395
84.9609,86.30913204937664,85.04135236577368,85.86186467415676,85.62344321366466,85.2170412834887,85.63445670748888
87.8906,86.5253435725545,85.2709958992247,86.07909244096398,85.86386359943081,85.50425445837337,85.87102976750708
90.8203,86.81140625591354,85.5177207918245,86.36219242340042,86.11535358862523,85.83053859342952,86.15019563375975
95.2148,87.48193690927246,86.20234082605936,87.04872890885056,86.7763911553679,86.32986629582007,86.79337437264496
98.1445,87.51914763536988,86.2430927105358,87.08433953876758,86.81870218639935,86.42117289404588,86.84165147446834
101.074,87.41022785778054,86.10898922319012,86.96225501245156,86.70931337947104,86.46364097229043,86.75340169538366
105.469,87.64260848277596,86.27900304852233,87.19638788382457,86.87514282326964,86.50074415759617,86.92626680715392
108.398,87.63039967682154,86.21680824991896,87.18170016570092,86.83855582189594,86.43453154638271,86.89036532997585
112.793,87.6464103805403,86.17645522820315,87.18406413375199,86.80702590780018,86.32549571014872,86.86210568185041
117.188,87.49889208691441,85.96469690773344,87.03123043889936,86.61002068455963,86.02833032389945,86.6665704935026
120.117,87.52980133744919,85.95446423694217,87.02883345306341,86.61056742698803,85.94142255413652,86.6570653200523
124.512,87.44086612813803,85.77262646084581,86.89735613521643,86.49805491891446,85.91196655495614,86.54873138674563
128.906,87.27533249160719,85.52853341398024,86.70129567358282,86.29698045937005,85.70609254697848,86.34951995454783
133.301,87.05084160284237,85.21268669871449,86.45002011399686,86.03577156447243,85.47272385592498,86.09541703651017
139.16,86.76045418696981,84.76678077589226,86.10329634968024,85.67495468697577,85.14797388742583,85.74786170831035
143.555,86.59656337742612,84.39625784686666,85.86279879167851,85.42367035077994,84.89778542376364,85.50263333311395
147.949,86.38277462170875,83.94362898631556,85.577364172116,85.1163484313509,84.69154059995415,85.21997583080169
153.809,86.24120262446084,83.52506230260437,85.38016620135801,84.83608615883149,84.3010083505355,84.95516252509657
159.668,86.18585863840943,83.40788594612168,85.2989153394965,84.75415979527534,84.15704354244,84.8648994713585
165.527,86.03362208119324,82.96219443644686,85.00591807086434,84.4441157824321,83.87918904434159,84.58846068567694
171.387,85.9355021946218,82.41874095539188,84.76049732172832,84.15479078196817,83.37702005542958,84.29414848189359
177.246,85.5225793491008,81.62272498102884,84.21135609749744,83.65883451295338,82.92933563500085,83.78106343570971
183.105,85.09751256878258,80.96753305300403,83.68459192689826,83.14292087365514,82.56920156942854,83.29943406621886
188.965,84.83712847733976,80.58516486102992,83.40185545772377,82.74541874774732,82.11458123770166,82.96127155212903
196.289,84.42489150656782,80.26890449481418,82.94729679935557,82.36507804976662,81.41297767606474,82.51079641971589
203.613,83.79194524157217,79.54532478592324,82.28197810174564,81.64065659604677,80.82602615709817,81.84959640594333
210.938,83.2571523814136,79.55111023141006,81.83739930242523,81.28474523868802,80.42285527075705,81.45626600977832
218.262,82.66315901503253,79.19008237238647,81.26139243083679,80.62261938692356,80.35945218537893,80.97166090121408
225.586,82.36341129138049,79.27809836449497,81.22056351782334,80.29454814475973,79.75169682811985,80.72558415779187
232.91,82.14996744364723,79.56135058821175,81.18737422542485,80.18536343847623,79.22454839394052,80.59867882488174
241.699,82.10787799366494,79.81593945181228,81.25575630770942,80.26338476462705,78.86228238436269,80.60743678154465
250.488,82.34144786590113,80.45181074007911,81.6261493511605,80.58759234494534,78.61491800478417,80.89915145536679
259.277,81.62204190215598,80.42106574962467,81.15655957148263,80.2352055116277,78.63450677422657,80.52740643824774
268.066,81.54678688924994,80.5887293708776,81.2132909673526,80.21490179697983,78.20312426124235,80.49776731763903
276.855,80.97480265482784,80.74721613749173,80.959680159389,80.05859399043074,78.28905152237617,80.31379262612226
287.109,80.9809982865861,81.11134524372673,81.26573718060936,80.11257276366516,78.43720655417255,80.49795720400745
297.363,81.48011227030159,81.72326375755131,82.03128605074794,80.82643116210632,78.20637595376334,81.04538751414593
307.617,82.00346773583213,81.8988584317121,82.27024970759373,81.27925470530116,78.64798433685257,81.39642223900593
319.336,82.27079514770473,82.22826312213027,82.67880510739712,81.63046769161319,78.9678221556324,81.73441899419684
329.59,82.60713578235479,82.39707556770973,82.99582538821163,82.04468130081442,79.31727035074934,82.04580207547409
341.309,82.64835609539671,82.2751113999046,83.00221280897573,81.85000275718188,79.57869737939711,82.02135640110436
353.027,82.92441887499953,82.64248699160336,83.465255346125,82.42226350720395,79.35121097395493,82.36903765141213
366.211,83.4090478590276,82.80770099266594,83.87937604967937,82.50960547940488,78.93003699124856,82.60457671826259
379.395,83.02860676180136,82.30252318976284,83.2726470067331,82.39628942453245,79.0770546181271,82.2412276259765
392.578,82.98642710879072,82.36367003557714,83.56975802145134,82.44567611584674,79.5152544578795,82.37437788357906
405.762,83.36986975236681,82.56075890770902,83.95048984359687,82.60344355441103,79.42245184395851,82.62735980329403
420.41,83.77051255413524,82.84598583912427,84.13363412831252,83.37488093769245,79.83815859875163,83.02646434936216
435.059,84.39270249373456,82.3746531031827,84.52160195014035,83.0132256129272,79.9984283628539,83.14318783843522
451.172,85.37425353443912,82.31499148932701,85.35432852884338,84.01315007247531,80.34712889707578,83.86848390975506
465.82,85.16465909315866,82.49075674746555,85.34722233920692,84.10991504755478,80.31969022199266,83.85145596982231
483.398,85.1464508071907,82.21318313460574,85.08048113502738,83.5046349135669,80.4489405121684,83.61984815170581
499.512,85.37321232884963,81.55283084964883,85.10169230766562,82.86161524861737,79.62756791834676,83.40982233698458
517.09,85.45660301167032,81.17385773735074,85.15796091078985,82.53324219627274,78.89926539694801,83.29221796893887
536.133,85.68388630763245,80.5200242082244,85.10823483062873,82.86982669498545,78.02325794162915,83.28035486163475
555.176,85.06366823135468,80.06058958803057,84.29478491116222,82.71649598197143,78.28409500038399,82.76650981824702
574.219,84.52031728782998,80.24495652093805,83.51080593783823,81.26730231469139,77.63846742019888,82.07005267102963
594.727,83.41997921019572,79.93374814644132,83.08770960122729,80.39694209970577,76.456936363624,81.30762114010182
615.234,83.8088251715894,81.5957063741093,83.65928234131417,81.36266267172559,77.00707310977653,82.06321084906492
637.207,84.82966477306834,82.42275148007302,84.56646842096029,81.92041658413137,77.21143057698742,82.89220233267707
659.18,83.61618596186004,83.29993511264044,85.01131197414801,82.83679044252109,77.0999240896387,83.02867522681119
682.617,84.61329904528496,84.69595820047167,85.76768977199013,83.07720540471439,78.22609117921992,83.91315522363377
707.52,84.7971266624755,84.25712607387663,86.17715242829149,83.98384339153209,77.9197070429925,84.1336105546748
732.422,85.07658589775704,83.80423118782065,86.88425118584061,84.21050658557617,79.16821524873262,84.45980919459883
757.324,85.87380749789402,84.7698551231938,87.21519238450657,84.60023404163675,79.05223880588365,85.00256071354882
785.156,85.4132260491202,84.07152421241645,86.66630916126188,84.02511600169237,77.82725195145288,84.41083897817519
811.523,86.2244587958257,83.5383568551821,86.836662387215,84.90805003388367,78.73061029347386,84.80589777690244
840.82,85.81055305441961,82.24205002469095,86.81297545670455,83.54663701828584,78.09129210288833,84.21431224489542
870.117,85.93942250783321,82.62608448328362,86.5182419141486,83.6408391000438,76.53917952718159,84.15156088658122
900.879,85.88685735769876,82.6604503843107,85.83312877069606,82.52439780651918,76.32324044179771,83.71883017721623
933.105,85.39083306113481,82.31487104563672,85.72615362900831,82.50948926857271,74.99977109353105,83.42434541405726
965.332,84.94024493600719,83.0009115907763,85.64528323314977,82.433394424053,75.54682475017846,83.38195733916022
1000.49,84.86670916972827,82.30636774511152,85.51089755268596,82.26134760725913,75.67043295175625,83.17088910693819
1035.64,85.48351665519547,81.56026470153283,85.35979498066102,82.57574467740395,75.8868018950747,83.26328322978824
1072.27,85.60615152680363,83.0307833206188,85.42468196267396,82.38610458978039,76.29831862155098,83.53769196519981
1108.89,84.92445094465756,83.53508631666111,85.7223001282849,82.55172247539517,76.01251243044078,83.54029378109377
1148.44,84.8155183826783,84.12660309588497,85.87816886105074,82.24169757420715,75.28586451701347,83.61774514042364
1189.45,84.35643119660183,83.9042193862113,86.14131507294188,82.62257475066667,75.16918089799857,83.60007931797693
1230.47,84.40901346336585,83.62889070853456,86.74950880246146,82.55763653325982,74.87259643832321,83.7680349404268
1274.41,84.43298637388877,83.31993914689988,86.21689930681688,82.16335965492928,74.47364232540166,83.43753219227699
1319.82,84.53038806301606,82.29393114823048,85.44740169399986,81.50246703812854,74.48597917306391,82.89309546332153
1366.7,83.85099027204681,80.74570981788995,83.9272253776735,80.13721577779285,72.20238291889899,81.6332760557686
1413.57,82.98352446544688,79.94522926607377,83.24687693426537,78.96223320477858,71.1173092035414,80.79465970534937
1463.38,82.04553310959648,78.31008233583631,82.837845378401,78.62899480665553,70.73766422602573,80.04251819571975
1516.11,82.80611586731958,78.36257547546103,84.20266358444611,79.77717660698899,71.77878862581531,81.02195440063227
1568.85,83.07224240662633,78.7663611076718,84.19182312537845,79.91285174710688,72.00259004464094,81.16972304188602
1624.51,82.32913527126804,77.10405326299464,82.48001302692144,78.2350186450131,70.53025522865417,79.79744810364237
1681.64,81.1752029180868,75.85754414174599,81.87025376335842,77.81707140779602,70.48062231169105,78.9772508585346
1741.7,80.20917484138856,75.43485433756679,82.21324508865439,78.00240383340642,70.18997591238407,78.80734494746807
1803.22,79.0385318329273,73.26118497845576,82.4528407071819,78.06808932185828,69.61756028715746,78.45702280406726
1866.21,78.6002437122271,72.43967890865108,81.95934863705146,77.6197778806042,69.51696816253838,77.97616424877795
1932.13,77.93114118496142,71.59506654278833,81.43413626983728,77.32809976114778,69.72652016169747,77.46806010977232
1999.51,76.97492326784675,70.70047923600619,81.60646431102515,77.48953657954662,69.90512994473993,77.35953944063012
2069.82,76.55314361679153,71.88458693030864,81.87736683462265,77.89525249875584,70.33348119979138,77.59091114474195
2143.07,76.97202861639337,73.11777736704707,81.52116616739626,77.76746358054488,70.12436494766192,77.51800365389582
2219.24,76.84649841502178,74.90693810350291,81.4015990726491,77.89553907809552,70.14166925343045,77.62449913568577
2296.88,76.91590061062905,76.26878158380617,82.33087891293644,78.80297881780842,71.30152066214093,78.47511267166446
2378.91,78.07906801889634,77.03078042821566,82.11512270237344,78.99377564896284,71.05513918187134,78.68698596706142
2462.4,78.29607898035954,77.91709412792082,81.19382720757383,78.5868439217268,70.53546591409767,78.38376850131021
2548.83,78.40304498741395,78.58642544791954,82.15886544728205,79.67239556080446,71.08167608084054,79.15300334706097
2639.65,78.92280714319165,78.87357157208919,82.42300728459632,80.38569353745798,71.82602912123512,79.58472298030316
2731.93,79.67276025045071,79.1153080637103,81.8517995411533,80.14296678578941,71.62280582676875,79.49742559409654
2828.61,80.04071683193082,78.98597539000012,82.53110090068061,80.40256654017794,71.31189314881829,79.84494831128131
2928.22,80.52230389387753,79.3420316484468,83.39888643377591,81.1298268400815,71.65388690570784,80.50603070550099
3030.76,80.31504097369258,79.81089309577875,83.38049404131444,81.21724975210702,72.07161064025276,80.5653993933655
3137.7,80.28513258186307,80.68766233500445,83.42003128048715,81.27920928267281,72.23540520222294,80.7533781880312
3249.02,80.1623968090417,81.46479231059874,83.97395928967289,81.6932186053383,72.46246627557002,81.19862819161146
3363.28,80.59502265089188,81.74655772948597,83.84680837526605,82.05167980472183,72.66022889105324,81.3704334840752
3481.93,81.16556402635379,81.86424938425047,83.91832152033982,82.31765881162141,72.98405472025274,81.59146471056083
3604.98,81.58873592242094,81.78566910992912,83.86949734604327,82.44688933893252,72.96073564978177,81.66855895982786
3732.42,81.92917087423457,81.75571852413545,84.60867889014762,83.3491865566763,73.65256991530276,82.22271686822401
3864.26,82.29601141769263,81.99005879661321,84.5007761744174,83.07107983309236,73.1675284712285,82.21800161708832
4000.49,82.73116714308372,82.05691109933672,85.38642676032975,83.42494263560717,73.50150332536391,82.72405968098138
4141.11,83.1004836897106,82.44894114309264,85.10124680823347,83.67657684402411,73.70938905843522,82.83431311255819
4287.6,84.00789877297392,82.43879667289872,85.3777461828827,83.41764862090119,73.09776121338281,83.06220773336909
4438.48,83.88958860658347,82.65961615713827,84.93659926780492,83.79324343768137,73.25196886096683,83.01753816291445
4595.21,84.09388307296246,82.81938524030784,84.97387569348041,83.5322557655489,72.85125391380738,83.04158392997397
4756.35,84.62985111361822,82.67995861269927,84.54079732943119,83.35369923668544,72.80436269865149,82.99189883469502
4924.8,84.337322972764,82.49938887907982,84.2574590141522,83.41447038136918,71.96648192565426,82.79230030842518
5097.66,84.70307721105911,82.40303801712479,84.30623680827757,83.34300159253065,72.05663129577316,82.88138582719851
5277.83,84.59857598509046,82.75497349682354,84.16356208437567,83.52794373885337,71.77633836019882,82.91408430077396
5463.87,84.47504582308366,82.77169512559196,85.0321610775635,83.0585110811075,71.24550564579144,83.0261833846599
5657.23,84.40999903397699,82.69616042007843,84.75362384500042,83.02293101398485,71.71308782573303,82.90616670360188
5856.45,84.0884667723073,82.68934623367961,84.78232050754299,82.91930510513544,71.13259005535735,82.7953522874157
6062.99,83.78203898984174,82.6131253453233,84.35497390870808,82.2081900577583,71.0364534528928,82.4202612830959
6276.86,84.0510527774957,82.35244394830295,84.49027536470622,82.33298610466068,70.98344390817998,82.50866182578105
6498.05,83.4087121275967,82.02732308242544,84.067423640118,81.78006498591171,69.77069759015964,82.00835437276555
6726.56,82.5448054151183,81.81063494684693,83.77491589121573,81.55186946700277,69.57799746677246,81.59522662985847
6963.87,82.70246035122764,81.27896676597757,83.99074712491908,81.28857056264451,69.03161445362872,81.54579701706146
7209.96,82.61191143288066,80.99079284108416,84.03082788269299,81.08684243606659,69.18679964256573,81.44761867463149
7464.84,82.6091914804744,80.65349445989808,83.7187774969797,81.02776678583052,69.15876764112039,81.26437726768854
7727.05,82.7070075511832,80.46152706716354,83.7556156327278,81.06341667295133,68.77183229707424,81.27394419531468
7999.51,82.59464697747077,80.11071737144707,83.85998815588982,80.55780045837142,68.55627537807499,81.12889559542842
8282.23,82.50788234009377,80.06099698298945,83.66516850604955,80.14900943151999,68.07326547792086,80.94836581488596
8573.73,82.36061623234248,80.08013713587832,83.73922165280959,79.64294811481571,67.53820680052085,80.8522190080915
8876.95,82.71143533917159,79.82256876626761,84.0535283158627,79.2241617966229,67.1656071621976,80.97498428566644
9188.96,82.78482587051278,79.33085466251464,84.28268003514961,78.97238876483286,66.86432780961576,80.98623983249331
9514.16,82.73328062540465,79.2420063170298,84.54328722775739,78.74611975507055,66.58186198981089,81.04324359494402
