Freq "Front Wall Bounce"
20.5078 51.320117097280644
21.9727 56.86567109137076
23.4375 58.51372618231048
24.9023 61.10033378070949
26.3672 63.222609616824386
27.832 64.99530865069372
29.2969 66.49629388307677
30.7617 68.16505529764902
32.2266 69.25855107474968
33.6914 70.19524006632355
35.1562 71.17339225323147
36.6211 71.85224758053494
38.0859 72.54363135699367
39.5508 73.23470484379334
41.0156 73.73935809734944
42.4805 74.31138049800464
43.9453 74.73739964762663
45.4102 75.25876145670422
46.875 75.7165379626159
48.3398 76.17804841025736
51.2695 77.07033333054642
52.7344 77.48636535175795
54.1992 77.97151636227488
55.6641 78.42107508853482
58.5938 79.26091807476882
60.0586 79.7519056084926
62.9883 80.50001359686524
64.4531 80.93283112540952
67.3828 81.76861570314952
68.8477 82.06124185207108
71.7773 82.82991235773576
74.707 83.7192267292652
77.6367 84.30391847307331
79.1016 84.50663937341587
82.0312 85.16192912382597
84.9609 85.86186467415676
87.8906 86.07909244096398
90.8203 86.36219242340042
95.2148 87.04872890885056
98.1445 87.08433953876758
101.074 86.96225501245156
105.469 87.19638788382457
108.398 87.18170016570092
112.793 87.18406413375199
117.188 87.03123043889936
120.117 87.02883345306341
124.512 86.89735613521643
128.906 86.70129567358282
133.301 86.45002011399686
139.16 86.10329634968024
143.555 85.86279879167851
147.949 85.577364172116
153.809 85.38016620135801
159.668 85.2989153394965
165.527 85.00591807086434
171.387 84.76049732172832
177.246 84.21135609749744
183.105 83.68459192689826
188.965 83.40185545772377
196.289 82.94729679935557
203.613 82.28197810174564
210.938 81.83739930242523
218.262 81.26139243083679
225.586 81.22056351782334
232.91 81.18737422542485
241.699 81.25575630770942
250.488 81.6261493511605
259.277 81.15655957148263
268.066 81.2132909673526
276.855 80.959680159389
287.109 81.26573718060936
297.363 82.03128605074794
307.617 82.27024970759373
319.336 82.67880510739712
329.59 82.99582538821163
341.309 83.00221280897573
353.027 83.465255346125
366.211 83.87937604967937
379.395 83.2726470067331
392.578 83.56975802145134
405.762 83.95048984359687
420.41 84.13363412831252
435.059 84.52160195014035
451.172 85.35432852884338
465.82 85.34722233920692
483.398 85.08048113502738
499.512 85.10169230766562
517.09 85.15796091078985
536.133 85.10823483062873
555.176 84.29478491116222
574.219 83.51080593783823
594.727 83.08770960122729
615.234 83.65928234131417
637.207 84.56646842096029
659.18 85.01131197414801
682.617 85.76768977199013
707.52 86.17715242829149
732.422 86.88425118584061
757.324 87.21519238450657
785.156 86.66630916126188
811.523 86.836662387215
840.82 86.81297545670455
870.117 86.5182419141486
900.879 85.83312877069606
933.105 85.72615362900831
965.332 85.64528323314977
1000.49 85.51089755268596
1035.64 85.35979498066102
1072.27 85.42468196267396
1108.89 85.7223001282849
1148.44 85.87816886105074
1189.45 86.14131507294188
1230.47 86.74950880246146
1274.41 86.21689930681688
1319.82 85.44740169399986
1366.7 83.9272253776735
1413.57 83.24687693426537
1463.38 82.837845378401
1516.11 84.20266358444611
1568.85 84.19182312537845
1624.51 82.48001302692144
1681.64 81.87025376335842
1741.7 82.21324508865439
1803.22 82.4528407071819
1866.21 81.95934863705146
1932.13 81.43413626983728
1999.51 81.60646431102515
2069.82 81.87736683462265
2143.07 81.52116616739626
2219.24 81.4015990726491
2296.88 82.33087891293644
2378.91 82.11512270237344
2462.4 81.19382720757383
2548.83 82.15886544728205
2639.65 82.42300728459632
2731.93 81.8517995411533
2828.61 82.53110090068061
2928.22 83.39888643377591
3030.76 83.38049404131444
3137.7 83.42003128048715
3249.02 83.97395928967289
3363.28 83.84680837526605
3481.93 83.91832152033982
3604.98 83.86949734604327
3732.42 84.60867889014762
3864.26 84.5007761744174
4000.49 85.38642676032975
4141.11 85.10124680823347
4287.6 85.3777461828827
4438.48 84.93659926780492
4595.21 84.97387569348041
4756.35 84.54079732943119
4924.8 84.2574590141522
5097.66 84.30623680827757
5277.83 84.16356208437567
5463.87 85.0321610775635
5657.23 84.75362384500042
5856.45 84.78232050754299
6062.99 84.35497390870808
6276.86 84.49027536470622
6498.05 84.067423640118
6726.56 83.77491589121573
6963.87 83.99074712491908
7209.96 84.03082788269299
7464.84 83.7187774969797
7727.05 83.7556156327278
7999.51 83.85998815588982
8282.23 83.66516850604955
8573.73 83.73922165280959
8876.95 84.0535283158627
9188.96 84.28268003514961
9514.16 84.54328722775739
9849.61 84.89711990982426
10196.8 85.16145706614002
10555.7 85.3515240570465
10927.7 85.43801772383196
11313.0 85.46416977607515
11712.9 85.21746831770119
12126.0 84.65723852564477
12553.7 83.62537303001781
12996.1 82.41027011598801
13454.6 82.03508788502252
13929.2 83.15865251379685
14419.9 84.0582475144641
14928.2 84.49335616497001
15455.6 84.67663839809417
16000.5 84.55299515361268
16564.5 84.06087774907317
17148.9 83.14720457969831
17752.4 82.14068272398184
18379.4 81.16179309776794
19026.9 80.31878094690188
19697.8 79.34970736997165
19999.5 78.9636364893403
