Freq "Floor Bounce"
20.5078 66.44102039314755
21.9727 67.63078820179351
23.4375 68.59375003223968
24.9023 69.49085095019123
26.3672 70.28425249575173
27.832 71.21055323025782
29.2969 71.82741856164346
30.7617 72.67585153790043
32.2266 73.41672141114688
33.6914 74.05765237733624
35.1562 74.8004573872993
36.6211 75.52132845106698
38.0859 76.04103290211549
39.5508 76.73764784908406
41.0156 77.22574393483025
42.4805 77.8168448558313
43.9453 78.39701133326795
45.4102 78.59406817357619
46.875 79.04969453708607
48.3398 79.6341599055935
51.2695 80.75475579577463
52.7344 81.31452233367622
54.1992 81.81812517379521
55.6641 82.191227599424
58.5938 82.51767703673053
60.0586 82.88836989333034
62.9883 83.80963923745423
64.4531 84.17100416916716
67.3828 84.81797257637123
68.8477 85.17427251874612
71.7773 85.71060339314064
74.707 86.22813451751327
77.6367 86.71703395036393
79.1016 86.93813382680335
82.0312 87.34070105470659
84.9609 87.72340020747563
87.8906 88.043767065997
90.8203 88.25763349527999
95.2148 88.57236680277995
98.1445 88.74800015837542
101.074 88.89063352291917
105.469 89.04816687953962
108.398 89.09860023974288
112.793 89.14110039935139
117.188 89.1845337224747
120.117 89.16106750649973
124.512 89.18583562692977
128.906 89.06967187608606
133.301 88.89846724570842
139.16 88.82750429248796
143.555 88.8022067689798
147.949 88.76957913420799
153.809 88.56448302646984
159.668 88.45324668737737
165.527 88.35034745783634
171.387 88.16452055884633
177.246 88.02801161648281
183.105 87.81918194254757
188.965 87.59842526411248
196.289 87.20810643077334
203.613 87.35338509591108
210.938 88.59881288366546
218.262 88.18099989916504
225.586 87.76887472658069
232.91 87.85475307861716
241.699 87.72773459504334
250.488 87.7417232280754
259.277 88.04781874455868
268.066 87.42689899491349
276.855 87.07542855942084
287.109 87.46573083176703
297.363 87.38414421186229
307.617 87.79893385195597
319.336 87.73752743473413
329.59 88.12687173232659
341.309 88.1694645121126
353.027 87.76272517815555
366.211 87.5736382348563
379.395 87.57939949335078
392.578 87.36538958703139
405.762 87.59977347096412
420.41 87.43173656152976
435.059 87.51303216082259
451.172 86.91746770125735
465.82 86.97927594522723
483.398 86.9690341542901
499.512 86.9388625913649
517.09 86.59039980204207
536.133 86.563341311857
555.176 86.45002012929618
574.219 86.44423826680817
594.727 86.18497222468548
615.234 86.02349671878477
637.207 85.58164699024829
659.18 85.35747228296367
682.617 85.0109711825863
707.52 84.37585837518546
732.422 84.37318670703911
757.324 84.15141127108984
785.156 83.80358626614257
811.523 83.83954631724446
840.82 83.68617370737852
870.117 83.55116882549183
900.879 83.10741496053528
933.105 82.92585887135448
965.332 82.32637431909845
1000.49 81.84186011976212
1035.64 81.28235942814422
1072.27 80.45105544482111
1108.89 79.81855658413076
1148.44 79.1652578164651
1189.45 79.51011020711792
1230.47 79.26341639975097
1274.41 79.73359116402418
1319.82 79.60354016957496
1366.7 79.97251562941669
1413.57 80.35675881007819
1463.38 80.0561095965591
1516.11 79.67384609577306
1568.85 80.12220192893234
1624.51 81.03196624149275
1681.64 81.56516821779358
1741.7 81.52612944270646
1803.22 80.63710638343034
1866.21 79.72008772591995
1932.13 79.24754042141184
1999.51 79.88792155541461
2069.82 80.23323879274383
2143.07 80.61002145288403
2219.24 80.83660719451672
2296.88 80.44044196230526
2378.91 79.39591891633236
2462.4 79.1743496694247
2548.83 79.76695287152242
2639.65 80.50357055446341
2731.93 80.38295767923938
2828.61 80.90791809806701
2928.22 82.19943295430507
3030.76 82.74229592660707
3137.7 83.1674754906972
3249.02 83.79754434308136
3363.28 84.10496028128071
3481.93 85.03139611102335
3604.98 84.94532536652798
3732.42 85.73562524471346
3864.26 86.95631561737969
4000.49 86.4544273913072
4141.11 86.56182486188106
4287.6 86.63428536184745
4438.48 86.44757404402989
4595.21 86.602716625283
4756.35 86.46813935022931
4924.8 86.21919889451509
5097.66 85.74629308404893
5277.83 85.05849196713132
5463.87 85.6019306393622
5657.23 85.59270259252584
5856.45 85.70388438986757
6062.99 85.36737020804622
6276.86 85.2584704347986
6498.05 85.17989123957861
6726.56 84.89389102185105
6963.87 84.8411512459283
7209.96 84.57125871357988
7464.84 84.10303258668246
7727.05 83.73387452904416
7999.51 83.7343554389902
8282.23 83.63167035117135
8573.73 83.91899563309244
8876.95 84.1894057371493
9188.96 84.14651447449582
9514.16 83.67319101197225
9849.61 82.87128555127367
10196.8 82.42489050896737
10555.7 81.27916186803485
10927.7 80.01151056579829
11313.0 80.76766016754405
11712.9 81.33454139235018
12126.0 81.8336858644231
12553.7 83.1338168240274
12996.1 83.1690369614816
13454.6 82.80739101304633
13929.2 82.94457912208614
14419.9 83.4507976737678
14928.2 83.17037436540804
15455.6 81.60048453462831
16000.5 81.74399769953123
16564.5 80.12625657426752
17148.9 74.53119582276892
17752.4 72.93414460835808
18379.4 80.1107485581627
19026.9 83.30573513909745
19697.8 83.62121863635372
19999.5 84.34479271486683
