Freq "Front Wall Bounce"
20.5078 65.42505884160643
21.9727 66.61288106642155
23.4375 67.5819913878909
24.9023 68.47780266519291
26.3672 69.26857227246958
27.832 70.19381464503692
29.2969 70.81221613301771
30.7617 71.66091697243674
32.2266 72.39678958250887
33.6914 73.04044623008409
35.1562 73.77672216282929
36.6211 74.49255502741892
38.0859 75.00663390643547
39.5508 75.7255050428434
41.0156 76.21965198031589
42.4805 76.80854024981493
43.9453 77.38580796606121
45.4102 77.5531927322797
46.875 78.01838164659256
48.3398 78.60497369423392
51.2695 79.72970488144976
52.7344 80.28925749115068
54.1992 80.78889650334072
55.6641 81.1585129609623
58.5938 81.50503280277402
60.0586 81.89201594531713
62.9883 82.80813100889591
64.4531 83.17345784356792
67.3828 83.81530491855075
68.8477 84.17097270901985
71.7773 84.71180156877142
74.707 85.23707579565655
77.6367 85.72767840086766
79.1016 85.94902511178245
82.0312 86.34625233075383
84.9609 86.73445697639684
87.8906 87.05138263512292
90.8203 87.26873253733831
95.2148 87.58539048688264
98.1445 87.75901904324316
101.074 87.90143532085973
105.469 88.05650600989462
108.398 88.10440319043224
112.793 88.15011237167704
117.188 88.18406999001122
120.117 88.15306391871633
124.512 88.16695020136595
128.906 88.04085019520764
133.301 87.89156723592953
139.16 87.83667810351778
143.555 87.81397511561948
147.949 87.78863344278015
153.809 87.58765872980938
159.668 87.46493791985581
165.527 87.35638165807589
171.387 87.1752353840653
177.246 87.06024015418224
183.105 86.85543915316202
188.965 86.61243469777342
196.289 86.17187363819241
203.613 86.19467653337345
210.938 87.5518775691518
218.262 87.18249425014022
225.586 86.74129359355037
232.91 86.8140844540345
241.699 86.71941883324045
250.488 86.72851161750421
259.277 87.1339158338601
268.066 86.48292733409748
276.855 86.2825311535164
287.109 86.72294169383885
297.363 86.69564013843487
307.617 87.23770845728743
319.336 87.00706402296967
329.59 87.36446020667077
341.309 87.46056957012755
353.027 87.17130775088833
366.211 87.30655756239022
379.395 87.32497401207284
392.578 87.21700253685088
405.762 87.36288944208593
420.41 87.34292124334992
435.059 87.3415349863708
451.172 87.00225758691451
465.82 86.84802106406231
483.398 87.17680333041554
499.512 87.37139615319813
517.09 87.00974502565916
536.133 86.91610893367577
555.176 87.00621750587328
574.219 87.17475161903147
594.727 87.25821365370545
615.234 87.06247608638493
637.207 87.00525879524245
659.18 86.98844279267463
682.617 86.82081512832076
707.52 86.72879808145123
732.422 86.61061314282347
757.324 86.66928354071885
785.156 86.64569381235349
811.523 86.77387504970977
840.82 86.97532174142219
870.117 87.30343579102818
900.879 87.44604882095462
933.105 87.54392597605683
965.332 87.43236365608142
1000.49 87.35182305813994
1035.64 86.99777954149138
1072.27 86.5431679343751
1108.89 85.95090693379788
1148.44 85.58524790702621
1189.45 85.74242572853646
1230.47 86.4613850895932
1274.41 86.70189695924324
1319.82 86.79117220790673
1366.7 86.64367644321224
1413.57 86.05738132567818
1463.38 85.30001181141435
1516.11 84.4955244561031
1568.85 84.33179293200803
1624.51 84.65491541556055
1681.64 85.36144252569477
1741.7 84.86748664379625
1803.22 83.90928786430013
1866.21 82.41927039267856
1932.13 81.91313962452043
1999.51 82.99572657259456
2069.82 84.13816730304484
2143.07 84.21236297881063
2219.24 83.35290256554283
2296.88 83.64094005305307
2378.91 84.92299417126492
2462.4 85.90250730844652
2548.83 84.7560249418823
2639.65 83.10586097093132
2731.93 82.90050162933521
2828.61 83.60401106276264
2928.22 84.32914445723391
3030.76 84.51184862501643
3137.7 84.84296689366548
3249.02 85.55991595984145
3363.28 85.41032449989785
3481.93 85.50745437380144
3604.98 86.87265545931774
3732.42 87.26262250416735
3864.26 86.21591458467957
4000.49 86.84749989162165
4141.11 87.51177426799569
4287.6 87.37881942195962
4438.48 87.85336660261353
4595.21 87.77190188605509
4756.35 87.70129680091934
4924.8 87.63991091520379
5097.66 86.88979818907728
5277.83 86.49322988615846
5463.87 86.5402989776598
5657.23 85.69182849962924
5856.45 84.88870992239252
6062.99 85.09673004839416
6276.86 85.30672781076808
6498.05 86.05129068103241
6726.56 85.56773435233421
6963.87 84.61958807808479
7209.96 84.6570690956449
7464.84 83.82549966272097
7727.05 84.09380517716414
7999.51 84.01745153917471
8282.23 84.13293484325715
8573.73 84.57944896958006
8876.95 85.03884385935962
9188.96 85.16499279703629
9514.16 84.83102053549995
9849.61 84.01596825508992
10196.8 83.95875027303097
10555.7 82.81373046528729
10927.7 82.21190803318015
11313.0 82.97533196617088
11712.9 83.40693237438774
12126.0 83.59028752152106
12553.7 84.7466005769554
12996.1 84.82320186836924
13454.6 84.57092004431954
13929.2 84.3531944029092
14419.9 84.92746559582778
14928.2 84.68651280273544
15455.6 83.43100542986718
16000.5 82.32798013344592
16564.5 81.79023254824276
17148.9 81.20924628450456
17752.4 81.74894983220206
18379.4 85.4574697997714
19026.9 88.19863616890223
19697.8 89.2662408280143
19999.5 89.6106302170023
