Freq "Rear Wall Bounce"
20.5078 55.64268950698224
21.9727 56.82895531988984
23.4375 57.79827189819605
24.9023 58.69659208182662
26.3672 59.48747550484933
27.832 60.41337002330951
29.2969 61.030485001038414
30.7617 61.88009001025773
32.2266 62.616449936457116
33.6914 63.25889525494023
35.1562 63.99653291925699
36.6211 64.7134206093391
38.0859 65.22651255690207
39.5508 65.9439100709831
41.0156 66.43769476594383
42.4805 67.0180142434115
43.9453 67.5675313776118
45.4102 67.73989650985752
46.875 68.23285223108859
48.3398 68.82788575035238
51.2695 69.94900678139044
52.7344 70.51111783881564
54.1992 71.0131134290159
55.6641 71.38465730926949
58.5938 71.73505007296616
60.0586 72.12347786390819
62.9883 73.03993465867119
64.4531 73.40546913953139
67.3828 74.05040522521392
68.8477 74.40777240602722
71.7773 74.94812664385788
74.707 75.47320261282788
77.6367 75.96347310917291
79.1016 76.18475624586917
82.0312 76.58209457669108
84.9609 76.96886564252335
87.8906 77.28764000303725
90.8203 77.51191992679847
95.2148 77.82860256669831
98.1445 78.00355069131452
101.074 78.14771722491827
105.469 78.30456028661008
108.398 78.35498286661331
112.793 78.39996831069966
117.188 78.4448076116497
120.117 78.41295005393495
124.512 78.42629766779761
128.906 78.31204596446545
133.301 78.17044001470511
139.16 78.11717870789568
143.555 78.10754364045832
147.949 78.09017731080752
153.809 77.9046798173941
159.668 77.78908496579669
165.527 77.68684732496975
171.387 77.53983598577707
177.246 77.4441006329852
183.105 77.24846624923406
188.965 77.02622076423135
196.289 76.63154612085673
203.613 76.47404583522393
210.938 77.72875415493057
218.262 77.36599160383332
225.586 76.9638913576901
232.91 77.0829346508086
241.699 76.85170862222415
250.488 76.91168044850328
259.277 77.36021160308991
268.066 76.77896727201254
276.855 76.49918961162636
287.109 76.9468720227458
297.363 76.82591107130311
307.617 77.19071236466743
319.336 77.16714389951278
329.59 77.1200061702543
341.309 77.2886174410974
353.027 77.08416062142635
366.211 77.01303228372058
379.395 76.84216062578398
392.578 76.80424664301165
405.762 76.81659350101015
420.41 76.85927441760366
435.059 76.80398691702965
451.172 76.6533640711107
465.82 76.74434887568327
483.398 77.25538855676395
499.512 77.57116216225295
517.09 77.07556201935601
536.133 76.96568908025559
555.176 77.18840911137909
574.219 77.13939464387057
594.727 77.01129945751254
615.234 76.7427456103445
637.207 76.65992125383363
659.18 76.50601154838692
682.617 76.3662622010308
707.52 76.39164306514755
732.422 75.98925366110393
757.324 76.07383780284911
785.156 76.47550898263586
811.523 76.66978311829209
840.82 77.07010423284927
870.117 77.12927263018469
900.879 77.55656898038224
933.105 77.44840096977707
965.332 77.16510914077321
1000.49 76.98092104151212
1035.64 76.16688795120996
1072.27 75.6243966365926
1108.89 75.08118676673121
1148.44 75.08750420609303
1189.45 75.36621712133764
1230.47 75.93059806155273
1274.41 76.19267895495052
1319.82 75.90840988811482
1366.7 75.73968490962683
1413.57 74.40646765402632
1463.38 72.58186688438873
1516.11 71.26023009106855
1568.85 71.65645540123359
1624.51 70.81940619399583
1681.64 71.55978958902682
1741.7 70.84228204484782
1803.22 69.81734564978548
1866.21 68.81130306985577
1932.13 68.85386306330557
1999.51 69.32470391262677
2069.82 69.09127774573646
2143.07 68.61693938469469
2219.24 68.60284637565468
2296.88 68.66079664600804
2378.91 67.96533329265903
2462.4 68.25413445230126
2548.83 67.97975474662968
2639.65 67.0327944861441
2731.93 67.01773925784057
2828.61 67.7695152525771
2928.22 68.6542550327545
3030.76 68.92623358405248
3137.7 69.54266463697894
3249.02 69.39541208168524
3363.28 68.70031378679022
3481.93 69.18285446055671
3604.98 69.22653091450945
3732.42 69.84715775394702
3864.26 70.17667364285427
4000.49 71.04321736020026
4141.11 71.98507142209677
4287.6 71.48191406978404
4438.48 72.03376644757041
4595.21 70.48900902960722
4756.35 71.00067499111925
4924.8 70.4747872771316
5097.66 69.57675763256671
5277.83 70.00652698382893
5463.87 69.34141883308436
5657.23 69.57675950893153
5856.45 68.97910136087026
6062.99 69.40219724125184
6276.86 68.92645113511563
6498.05 70.11264498792198
6726.56 69.78553917426075
6963.87 68.98516336082506
7209.96 69.67992127436527
7464.84 69.55586673021425
7727.05 70.11983723796169
7999.51 69.72526441695666
8282.23 70.59499741693503
8573.73 71.5543140233839
8876.95 72.85475279723337
9188.96 73.57744079679867
9514.16 73.5093845502125
9849.61 73.69962383307546
10196.8 73.91340631814126
10555.7 72.65048487636287
10927.7 72.11051350911578
11313.0 72.56647863865864
11712.9 72.23496890715704
12126.0 71.7495426074776
12553.7 71.95466304481246
12996.1 70.77317023335492
13454.6 68.78714440337708
13929.2 66.94934566409428
14419.9 65.08726465691187
14928.2 62.68979774113663
15455.6 62.45022009766211
16000.5 63.71446724235429
16564.5 64.91470107296374
17148.9 65.8682652865177
17752.4 65.99236915930088
18379.4 68.32130928342484
19026.9 68.78805370988937
19697.8 66.54020670201209
19999.5 64.60713617744231
