Freq "Side Wall Bounce"
20.5078 65.42154093232381
21.9727 66.60834054797849
23.4375 67.57755698631617
24.9023 68.47506671169701
26.3672 69.26591529068779
27.832 70.19161202008132
29.2969 70.80919269527425
30.7617 71.65847695147082
32.2266 72.39467455156228
33.6914 73.03751131905769
35.1562 73.77470906236024
36.6211 74.49128605235
38.0859 75.0046941329112
39.5508 75.72251231111022
41.0156 76.21636772765625
42.4805 76.79948363241473
43.9453 77.35791773165273
45.4102 77.52864708944895
46.875 78.01275393519688
48.3398 78.6050951028454
51.2695 79.72732073200584
52.7344 80.28864246284992
54.1992 80.78987081805843
55.6641 81.16081466096765
58.5938 81.50998626735719
60.0586 81.89797027586368
62.9883 82.81428527521794
64.4531 83.17976411983051
67.3828 83.82374067365801
68.8477 84.18052733202893
71.7773 84.72105006158044
74.707 85.2461584011586
77.6367 85.73658373702688
79.1016 85.957877646399
82.0312 86.35516942690624
84.9609 86.74240157666719
87.8906 87.06058406115214
90.8203 87.28266497109682
95.2148 87.59935003832857
98.1445 87.77387919367555
101.074 87.91744164125515
105.469 88.07374707625164
108.398 88.12338829729043
112.793 88.16858877359009
117.188 88.20998974681596
120.117 88.17838915168427
124.512 88.1919452393132
128.906 88.07396592511137
133.301 87.92996600923544
139.16 87.87620120968575
143.555 87.86253064631316
147.949 87.84260018372086
153.809 87.65222122154569
159.668 87.53438578870369
165.527 87.43021565188702
171.387 87.27270889044885
177.246 87.17078452307328
183.105 86.97199280682695
188.965 86.74308675559776
196.289 86.33356163415085
203.613 86.22873890974617
210.938 87.51768057593873
218.262 87.15292175491253
225.586 86.74022574347447
232.91 86.84415513618504
241.699 86.65434357902646
250.488 86.70211485588102
259.277 87.13291744046265
268.066 86.52834894572392
276.855 86.27017382128177
287.109 86.7177787639845
297.363 86.62062878129896
307.617 87.05235103206314
319.336 86.96100392417463
329.59 87.03119431080684
341.309 87.18692339901833
353.027 86.952533299125
366.211 86.9430574091012
379.395 86.82612662904987
392.578 86.779264494964
405.762 86.82793239966776
420.41 86.85240908002518
435.059 86.7862369754869
451.172 86.57264973257489
465.82 86.60632378079106
483.398 87.07033580917684
499.512 87.34599227063508
517.09 86.8913745570597
536.133 86.78817707362393
555.176 87.0349958767633
574.219 87.02939264773545
594.727 86.93632360024024
615.234 86.63083572376091
637.207 86.54406872125602
659.18 86.43985597708918
682.617 86.31832205078572
707.52 86.3630282878837
732.422 86.20240619974567
757.324 86.29622005885484
785.156 86.49757778000078
811.523 86.56215799244463
840.82 86.7544740010554
870.117 86.81243446534316
900.879 87.18477319076383
933.105 87.32827739337463
965.332 87.14830132222946
1000.49 86.98716441733093
1035.64 86.24070517174886
1072.27 85.72909378179008
1108.89 85.26947157990872
1148.44 85.15553484621047
1189.45 85.26456368586257
1230.47 85.65080311707297
1274.41 86.03131947943231
1319.82 85.96847054878448
1366.7 85.68261440155513
1413.57 84.98088071959617
1463.38 83.67887306913863
1516.11 82.4165644773029
1568.85 82.22666523409207
1624.51 82.23886022272029
1681.64 82.65411349982371
1741.7 81.99750092691528
1803.22 80.91243605593097
1866.21 79.7018435165634
1932.13 79.35253645323526
1999.51 80.25853091091226
2069.82 80.89620057335867
2143.07 80.71114805788841
2219.24 79.69042499251955
2296.88 79.67225278794882
2378.91 80.27346359429335
2462.4 80.94150513098019
2548.83 79.98767438569571
2639.65 78.82718545766468
2731.93 78.91493708223305
2828.61 79.86914032226971
2928.22 80.71059398188892
3030.76 81.10901416175801
3137.7 81.5959193031172
3249.02 81.72178818102176
3363.28 81.3541342096006
3481.93 81.4890412162377
3604.98 82.06012625569414
3732.42 82.0220074546196
3864.26 81.3947588844701
4000.49 81.70904953650198
4141.11 82.40875276671375
4287.6 82.39958238375024
4438.48 82.79548839680086
4595.21 82.63138814395725
4756.35 83.04038448870485
4924.8 83.07958618120324
5097.66 82.40299276247075
5277.83 81.68059282477154
5463.87 81.22456288977892
5657.23 80.33439357075086
5856.45 79.56320811536918
6062.99 80.13630387774685
6276.86 80.62097618131955
6498.05 81.8444997295212
6726.56 82.45696300760369
6963.87 82.06292652234912
7209.96 81.78203317350011
7464.84 80.81207232321304
7727.05 81.04964154854916
7999.51 80.46910630251655
8282.23 80.39964087668668
8573.73 80.92881006242503
8876.95 81.304491568917
9188.96 81.29579833087793
9514.16 81.36856313821055
9849.61 80.7666414595764
10196.8 80.66094646610767
10555.7 79.30269450078232
10927.7 78.68387151909042
11313.0 79.44766684139783
11712.9 79.70825632549213
12126.0 79.97459996239223
12553.7 80.8759724833661
12996.1 80.68843742395416
13454.6 80.54781086160159
13929.2 80.46672866293231
14419.9 81.03168853499031
14928.2 80.5048637869605
15455.6 79.86398787550665
16000.5 79.10932899266497
16564.5 79.09295786212927
17148.9 80.76404152439859
17752.4 82.30355601692008
18379.4 84.40625105911079
19026.9 84.99110422431683
19697.8 84.7286638696707
19999.5 83.6889041299104
