Freq "Rear Wall Bounce"
22.4 -6.93789909800455
23.0 -5.0870724009509445
23.6 -3.1156661661598264
24.0 -2.227861808264066
25.0 -1.0868112932527936
25.8 0.3731416532330627
26.5 2.096160860210688
27.2 1.647971911095624
28.0 1.8524431791901463
29.0 2.600410045956039
30.0 4.288370123394742
30.7 6.07214268800729
31.5 8.136772194035188
32.5 10.369151860756773
33.5 11.785720819393191
34.5 12.635721333224097
35.5 12.744817975906699
36.5 12.228146587514203
37.5 12.629136253675341
38.7 13.884439358672523
40.0 16.101891496452595
41.2 17.999388089454982
42.5 19.82384036399199
43.7 21.720872151784647
45.0 24.466615695729644
46.2 28.68829559210357
47.5 32.14204021960953
48.7 32.899314671455045
50.0 34.403455584449034
51.5 35.853971606025226
53.0 36.045484181603484
54.5 33.52456297850861
56.0 33.79304546980268
58.0 34.82877402110228
60.0 37.05090223836939
61.5 40.55488537640497
63.0 43.264231333553994
65.0 45.39933538974128
67.0 46.83482862016976
69.0 48.5845135184226
71.0 50.484584255392406
73.0 51.96762562044927
75.0 53.43137246774265
77.5 54.861673305494065
80.0 56.2845277420938
82.5 57.384706619737415
85.0 58.523403497559755
87.5 59.70830568430466
90.0 60.83774239205077
92.5 61.801476555428025
95.0 62.82110597228683
97.5 63.98397497654925
100.0 64.70834593796816
103.0 65.57131411554008
106.0 66.27679838501935
109.0 67.09128006006053
112.0 67.89255624693155
115.0 68.67310084686761
118.0 69.43898409977834
122.0 70.22805220997313
125.0 71.03267918569043
128.0 71.64920358210617
132.0 72.29154567004883
136.0 72.75782293374924
140.0 73.03785240230542
145.0 73.22069509726803
150.0 73.24955290815194
155.0 73.16838841033385
160.0 73.11122498528208
165.0 72.94350485024141
170.0 72.7766310579579
175.0 72.58082631767155
180.0 72.48637561913898
185.0 72.53873039736128
190.0 72.55166224120815
195.0 72.52852872240732
200.0 72.20626714462253
206.0 72.00790118355526
212.0 72.33702066793369
218.0 72.46407306934486
224.0 72.403556497077
230.0 72.64580745118974
236.0 72.8799604798958
240.0 72.9885715077075
250.0 72.98217930042756
258.0 73.17907140105387
265.0 73.55270540968023
272.0 73.98732947531072
280.0 74.37075819372595
290.0 74.69472048008781
300.0 74.77875023846101
307.0 74.63495113414749
315.0 74.00380528186724
325.0 73.12436985389249
335.0 72.4522534480794
345.0 72.30551259788861
355.0 72.23387957611011
365.0 71.98393585644683
375.0 71.58374046843782
387.0 71.0917727178758
400.0 70.17262256905474
412.0 69.60865082892887
425.0 69.38391911247173
437.0 69.18533422548026
450.0 68.82788488006703
462.0 68.90785272900732
475.0 69.34531269873595
487.0 69.4017780946206
500.0 69.18663332679698
515.0 68.78129555759625
530.0 67.87876684300167
545.0 67.00979185319852
560.0 66.69012256394483
580.0 66.45186112448401
600.0 66.07255846861565
615.0 66.35930850834194
630.0 66.94686529048512
650.0 66.84681097593429
670.0 66.05471637530007
690.0 66.23244832800395
710.0 66.29584630219114
730.0 65.19471742844404
750.0 64.32162828228289
775.0 64.602322113529
800.0 65.6332659160377
825.0 65.61319312300249
850.0 65.83739418947518
875.0 66.5520370567393
900.0 65.93342741041026
925.0 64.65520565769569
950.0 63.863421463976806
975.0 63.72226256537246
1000.0 62.829936096317624
1030.0 63.451135455835086
1060.0 64.69770052998483
1090.0 64.17594820142426
1120.0 62.766509396959194
1150.0 61.654904983529875
1180.0 61.70026944970884
1220.0 63.14262528733096
1250.0 63.069122135227104
1280.0 62.88104587088901
1320.0 61.627437079419025
1360.0 61.95891164994576
1400.0 63.3935131101324
1450.0 63.38821794141687
1500.0 62.855075839180756
1550.0 62.554621080770616
1600.0 61.49191310813592
1650.0 62.843486931248194
1700.0 62.737299899853056
1750.0 61.818615799610654
1800.0 62.346949821530316
1850.0 63.31621453173116
1900.0 63.125498124604306
1950.0 63.05089706947325
2000.0 64.21386271078626
2060.0 64.54749344961719
2120.0 63.9314211892864
2180.0 65.66832407617372
2240.0 66.27247319281251
2300.0 65.29661762365063
2360.0 65.6677240134067
2400.0 66.10098841195061
2500.0 65.37968391726852
2580.0 64.80070400005489
2650.0 64.50019784615344
2720.0 64.6174581179291
2800.0 63.63994510367587
2900.0 63.03247352668508
3000.0 64.1578587452288
3070.0 63.62677874517797
3150.0 62.57388802947007
3250.0 63.195522431640114
3350.0 62.75935747061075
3450.0 63.236559713212586
3550.0 63.631321871896006
3650.0 63.40042730334011
3750.0 62.895737375509114
3870.0 62.47964261787291
4000.0 61.76603730442599
4120.0 63.100385653174996
4250.0 61.96026013410808
4370.0 62.76534038967121
4500.0 61.882864833062854
4620.0 63.76431803821973
4750.0 62.08891840146043
4870.0 62.21918637253066
5000.0 61.6681536713852
5150.0 61.162936864630936
5300.0 59.82346898159824
5450.0 59.44008681697241
5600.0 59.576813998664704
5800.0 60.067674494166155
6000.0 60.58073467446354
6150.0 59.06275749804104
6300.0 60.14659697741415
6500.0 59.380646236148095
6700.0 59.03909257034728
6900.0 59.18272293247003
7100.0 59.58712541102484
7300.0 58.82753760350502
7500.0 57.41444903796821
7750.0 58.22871761850149
8000.0 59.34077803687663
8250.0 59.4139610917679
8500.0 58.654910947838076
8750.0 57.87232337348556
9000.0 56.81399544857885
9250.0 55.2283839668344
9500.0 54.52878550977863
9750.0 55.41713195266138
10000.0 56.9115581569977
10300.0 58.95386181554693
10600.0 59.348095336860055
10900.0 58.056083451764536
11200.0 56.935922653564845
11500.0 56.1554248611333
11800.0 56.03016208829992
12200.0 55.65045782542376
12500.0 54.40830394477027
12800.0 51.171526162045524
13200.0 49.63562031572391
13600.0 49.428379756737456
14000.0 50.851696248495045
14500.0 53.57407459283755
15000.0 53.78490128779268
15500.0 54.53860283591243
16000.0 53.47339442282794
16500.0 52.067091048521206
17000.0 50.231206362193745
17500.0 49.084420214889576
18000.0 48.82256788756021
18500.0 46.27888039968957
19000.0 47.07923647325316
19500.0 46.28099130134936
