Freq "On Axis"
20.0 61.81423899371069
20.2909 62.436238993710674
20.586 63.0722389937107
20.8855 63.72523899371069
21.1893 64.3702389937107
21.4975 64.9952389937107
21.8102 65.6072389937107
22.1274 66.24123899371068
22.4492 66.92223899371069
22.7758 67.70623899371068
23.1071 68.5922389937107
23.4432 69.46623899371068
23.7841 70.24323899371069
24.1301 70.96223899371068
24.4811 71.66123899371068
24.8372 72.38723899371068
25.1984 73.17623899371068
25.5649 73.99923899371069
25.9368 74.81323899371068
26.3141 75.6282389937107
26.6968 76.45323899371068
27.0851 77.27223899371069
27.4791 78.07223899371068
27.8788 78.87123899371068
28.2843 79.67523899371069
28.6957 80.4582389937107
29.1131 81.2052389937107
29.5365 81.92723899371069
29.9661 82.63023899371069
30.402 83.31023899371067
30.8442 83.9582389937107
31.2929 84.57023899371069
31.748 85.14423899371069
32.2098 85.67423899371069
32.6783 86.14023899371068
33.1536 86.54323899371069
33.6359 86.87623899371067
34.1251 87.14923899371068
34.6215 87.3712389937107
35.125 87.55623899371069
35.6359 87.7092389937107
36.1543 87.83723899371068
36.6802 87.93923899371069
37.2137 88.02823899371069
37.755 88.1192389937107
38.3041 88.20923899371068
38.8613 88.29123899371069
39.4265 88.36823899371069
40.0 88.43723899371071
40.5818 88.49823899371069
41.1721 88.55423899371067
41.771 88.61023899371068
42.3785 88.66423899371068
42.9949 88.7202389937107
43.6203 88.77623899371069
44.2548 88.82823899371067
44.8985 88.87423899371069
45.5515 88.91923899371069
46.2141 88.9672389937107
46.8863 89.02323899371069
47.5683 89.07523899371068
48.2602 89.12023899371069
48.9621 89.16323899371069
49.6743 89.2082389937107
50.3968 89.2532389937107
51.1299 89.29223899371068
51.8736 89.3212389937107
52.6281 89.34223899371068
53.3936 89.35623899371069
54.1702 89.36623899371071
54.9581 89.37323899371069
55.7575 89.37723899371069
56.5685 89.3812389937107
57.3914 89.3872389937107
58.2261 89.39123899371069
59.073 89.39323899371067
59.9323 89.39923899371068
60.804 89.40723899371069
61.6884 89.4172389937107
62.5857 89.42923899371068
63.496 89.44123899371068
64.4196 89.4582389937107
65.3566 89.47923899371068
66.3073 89.50323899371071
67.2717 89.52723899371068
68.2502 89.5502389937107
69.2429 89.57023899371069
70.2501 89.58723899371068
71.2719 89.59423899371069
72.3086 89.58823899371069
73.3603 89.5672389937107
74.4274 89.53323899371068
75.5099 89.47523899371069
76.6083 89.38923899371068
77.7226 89.28923899371068
78.8531 89.21023899371069
80.0 89.18323899371069
81.1636 89.1962389937107
82.3442 89.23023899371069
83.5419 89.26823899371068
84.757 89.3102389937107
85.9899 89.35223899371069
87.2406 89.39323899371067
88.5096 89.4342389937107
89.797 89.4762389937107
91.1031 89.52923899371069
92.4282 89.5952389937107
93.7726 89.66023899371069
95.1366 89.71223899371068
96.5204 89.76323899371069
97.9243 89.8212389937107
99.3486 89.8782389937107
100.794 89.93023899371069
102.26 89.95023899371068
103.747 89.89823899371069
105.256 89.78223899371069
106.787 89.66823899371069
108.34 89.6142389937107
109.916 89.62023899371067
111.515 89.6442389937107
113.137 89.65923899371069
114.783 89.66623899371069
116.452 89.68623899371069
118.146 89.72423899371069
119.865 89.77123899371068
121.608 89.82523899371068
123.377 89.89323899371068
125.171 89.96923899371069
126.992 90.03523899371069
128.839 90.07423899371068
130.713 90.05223899371069
132.615 89.93923899371069
134.543 89.78323899371068
136.5 89.6962389937107
138.486 89.7022389937107
140.5 89.72723899371067
142.544 89.73923899371069
144.617 89.77923899371069
146.721 89.85023899371069
148.855 89.92123899371069
151.02 89.9792389937107
153.217 90.02923899371069
155.445 90.0772389937107
157.706 90.10323899371069
160.0 90.08123899371068
162.327 90.04923899371069
164.688 90.08723899371068
167.084 90.20123899371069
169.514 90.31723899371069
171.98 90.35523899371069
174.481 90.28923899371068
177.019 90.20623899371068
179.594 90.1902389937107
182.206 90.19423899371068
184.856 90.17723899371069
187.545 90.18523899371067
190.273 90.23123899371069
193.041 90.29423899371069
195.849 90.36523899371068
198.697 90.44223899371067
201.587 90.54623899371069
204.52 90.6342389937107
207.494 90.5902389937107
210.512 90.45023899371068
213.574 90.3892389937107
216.681 90.45523899371068
219.833 90.53723899371069
223.03 90.52523899371069
226.274 90.42823899371069
229.565 90.34023899371068
232.905 90.25523899371069
236.292 90.1842389937107
239.729 90.15923899371069
243.216 90.0952389937107
246.754 89.96023899371069
250.343 89.88523899371069
253.984 89.93723899371068
257.678 90.02023899371069
261.426 90.03123899371067
265.229 89.9492389937107
269.087 89.86023899371068
273.001 89.82323899371069
276.972 89.8752389937107
281.0 90.0082389937107
285.088 90.09923899371069
289.234 90.1012389937107
293.441 90.09323899371068
297.709 90.05623899371069
302.04 89.91623899371069
306.433 89.6912389937107
310.89 89.50923899371068
315.412 89.50123899371069
320.0 89.60623899371069
324.655 89.70623899371068
329.377 89.80123899371068
334.168 89.91723899371068
339.028 89.99223899371069
343.959 89.98323899371069
348.962 89.94123899371067
354.038 89.91323899371069
359.188 89.90323899371069
364.412 89.86123899371069
369.713 89.72823899371069
375.09 89.58523899371069
380.546 89.53223899371069
386.081 89.55323899371069
391.697 89.63723899371067
397.394 89.80023899371068
403.175 89.82523899371068
409.039 89.8512389937107
414.989 89.84023899371068
421.025 89.8112389937107
427.149 89.78923899371068
433.362 89.75523899371069
439.665 89.72223899371069
446.06 89.72523899371069
452.548 89.75523899371069
459.131 89.76923899371069
465.809 89.7682389937107
472.584 89.77623899371069
479.458 89.7812389937107
486.432 89.78223899371069
493.507 89.78323899371068
500.686 89.78423899371069
507.968 89.78923899371068
515.357 89.79123899371069
522.853 89.7942389937107
530.458 89.80223899371069
538.174 89.8112389937107
546.002 89.8212389937107
553.943 89.83023899371068
562.001 89.83823899371069
570.175 89.8452389937107
578.469 89.85323899371069
586.883 89.8632389937107
595.419 89.87423899371069
604.08 89.88723899371068
612.866 89.90023899371069
621.78 89.91523899371069
630.824 89.93023899371069
640.0 89.94523899371069
649.309 89.96023899371069
658.753 89.97523899371069
668.335 89.98923899371069
678.056 90.00223899371069
687.919 90.01423899371068
697.925 90.0252389937107
708.077 90.03523899371069
718.376 90.04523899371068
728.825 90.05223899371069
739.426 90.06023899371068
750.181 90.06623899371068
761.093 90.0722389937107
772.163 90.0772389937107
783.394 90.08223899371069
794.789 90.08823899371069
806.349 90.0922389937107
818.078 90.09823899371071
829.977 90.10323899371069
842.05 90.10823899371067
854.298 90.1132389937107
866.724 90.11823899371069
879.33 90.12423899371069
892.12 90.1312389937107
905.097 90.13823899371067
918.262 90.14623899371068
931.618 90.15323899371069
945.169 90.1622389937107
958.917 90.17123899371069
972.864 90.17623899371068
987.015 90.16323899371069
1001.37 90.1492389937107
1015.94 90.13323899371069
1030.71 90.11823899371069
1045.71 90.14023899371068
1060.92 90.15923899371069
1076.35 90.17623899371068
1092.0 90.19723899371068
1107.89 90.2392389937107
1124.0 90.2822389937107
1140.35 90.32623899371069
1156.94 90.3662389937107
1173.77 90.38523899371069
1190.84 90.4062389937107
1208.16 90.42523899371068
1225.73 90.44423899371068
1243.56 90.47123899371068
1261.65 90.5002389937107
1280.0 90.53723899371069
1298.62 90.57823899371068
1317.51 90.5952389937107
1336.67 90.6202389937107
1356.11 90.64923899371068
1375.84 90.67723899371069
1395.85 90.69423899371068
1416.15 90.7112389937107
1436.75 90.7322389937107
1457.65 90.75823899371069
1478.85 90.79023899371069
1500.36 90.8182389937107
1522.19 90.8452389937107
1544.33 90.87123899371069
1566.79 90.89523899371069
1589.58 90.91223899371069
1612.7 90.92223899371069
1636.16 90.92623899371068
1659.95 90.92623899371068
1684.1 90.91723899371067
1708.6 90.9072389937107
1733.45 90.90123899371069
1758.66 90.90023899371067
1784.24 90.89223899371069
1810.19 90.8812389937107
1836.52 90.8632389937107
1863.24 90.82823899371068
1890.34 90.78923899371068
1917.83 90.7402389937107
1945.73 90.6872389937107
1974.03 90.62323899371069
2002.74 90.55423899371068
2031.87 90.49323899371069
2061.43 90.44423899371068
2091.41 90.4062389937107
2121.83 90.37423899371069
2152.69 90.3392389937107
2184.01 90.29423899371069
2215.77 90.23123899371069
2248.0 90.1452389937107
2280.7 90.04623899371069
2313.87 89.95423899371067
2347.53 89.89123899371069
2381.68 89.86123899371069
2416.32 89.86123899371069
2451.46 89.88223899371069
2487.12 89.91323899371069
2523.3 89.9312389937107
2560.0 89.93823899371068
2597.24 89.94423899371068
2635.01 89.9582389937107
2673.34 89.98923899371069
2712.23 90.0122389937107
2751.68 90.01023899371069
2791.7 89.9852389937107
2832.31 89.96023899371069
2873.5 89.9702389937107
2915.3 90.03223899371069
2957.7 90.1192389937107
3000.72 90.18323899371069
3044.37 90.1922389937107
3088.65 90.13723899371068
3133.58 90.04623899371069
3179.16 89.96623899371069
3225.4 89.91923899371069
3272.31 89.88723899371068
3319.91 89.84623899371068
3368.2 89.78323899371068
3417.19 89.70723899371069
3466.89 89.6312389937107
3517.32 89.55523899371069
3568.48 89.47123899371068
3620.39 89.35523899371069
3673.05 89.18223899371068
3726.47 88.9672389937107
3780.67 88.77923899371069
3835.67 88.67423899371067
3891.46 88.63023899371069
3948.06 88.57623899371069
4005.49 88.4912389937107
4063.75 88.46023899371068
4122.86 88.5312389937107
4182.82 88.63323899371069
4243.66 88.6842389937107
4305.39 88.7262389937107
4368.01 88.8352389937107
4431.55 88.96523899371067
4496.01 88.99123899371068
4561.4 88.89423899371069
4627.75 88.81723899371069
4695.06 88.8752389937107
4763.35 88.98023899371069
4832.64 89.00523899371069
4902.93 88.96523899371067
4974.24 88.9672389937107
5046.6 89.0362389937107
5120.0 89.11823899371069
5194.47 89.1962389937107
5270.03 89.24223899371069
5346.68 89.21323899371069
5424.45 89.19423899371068
5503.35 89.30323899371069
5583.4 89.4172389937107
5664.61 89.42723899371069
5747.01 89.49823899371069
5830.6 89.64523899371069
5915.41 89.66023899371069
6001.45 89.62923899371069
6088.74 89.71523899371068
6177.3 89.71023899371068
6267.15 89.57023899371069
6358.31 89.61523899371069
6450.8 89.83023899371068
6544.62 89.9012389937107
6639.82 89.79723899371069
6736.4 89.61023899371071
6834.38 89.2562389937107
6933.79 88.92623899371068
7034.64 88.8602389937107
7136.96 88.91423899371068
7240.77 89.10523899371069
7346.09 89.33823899371069
7452.94 89.47223899371069
7561.35 89.5682389937107
7671.33 89.61123899371069
7782.91 89.6282389937107
7896.12 89.4972389937107
8010.97 89.22523899371069
8127.49 88.99523899371067
8245.71 88.8122389937107
8365.65 88.75223899371069
8487.33 88.90223899371068
8610.78 88.9942389937107
8736.03 89.17423899371069
8863.09 89.10623899371069
8992.01 88.97823899371068
9122.8 88.9672389937107
9255.5 88.9892389937107
9390.12 89.12923899371069
9526.7 88.99923899371069
9665.27 88.85023899371069
9805.86 88.76023899371069
9948.49 88.75523899371069
10093.2 88.8952389937107
10240.0 88.8692389937107
10388.9 89.08723899371068
10540.1 89.18323899371069
10693.4 89.37623899371067
10848.9 89.21223899371068
11006.7 89.32223899371068
11166.8 89.30723899371068
11329.2 89.50323899371071
11494.0 89.50923899371068
11661.2 89.7202389937107
11830.8 89.90223899371068
12002.9 90.0592389937107
12177.5 90.0552389937107
12354.6 90.06823899371071
12534.3 90.25123899371069
12716.6 90.27823899371069
12901.6 90.20523899371071
13089.2 90.2142389937107
13279.6 90.49023899371069
13472.8 90.5712389937107
13668.8 90.5592389937107
13867.6 90.67223899371069
14069.3 90.70923899371068
14273.9 90.7052389937107
14481.5 90.77923899371069
14692.2 90.88723899371067
14905.9 90.80623899371068
15122.7 90.79923899371069
15342.7 90.81623899371068
15565.8 90.5742389937107
15792.2 90.53223899371068
16021.9 90.4972389937107
16255.0 90.19423899371068
16491.4 90.18123899371068
16731.3 90.15223899371068
16974.7 89.86223899371069
17221.6 89.7502389937107
17472.1 89.62123899371069
17726.2 89.14223899371069
17984.0 88.8122389937107
18245.6 88.38723899371067
18511.0 87.80423899371068
18780.2 87.35323899371069
19053.4 86.87323899371069
19330.5 86.58223899371069
19611.7 86.66523899371069
19897.0 86.7022389937107
