Freq "On Axis"
20.0 61.990999999999985
20.2909 62.613
20.586 63.248999999999995
20.8855 63.90199999999999
21.1893 64.547
21.4975 65.172
21.8102 65.78399999999999
22.1274 66.418
22.4492 67.09899999999999
22.7758 67.88299999999998
23.1071 68.769
23.4432 69.643
23.7841 70.42000000000002
24.1301 71.13900000000001
24.4811 71.838
24.8372 72.564
25.1984 73.353
25.5649 74.17599999999999
25.9368 74.99
26.3141 75.805
26.6968 76.63
27.0851 77.44900000000001
27.4791 78.249
27.8788 79.048
28.2843 79.852
28.6957 80.635
29.1131 81.382
29.5365 82.10399999999998
29.9661 82.807
30.402 83.487
30.8442 84.135
31.2929 84.747
31.748 85.321
32.2098 85.851
32.6783 86.317
33.1536 86.72
33.6359 87.053
34.1251 87.326
34.6215 87.548
35.125 87.733
35.6359 87.886
36.1543 88.01400000000001
36.6802 88.116
37.2137 88.205
37.755 88.296
38.3041 88.386
38.8613 88.46800000000002
39.4265 88.54500000000002
40.0 88.614
40.5818 88.67499999999998
41.1721 88.731
41.771 88.787
42.3785 88.841
42.9949 88.897
43.6203 88.953
44.2548 89.005
44.8985 89.051
45.5515 89.096
46.2141 89.144
46.8863 89.20000000000002
47.5683 89.252
48.2602 89.297
48.9621 89.34
49.6743 89.385
50.3968 89.43
51.1299 89.469
51.8736 89.498
52.6281 89.519
53.3936 89.533
54.1702 89.543
54.9581 89.55
55.7575 89.554
56.5685 89.558
57.3914 89.564
58.2261 89.56800000000001
59.073 89.57
59.9323 89.576
60.804 89.584
61.6884 89.594
62.5857 89.606
63.496 89.618
64.4196 89.635
65.3566 89.656
66.3073 89.68
67.2717 89.704
68.2502 89.727
69.2429 89.747
70.2501 89.764
71.2719 89.77099999999999
72.3086 89.76500000000001
73.3603 89.744
74.4274 89.71
75.5099 89.652
76.6083 89.566
77.7226 89.466
78.8531 89.387
80.0 89.35999999999999
81.1636 89.37299999999999
82.3442 89.40699999999998
83.5419 89.445
84.757 89.487
85.9899 89.529
87.2406 89.57
88.5096 89.61100000000002
89.797 89.653
91.1031 89.706
92.4282 89.772
93.7726 89.837
95.1366 89.88900000000001
96.5204 89.94
97.9243 89.99799999999999
99.3486 90.055
100.794 90.107
102.26 90.127
103.747 90.07499999999999
105.256 89.959
106.787 89.845
108.34 89.791
109.916 89.797
111.515 89.821
113.137 89.836
114.783 89.843
116.452 89.863
118.146 89.901
119.865 89.948
121.608 90.00199999999998
123.377 90.07
125.171 90.14600000000002
126.992 90.21199999999999
128.839 90.251
130.713 90.22899999999998
132.615 90.11600000000001
134.543 89.96
136.5 89.873
138.486 89.879
140.5 89.904
142.544 89.916
144.617 89.956
146.721 90.027
148.855 90.098
151.02 90.156
153.217 90.20600000000002
155.445 90.254
157.706 90.28
160.0 90.258
162.327 90.226
164.688 90.264
167.084 90.378
169.514 90.494
171.98 90.532
174.481 90.466
177.019 90.38299999999998
179.594 90.367
182.206 90.371
184.856 90.354
187.545 90.362
190.273 90.408
193.041 90.471
195.849 90.542
198.697 90.619
201.587 90.723
204.52 90.811
207.494 90.767
210.512 90.62699999999998
213.574 90.566
216.681 90.632
219.833 90.714
223.03 90.702
226.274 90.605
229.565 90.517
232.905 90.432
236.292 90.361
239.729 90.33599999999998
243.216 90.27199999999999
246.754 90.137
250.343 90.06199999999998
253.984 90.114
257.678 90.197
261.426 90.208
265.229 90.126
269.087 90.037
273.001 90.0
276.972 90.05200000000002
281.0 90.185
285.088 90.27599999999998
289.234 90.278
293.441 90.27000000000001
297.709 90.233
302.04 90.093
306.433 89.868
310.89 89.686
315.412 89.678
320.0 89.783
324.655 89.883
329.377 89.978
334.168 90.094
339.028 90.16899999999998
343.959 90.16
348.962 90.118
354.038 90.09
359.188 90.08
364.412 90.038
369.713 89.905
375.09 89.762
380.546 89.709
386.081 89.73
391.697 89.814
397.394 89.977
403.175 90.00199999999998
409.039 90.02799999999999
414.989 90.017
421.025 89.988
427.149 89.96600000000001
433.362 89.93200000000002
439.665 89.899
446.06 89.90200000000002
452.548 89.93200000000002
459.131 89.946
465.809 89.945
472.584 89.953
479.458 89.958
486.432 89.959
493.507 89.96
500.686 89.961
507.968 89.96600000000001
515.357 89.96799999999999
522.853 89.971
530.458 89.97900000000001
538.174 89.988
546.002 89.99799999999999
553.943 90.007
562.001 90.01499999999999
570.175 90.02200000000002
578.469 90.03
586.883 90.04
595.419 90.051
604.08 90.064
612.866 90.077
621.78 90.09199999999998
630.824 90.107
640.0 90.12199999999999
649.309 90.137
658.753 90.15199999999999
668.335 90.166
678.056 90.179
687.919 90.191
697.925 90.202
708.077 90.21199999999999
718.376 90.222
728.825 90.22899999999998
739.426 90.237
750.181 90.243
761.093 90.249
772.163 90.254
783.394 90.25899999999999
794.789 90.265
806.349 90.269
818.078 90.275
829.977 90.28
842.05 90.285
854.298 90.29
866.724 90.295
879.33 90.301
892.12 90.308
905.097 90.315
918.262 90.32299999999998
931.618 90.33000000000001
945.169 90.339
958.917 90.348
972.864 90.35299999999998
987.015 90.34
1001.37 90.326
1015.94 90.31
1030.71 90.295
1045.71 90.31700000000001
1060.92 90.33599999999998
1076.35 90.35299999999998
1092.0 90.374
1107.89 90.416
1124.0 90.459
1140.35 90.50299999999999
1156.94 90.543
1173.77 90.562
1190.84 90.583
1208.16 90.602
1225.73 90.62100000000001
1243.56 90.648
1261.65 90.67700000000002
1280.0 90.714
1298.62 90.755
1317.51 90.772
1336.67 90.797
1356.11 90.826
1375.84 90.85399999999998
1395.85 90.87099999999998
1416.15 90.888
1436.75 90.909
1457.65 90.935
1478.85 90.967
1500.36 90.995
1522.19 91.022
1544.33 91.048
1566.79 91.072
1589.58 91.089
1612.7 91.099
1636.16 91.103
1659.95 91.103
1684.1 91.094
1708.6 91.084
1733.45 91.078
1758.66 91.077
1784.24 91.069
1810.19 91.05800000000002
1836.52 91.04
1863.24 91.005
1890.34 90.966
1917.83 90.917
1945.73 90.864
1974.03 90.8
2002.74 90.731
2031.87 90.66999999999999
2061.43 90.62100000000001
2091.41 90.583
2121.83 90.551
2152.69 90.51599999999999
2184.01 90.471
2215.77 90.408
2248.0 90.322
2280.7 90.22300000000001
2313.87 90.131
2347.53 90.068
2381.68 90.038
2416.32 90.038
2451.46 90.059
2487.12 90.09
2523.3 90.108
2560.0 90.115
2597.24 90.121
2635.01 90.13499999999999
2673.34 90.166
2712.23 90.189
2751.68 90.187
2791.7 90.162
2832.31 90.137
2873.5 90.147
2915.3 90.209
2957.7 90.29600000000002
3000.72 90.36000000000001
3044.37 90.369
3088.65 90.314
3133.58 90.22300000000001
3179.16 90.143
3225.4 90.096
3272.31 90.064
3319.91 90.023
3368.2 89.96
3417.19 89.884
3466.89 89.80800000000002
3517.32 89.732
3568.48 89.648
3620.39 89.532
3673.05 89.359
3726.47 89.144
3780.67 88.95600000000002
3835.67 88.851
3891.46 88.807
3948.06 88.753
4005.49 88.668
4063.75 88.637
4122.86 88.708
4182.82 88.81
4243.66 88.861
4305.39 88.903
4368.01 89.012
4431.55 89.142
4496.01 89.168
4561.4 89.071
4627.75 88.994
4695.06 89.05199999999999
4763.35 89.15700000000001
4832.64 89.182
4902.93 89.142
4974.24 89.144
5046.6 89.213
5120.0 89.295
5194.47 89.37299999999999
5270.03 89.419
5346.68 89.38999999999999
5424.45 89.37100000000001
5503.35 89.47999999999999
5583.4 89.594
5664.61 89.60399999999998
5747.01 89.67500000000001
5830.6 89.822
5915.41 89.837
6001.45 89.806
6088.74 89.892
6177.3 89.887
6267.15 89.747
6358.31 89.792
6450.8 90.007
6544.62 90.078
6639.82 89.974
6736.4 89.787
6834.38 89.43299999999999
6933.79 89.10299999999998
7034.64 89.037
7136.96 89.091
7240.77 89.282
7346.09 89.515
7452.94 89.649
7561.35 89.745
7671.33 89.78799999999998
7782.91 89.805
7896.12 89.674
8010.97 89.402
8127.49 89.172
8245.71 88.989
8365.65 88.929
8487.33 89.079
8610.78 89.171
8736.03 89.351
8863.09 89.28299999999999
8992.01 89.155
9122.8 89.144
9255.5 89.166
9390.12 89.306
9526.7 89.17599999999999
9665.27 89.027
9805.86 88.937
9948.49 88.93199999999999
10093.2 89.072
10240.0 89.04600000000002
10388.9 89.26400000000001
10540.1 89.35999999999999
10693.4 89.553
10848.9 89.389
11006.7 89.499
11166.8 89.48399999999998
11329.2 89.68
11494.0 89.686
11661.2 89.897
11830.8 90.07899999999998
12002.9 90.23600000000002
12177.5 90.232
12354.6 90.245
12534.3 90.428
12716.6 90.455
12901.6 90.382
13089.2 90.391
13279.6 90.667
13472.8 90.748
13668.8 90.736
13867.6 90.849
14069.3 90.886
14273.9 90.882
14481.5 90.956
14692.2 91.064
14905.9 90.983
15122.7 90.976
15342.7 90.993
15565.8 90.751
15792.2 90.709
16021.9 90.674
16255.0 90.371
16491.4 90.358
16731.3 90.329
16974.7 90.03900000000002
17221.6 89.927
17472.1 89.798
17726.2 89.319
17984.0 88.989
18245.6 88.564
18511.0 87.981
18780.2 87.53
19053.4 87.05
19330.5 86.759
19611.7 86.842
19897.0 86.879
