Freq "Sound Power"
20.0 61.39202651442784
20.2909 62.01396665878514
20.586 62.65010291305663
20.8855 63.30312348315891
21.1893 63.947523542406
21.4975 64.57325949572905
21.8102 65.1844670448994
22.1274 65.81909241450964
22.4492 66.50032847023502
22.7758 67.28327632740009
23.1071 68.16989505020217
23.4432 69.04376265105883
23.7841 69.8210509467552
24.1301 70.53998686822578
24.4811 71.23941158933661
24.8372 71.96463232328911
25.1984 72.7542793702055
25.5649 73.57697050590545
25.9368 74.39119434205348
26.3141 75.20541758874063
26.6968 76.031371815704
27.0851 76.8501867346651
27.4791 77.6495696485049
27.8788 78.44912741882462
28.2843 79.25319902291349
28.6957 80.03604788040572
29.1131 80.78232317067815
29.5365 81.50577413638392
29.9661 82.20867959841132
30.402 82.8880137485533
30.8442 83.5353280824423
31.2929 84.14756964850488
31.748 84.72212734495417
32.2098 85.25189902170891
32.6783 85.71731485717496
33.1536 86.12068151293386
33.6359 86.45405131798982
34.1251 86.72638394071333
34.6215 86.94919434205349
35.125 87.13329449511154
35.6359 87.28566197799046
36.1543 87.41313288923038
36.6802 87.51523097666596
37.2137 87.60318185112085
37.755 87.6925962934078
38.3041 87.78135614098525
38.8613 87.8622157273829
39.4265 87.93667614930192
40.0 88.00432608556832
40.5818 88.06330402905766
41.1721 88.1174457678681
41.771 88.17098586015209
42.3785 88.22202329767332
42.9949 88.27578559019813
43.6203 88.32931799217812
44.2548 88.37789458028078
44.8985 88.42042680734045
45.5515 88.46181046545045
46.2141 88.50650699208364
46.8863 88.55858573412539
47.5683 88.6068256498587
48.2602 88.6479219348488
48.9621 88.68648943407715
49.6743 88.72681607696312
50.3968 88.76694881579391
51.1299 88.80159369778193
51.8736 88.82583062047787
52.6281 88.84102417973234
53.3936 88.84952645251916
54.1702 88.85487400805725
54.9581 88.85580754028443
55.7575 88.85359254974807
56.5685 88.85163404737706
57.3914 88.85157487245267
58.2261 88.84922118575236
59.073 88.84526701436472
59.9323 88.843962425921
60.804 88.84556683769821
61.6884 88.84911357302012
62.5857 88.85308097691679
63.496 88.85769173654498
64.4196 88.86751945661142
65.3566 88.88143503987243
66.3073 88.89787180570713
67.2717 88.91403837244735
68.2502 88.92864568383165
69.2429 88.94097473026144
70.2501 88.9504188325368
71.2719 88.94845779102597
72.3086 88.93418582204983
73.3603 88.9049458432345
74.4274 88.86091605134652
75.5099 88.79499260813662
76.6083 88.70028186230644
77.7226 88.5908485206634
78.8531 88.50291129268915
80.0 88.46542639057854
81.1636 88.46924851613684
82.3442 88.49312742759528
83.5419 88.52250275106438
84.757 88.5543012204146
85.9899 88.58619828808305
87.2406 88.61780311094425
88.5096 88.64833891107071
89.797 88.68068465976677
91.1031 88.72247907381373
92.4282 88.77790468129763
93.7726 88.83238748054121
95.1366 88.87352030025039
96.5204 88.91371643036716
97.9243 88.9602419045369
99.3486 89.00688323829027
100.794 89.0485531899902
102.26 89.05669888151562
103.747 88.99285658974898
105.256 88.86584412100022
106.787 88.74004386047547
108.34 88.67433259435923
109.916 88.66849011122748
111.515 88.68039727469059
113.137 88.68341574777023
114.783 88.67842209173992
116.452 88.68574820777147
118.146 88.71168414095715
119.865 88.74577532271532
121.608 88.78844289393083
123.377 88.84266446029388
125.171 88.90628152855732
126.992 88.95969299700356
128.839 88.98525724637159
130.713 88.94938897727901
132.615 88.82298339151981
134.543 88.65306364078509
136.5 88.55290630469457
138.486 88.5453148882346
140.5 88.55579186157365
142.544 88.55400640833697
144.617 88.5793257626872
146.721 88.63671085092012
148.855 88.6925927794882
151.02 88.73551883516038
153.217 88.77064229269384
155.445 88.80425327742795
157.706 88.8147586635991
160.0 88.77685810860461
162.327 88.72883051885199
164.688 88.75077277379458
167.084 88.84819673000095
169.514 88.94863951132268
171.98 88.9689842184138
174.481 88.88550007299382
177.019 88.7858999465353
179.594 88.75172892136302
182.206 88.73837353135306
184.856 88.70233563708067
187.545 88.6925241947614
190.273 88.71962206839859
193.041 88.76434658018636
195.849 88.81436938009163
198.697 88.87204797023118
201.587 88.95511139303427
204.52 89.02274247710172
207.494 88.95779273406087
210.512 88.7961700662739
213.574 88.71353047768739
216.681 88.75668882674064
219.833 88.8162971085683
223.03 88.78068528931331
226.274 88.6603627825694
229.565 88.5476343732079
232.905 88.43751828667114
236.292 88.34171241465641
239.729 88.29095469073204
243.216 88.20080432815588
246.754 88.03828019879137
250.343 87.93647173491739
253.984 87.960310706032
257.678 88.01489238963356
261.426 87.99587512870674
265.229 87.88549632934021
269.087 87.76613012486196
273.001 87.6994299937385
276.972 87.72024819825455
281.0 87.8219520054652
285.088 87.88101173080004
289.234 87.85074839932814
293.441 87.81061674967223
297.709 87.74030687518251
302.04 87.56765130242836
306.433 87.30883780721865
310.89 87.0944536153226
315.412 87.05331077378446
320.0 87.12571455791357
324.655 87.19291640035125
329.377 87.25664693510589
334.168 87.34296463141908
339.028 87.38778441772905
343.959 87.34956295751748
348.962 87.2799001192074
354.038 87.22489516271227
359.188 87.18973026858885
364.412 87.12278820104389
369.713 86.96658056453434
375.09 86.80226469302285
380.546 86.72880279945971
386.081 86.7319200203444
391.697 86.797419252288
397.394 86.94435870964108
403.175 86.9545545025457
409.039 86.96580260906308
414.989 86.94049881297772
421.025 86.89849000161732
427.149 86.86362904694165
433.362 86.81608627356351
439.665 86.76982606362462
446.06 86.75865038929724
452.548 86.77535352703804
459.131 86.77338531985615
465.809 86.75571261533992
472.584 86.74461100078982
479.458 86.73043026502205
486.432 86.70834110381153
493.507 86.68461728630024
500.686 86.65833427976428
507.968 86.63322744907025
515.357 86.60150951973132
522.853 86.56689698709125
530.458 86.53413885753159
538.174 86.49986578746838
546.002 86.46117000905215
553.943 86.41819016032613
562.001 86.37023806510423
570.175 86.31845295602896
578.469 86.26493675069257
586.883 86.21020204216886
595.419 86.1536763501917
604.08 86.09642943867283
612.866 86.0382923535852
621.78 85.97942262140786
630.824 85.92036032200343
640.0 85.8612393996575
649.309 85.8023130192515
658.753 85.74398024369155
668.335 85.68641656243446
678.056 85.62973297202514
687.919 85.57404696641888
697.925 85.52026472052826
708.077 85.46812134130933
718.376 85.41796498911617
728.825 85.36986882783121
739.426 85.323765324728
750.181 85.28017417642702
761.093 85.23842642651435
772.163 85.19886217125523
783.394 85.16058274821981
794.789 85.12353451991265
806.349 85.0875453221004
818.078 85.05118464319489
829.977 85.01374764855083
842.05 84.9752237928302
854.298 84.93453611431039
866.724 84.89090682257651
879.33 84.84444051029763
892.12 84.7938817008747
905.097 84.74007694221893
918.262 84.68216178363326
931.618 84.62065983826679
945.169 84.55620981496261
958.917 84.48876338065948
972.864 84.41716615484732
987.015 84.3249244496912
1001.37 84.2316137068255
1015.94 84.13743693926097
1030.71 84.04687399026008
1045.71 83.99503361189653
1060.92 83.9428098336426
1076.35 83.89109599332048
1092.0 83.8424020137842
1107.89 83.82232383849725
1124.0 83.80017160342884
1140.35 83.77619040403441
1156.94 83.75090392467942
1173.77 83.70300563435825
1190.84 83.65162449740473
1208.16 83.59734136895521
1225.73 83.54208321513767
1243.56 83.49351201965925
1261.65 83.4476350937473
1280.0 83.40833352292256
1298.62 83.37569025756605
1317.51 83.32575129719598
1336.67 83.28233959587263
1356.11 83.2401339869416
1375.84 83.19757082229505
1395.85 83.1515277094895
1416.15 83.10697576267631
1436.75 83.06421587805788
1457.65 83.02626245074269
1478.85 82.9989052048467
1500.36 82.97657623959469
1522.19 82.95697972530037
1544.33 82.94134774101924
1566.79 82.93166433469898
1589.58 82.92175070302964
1612.7 82.91413735996258
1636.16 82.91103299370648
1659.95 82.91663551446925
1684.1 82.92819617879204
1708.6 82.95171362346098
1733.45 82.99416462003097
1758.66 83.05544659593969
1784.24 83.12253389942813
1810.19 83.19332140222296
1836.52 83.25694130506706
1863.24 83.29755000298559
1890.34 83.32874401382463
1917.83 83.34430187231372
1945.73 83.35028405843327
1974.03 83.34644311474267
2002.74 83.34492623533663
2031.87 83.35793677154561
2061.43 83.3892511531244
2091.41 83.43668126217638
2121.83 83.48803519871916
2152.69 83.5342552847408
2184.01 83.56753379922107
2215.77 83.58314002492965
2248.0 83.57870564839725
2280.7 83.55639872792538
2313.87 83.52343642733904
2347.53 83.48337436622495
2381.68 83.43105823097561
2416.32 83.36496281447539
2451.46 83.28436570572786
2487.12 83.19649639528683
2523.3 83.10784336023958
2560.0 83.03420896011127
2597.24 82.98894905111598
2635.01 82.97478383535767
2673.34 82.99159045234491
2712.23 83.01466497217594
2751.68 83.02010175693457
2791.7 83.00199065848452
2832.31 82.97706559585126
2873.5 82.97354264893781
2915.3 83.01348209357717
2957.7 83.08394129413941
3000.72 83.14489917806762
3044.37 83.1614750356873
3088.65 83.1274149508204
3133.58 83.08069510253097
3179.16 83.08510236922142
3225.4 83.16583605856006
3272.31 83.2827613698369
3319.91 83.36682985996116
3368.2 83.37505025763727
3417.19 83.33228215819035
3466.89 83.2988339333797
3517.32 83.31287717283544
3568.48 83.35937087495192
3620.39 83.36931076516521
3673.05 83.3025536861689
3726.47 83.21365625848398
3780.67 83.23210195836377
3835.67 83.40336717119386
3891.46 83.61297065814199
3948.06 83.70108190168474
4005.49 83.63917871327392
4063.75 83.56099138633314
4122.86 83.55054133818166
4182.82 83.51297331114668
4243.66 83.34533617759179
4305.39 83.16372244895643
4368.01 83.17158669995231
4431.55 83.35042372435561
4496.01 83.47959195820462
4561.4 83.45690312966207
4627.75 83.37222253618555
4695.06 83.31000714598407
4763.35 83.21380953031992
4832.64 83.05126211630242
4902.93 82.91321191800311
4974.24 82.85529806497757
5046.6 82.81274282805529
5120.0 82.76558810558636
5194.47 82.75067513760386
5270.03 82.72164078010287
5346.68 82.60130868503775
5424.45 82.46827833904175
5503.35 82.43246610172744
5583.4 82.41212895024323
5664.61 82.32479954050821
5747.01 82.310819889987
5830.6 82.4056814286298
5915.41 82.44270731340809
6001.45 82.4415353518459
6088.74 82.51571498978987
6177.3 82.51398192215534
6267.15 82.30154620410649
6358.31 82.05228911481291
6450.8 81.9328604469688
6544.62 81.78915420182109
6639.82 81.61426838496392
6736.4 81.55240275805502
6834.38 81.38679138818883
6933.79 81.2005402005614
7034.64 81.3048940624039
7136.96 81.42252190523578
7240.77 81.52319135724967
7346.09 81.6438473729698
7452.94 81.5996811414629
7561.35 81.51814657121545
7671.33 81.47233227033249
7782.91 81.43237464994769
7896.12 81.36539944953782
8010.97 81.23326539835045
8127.49 81.10720095049172
8245.71 80.96307951770983
8365.65 80.8335959494816
8487.33 80.89615490980086
8610.78 80.90716205726228
8736.03 81.02487816222404
8863.09 80.94133252411942
8992.01 80.78082850835833
9122.8 80.74284297567617
9255.5 80.69425276172254
9390.12 80.79724968523907
9526.7 80.64824552835844
9665.27 80.51618949794866
9805.86 80.42433557015487
9948.49 80.41220594679505
10093.2 80.5311764171403
10240.0 80.3813675248323
10388.9 80.40145223520705
10540.1 80.26968633724523
10693.4 80.34298592684823
10848.9 80.11101209819563
11006.7 80.15898742578582
11166.8 80.02347817357362
11329.2 80.07197939017288
11494.0 79.89142973348696
11661.2 79.91383348415084
11830.8 79.9303491930566
12002.9 79.96524037098791
12177.5 79.87005302943865
12354.6 79.78280481464539
12534.3 79.8401554524098
12716.6 79.74659732263281
12901.6 79.52887759167334
13089.2 79.44995962683745
13279.6 79.6430232697532
13472.8 79.6324804291556
13668.8 79.5729714618915
13867.6 79.64913163752004
14069.3 79.61205992588982
14273.9 79.51757842856327
14481.5 79.60133395958077
14692.2 79.77374458794525
14905.9 79.78702355096178
15122.7 79.91466137118347
15342.7 80.06263707469446
15565.8 79.97757713834514
15792.2 80.11694469810985
16021.9 80.26652319121912
16255.0 80.1401842472294
16491.4 80.33059835535644
16731.3 80.49198978859394
16974.7 80.37414572897224
17221.6 80.44053249267766
17472.1 80.47969840559442
17726.2 80.16944302208
17984.0 79.98411003356173
18245.6 79.61534654209288
18511.0 79.08445204694
18780.2 78.62995110007081
19053.4 77.7105026485477
19330.5 76.68380266789669
19611.7 75.9144141166207
19897.0 75.04590091080985
