Freq "Rear Wall Bounce"
22.4 -10.973066928861144
23.0 -8.468680011477076
23.6 -4.968252284011825
24.0 -2.918152256445964
25.0 -1.5093926157168056
25.8 -0.07837618029667226
26.5 1.3519288406640868
27.2 3.548920760201341
28.0 5.413290377369449
29.0 6.851242655048182
30.0 6.54338974180358
30.7 6.103333997073904
31.5 6.516184158816927
32.5 7.872412443981901
33.5 9.264938877203335
34.5 11.055316830434336
35.5 13.512895011762723
36.5 16.54142465443364
37.5 19.16770835333118
38.7 21.208186702207016
40.0 22.33128370310787
41.2 24.857849091461233
42.5 28.417586560001197
43.7 30.62407732682361
45.0 31.810169489173106
46.2 32.622409311654096
47.5 33.75934906533597
48.7 36.88019037970464
50.0 39.280930415263455
51.5 41.770231515229696
53.0 44.8482374735875
54.5 49.49194450121739
56.0 53.07983259879809
58.0 54.86740460939164
60.0 56.82815271157362
61.5 58.896916346774844
63.0 60.2608482724184
65.0 61.61249809084424
67.0 62.65654607983764
69.0 63.44209696582928
71.0 64.18237487391514
73.0 64.96327436383746
75.0 66.01471049126957
77.5 67.1150356666569
80.0 68.16006970690158
82.5 69.38783099741192
85.0 70.7368124280212
87.5 72.02060603957115
90.0 73.23111588668836
92.5 74.26554135477147
95.0 75.13065901494976
97.5 75.86456989287173
100.0 76.43054081952215
103.0 76.94866545171152
106.0 77.34793394034672
109.0 77.71616679782903
112.0 77.99021756208758
115.0 78.22645871739766
118.0 78.35814540403604
122.0 78.47898076513478
125.0 78.56348509610719
128.0 78.54781203135217
132.0 78.54830532548827
136.0 78.56581256267317
140.0 78.54539061318506
145.0 78.53012778336894
150.0 78.58278297110589
155.0 78.5630599568771
160.0 78.60803303598844
165.0 78.61307172341063
170.0 78.62890338340252
175.0 78.64068346463876
180.0 78.60909225691594
185.0 78.54557319498024
190.0 78.48043854679896
195.0 78.44762635521548
200.0 78.25567953273308
206.0 78.03416370139658
212.0 77.89978979946834
218.0 77.69670143497626
224.0 77.57878596915681
230.0 77.53107793639701
236.0 77.620580591879
240.0 77.68259145755759
250.0 77.58625472278318
258.0 77.34245123769064
265.0 77.03235429149538
272.0 77.21114643409607
280.0 77.77800797958587
290.0 78.20180324849359
300.0 78.27735287087175
307.0 78.0909774982569
315.0 77.4043142252266
325.0 76.53755931758786
335.0 76.03753144465017
345.0 75.74988102770025
355.0 75.46824277878495
365.0 75.06275038501796
375.0 74.80330575437924
387.0 74.20710852013273
400.0 73.28108105717736
412.0 72.67610437863746
425.0 72.2809342920746
437.0 71.78196323094605
450.0 71.62747423180814
462.0 71.72577264724747
475.0 71.8769957402419
487.0 71.54938880877248
500.0 71.18442625681618
515.0 70.81980363860991
530.0 69.79485369911849
545.0 68.95004802524886
560.0 68.54766202563174
580.0 67.99547831627238
600.0 67.3455553543549
615.0 67.52776793820995
630.0 67.95229729421074
650.0 67.86231554898738
670.0 67.15774979768919
690.0 67.04060815296012
710.0 67.10977125650464
730.0 66.17942270138342
750.0 65.210485485458
775.0 65.21684837660824
800.0 66.3132113473035
825.0 66.42801116358292
850.0 66.49186535579054
875.0 67.26515950800614
900.0 66.58778719517049
925.0 65.25057055129787
950.0 64.47060735990206
975.0 64.32359823496346
1000.0 63.44405107814249
1030.0 63.95434489204561
1060.0 65.1910429622328
1090.0 64.73780054038475
1120.0 63.33450182667279
1150.0 62.29763468033046
1180.0 62.25087395107835
1220.0 63.71825569068399
1250.0 63.65434040495923
1280.0 63.45483939804937
1320.0 62.24577151840269
1360.0 62.57026913529059
1400.0 63.999738007523675
1450.0 64.02152604706147
1500.0 63.44645134866013
1550.0 63.14684170091236
1600.0 62.08390840129056
1650.0 63.30415449391988
1700.0 63.29738592556076
1750.0 62.36337659024292
1800.0 62.87587339530471
1850.0 63.65835086743702
1900.0 63.59017103091024
1950.0 63.720598443310195
2000.0 64.78819088889786
2060.0 64.98584471926505
2120.0 64.17422222634535
2180.0 65.89931076404055
2240.0 67.26864097120603
2300.0 65.91400522362511
2360.0 66.30087599013373
2400.0 66.79738673846715
2500.0 66.19930102401901
2580.0 65.34056915432406
2650.0 65.17605846404194
2720.0 65.42227267144234
2800.0 64.34437612041444
2900.0 63.504713227983686
3000.0 63.81565846914104
3070.0 62.58103690396261
3150.0 62.12503139717792
3250.0 62.828984360676685
3350.0 62.070993662855344
3450.0 61.9932152472209
3550.0 62.20061501877338
3650.0 61.7547124247278
3750.0 60.78943440592846
3870.0 60.25235049456943
4000.0 58.25548878898523
4120.0 59.49352643364237
4250.0 60.03982178698969
4370.0 60.69988940036215
4500.0 59.71577166748618
4620.0 61.872579424994726
4750.0 60.449094286056635
4870.0 60.99017766488585
5000.0 61.17079379523267
5150.0 59.5803929210182
5300.0 58.842355381628224
5450.0 60.290223327642664
5600.0 60.47388855467403
5800.0 61.6770080432194
6000.0 62.874283110541
6150.0 60.64189407998718
6300.0 61.196204317515225
6500.0 60.610765161203034
6700.0 59.92416601931558
6900.0 60.476989678127595
7100.0 58.30410198911831
7300.0 59.05982220330975
7500.0 58.03374505865712
7750.0 60.28840068354377
8000.0 60.67389084472856
8250.0 60.430157095220764
8500.0 60.9482977487348
8750.0 60.616896314600055
9000.0 59.29690815188944
9250.0 57.860132734821065
9500.0 58.04734955711339
9750.0 59.04955591420848
10000.0 59.86231600878364
10300.0 61.268650933054076
10600.0 61.1955958307761
10900.0 58.80029919315332
11200.0 58.375926399571725
11500.0 57.5746227329801
11800.0 58.07450469265707
12200.0 58.16159348713067
12500.0 56.308514864641225
12800.0 54.38791732042377
13200.0 55.71454778989779
13600.0 54.686164562251534
14000.0 56.50968375939728
14500.0 58.51638425183823
15000.0 57.66293125297034
15500.0 56.762575497944155
16000.0 55.115700677278554
16500.0 53.0604664519865
17000.0 52.58756494370395
17500.0 52.36292307459691
18000.0 52.37420404580213
18500.0 53.91581021026043
19000.0 52.31400753267708
19500.0 50.87020950637027
