Freq "Estimated In-Room Response"
22.4 65.12240872279189
23.0 66.79793185912372
23.6 68.2194362223526
24.0 69.85161229842602
25.0 71.25420767861783
25.8 72.77173823354184
26.5 74.10691448748668
27.2 75.56659859774264
28.0 76.87848363923284
29.0 78.33772886301604
30.0 79.58953594862729
30.7 80.74830286237002
31.5 81.84241234893288
32.5 82.84139834977593
33.5 83.68630145423673
34.5 84.4027839548553
35.5 85.02691992781716
36.5 85.50492691007665
37.5 85.92321928853879
38.7 86.2814451968125
40.0 86.47171497008112
41.2 86.71539225451671
42.5 87.00767787787562
43.7 87.3222606871267
45.0 87.651875526541
46.2 87.98279699713399
47.5 88.35027445824069
48.7 88.73468503647071
50.0 89.1059561990963
51.5 89.43843547911719
53.0 89.69203078088232
54.5 89.91022927052265
56.0 90.04309070835133
58.0 90.13304623602117
60.0 90.23777625690602
61.5 90.36303556674292
63.0 90.48630688742108
65.0 90.61537477917902
67.0 90.64951125930963
69.0 90.76469501138166
71.0 90.90223212243477
73.0 91.02217561146098
75.0 91.18748037516538
77.5 91.26779500888463
80.0 91.23112897149882
82.5 91.10866237832519
85.0 90.93494810970184
87.5 90.75800862760482
90.0 90.66780764109247
92.5 90.65052352087764
95.0 90.58937347757465
97.5 90.52867723218534
100.0 90.44603798977745
103.0 90.37305520626447
106.0 90.36268192755317
109.0 90.41535046220677
112.0 90.54426823181849
115.0 90.72754706768606
118.0 90.77865219433367
122.0 90.65442516834874
125.0 90.64754815481781
128.0 90.63403155275738
132.0 90.47574105872987
136.0 90.42871320430073
140.0 90.39395986080272
145.0 90.30421254409724
150.0 90.20643618371788
155.0 90.21916131226565
160.0 90.28988058470755
165.0 90.39890117279306
170.0 90.49246812536917
175.0 90.57005123317303
180.0 90.66088528977122
185.0 90.80826067830445
190.0 90.98301828910382
195.0 91.14895494323461
200.0 91.27653590897609
206.0 91.39452466216882
212.0 91.51791198919733
218.0 91.58413520661459
224.0 91.58416820502497
230.0 91.58496318184392
236.0 91.56636152424655
240.0 91.51484356310505
250.0 91.43087225346423
258.0 91.32807544424035
265.0 91.20692591689777
272.0 91.02711178973694
280.0 90.84517461668314
290.0 90.60425819053026
300.0 90.32832014427123
307.0 90.04499049170002
315.0 89.66809301455416
325.0 89.31775259107141
335.0 89.00474809588987
345.0 88.69126424267786
355.0 88.40940381123836
365.0 88.154875805691
375.0 87.94752723175264
387.0 87.86978000127398
400.0 87.88560139661284
412.0 88.02939246009161
425.0 88.24291739020909
437.0 88.54917768768131
450.0 88.8636865569759
462.0 89.09246236549065
475.0 89.21690805690379
487.0 89.20280738255386
500.0 89.07692967992044
515.0 88.90704680383162
530.0 88.80423548206532
545.0 88.8006744417557
560.0 88.84704437590715
580.0 88.92666090827471
600.0 89.03487252946844
615.0 89.28038628593633
630.0 89.54233491975292
650.0 89.76334405266388
670.0 89.8981570046617
690.0 89.93208139112818
710.0 89.96632239990443
730.0 90.05547979981972
750.0 90.2632504540254
775.0 90.43138521018358
800.0 90.27278094548947
825.0 90.10256925418271
850.0 90.45884522004201
875.0 90.34452689798009
900.0 89.63586639240891
925.0 89.28849888040209
950.0 89.19073259924978
975.0 88.9913275430845
1000.0 88.90048719380265
1030.0 88.9915581795653
1060.0 88.7776754537709
1090.0 88.7574439271858
1120.0 88.9310301625222
1150.0 88.14238858406203
1180.0 87.11150569279117
1220.0 87.52012699922588
1250.0 88.19816623051418
1280.0 88.33352153046683
1320.0 88.06735284400618
1360.0 87.69462975177073
1400.0 87.13301223084356
1450.0 87.12327358371759
1500.0 87.07253240758492
1550.0 87.00542695079331
1600.0 87.31678635749664
1650.0 87.9116153090861
1700.0 87.55417042174993
1750.0 87.94034646953153
1800.0 89.2580847023929
1850.0 89.46072611902919
1900.0 88.66489473063153
1950.0 88.05742728824877
2000.0 88.86324784528328
2060.0 88.78472617545792
2120.0 88.10641262554093
2180.0 87.6308659466233
2240.0 88.54026517282712
2300.0 88.35445514933654
2360.0 88.25945720441776
2400.0 88.02802621454042
2500.0 87.10535823473656
2580.0 87.32354700651442
2650.0 87.81248224185944
2720.0 86.70849817567134
2800.0 86.62944465505242
2900.0 87.02921154386932
3000.0 87.44615990674053
3070.0 86.72342069334015
3150.0 86.91184094388022
3250.0 88.43934647183391
3350.0 88.15579564337104
3450.0 88.63417801930538
3550.0 90.3630663846878
3650.0 87.99479873942796
3750.0 88.8883107302113
3870.0 89.54816254801173
4000.0 88.29412023935011
4120.0 91.65059043187738
4250.0 93.36325377650097
4370.0 90.49508223508396
4500.0 90.10183954165298
4620.0 89.12017648623358
4750.0 90.36844696997532
4870.0 88.1436892175391
5000.0 87.91549762558587
5150.0 86.01728318128197
5300.0 86.32126424176958
5450.0 85.3850470865972
5600.0 85.14930563519015
5800.0 85.85616528110567
6000.0 86.3531014476353
6150.0 86.58502709284453
6300.0 85.62950467299936
6500.0 85.50935273242943
6700.0 85.8399317511954
6900.0 90.9038874064993
7100.0 92.5178660115598
7300.0 93.59453023203396
7500.0 90.73598857329291
7750.0 89.14015694794777
8000.0 88.82234581153308
8250.0 87.88825669163134
8500.0 87.07142093398241
8750.0 87.1074460855091
9000.0 86.70796312104443
9250.0 86.54743390886821
9500.0 87.29332245288916
9750.0 89.96502385358606
10000.0 88.87483875177224
10300.0 87.7317139103338
10600.0 88.78672057134735
10900.0 87.11055790310765
11200.0 87.02857357024244
11500.0 89.00531744241233
11800.0 87.67525473189872
12200.0 86.9705560336574
12500.0 88.39628617491246
12800.0 88.7731004545625
13200.0 87.92181734442342
13600.0 86.81512659516062
14000.0 88.76865252534857
14500.0 87.43606273241035
15000.0 87.98678273738147
15500.0 87.89701998939827
16000.0 86.5788977875427
16500.0 87.13848708956947
17000.0 85.97267999801866
17500.0 90.16701836729824
18000.0 79.29858024764324
18500.0 79.9415649121514
19000.0 80.32126547679569
19500.0 80.25411494997103
