Freq "Sound Power"
20.5078 53.52201134819994
21.9727 53.72579677337579
23.4375 55.69621292497111
24.9023 57.96292463718659
26.3672 59.68996620327381
27.832 61.751844868481456
29.2969 63.69872584542965
30.7617 65.64177748425867
32.2266 67.44945899661714
33.6914 69.24802164244257
35.1562 70.83423512653434
36.6211 72.58959431677907
38.0859 73.8219554140237
39.5508 75.58235908996211
41.0156 76.44324129191624
42.4805 77.48540378604532
43.9453 78.20177397697485
45.4102 78.7357269590085
46.875 79.17528020753677
48.3398 79.50457323136847
51.2695 80.05543756009072
52.7344 80.24366565732302
54.1992 80.43814595543056
55.6641 80.61570323415947
58.5938 80.99927009820435
60.0586 81.19636074247423
62.9883 81.54155691441967
64.4531 81.69442175382936
67.3828 82.11787586219903
68.8477 82.2889149859909
71.7773 82.6515594121538
74.707 82.9502681777546
77.6367 83.20655067074411
79.1016 83.33366407146411
82.0312 83.60639150046275
84.9609 83.78814396052802
87.8906 84.01977509971813
90.8203 84.35271190198054
95.2148 84.50821868566483
98.1445 84.54382758471475
101.074 84.58022097421174
105.469 84.60558414309924
108.398 84.64691468238777
112.793 84.5645086834626
117.188 84.25987038319442
120.117 84.39750484019565
124.512 84.70133190772341
128.906 84.51947723579974
133.301 84.24449500639709
139.16 84.03095273420428
143.555 83.76955202306065
147.949 83.71857860038804
153.809 83.63012556542347
159.668 83.00456397089583
165.527 82.77303230043624
171.387 82.913495609948
177.246 83.16509437294464
183.105 82.7776917921629
188.965 82.83603371208645
196.289 82.51031080669404
203.613 81.98626170318487
210.938 81.69385919219646
218.262 81.98863791333326
225.586 81.90247366176104
232.91 81.40454807322554
241.699 81.19212115486592
250.488 80.87655918403496
259.277 80.98721998477687
268.066 81.77646082478515
276.855 81.10245248452105
287.109 80.3955580231735
297.363 80.52186586084014
307.617 81.06583581052465
319.336 80.66367986269769
329.59 80.80788200176085
341.309 80.59465936913072
353.027 80.26406832725124
366.211 80.87629967957268
379.395 80.55490383529805
392.578 80.31934138135196
405.762 80.30692320287517
420.41 79.88433163237629
435.059 80.13665891361231
451.172 80.52635739167742
465.82 80.55226970878464
483.398 80.59353678774094
499.512 80.28699530689947
517.09 80.25920687924283
536.133 80.65996103643559
555.176 80.6428893813888
574.219 80.61372307205357
594.727 80.59586971014903
615.234 80.5782997960721
637.207 80.23274141721991
659.18 80.08326699876147
682.617 79.84095831729165
707.52 79.85654471200971
732.422 80.22413281426792
757.324 81.60701902664916
785.156 80.94227892550539
811.523 80.71042291958842
840.82 80.716451576092
870.117 80.05141946681957
900.879 80.10881142167237
933.105 79.51262479931255
965.332 79.49461601846815
1000.49 79.00563169394745
1035.64 78.66534300034229
1072.27 78.42960712972412
1108.89 78.20725438951489
1148.44 78.18137342311084
1189.45 78.20688420318346
1230.47 77.55120317932055
1274.41 77.34274080039096
1319.82 77.62069035871954
1366.7 77.63686508271932
1413.57 77.68599347319399
1463.38 77.50670300032387
1516.11 77.73928278706462
1568.85 78.2378344521605
1624.51 78.16878851301252
1681.64 77.81528854886918
1741.7 78.04388988916267
1803.22 78.329625796842
1866.21 77.71154365651807
1932.13 77.75638449258966
1999.51 77.76230725356733
2069.82 77.73045267537638
2143.07 77.32733315720264
2219.24 77.35811905367366
2296.88 77.64617710228337
2378.91 77.46779653364031
2462.4 77.4369103775744
2548.83 77.59900001476278
2639.65 77.67960842216043
2731.93 77.58340298679003
2828.61 77.67872583498598
2928.22 77.96145396058363
3030.76 77.87025752969166
3137.7 78.08197887392953
3249.02 78.0695302094042
3363.28 78.17182112042427
3481.93 78.15394129626638
3604.98 78.22312269484753
3732.42 77.87104023382614
3864.26 77.99534530383674
4000.49 77.69100082962787
4141.11 77.82064391143018
4287.6 77.62710170594151
4438.48 77.38898318537399
4595.21 77.30168892024
4756.35 76.89703013095163
4924.8 76.57234315263166
5097.66 76.4268513799831
5277.83 75.92081156155369
5463.87 75.7663984018369
5657.23 75.6127973771314
5856.45 75.47688207606372
6062.99 75.34786076713617
6276.86 75.04923553696682
6498.05 74.96555501500909
6726.56 74.844557113336
6963.87 74.60319300623068
7209.96 74.38504565247554
7464.84 74.30616101892569
7727.05 74.20383578456403
7999.51 74.31418557625479
8282.23 74.34292712803365
8573.73 74.46632494126304
8876.95 74.57635556098187
9188.96 74.60483196353466
9514.16 74.65047514604046
9849.61 74.87888406572547
10196.8 75.13498908942768
10555.7 75.20178672003433
10927.7 75.47007552962178
11313.0 75.89828322005994
11712.9 76.19127477103235
12126.0 76.22464298706156
12553.7 76.48130943615458
12996.1 76.74969783541322
13454.6 76.76048996614628
13929.2 76.49056911800858
14419.9 75.79740183056782
14928.2 74.69781277441201
15455.6 73.3294911987087
16000.5 71.5940001076699
16564.5 69.8251447420168
17148.9 68.96264783843809
17752.4 69.12459901560196
18379.4 69.58196834958288
19026.9 69.21488993908955
19697.8 68.25906391801335
19999.5 67.76928789634891
