Freq "Listening Window"
20.0 39.81799270814943
20.2909 40.40215833555024
20.586 41.178756953334755
20.8855 41.913405108765176
21.1893 42.581393964365475
21.4975 43.154226117387395
21.8102 43.5512028423677
22.1274 44.04855823568988
22.4492 44.52894522568289
22.7758 45.10432122569375
23.1071 45.688222945132964
23.4432 46.372167872368095
23.7841 46.8343503726054
24.1301 47.353897286973336
24.4811 47.84232609614375
24.8372 48.22633769859638
25.1984 48.704917917499074
25.5649 49.38747270371073
25.9368 50.205194334254884
26.3141 51.29603693256399
26.6968 52.49368641817517
27.0851 53.59368641817517
27.4791 54.378954517826116
27.8788 55.30387728081678
28.2843 55.903877280816744
28.6957 56.608245206271334
29.1131 57.30852014401623
29.5365 58.21823111218572
29.9661 58.95400635644634
30.402 59.63904140334887
30.8442 60.342301748582656
31.2929 60.95397506023917
31.748 61.45397506023917
32.2098 62.153975060239176
32.6783 62.76027747153199
33.1536 63.58040508248939
33.6359 64.10364188049694
34.1251 64.73000625586961
34.6215 65.2300062558696
35.125 65.84891130363158
35.6359 66.55714018835671
36.1543 67.35714018835674
36.6802 68.07271147109232
37.2137 68.68655794955485
37.755 69.29652962921888
38.3041 70.01091544507656
38.8613 70.71091544507657
39.4265 71.32150882152514
40.0 71.82701894360181
40.5818 72.40603559643583
41.1721 72.8179825673383
41.771 73.31134604184578
42.3785 73.89436538650551
42.9949 74.50647528333496
43.6203 74.89683098775349
44.2548 75.37449070556127
44.8985 75.77798820229138
45.5515 76.30044921559059
46.2141 76.73235618793737
46.8863 77.13200419750383
47.5683 77.39897263256974
48.2602 77.773379638421
48.9621 78.03205702837057
49.6743 78.35968851351173
50.3968 78.56949119027456
51.1299 78.78524681441348
51.8736 78.97475932381586
52.6281 79.20963146541065
53.3936 79.38485790108342
54.1702 79.61808036162739
54.9581 79.83650540043604
55.7575 79.79308880480747
56.5685 80.0497224588517
57.3914 80.11720053106647
58.2261 80.22196030674289
59.073 80.32958994077138
59.9323 80.34108276681908
60.804 80.44320304243139
61.6884 80.57987043153379
62.5857 80.5940414002074
63.496 80.6929148652004
64.4196 80.6872488813008
65.3566 80.79530963249444
66.3073 80.80918981544389
67.2717 80.92804046550327
68.2502 80.92767011581483
69.2429 80.94343409083496
70.2501 80.94768135942299
71.2719 81.15459110734206
72.3086 81.24308056248347
73.3603 81.32959246307445
74.4274 81.46858959000602
75.5099 81.47185611196765
76.6083 81.48428078028913
77.7226 81.54580665645418
78.8531 81.60138535030782
80.0 81.68224140066741
81.1636 81.67373796817724
82.3442 81.70289673882144
83.5419 81.82186596515237
84.757 81.7724385554009
85.9899 81.92994690632919
87.2406 82.03241290532935
88.5096 81.96282910223579
89.797 82.09442649692723
91.1031 82.14151690377575
92.4282 82.24151690377576
93.7726 82.24151690377576
95.1366 82.24151690377576
96.5204 82.30712630781778
97.9243 82.30712630781778
99.3486 82.37457905286584
100.794 82.44151690377575
102.26 82.4071263078178
103.747 82.57457905286583
105.256 82.513265188981
106.787 82.56038148032894
108.34 82.60881247604942
109.916 82.58372316370088
111.515 82.66176772095483
113.137 82.69579991643734
114.783 82.73664232916207
116.452 82.86176772095483
118.146 82.87411245912284
119.865 82.79441076894008
121.608 82.83705556570423
123.377 82.83972789984578
125.171 82.83814669710138
126.992 82.99834565207969
128.839 83.01271989322433
130.713 82.99313236034227
132.615 83.04869145499075
134.543 83.01500730212642
136.5 83.11284918339325
138.486 83.19990288761107
140.5 83.15443236343326
142.544 83.17090553378677
144.617 83.26865791523886
146.721 83.25055838446278
148.855 83.35825589155755
151.02 83.35800582176542
153.217 83.34510144417035
155.445 83.3506598326059
157.706 83.46392431257402
160.0 83.47134066383457
162.327 83.3782413961178
164.688 83.49700572747868
167.084 83.50824175275926
169.514 83.61324729726437
171.98 83.64534225351007
174.481 83.66574846219511
177.019 83.68032267098006
179.594 83.67701172257674
182.206 83.7144835657978
184.856 83.72700054337017
187.545 83.83937530495095
190.273 83.84255097149254
193.041 83.96535212165165
195.849 83.9526512225658
198.697 83.93832494097335
201.587 83.95640544121012
204.52 83.94963302922561
207.494 84.03864636303595
210.512 84.03864636303595
213.574 84.03864636303595
216.681 84.08291667215747
219.833 83.95965880090452
223.03 84.04573949844237
226.274 84.03701631093767
229.565 83.9998000713639
232.905 83.98070430736009
236.292 83.96932465027939
239.729 84.03945519863696
243.216 84.03813772853123
246.754 83.92747581926719
250.343 84.10431447632324
253.984 84.09581072374867
257.678 84.11645419789414
261.426 84.02789049929495
265.229 84.12149350859305
269.087 84.09181495866744
273.001 84.00943428608434
276.972 84.0479813399443
281.0 84.11062083916202
285.088 84.12643452930699
289.234 84.08580854117514
293.441 84.10854917700823
297.709 84.16299744759348
302.04 84.16199744759348
306.433 84.16199744759348
310.89 84.16562550236924
315.412 84.11647799117603
320.0 84.15618522853455
324.655 84.13731819509607
329.377 84.1118613471087
334.168 83.94483802369817
339.028 83.89532965064228
343.959 83.86744965113124
348.962 83.89029284585999
354.038 83.91501273630898
359.188 83.91074944028692
364.412 83.77399568002214
369.713 83.78272316370087
375.09 83.80263523303506
380.546 83.8605563667572
386.081 83.78794229330725
391.697 83.79417413219625
397.394 83.78524802198476
403.175 83.77841112737978
409.039 83.68086993304422
414.989 83.75381352391636
421.025 83.77227082890417
427.149 83.68314095592693
433.362 83.73612943555398
439.665 83.69758704009831
446.06 83.77907663080515
452.548 83.75905545129817
459.131 83.78306286843144
465.809 83.73320045362178
472.584 83.77222969510461
479.458 83.76972520976224
486.432 83.86250980871039
493.507 83.84758220983986
500.686 83.8399353377864
507.968 83.9448715608325
515.357 83.95925397968884
522.853 84.00251399440577
530.458 84.06330338505417
538.174 83.94504189059211
546.002 83.82913728181401
553.943 83.67731620084737
562.001 83.52758258565589
570.175 83.46323171376761
578.469 83.30639911870347
586.883 83.16402336317864
595.419 83.07603571237851
604.08 82.99737209462496
612.866 83.04491010878223
621.78 83.00256505095638
630.824 83.00913622762384
640.0 83.04816574046816
649.309 83.12418984442147
658.753 83.22521106565698
668.335 83.44020764128646
678.056 83.52501409008724
687.919 83.5763647080688
697.925 83.69010346068573
708.077 83.69038031172228
718.376 83.70749809708134
728.825 83.79418644028667
739.426 83.79976775548518
750.181 83.94050121429788
761.093 83.93444867582247
772.163 83.98048328091998
783.394 83.94689645807186
794.789 83.99577221792364
806.349 84.00432123434416
818.078 83.96208105114293
829.977 84.04162552731225
842.05 84.09401550815215
854.298 84.08753208682346
866.724 83.99238430382135
879.33 83.70787540801265
892.12 83.44448160735251
905.097 83.10688034868684
918.262 82.82398980788486
931.618 82.65472071066297
945.169 82.62247895231218
958.917 82.79563724474067
972.864 82.9323852513139
987.015 83.0644925711698
1001.37 83.15573634629833
1015.94 83.20590201978517
1030.71 83.26622872392444
1045.71 83.38241290524576
1060.92 83.39503116929987
1076.35 83.37165416337821
1092.0 83.38619740037402
1107.89 83.25839991265278
1124.0 83.11907042420219
1140.35 83.07335266035952
1156.94 82.95187502720087
1173.77 83.06063939083656
1190.84 83.24141479420216
1208.16 83.32845776357391
1225.73 83.39080149424584
1243.56 83.32103470157267
1261.65 83.4207001229196
1280.0 83.47302298333597
1298.62 83.33350058565084
1317.51 83.19933706421945
1336.67 83.10140045662206
1356.11 83.01739865631271
1375.84 83.08157171408908
1395.85 83.10058340624266
1416.15 83.05140150481476
1436.75 83.1630813169622
1457.65 83.20084943828373
1478.85 83.07235449145921
1500.36 83.11116085823062
1522.19 83.26207051794567
1544.33 83.32926394991757
1566.79 83.3904566518015
1589.58 83.3705582135181
1612.7 83.22061248057604
1636.16 83.17379803523559
1659.95 83.31061294266942
1684.1 83.30509023593605
1708.6 83.33968580698993
1733.45 83.32330630906407
1758.66 83.42728719865168
1784.24 83.32297317977526
1810.19 83.24731894301303
1836.52 83.10337409184933
1863.24 83.08014606834399
1890.34 82.9762450305588
1917.83 83.06669097275264
1945.73 83.12936425960586
1974.03 83.24809997309315
2002.74 83.37080220220598
2031.87 83.54781959140848
2061.43 83.48062484197887
2091.41 83.2193857614941
2121.83 82.99310519863135
2152.69 83.03949610044663
2184.01 83.20380627552706
2215.77 83.31717194723011
2248.0 83.32068016143243
2280.7 83.28472768135259
2313.87 83.13101125244333
2347.53 83.04228387730393
2381.68 83.11011433199293
2416.32 83.25670335222274
2451.46 83.41773591155683
2487.12 83.39883559699166
2523.3 83.41269441832604
2560.0 83.17807062916846
2597.24 83.04303061979927
2635.01 83.0737583734827
2673.34 83.30449679752437
2712.23 83.4428485186673
2751.68 83.53622298660869
2791.7 83.26779559987699
2832.31 83.23791164647322
2873.5 83.30346893228514
2915.3 83.51812215079968
2957.7 83.48712879024772
3000.72 83.46058927804
3044.37 83.10612190850179
3088.65 83.00673857250885
3133.58 83.03066019001571
3179.16 83.11685196637866
3225.4 82.92285346427246
3272.31 82.78852987353285
3319.91 82.7467286462909
3368.2 82.77333099195991
3417.19 82.93468542189572
3466.89 82.92396261882226
3517.32 82.7581623423112
3568.48 82.6178128095211
3620.39 82.71033204724759
3673.05 82.6741777271509
3726.47 82.61599779142455
3780.67 82.52318465647909
3835.67 82.4798643345044
3891.46 82.61966435150549
3948.06 82.6287098367497
4005.49 82.60077357145148
4063.75 82.64087658376648
4122.86 82.76836369898105
4182.82 82.77485176225619
4243.66 82.85826722423568
4305.39 82.86627914726655
4368.01 83.02415388748884
4431.55 83.01533444831887
4496.01 83.01920325314475
4561.4 83.00668058631922
4627.75 83.00591063314525
4695.06 82.98702129970621
4763.35 82.81381121114562
4832.64 82.78062528547835
4902.93 82.78221819805613
4974.24 82.76032599792134
5046.6 82.76382407293335
5120.0 82.90676634038877
5194.47 82.6947131734173
5270.03 82.62871435223616
5346.68 82.71807533776831
5424.45 82.55469250019884
5503.35 82.67943566207794
5583.4 82.8572083756178
5664.61 82.88674468144946
5747.01 83.07110550070529
5830.6 83.22949323264734
5915.41 83.21608761102988
6001.45 83.35058184865889
6088.74 83.37978492365333
6177.3 83.29272169540462
6267.15 83.36653860611585
6358.31 83.20864462432795
6450.8 83.03958129945153
6544.62 82.95889568597384
6639.82 82.88398685758423
6736.4 82.90495644438872
6834.38 82.90962775576367
6933.79 82.7823166211149
7034.64 82.73301963248244
7136.96 82.56978543762074
7240.77 82.5332083159808
7346.09 82.44641022989504
7452.94 82.43780679090462
7561.35 82.51802564361962
7671.33 82.55933387895482
7782.91 82.5470290821434
7896.12 82.4073705392783
8010.97 82.47222128475545
8127.49 82.62171546712365
8245.71 82.89809702321614
8365.65 82.88607860221599
8487.33 82.88562855738473
8610.78 82.70763975623522
8736.03 82.46807028691862
8863.09 82.38170322554522
8992.01 82.49774539248853
9122.8 82.69865577811248
9255.5 82.8256625518858
9390.12 82.91155012935573
9526.7 82.9998948471182
9665.27 82.97390129656569
9805.86 83.15202230557824
9948.49 83.36073057431888
10093.2 83.37982281540371
10240.0 83.39953759253437
10388.9 83.38540637950186
10540.1 83.40387585656919
10693.4 83.35582442918133
10848.9 83.33595521789036
11006.7 83.156256794588
11166.8 82.89199525267443
11329.2 82.83034694839884
11494.0 82.87086229547839
11661.2 82.91673931496254
11830.8 82.88229320788295
12002.9 82.93656464820268
12177.5 83.01039986362991
12354.6 82.81748920876151
12534.3 82.49886518651904
12716.6 82.0976967430789
12901.6 81.78287459140245
13089.2 81.41266159006301
13279.6 81.12457330026697
13472.8 80.90784463100474
13668.8 80.91784463529632
13867.6 81.01825032380404
14069.3 80.85379359526921
14273.9 80.75831140426862
14481.5 80.84929868796658
14692.2 81.13660501758284
14905.9 81.54521568240986
15122.7 81.95351274575935
15342.7 82.44068677541927
15565.8 82.71892719678567
15792.2 82.75010309218868
16021.9 82.67462853240478
16255.0 82.62058330530208
16491.4 82.43304112326777
16731.3 82.41878355148103
16974.7 82.52559608151324
17221.6 82.61466074990892
17472.1 82.55263737293075
17726.2 82.5287637250798
17984.0 82.48884791993405
18245.6 82.44221647954386
18511.0 82.52737443132854
18780.2 82.61511148413958
19053.4 82.5875580201843
19330.5 82.54017261815702
19611.7 82.60153327613216
19897.0 82.70178048931297
