Freq,On Axis,Listening Window,Sound Power,Early Reflections,Early Reflections DI,Sound Power DI,DI offset
22.4,53.39999999999999,53.51668978458714,51.59730941895377,52.62821824854608,40.88847153604107,41.91938036563337,40
23.0,54.3,54.3952510277371,52.45644020999437,53.48275379477296,40.91249723296414,41.938810817742734,40
23.6,55.2,55.305733942014555,53.348982527603866,54.379725022313025,40.92600891970153,41.95675141441069,40
24.0,56.10000000000001,56.16049117098167,54.18075052853045,55.20845683249,40.95203433849167,41.97974064245122,40
25.0,56.89999999999999,56.98473132593547,55.022330413142086,56.034032781324086,40.950698544611384,41.962400912793385,40
25.8,57.7,57.782603875304616,55.80339577983024,56.81442188601734,40.968181989287274,41.97920809547438,40
26.5,58.60000000000001,58.60486013530702,56.62193318547948,57.6224650355788,40.98239509972822,41.982926949827544,40
27.2,59.3,59.351134435375585,57.37370356402069,58.36147861529089,40.98965582008469,41.9774308713549,40
28.0,60.10000000000001,60.10486013530701,58.15144256376202,59.128823120481684,40.97603701482532,41.95341757154499,40
29.0,60.89999999999999,60.85916364211732,58.91884825435885,59.887342845342445,40.97182079677488,41.940315387758474,40
30.0,61.7,61.58205988285603,59.65713474192195,60.61904078543347,40.96301909742256,41.92492514093408,40
30.7,62.39999999999999,62.32497287433459,60.410314955735686,61.36567225355577,40.95930062077882,41.914657918598905,40
31.5,63.2,63.047272596324504,61.14748481901216,62.08492117923973,40.962351417084776,41.89978777731234,40
32.5,63.89999999999999,63.78002695526929,61.88907953688731,62.82298475920298,40.95704219606631,41.890947418381984,40
33.5,64.6,64.48002695526928,62.62453115533155,63.553685302499616,40.926341652769665,41.85549579993773,40
34.5,65.40000000000002,65.17000301736195,63.32812889337437,64.2417225956937,40.92828042166825,41.84187412398758,40
35.5,66.1,65.87000301736195,64.05416386878149,64.95434033734519,40.915662680016766,41.815839148580466,40
36.5,66.8,66.56898411684477,64.7839029610563,65.66920312316272,40.89978099368206,41.785081155788475,40
37.5,67.5,67.26898411684475,65.50347793233992,66.38667938301586,40.88230473382889,41.76550618450483,40
38.7,68.2,68.00204662173796,66.24446204905972,67.12144244717152,40.88060417456644,41.75758457267824,40
40.0,68.9,68.70204662173796,66.95184139546356,67.82323338239856,40.87881323933941,41.7502052262744,40
41.2,69.6,69.40204662173797,67.66787338112518,68.52923111874958,40.87281550298839,41.73417324061279,40
42.5,70.3,70.10204662173797,68.38791925926189,69.23217446454179,40.869872157196184,41.71412736247608,40
43.7,71.0,70.75890536322389,69.0779409358908,69.92006779210048,40.838837571123406,41.680964427333095,40
45.0,71.59999999999998,71.44727862872392,69.77631439886916,70.60530795744098,40.84197067128294,41.67096422985476,40
46.2,72.3,72.11377695707034,70.46519895746883,71.28739684204588,40.82638011502446,41.648577999601514,40
47.5,72.90000000000002,72.74727862872393,71.13344130281207,71.93905811819009,40.80822051053384,41.61383732591186,40
48.7,73.6,73.41377695707035,71.781023384028,72.58996236514454,40.82381459192581,41.63275357304235,40
50.0,74.2,74.03562068408569,72.4429475444792,73.23393017333399,40.8016905107517,41.59267313960649,40
51.5,74.8,74.6356206840857,73.06721943898215,73.85582805867904,40.77979262540666,41.568401245103544,40
53.0,75.40000000000002,75.2356206840857,73.67230672119454,74.43958295012547,40.79603773396023,41.56331396289116,40
54.5,75.9,75.80229639130465,74.25223575132203,75.01710824698172,40.78518814432293,41.55006063998262,40
56.0,76.50000000000001,76.36846270750857,74.82765210293293,75.5829561481395,40.78550655936907,41.54081060457564,40
58.0,77.0,76.92419779300913,75.39261892026494,76.14257118796351,40.781626605045616,41.53157887274419,40
60.0,77.60000000000001,77.4356206840857,75.90841573144483,76.65376930084388,40.78185138324183,41.52720495264087,40
61.5,77.99999999999999,77.92419779300913,76.41056015122315,77.14476928821992,40.77942850478921,41.51363764178598,40
63.0,78.5,78.41300581665409,76.88901151452468,77.62118174496196,40.79182407169213,41.52399430212941,40
65.0,79.00000000000001,78.83562068408571,77.33251656778701,78.05657981218542,40.77904087190029,41.5031041162987,40
67.0,79.39999999999999,79.25837672536983,77.75124030422828,78.4776198671053,40.780756858264525,41.50713642114155,40
69.0,79.8,79.65837672536982,78.15530107080794,78.87283991826095,40.78553680710887,41.50307565456188,40
71.0,80.2,80.02445814420118,78.50477392889657,79.22916137364531,40.795296770555865,41.51968421530461,40
73.0,80.49999999999999,80.32445814420116,78.8068809802263,79.52466213718358,40.79979600701758,41.51757716397486,40
75.0,80.8,80.62445814420117,79.08738015962491,79.81535051058596,40.80910763361521,41.53707798457626,40
77.5,81.0,80.82445814420117,79.30499668692929,80.02053735891803,40.80392078528314,41.51946145727189,40
80.0,81.1,80.96997382606371,79.46066140697624,80.1661234680334,40.8038503580303,41.509312419087465,40
82.5,81.2,81.0699738260637,79.56265242632746,80.25971572448147,40.810258101582235,41.50732139973624,40
85.0,81.3,81.08154004111532,79.58006827836498,80.27851420219162,40.8030258389237,41.50147176275034,40
87.5,81.2,81.05837672536983,79.5298460391995,80.2225982213345,40.83577850403533,41.52853068617033,40
90.0,81.1,80.91476245148908,79.37480307757781,80.06926683535825,40.84549561613083,41.53995937391127,40
92.5,80.9,80.73762776013771,79.14359631667854,79.85933392476521,40.8782938353725,41.59403144345917,40
95.0,80.7,80.46090170960879,78.80528732620756,79.54581697171947,40.915084737889316,41.65561438340123,40
97.5,80.40000000000002,80.16090170960878,78.38268363989626,79.18215844457805,40.97874326503073,41.77821806971252,40
100.0,80.10000000000001,79.84928032556397,77.8816279337696,78.78999219865406,41.059288126909905,41.967652391794374,40
103.0,79.7,79.49531834297535,77.32138907828856,78.36213944146064,41.13317890151471,42.17392926468679,40
106.0,79.39999999999999,79.23762776013771,76.74427645213628,77.9899985478831,41.24762921225461,42.49335130800144,40
109.0,79.2,79.03762776013771,76.20777374186683,77.67870478050787,41.35892297962984,42.82985401827088,40
112.0,79.00000000000001,78.85837672536981,75.78253297482985,77.46164880046926,41.396727924900546,43.07584375053996,40
115.0,78.8,78.74701360926962,75.49225884500818,77.3382483643395,41.40876524493011,43.254754764261435,40
118.0,78.7,78.6130058166541,75.33165234181823,77.23167899982838,41.38132681682572,43.28135347483587,40
122.0,78.5,78.46768347817137,75.2856688734551,77.13039070608183,41.33729277208954,43.18201460471627,40
125.0,78.2,78.1902725709036,75.26455552459637,76.95446570575977,41.23580686514383,42.92571704630723,40
128.0,77.90000000000002,77.8130058166541,75.21763952065363,76.66746900063067,41.14553681602342,42.59536629600046,40
132.0,77.4,77.27950687011969,75.08735622407652,76.25603800125198,41.02346886886771,42.192150646043174,40
136.0,76.89999999999999,76.69281329520847,74.87319973480847,75.74342391616027,40.9493893790482,41.8196135604,40
140.0,76.50000000000001,76.14220039298424,74.5725941659115,75.18928890587944,40.9529114871048,41.56960622707274,40
145.0,76.4,75.96971598837824,74.27496762283072,74.85875136765624,41.110964620722,41.694748365547525,40
150.0,76.59999999999998,76.23820627595418,74.08877554003558,74.90944895990964,41.328757316044545,42.1494307359186,40
155.0,77.3,77.05547878801953,74.15986078145018,75.46590428523702,41.58957450278251,42.89561800656935,40
160.0,78.2,78.00901422493406,74.51970776862493,76.29992441169867,41.709089813235394,43.48930645630914,40
165.0,79.09999999999998,78.92896215694925,75.10733582705356,77.19381889546754,41.73514326148171,43.82162632989569,40
170.0,79.8,79.64037254002034,75.69562979785529,77.90368387997702,41.73668866004331,43.94474274216505,40
175.0,80.3,80.04063796503014,76.12742693959333,78.32358017255635,41.717057792473796,43.91321102543681,40
180.0,80.40000000000002,80.09882484139398,76.40085384826945,78.44113159871935,41.657693242674625,43.69797099312453,40
185.0,80.40000000000002,80.0027905394419,76.54009762718563,78.3941569114106,41.6086336280313,43.46269291225627,40
190.0,80.3,79.89128085577083,76.63821117145153,78.31202268749678,41.57925816827405,43.2530696843193,40
195.0,80.40000000000002,80.05992778156313,76.79383165317081,78.43661901081849,41.62330877074464,43.26609612839232,40
200.0,80.9,80.57919595457635,77.03852347861063,78.84868101470059,41.73051493987576,43.54067247596572,40
206.0,81.50000000000001,81.19073766770674,77.29588755627468,79.35198975370996,41.838747913996784,43.89485011143206,40
212.0,82.0,81.69073766770673,77.52429876922422,79.8175315434936,41.87320612421313,44.16643889848251,40
218.0,82.2,81.87919595457636,77.6096931767037,79.99439176149453,41.884804193081834,44.26950277787266,40
224.0,82.1,81.73820627595417,77.43894667974048,79.81503629789945,41.923169978054716,44.29925959621369,40
230.0,81.8,81.41919871095398,77.03254828347433,79.37061347484924,42.04858523610474,44.38665042747965,40
236.0,81.50000000000001,81.18848397296759,76.50829939894537,78.95634864265377,42.232135330313824,44.68018457402222,40
240.0,81.59999999999998,81.32906814583248,76.192330250962,78.93833200101398,42.390736144818504,45.13673789487048,40
250.0,82.0,81.68848397296757,76.24652233773963,79.27512877992783,42.41335519303975,45.44196163522794,40
258.0,82.5,81.97304334183364,76.45184981989867,79.5441883683403,42.428854973493344,45.521193521934975,40
265.0,82.90000000000002,82.16154706519929,76.57286823450467,79.62468209262227,42.53686497257702,45.58867883069462,40
272.0,83.2,82.40728200640775,76.62478461202494,79.67158974472318,42.73569226168458,45.782497394382816,40
280.0,83.4,82.73982782104487,76.76306979676518,79.93455585025937,42.8052719707855,45.97675802427969,40
290.0,83.5,82.93075598766968,76.89184585952303,80.18923482963373,42.74152115803595,46.038910128146654,40
300.0,83.1,82.5062118311738,76.51126083271556,79.83542798098763,42.67078385018617,45.994950998458236,40
307.0,82.0,81.28143765495706,75.23295649493859,78.52516470062154,42.756272954335515,46.04848116001847,40
315.0,80.3,79.56505167738595,73.26830590690531,76.59055529485092,42.97449638253504,46.29674577048064,40
325.0,78.9,78.2270214977508,71.60926262267243,75.11443660434163,43.112584893409164,46.617758875078366,40
335.0,78.5,77.98597960501986,71.38647762561006,75.0127925275476,42.97318707747226,46.59950197940981,40
345.0,79.39999999999999,78.81878058519239,72.23214820450546,75.85626855684119,42.9625120283512,46.58663238068692,40
355.0,80.8,80.18584818543327,73.26990074800732,76.98787713868867,43.1979710467446,46.915947437425956,40
365.0,82.0,81.28282793330318,74.00190698122348,77.9004308085612,43.382397124741985,47.2809209520797,40
375.0,82.4,81.6000372838602,74.10542131185703,78.11885119848331,43.48118608537689,47.494615972003174,40
387.0,81.8,80.92315953109127,73.39185527304723,77.46030317879146,43.46285635229981,47.531304258044045,40
400.0,80.49999999999999,79.54712497226778,71.90179890740573,76.01641077072847,43.53071420153931,47.64532606486205,40
412.0,79.00000000000001,78.01797756591536,70.17812547542219,74.37770010000871,43.64027746590665,47.83985209049317,40
425.0,78.2,77.26939299524253,69.45995933517264,73.70027775558559,43.56911523965694,47.809433660069885,40
437.0,78.8,77.85541140169215,70.07813942882322,74.27860865817534,43.57680274351681,47.77727197286893,40
450.0,80.10000000000001,79.19496060684126,71.26784297690872,75.50023660455385,43.694724002287415,47.92711762993254,40
462.0,81.3,80.30785062139782,72.11689555031167,76.45712944913575,43.85072117226207,48.19095507108615,40
475.0,81.7,80.74195667227497,72.24535054962344,76.7070635691202,44.03489310315477,48.49660612265153,40
487.0,81.7,80.76901534900166,72.1216026821962,76.64651651130183,44.12249883769984,48.647412666805465,40
500.0,81.7,80.66930004566278,71.90817131054442,76.46607534433274,44.20322470133004,48.76112873511836,40
515.0,81.7,80.49142984867068,71.4904571062768,76.11605779408931,44.37537205458136,49.00097274239387,40
530.0,82.0,80.63310527156614,71.49333605164277,76.21120049620886,44.42190477535728,49.139769219923366,40
545.0,82.4,81.06498893772772,71.8339044528301,76.62768397639095,44.437304961336764,49.23108448489762,40
560.0,82.90000000000002,81.53765740126006,72.19519300491758,77.02471225538021,44.512945145879854,49.34246439634248,40
580.0,83.5,82.19238323331928,72.81580280334542,77.67127374974477,44.521109483574506,49.376580429973856,40
600.0,83.8,82.53748644630322,73.24783512483313,78.06133424418633,44.47615220211689,49.28965132147009,40
615.0,83.9,82.5572921375509,73.14193421479706,77.95992681472173,44.59736532282918,49.41535792275384,40
630.0,83.4,81.98665372827809,72.47946788287886,77.30287417547089,44.683779552807195,49.50718584539922,40
650.0,82.60000000000001,80.97820146616093,71.54409075580206,76.2985077329807,44.67969373318023,49.434110710358866,40
670.0,82.8,80.98403853567936,71.25417441633928,76.09983183139964,44.88420670427972,49.72986411934008,40
690.0,84.3,82.43951528334937,72.38181314161348,77.36645016567584,45.07306511767352,50.05770214173589,40
710.0,85.6,83.76057925582563,73.74149622316123,78.74288758347161,45.01769167235402,50.0190830326644,40
730.0,86.3,84.44723248120441,74.43533145462203,79.41486063043712,45.03237185076729,50.01190102658238,40
750.0,86.1,84.3356047897931,74.4461470457405,79.3673299733414,44.9682748164517,49.88945774405259,40
775.0,85.6,83.68588396792595,73.79316390227085,78.66548485470557,45.02039911322038,49.8927200656551,40
800.0,84.9,83.00131857230384,73.27499192511004,78.05309649127766,44.94822208102619,49.7263266471938,40
825.0,85.0,82.99947817415706,72.95008530916476,77.87057243195062,45.12890574220644,50.0493928649923,40
850.0,85.0,82.68814471962861,72.44322178334751,77.4783492082875,45.20979551134111,50.2449229362811,40
875.0,84.00000000000001,81.85848520868738,71.54081007156617,76.58422306989384,45.274262138793546,50.31767513712121,40
900.0,83.5,81.41489253576336,71.55648094613048,76.48113599250021,44.933756543263144,49.85841158963288,40
925.0,84.09999999999998,82.0074215622936,72.38501054635825,77.31855412642628,44.68886743586732,49.622411015935356,40
950.0,84.5,82.39218445706896,72.31269216345055,77.39968643712487,44.992498019944094,50.079492293618415,40
975.0,85.2,82.74688804180319,71.76404652800373,77.16306063389457,45.583827407908615,50.98284151379946,40
1000.0,85.6,82.783375941596,71.68807657554258,77.0462981669373,45.7370777746587,51.095299366053425,40
1030.0,85.0,81.99539904534184,72.28017633639425,77.00726092433206,44.98813812100978,49.71522270894759,40
1060.0,83.6,81.24863564326681,72.91960897069121,77.16553022564581,44.083105417621,48.329026672575594,40
1090.0,83.6,81.65675368681839,73.0840506309917,77.39458981117735,44.262163875641036,48.57270305582669,40
1120.0,84.09999999999998,82.42532958234142,73.80777985429425,78.24971682962669,44.17561275271473,48.617549728047166,40
1150.0,84.2,82.80451277531566,74.11536324304747,78.69987356736304,44.104639207952616,48.68914953226819,40
1180.0,85.49999999999999,83.89316352139659,74.31664119791918,79.32503701758758,44.56812650380901,49.576522323477406,40
1220.0,87.0,84.96771560909899,74.94446522029334,80.19749224901598,44.77022336008301,50.02325038880565,40
1250.0,86.89999999999999,84.63622777569371,74.36780816125525,79.69844233502903,44.93778544066468,50.26841961443846,40
1280.0,86.3,83.75500539395757,73.27877608395451,78.58739607222715,45.167609321730424,50.47622931000306,40
1320.0,84.6,82.4953986943354,72.46161727295686,77.57543296491517,44.91996572942024,50.03378142137855,40
1360.0,84.9,82.3647472953985,71.53176337280632,76.92296748373717,45.441779811661334,50.83298392259218,40
1400.0,84.5,82.03301368871148,71.65151259500206,76.84343366663192,45.189580022079554,50.38150109370942,40
1450.0,84.39999999999999,81.99885524001061,71.5900322546873,76.80147186989203,45.19738337011859,50.40882298532331,40
1500.0,84.6,81.53076000300763,70.4923430393094,75.84958785802087,45.68117214498676,51.038416963698225,40
1550.0,84.39999999999999,80.89328149042356,70.06930784456989,75.32923663684262,45.56404485358094,50.82397364585367,40
1600.0,83.5,79.90175923308662,70.19322675518771,75.26422085583226,44.63753837725436,49.70853247789891,40
1650.0,81.89999999999999,79.01628313721174,70.92363462658604,75.80338919782746,43.21289393938429,48.09264851062571,40
1700.0,82.2,79.59448945310452,70.64238450550276,75.74564250142528,43.848846951679235,48.952104947601754,40
1750.0,83.8,81.39481511072647,71.52070533959841,76.7732572059527,44.621557904773766,49.87410977112806,40
1800.0,83.7,81.26929734252803,70.85655345543042,76.15370839816983,45.11558894435821,50.41274388709762,40
1850.0,83.4,80.85140291210816,71.31965365531461,76.28196587713141,44.569437034976744,49.531749256793546,40
1900.0,82.2,79.99169120224798,71.09929374020123,75.8324643498009,44.15922685244708,48.892397462046745,40
1950.0,83.1,81.4407967350297,71.96359278202556,76.98019722133607,44.46059951369364,49.47720395300415,40
2000.0,84.39999999999999,82.34260841832804,72.01498876113581,77.33621842318698,45.00638999514106,50.32761965719223,40
2060.0,85.49999999999999,83.04230046131309,72.24492368647587,77.7458217444201,45.29647871689299,50.79737677483722,40
2120.0,85.10000000000001,82.92529008332428,72.35142527203799,77.75423145173845,45.17105863158584,50.5738648112863,40
2180.0,84.39999999999999,82.93366631282463,73.0282737411362,78.19047843930694,44.743187873517684,49.905392571688424,40
2240.0,82.90000000000002,82.32793230719285,72.91535188375774,77.9751918122124,44.35274049498045,49.41258042343512,40
2300.0,83.2,82.62542778883528,72.85224134250485,78.13991260752047,44.48551518131481,49.77318644633043,40
2360.0,83.2,81.75150765401624,71.04834789516663,76.57962618623436,45.17188146778187,50.70315975884961,40
2400.0,83.8,81.6247283566598,70.30936856566687,76.08572188381386,45.53900647284594,51.31535979099293,40
2500.0,85.0,81.91289516595012,69.8032933083115,75.88671546188591,46.026179704064205,52.10960185763862,40
2580.0,85.2,82.0333845972166,70.3178669954643,76.22688104609898,45.806503551117615,51.715517601752296,40
2650.0,84.9,81.92045804220048,70.23625341651992,76.12914970690241,45.79130833529807,51.684204625680565,40
2720.0,85.7,82.0768013518358,69.63448024730367,75.93311758482392,46.14368376701188,52.44232110453213,40
2800.0,85.49999999999999,82.35152296033117,70.39685553691537,76.34847050222788,46.003052458103284,51.9546674234158,40
2900.0,86.0,82.43051996938318,70.34508470760646,76.34125336660874,46.089266602774444,52.08543526177672,40
3000.0,85.49999999999999,82.24014161968365,71.31436570480453,76.98730437348887,45.25283724619479,50.925775914879125,40
3070.0,85.40000000000002,82.75223600544811,71.80932212925724,77.3426240780537,45.40961192739441,50.94291387619087,40
3150.0,86.2,83.86315662808944,72.39359244555816,77.9679257922533,45.895230835836145,51.469564182531286,40
3250.0,86.8,84.2548595933337,72.43491334920077,78.04805196485886,46.20680762847485,51.819946244132936,40
3350.0,86.2,83.91372579255437,72.50101301316131,78.03426791955688,45.87945787299749,51.41271277939306,40
3450.0,85.3,83.8775427871336,73.57258992935188,78.77708394060893,45.100458846524674,50.30495285778173,40
3550.0,86.2,83.87667506732818,73.40003729398934,78.61056451734855,45.26611054997963,50.47663777333884,40
3650.0,85.9,83.17917156457601,72.21095916363869,77.74193451436929,45.43723705020672,50.96821240093732,40
3750.0,83.9,82.6764422283297,72.34967614996768,77.75145563721335,44.92498659111635,50.32676607836203,40
3870.0,84.6,81.30213203089211,70.32896365564089,76.1758374930067,45.126294537885414,50.97316837525122,40
4000.0,81.8,80.51307242037889,70.44383701810976,75.97640856155392,44.536663858824966,50.06923540226913,40
4120.0,80.0,80.39609266819042,69.98967050513292,75.43595438309302,44.9601382850974,50.4064221630575,40
4250.0,81.59999999999998,80.65445745670634,69.8276545111,75.25545886693887,45.39899858976747,50.826802945606346,40
4370.0,79.6,81.1571068524973,71.07535654600919,76.16384494898593,44.99326190351137,50.081750306488104,40
