Freq "Listening Window"
22.4 53.51668978458714
23.0 54.39525102773713
23.6 55.305733942014584
24.0 56.16049117098167
25.0 56.98473132593547
25.8 57.782603875304616
26.5 58.60486013530702
27.2 59.351134435375585
28.0 60.10486013530702
29.0 60.85916364211731
30.0 61.58205988285603
30.7 62.32497287433459
31.5 63.04727259632452
32.5 63.78002695526928
33.5 64.48002695526928
34.5 65.17000301736194
35.5 65.87000301736194
36.5 66.56898411684476
37.5 67.26898411684476
38.7 68.00204662173796
40.0 68.70204662173798
41.2 69.40204662173797
42.5 70.10204662173795
43.7 70.75890536322387
45.0 71.44727862872394
46.2 72.11377695707036
47.5 72.74727862872392
48.7 73.41377695707034
50.0 74.0356206840857
51.5 74.63562068408571
53.0 75.2356206840857
54.5 75.80229639130464
56.0 76.36846270750856
58.0 76.92419779300914
60.0 77.43562068408569
61.5 77.92419779300913
63.0 78.41300581665409
65.0 78.8356206840857
67.0 79.25837672536981
69.0 79.65837672536982
71.0 80.02445814420116
73.0 80.32445814420117
75.0 80.62445814420117
77.5 80.82445814420116
80.0 80.9699738260637
82.5 81.0699738260637
85.0 81.0815400411153
87.5 81.05837672536981
90.0 80.91476245148907
92.5 80.73762776013773
95.0 80.46090170960878
97.5 80.16090170960878
100.0 79.84928032556395
103.0 79.49531834297535
106.0 79.23762776013771
109.0 79.03762776013772
112.0 78.85837672536981
115.0 78.7470136092696
118.0 78.61300581665408
122.0 78.46768347817137
125.0 78.19027257090359
128.0 77.8130058166541
132.0 77.2795068701197
136.0 76.69281329520847
140.0 76.14220039298425
145.0 75.96971598837823
150.0 76.23820627595417
155.0 77.05547878801953
160.0 78.00901422493406
165.0 78.92896215694925
170.0 79.64037254002034
175.0 80.04063796503014
180.0 80.09882484139398
185.0 80.00279053944192
190.0 79.89128085577082
195.0 80.05992778156315
200.0 80.57919595457636
206.0 81.19073766770673
212.0 81.69073766770674
218.0 81.87919595457636
224.0 81.73820627595417
230.0 81.41919871095399
236.0 81.18848397296757
240.0 81.32906814583248
250.0 81.68848397296759
258.0 81.97304334183364
265.0 82.16154706519929
272.0 82.40728200640775
280.0 82.73982782104487
290.0 82.9307559876697
300.0 82.50621183117379
307.0 81.28143765495706
315.0 79.56505167738595
325.0 78.2270214977508
335.0 77.98597960501988
345.0 78.81878058519237
355.0 80.18584818543327
365.0 81.28282793330318
375.0 81.6000372838602
387.0 80.92315953109126
400.0 79.54712497226778
412.0 78.01797756591536
425.0 77.26939299524254
437.0 77.85541140169217
450.0 79.19496060684128
462.0 80.30785062139782
475.0 80.74195667227495
487.0 80.76901534900168
500.0 80.66930004566277
515.0 80.49142984867069
530.0 80.63310527156614
545.0 81.06498893772773
560.0 81.53765740126008
580.0 82.19238323331926
600.0 82.53748644630323
615.0 82.5572921375509
630.0 81.98665372827809
650.0 80.97820146616094
670.0 80.98403853567937
690.0 82.43951528334935
710.0 83.76057925582565
730.0 84.44723248120442
750.0 84.33560478979311
775.0 83.68588396792593
800.0 83.00131857230386
825.0 82.99947817415708
850.0 82.6881447196286
875.0 81.8584852086874
900.0 81.41489253576334
925.0 82.0074215622936
950.0 82.39218445706898
975.0 82.74688804180319
1000.0 82.78337594159599
1030.0 81.99539904534184
1060.0 81.24863564326681
1090.0 81.6567536868184
1120.0 82.42532958234143
1150.0 82.80451277531564
1180.0 83.8931635213966
1220.0 84.967715609099
1250.0 84.63622777569373
1280.0 83.75500539395757
1320.0 82.49539869433542
1360.0 82.36474729539849
1400.0 82.03301368871146
1450.0 81.99885524001063
1500.0 81.53076000300764
1550.0 80.89328149042356
1600.0 79.90175923308662
1650.0 79.01628313721174
1700.0 79.59448945310452
1750.0 81.39481511072647
1800.0 81.26929734252805
1850.0 80.85140291210816
1900.0 79.99169120224799
1950.0 81.4407967350297
2000.0 82.34260841832803
2060.0 83.04230046131308
2120.0 82.9252900833243
2180.0 82.93366631282461
2240.0 82.32793230719285
2300.0 82.62542778883527
2360.0 81.75150765401624
2400.0 81.62472835665979
2500.0 81.9128951659501
2580.0 82.0333845972166
2650.0 81.92045804220047
2720.0 82.07680135183578
2800.0 82.35152296033117
2900.0 82.43051996938318
3000.0 82.24014161968365
3070.0 82.75223600544813
3150.0 83.86315662808943
3250.0 84.25485959333369
3350.0 83.91372579255436
3450.0 83.87754278713362
3550.0 83.87667506732818
3650.0 83.179171564576
3750.0 82.67644222832972
3870.0 81.30213203089211
4000.0 80.51307242037889
4120.0 80.39609266819043
4250.0 80.65445745670633
4370.0 81.15710685249731
4500.0 81.28093333605443
4620.0 81.71213483733294
4750.0 82.0379372112553
4870.0 82.18074633574349
5000.0 82.45128798670396
5150.0 83.27287507818997
5300.0 83.35496428939189
5450.0 83.15551064384474
5600.0 82.77076454455947
5800.0 82.18955121204208
6000.0 81.5507630442837
6150.0 81.57718195821111
6300.0 80.13885883762524
6500.0 80.30790491958416
6700.0 81.25241335843124
6900.0 81.87295086321572
7100.0 82.7518033966784
7300.0 82.75899198031078
7500.0 82.93986242190624
7750.0 82.15363170689439
8000.0 81.10078301540153
8250.0 80.1216003983647
8500.0 79.91342774871586
8750.0 79.33681696822462
9000.0 80.25789489067678
9250.0 80.26068656704099
9500.0 79.8380689677628
9750.0 81.08861721027421
10000.0 81.62007804137491
10300.0 81.18186220382302
10600.0 80.58400665565219
10900.0 79.9749310141613
11200.0 80.32840144351324
11500.0 79.80136161716695
11800.0 80.35096461728993
12200.0 79.56240520325888
12500.0 79.07514155354346
12800.0 79.14130843454534
13200.0 79.06309321026588
13600.0 78.71207273512745
14000.0 78.01418438146764
14500.0 77.32301471735613
15000.0 76.820144837723
15500.0 77.80665979125651
16000.0 75.58199133277363
16500.0 75.93672312468891
17000.0 75.35424697663889
17500.0 75.34397873277119
18000.0 73.91111611761313
18500.0 69.90483715745522
19000.0 67.97970150619103
19500.0 64.16815179140089
