Freq "On Axis"
22.4 53.39999999999999
23.0 54.3
23.6 55.2
24.0 56.10000000000001
25.0 56.89999999999999
25.8 57.7
26.5 58.60000000000001
27.2 59.3
28.0 60.10000000000001
29.0 60.89999999999999
30.0 61.7
30.7 62.39999999999999
31.5 63.2
32.5 63.89999999999999
33.5 64.6
34.5 65.40000000000002
35.5 66.1
36.5 66.8
37.5 67.5
38.7 68.2
40.0 68.9
41.2 69.6
42.5 70.3
43.7 71.0
45.0 71.59999999999998
46.2 72.3
47.5 72.90000000000002
48.7 73.6
50.0 74.2
51.5 74.8
53.0 75.40000000000002
54.5 75.9
56.0 76.50000000000001
58.0 77.0
60.0 77.60000000000001
61.5 77.99999999999999
63.0 78.5
65.0 79.00000000000001
67.0 79.39999999999999
69.0 79.8
71.0 80.2
73.0 80.49999999999999
75.0 80.8
77.5 81.0
80.0 81.1
82.5 81.2
85.0 81.3
87.5 81.2
90.0 81.1
92.5 80.9
95.0 80.7
97.5 80.40000000000002
100.0 80.10000000000001
103.0 79.7
106.0 79.39999999999999
109.0 79.2
112.0 79.00000000000001
115.0 78.8
118.0 78.7
122.0 78.5
125.0 78.2
128.0 77.90000000000002
132.0 77.4
136.0 76.89999999999999
140.0 76.50000000000001
145.0 76.4
150.0 76.59999999999998
155.0 77.3
160.0 78.2
165.0 79.09999999999998
170.0 79.8
175.0 80.3
180.0 80.40000000000002
185.0 80.40000000000002
190.0 80.3
195.0 80.40000000000002
200.0 80.9
206.0 81.50000000000001
212.0 82.0
218.0 82.2
224.0 82.1
230.0 81.8
236.0 81.50000000000001
240.0 81.59999999999998
250.0 82.0
258.0 82.5
265.0 82.90000000000002
272.0 83.2
280.0 83.4
290.0 83.5
300.0 83.1
307.0 82.0
315.0 80.3
325.0 78.9
335.0 78.5
345.0 79.39999999999999
355.0 80.8
365.0 82.0
375.0 82.4
387.0 81.8
400.0 80.49999999999999
412.0 79.00000000000001
425.0 78.2
437.0 78.8
450.0 80.10000000000001
462.0 81.3
475.0 81.7
487.0 81.7
500.0 81.7
515.0 81.7
530.0 82.0
545.0 82.4
560.0 82.90000000000002
580.0 83.5
600.0 83.8
615.0 83.9
630.0 83.4
650.0 82.60000000000001
670.0 82.8
690.0 84.3
710.0 85.6
730.0 86.3
750.0 86.1
775.0 85.6
800.0 84.9
825.0 85.0
850.0 85.0
875.0 84.00000000000001
900.0 83.5
925.0 84.09999999999998
950.0 84.5
975.0 85.2
1000.0 85.6
1030.0 85.0
1060.0 83.6
1090.0 83.6
1120.0 84.09999999999998
1150.0 84.2
1180.0 85.49999999999999
1220.0 87.0
1250.0 86.89999999999999
1280.0 86.3
1320.0 84.6
1360.0 84.9
1400.0 84.5
1450.0 84.39999999999999
1500.0 84.6
1550.0 84.39999999999999
1600.0 83.5
1650.0 81.89999999999999
1700.0 82.2
1750.0 83.8
1800.0 83.7
1850.0 83.4
1900.0 82.2
1950.0 83.1
2000.0 84.39999999999999
2060.0 85.49999999999999
2120.0 85.10000000000001
2180.0 84.39999999999999
2240.0 82.90000000000002
2300.0 83.2
2360.0 83.2
2400.0 83.8
2500.0 85.0
2580.0 85.2
2650.0 84.9
2720.0 85.7
2800.0 85.49999999999999
2900.0 86.0
3000.0 85.49999999999999
3070.0 85.40000000000002
3150.0 86.2
3250.0 86.8
3350.0 86.2
3450.0 85.3
3550.0 86.2
3650.0 85.9
3750.0 83.9
3870.0 84.6
4000.0 81.8
4120.0 80.0
4250.0 81.59999999999998
4370.0 79.6
4500.0 80.7
4620.0 80.3
4750.0 81.50000000000001
4870.0 80.8
5000.0 82.4
5150.0 84.00000000000001
5300.0 84.09999999999998
5450.0 84.6
5600.0 83.8
5800.0 83.6
6000.0 81.8
6150.0 81.7
6300.0 79.9
6500.0 81.59999999999998
6700.0 84.00000000000001
6900.0 83.4
7100.0 84.39999999999999
7300.0 82.1
7500.0 82.3
7750.0 81.4
8000.0 81.4
8250.0 80.40000000000002
8500.0 79.7
8750.0 80.6
9000.0 80.8
9250.0 81.1
9500.0 82.0
9750.0 83.8
10000.0 85.8
10300.0 84.5
10600.0 84.3
10900.0 82.1
11200.0 80.49999999999999
11500.0 81.59999999999998
11800.0 80.9
12200.0 78.2
12500.0 80.10000000000001
12800.0 81.50000000000001
13200.0 81.59999999999998
13600.0 80.7
14000.0 79.7
14500.0 77.90000000000002
15000.0 75.10000000000001
15500.0 75.9
16000.0 72.2
16500.0 68.8
17000.0 75.0
17500.0 76.3
18000.0 73.9
18500.0 67.0
19000.0 66.50000000000001
19500.0 64.09999999999998
