Freq,On Axis,Listening Window,Sound Power,Early Reflections,Early Reflections DI,Sound Power DI,DI offset
20.5078,57.50070000000001,57.48200015599592,57.14738442467943,57.322233866600456,40.15976628939546,40.33461573131649,40
21.9727,58.957800000000006,58.94712107004547,58.7457860098459,58.84707455974602,40.10004651029945,40.20133506019957,40
23.4375,60.2863,60.272327492477004,60.014578080521275,60.14570807498659,40.12661941749042,40.25774941195573,40
24.9023,62.080200000000005,62.066312420487336,61.811231350092115,61.94022270468223,40.12608971580511,40.25508107039522,40
26.3672,63.29129999999999,63.276252312456236,62.98323315506259,63.13113300342364,40.145119309032594,40.293019157393644,40
27.832,64.931,64.91429282586147,64.60678009079362,64.76212362591512,40.15216919994634,40.307512735067846,40
29.2969,66.1244,66.10784171342364,65.79584587913153,65.95450780971943,40.15333390370421,40.311995834292105,40
30.7617,67.3028,67.2852107820435,66.97079708284154,67.13013003566608,40.15508074637742,40.314413699201964,40
32.2266,68.2767,68.25946921498848,67.9414609584852,68.10215141108922,40.15731780389926,40.31800825650329,40
33.6914,69.3299,69.31411359467991,69.02559035721164,69.17173584908974,40.14237774559017,40.28852323746827,40
35.1562,70.3982,70.3802860670795,70.04827283587832,70.21542543546,40.16486063161949,40.332013231201174,40
36.6211,71.2391,71.22128562775369,70.8945810768571,71.05930703300318,40.16197859475051,40.326704550896594,40
38.0859,72.0777,72.0605398471644,71.74290085359443,71.90352506220485,40.15701478495956,40.31763899356997,40
39.5508,72.92450000000001,72.90670675625255,72.57864200526842,72.74381344442837,40.16289331182418,40.328064750984126,40
41.0156,73.76099999999998,73.74183487615183,73.38953533658855,73.56684154430663,40.1749933318452,40.352299539563276,40
42.4805,74.4614,74.44233492815137,74.08921850811295,74.2671272731504,40.175207655000975,40.35311642003842,40
43.9453,75.1886,75.17073078965468,74.83274777746222,75.00466519578058,40.16606559387411,40.33798301219247,40
45.4102,75.8173,75.79955123713133,75.46282109960467,75.63455339934211,40.164997837789215,40.33673013752666,40
46.875,76.5235,76.5043453943358,76.15706026635246,76.33273611852417,40.17160927581163,40.34728512798334,40
48.3398,76.978,76.95808036606554,76.60267823055271,76.78148018869659,40.176600177368954,40.35540213551283,40
51.2695,78.0039,77.98548452381802,77.64659439777981,77.81705184966943,40.16843267414859,40.33889012603821,40
52.7344,78.5364,78.51782968053915,78.17710414011442,78.34824372190803,40.16958595863112,40.34072554042473,40
54.1992,79.073,79.05278295516462,78.68486007365011,78.86971301610964,40.183069939054974,40.3679228815145,40
55.6641,79.5478,79.52485843495431,79.11245684245303,79.31836493839914,40.20649349655517,40.41240159250128,40
58.5938,80.2748,80.25151604162814,79.80888845691085,80.03175404712171,40.21976199450643,40.442627584717286,40
60.0586,80.6795,80.65697758270495,80.23425777994872,80.44581233266081,40.21116525004415,40.422719802756234,40
62.9883,81.2836,81.26064786802743,80.83423023878711,81.04792546116217,40.21272240686527,40.42641762924032,40
64.4531,81.5412,81.51687493524899,81.07420806882088,81.29386318181986,40.223011753429134,40.44266686642811,40
67.3828,81.9841,81.96118667155001,81.55721399288787,81.7544939646898,40.20669270686021,40.40397267866214,40
68.8477,82.147,82.12586731617522,81.76163022508179,81.93899566412883,40.18687165204639,40.36423709109343,40
71.7773,82.6739,82.65175951599862,82.27034129242307,82.45607272448883,40.195686791509786,40.38141822357555,40
74.707,83.1178,83.0936132389575,82.67500470355817,82.87801256136201,40.21560067759549,40.41860853539933,40
77.6367,83.5102,83.48418402106597,83.03632205533745,83.25329689968697,40.230887121379,40.44786196572852,40
79.1016,83.67530000000001,83.6482769904891,83.18399139732647,83.40982700414474,40.23844998634435,40.46428559316263,40
82.0312,83.8657,83.8376963168784,83.35933731774354,83.58776171111391,40.24993460576448,40.478358999134855,40
84.9609,84.06840000000001,84.04334238075714,83.61989335303448,83.82334124611698,40.22000113464016,40.423449027722654,40
87.8906,84.4876,84.46410666403678,84.05737812540052,84.2559722568121,40.20813440722468,40.40672853863626,40
90.8203,84.8723,84.83964872334472,84.27688064021186,84.55207485369563,40.287573869649094,40.562768083132866,40
95.2148,84.93920000000001,84.90738542638984,84.37717446402695,84.63316758494281,40.274217841447026,40.53021096236289,40
98.1445,85.1744,85.14341478850703,84.61436051796385,84.87016677878913,40.2732480097179,40.529054270543185,40
101.074,85.1889,85.16077638896074,84.70524854778981,84.92016871056964,40.2406076783911,40.455527841170934,40
105.469,85.5619,85.5266814450528,84.94495893775176,85.22156597618694,40.305115468865864,40.58172250730104,40
108.398,85.7703,85.73375803775566,85.12939033500041,85.4174308022678,40.31632723548786,40.604367702755255,40
112.793,85.9777,85.93710801266418,85.30250887242231,85.60020712835812,40.33690088430606,40.634599140241875,40
117.188,86.2093,86.16364480431167,85.39803892616764,85.76716607046346,40.39647873384821,40.76560587814403,40
120.117,86.2575,86.21143015465536,85.44540222217415,85.81206329150886,40.3993668631465,40.76602793248121,40
124.512,86.28860000000002,86.2413466220885,85.48369350670579,85.84298931464846,40.39835730744004,40.75765311538271,40
128.906,86.3108,86.26384121830505,85.52653909677312,85.87315260291903,40.39068861538601,40.737302121531926,40
133.301,86.3981,86.35189047617956,85.59831941170397,85.95350142828484,40.398389047894725,40.753571064475594,40
139.16,86.4789,86.42829293868574,85.63874309565742,86.00654303239271,40.42174990629303,40.789549843028325,40
143.555,86.57020000000001,86.51427525556129,85.63862964284336,86.04685619046008,40.46741906510121,40.87564561271793,40
147.949,86.6068,86.54855147365257,85.63434970719854,86.05862874799222,40.48992272566035,40.91420176645403,40
153.809,86.6321,86.57117204719465,85.60675171155158,86.05603936303937,40.515132684155276,40.96442033564307,40
159.668,86.6459,86.58316871781665,85.62061951259678,86.06505238551496,40.51811633230169,40.96254920521987,40
165.527,86.8241,86.7582942668112,85.76206012429157,86.2185445913984,40.53974967541281,40.99623414251964,40
171.387,86.8432,86.77175711304771,85.67167213143586,86.17818528697696,40.59357182607076,41.10008498161186,40
177.246,86.8607,86.78004959028031,85.54150072909657,86.11714819368747,40.662901396592844,41.238548861183745,40
183.105,86.77390000000001,86.69133849942325,85.43215759855731,86.01632922149857,40.67500927792469,41.25918090086594,40
188.965,86.8054,86.71797227926446,85.37833038754472,85.99727752185824,40.72069475740622,41.33964189171974,40
196.289,86.8584,86.76466814832361,85.31444596369205,85.98585765865269,40.77881048967092,41.450222184631556,40
203.613,86.9242,86.82131775170336,85.22260420024966,85.96432878681539,40.856988964887975,41.5987135514537,40
210.938,86.8499,86.74599535159861,85.08317197203937,85.85169100136635,40.89430435023226,41.66282337955924,40
218.262,86.6043,86.49990577837043,84.94099057637172,85.64737405610296,40.85253172226747,41.558915201998715,40
225.586,86.7291,86.60905405757576,84.87331629365569,85.66029889874575,40.94875515883001,41.73573776392007,40
232.91,86.90169999999999,86.77503042223954,84.7986619873026,85.71327306257355,41.06175735966599,41.976368434936944,40
241.699,86.7848,86.6491552445916,84.49980358164292,85.49830950422252,41.15084574036908,42.149351662948675,40
250.488,86.8282,86.6778859154799,84.3116253866893,85.41232104967425,41.26556486580566,42.366260528790605,40
259.277,87.01790000000001,86.87364852236682,84.45527237136758,85.58880378112339,41.28484474124343,42.41837615099924,40
268.066,86.8799,86.72100655928229,84.09553358888517,85.32797086999304,41.39303568928925,42.62547297039711,40
276.855,87.0659,86.91181237451994,84.13314151864869,85.4593302565187,41.45248211800124,42.778670855871255,40
287.109,86.90060000000001,86.74158414764807,84.09786458367056,85.31053791705972,41.43104623058835,42.64371956397751,40
297.363,87.1359,86.9585119518461,84.08006662292752,85.40123930953625,41.557272642309854,42.87844532891859,40
307.617,87.46560000000001,87.28458346994302,84.06354837404287,85.56662037559711,41.717963094345905,43.22103509590015,40
319.336,86.9528,86.76780280190316,83.52978723871023,85.02985334589007,41.737949456013084,43.23801556319293,40
329.59,86.88850000000001,86.69919876567991,83.24073785158944,84.88067160415187,41.81852716152804,43.458460914090466,40
341.309,86.8251,86.62945870042225,83.13180855717434,84.76935173423466,41.86010696618759,43.49765014324791,40
353.027,87.1903,86.97561469070382,82.94187321734242,84.9057371096995,42.06987758100432,44.0337414733614,40
366.211,87.265,87.05636321138273,83.06703970656206,84.9278977275624,42.128465483820335,43.989323504820675,40
379.395,87.57040000000002,87.3585325123661,83.13505180491408,85.11037559220382,42.24815692016227,44.22348070745201,40
392.578,87.0337,86.82602623579173,82.6295566710045,84.57959095231051,42.24643528348122,44.196469564787236,40
405.762,86.8977,86.68896294113499,82.54329716994948,84.45966246433998,42.229300476795004,44.145665771185506,40
420.41,87.5965,87.37299933415365,82.78532093857662,84.89222662293513,42.48077271121852,44.58767839557703,40
435.059,86.83229999999999,86.6253232664673,82.22757133552662,84.24822025702942,42.37710300943789,44.397751930940686,40
451.172,87.2994,87.0471474961975,81.96327156256974,84.27276760251051,42.774379893686984,45.08387593362775,40
465.82,87.0773,86.8452286025346,81.8584973773577,84.11652186823675,42.72870673429786,44.98673122517691,40
483.398,87.5142,87.28330492165756,82.21397675069315,84.4769502879762,42.806354633681366,45.06932817096441,40
499.512,87.1221,86.9000946335215,81.95956137937127,84.14005681944346,42.760037814078046,44.94053325415024,40
517.09,86.80210000000001,86.57380743934993,81.52726694133408,83.72554156282042,42.84826587652951,45.04654049801586,40
536.133,86.4657,86.15208735474253,80.86955727724636,83.12268235459631,43.02940500014623,45.282530077496176,40
555.176,86.4622,86.24499488505614,81.14715723658004,83.28928663008814,42.955708254968,45.0978376484761,40
574.219,86.1726,85.91405472987039,81.0894447572668,83.01169349199957,42.90236123787082,44.82460997260358,40
594.727,87.0047,86.53572703951515,80.60597327838039,82.8466641057559,43.689062933759246,45.92975376113476,40
615.234,87.04880000000001,86.619942721783,80.51579657017678,82.8124632129169,43.80747950886611,46.10414615160623,40
637.207,86.8773,86.43192404928399,80.99933186610274,82.90197768712541,43.52994636215858,45.43259218318126,40
659.18,88.1889,87.6393890343977,81.31811909256594,83.72005450065055,43.91933453374715,46.32126994183176,40
682.617,87.4894,87.0347982190652,81.06057923198964,83.25212416383658,43.78267405522861,45.97421898707556,40
707.52,87.24329999999999,86.77373495783279,80.62586644363536,82.89495276282864,43.87878219500415,46.14786851419743,40
732.422,86.70379999999999,86.27202630996581,80.87701527684384,82.73381465605077,43.53821165391504,45.395011033121975,40
757.324,87.1096,86.54570344101974,80.61614658325476,82.65808718995801,43.88761625106173,45.92955685776498,40
785.156,86.6991,86.1114965335309,79.75997459589497,82.03921346163627,44.07228307189463,46.35152193763592,40
811.523,86.70720000000001,86.30751556166767,80.72272822398362,82.61111258013129,43.69640298153638,45.58478733768405,40
840.82,84.9687,84.62295738771074,80.40100876520202,81.73505517456077,42.88790221314997,44.22194862250872,40
870.117,86.3554,85.72709568082118,80.4243536571666,82.10019042163269,43.62690525918849,45.302742023654574,40
900.879,86.6363,85.7246883415789,80.1804294856161,81.93651620880979,43.788172132769105,45.544258855962795,40
933.105,88.2556,87.03657262002021,79.50609447066158,82.01782069849517,45.01875192152504,47.53047814935863,40
965.332,87.7032,86.67012636005,79.44913139890711,82.13715266500738,44.53297369504263,47.22099496114289,40
1000.49,86.53949999999999,85.72507099279088,79.5523829379393,81.67861225223412,44.04645874055676,46.17268805485158,40
1035.64,88.09780000000002,86.82066556564237,78.43759604454863,81.53648072262895,45.28418484301342,48.383069521093745,40
1072.27,87.2719,86.39008987671308,79.49457531271314,81.98637430606605,44.40371557064702,46.89551456399994,40
1108.89,86.7144,86.10393647226458,79.55330526854924,81.94760551711734,44.15633095514724,46.55063120371534,40
1148.44,84.6682,84.84268156716557,80.42355181476672,82.10981097401005,42.732870593155525,44.419129752398845,40
1189.45,83.9962,84.55201025010346,79.90514426110194,81.70797539417443,42.84403485592904,44.646865989001526,40
1230.47,85.5981,84.92317226005024,80.04717216812446,81.6577719533635,43.26540030668674,44.876000091925775,40
1274.41,87.2884,85.87418799344415,79.41977047226604,81.73359704413201,44.14059094931214,46.454417521178115,40
1319.82,87.0158,85.50002886129788,79.39663241477417,81.61555794159786,43.88447091970002,46.1033964465237,40
1366.7,86.89480000000002,85.44556510664268,80.2361925816342,82.2454066185246,43.20015848811808,45.209372525008476,40
1413.57,86.4164,85.76526458146071,80.83024599585319,82.84614927198872,42.91911530947199,44.93501858560752,40
1463.38,85.98029999999999,85.8126296060636,80.86974072508116,83.07452883156257,42.73810077450102,44.94288888098244,40
1516.11,86.4861,85.71588428812689,81.06956840958404,82.88198355333273,42.833900734794156,44.64631587854285,40
1568.85,85.7566,85.35867837223198,79.55898858141637,82.1782470317068,43.180431340525175,45.799689790815606,40
1624.51,87.2044,86.17814846027444,79.8866765316234,82.77347279653141,43.404675663743035,46.29147192865105,40
1681.64,88.3747,86.78336158028144,80.43148007113298,83.36235654186868,43.42100503841276,46.351881509148456,40
1741.7,88.8625,87.34521747295048,80.5435508819337,83.80455747824173,43.54065999470875,46.80166659101678,40
1803.22,89.0203,87.52836043992882,80.8745805631985,83.89419260469168,43.634167835237136,46.65377987673031,40
1866.21,88.2924,87.14516688445563,80.44112572522515,83.4727438809662,43.67242300348943,46.704041159230485,40
1932.13,87.9182,86.82321081567622,79.77965627204141,82.87066181639958,43.952548999276644,47.04355454363481,40
1999.51,87.6527,86.30805811611368,78.6588470703683,82.09002878217298,44.218029333940706,47.64921104574539,40
2069.82,87.0375,85.2634680909484,77.39574022709563,80.94539488088438,44.318073210064014,47.867727863852764,40
2143.07,86.4527,84.77761879357003,76.67058202569636,80.29703673845854,44.48058205511148,48.107036767873666,40
2219.24,85.604,84.19254673911576,75.86273243738613,79.5822918308353,44.61025490828045,48.32981430172963,40
2296.88,85.3042,84.16669197952268,75.89776540444633,79.47730280026322,44.689389179259464,48.26892657507635,40
2378.91,85.2597,83.82111005487776,76.01679120553804,79.29615157155389,44.52495848332387,47.80431884933972,40
2462.4,86.2036,84.62805911440263,76.58007463011438,80.02205506168535,44.60600405271728,48.04798448428825,40
2548.83,86.3668,85.15712324140138,77.41599110085185,80.54202017337356,44.61510306802782,47.741132140549524,40
2639.65,86.212,85.37447486241504,78.03721245365395,80.80464008290379,44.569834779511254,47.33726240876109,40
2731.93,86.3599,85.51799777115765,78.47255827642215,81.13919443895783,44.37880333219982,47.045439494735504,40
2828.61,87.50519999999999,86.31206128686537,79.53696834660995,82.09116702418758,44.22089426267779,46.77509294025542,40
2928.22,88.4715,87.53983401350656,80.74619011752895,83.27603415529391,44.26379985821265,46.79364389597761,40
3030.76,88.5151,87.76433361606662,81.0324082710816,83.50378707454935,44.26054654151727,46.73192534498503,40
3137.7,88.40400000000001,87.83725638693342,81.28114835587591,84.04098972887184,43.79626665806158,46.556108031057505,40
3249.02,87.7874,87.48992066064304,81.37164310092662,84.11677890658392,43.37314175405912,46.11827755971642,40
3363.28,87.95450000000001,87.28335153084282,81.28481227474566,84.11161198120854,43.17173954963428,45.99853925609716,40
3481.93,87.8913,87.21364098940597,81.42562346422098,84.3806411275584,42.83299986184757,45.788017525185,40
3604.98,88.0636,86.90682364195213,81.55265946939117,84.40087380545778,42.50594983649435,45.35416417256096,40
3732.42,88.71070000000002,86.84399851610492,81.85836441126189,84.8263125205732,42.01768599553172,44.98563410484303,40
3864.26,87.55650000000001,86.68742423271523,81.82802609330885,84.75573005590263,41.9316941768126,44.85939813940638,40
4000.49,87.0549,86.18539969952212,81.34932931798801,84.44226356408105,41.74313613544108,44.836070381534114,40
4141.11,87.4142,86.55682858255959,81.59024409029199,84.92685797763828,41.62997060492131,44.9665844922676,40
4287.6,85.979,86.47095543131502,81.61174539498136,84.92347546920656,41.547479962108454,44.859210036333664,40
4438.48,86.4593,86.8936986355882,81.64102561555983,84.92728706237642,41.96641157321177,45.25267302002837,40
4595.21,85.5473,87.10521071739903,81.58069824984881,84.73733758193801,42.367873135461025,45.524512467550224,40
4756.35,86.7101,87.40544970020964,81.36865634743113,84.54209079011626,42.86335891009338,46.03679335277852,40
4924.8,86.0326,87.10418525083206,81.21038340473044,84.39550228403083,42.708682966801234,45.893801846101624,40
5097.66,85.06410000000001,86.61959083810406,80.70820249943822,83.96882336722692,42.65076747087714,45.911388338665844,40
5277.83,86.7137,86.57161695506477,80.2540861589821,83.85155616488844,42.72006079017633,46.317530796082664,40
5463.87,87.50339999999998,86.65791534643007,80.11654755674826,83.7405610180874,42.91735432834267,46.541367789681814,40
5657.23,87.5662,86.8223401273469,79.95641796758163,83.60694714363831,43.2153929837086,46.865922159765276,40
5856.45,87.5161,86.61424390544967,79.62674552573917,83.26473358458395,43.34951032086572,46.9874983797105,40
6062.99,88.18169999999999,86.64421263155403,79.79175801220279,83.13075046603252,43.5134621655215,46.852454619351235,40
6276.86,87.4885,86.36641657240952,79.71435122943417,82.97488284398584,43.39153372842368,46.65206534297535,40
6498.05,88.1053,86.5135161484453,79.66631788381585,83.31421245232492,43.19930369612038,46.847198264629455,40
6726.56,88.6573,86.63623948254325,79.57884439886966,83.69516687825329,42.94107260428996,47.05739508367358,40
6963.87,88.5489,86.77783847552605,79.19316389696642,83.59517999650643,43.18265847901962,47.58467457855963,40
7209.96,87.807,86.59153796763225,79.11825911769961,83.34140009194586,43.25013787568639,47.47327884993264,40
7464.84,87.39040000000001,86.29574986515787,78.56971305398602,82.79149666586683,43.50425319929104,47.72603681117185,40
7727.05,87.5096,86.03201778332642,78.20524794470361,82.52370975968107,43.508308023645355,47.82676983862281,40
7999.51,87.6419,86.09847447974143,77.87426018290843,82.36944366552659,43.72903081421484,48.224214296833,40
8282.23,86.9303,86.2161387780014,77.6684798275013,82.23292848939168,43.98321028860971,48.54765895050009,40
8573.73,86.7102,86.07983773707024,77.51620639595077,82.20461764092727,43.87522009614297,48.56363134111946,40
8876.95,86.6768,85.59304693083875,76.9866633828719,81.71538729345103,43.87765963738772,48.60638354796686,40
9188.96,86.48780000000001,85.49650588269958,76.65582248576719,81.27715274953759,44.21935313316199,48.84068339693239,40
9514.16,87.2262,85.90971954415424,76.5410721940842,81.52808175830445,44.38163778584979,49.36864735007005,40
9849.61,87.4382,85.96113650542699,76.18403427578626,81.27143484305074,44.68970166237625,49.77710222964073,40
10196.8,86.978,86.04015740081635,76.14150913089166,81.14328266593795,44.89687473487841,49.89864826992469,40
10555.7,87.6029,86.15091663933634,76.13108613373299,81.23549866739138,44.91541797194496,50.01983050560335,40
10927.7,88.3033,86.45263726494991,76.14378836312652,81.40316388863918,45.04947337631073,50.308848901823396,40
11313.0,88.2483,86.50044755071148,76.02559571824362,81.3099345117386,45.19051303897288,50.47485183246786,40
11712.9,88.42569999999999,86.53737832980627,75.85103801761197,81.16715331211931,45.37022501768696,50.686340312194304,40
12126.0,88.2309,86.46622033946096,75.65701475428556,80.87749724313923,45.58872309632173,50.809205585175405,40
