Freq,On Axis,Listening Window,Sound Power,Early Reflections,Early Reflections DI,Sound Power DI,DI offset
20.5078,57.50070000000001,57.48200015599592,57.14738442467943,57.322233866600456,40.15976628939546,40.33461573131649,40
21.9727,58.957800000000006,58.9471210700455,58.74578600984593,58.84707455974602,40.10004651029948,40.20133506019957,40
23.4375,60.2863,60.27232749247703,60.01457808052125,60.14570807498659,40.126619417490446,40.257749411955785,40
24.9023,62.080200000000005,62.066312420487336,61.81123135009214,61.94022270468223,40.12608971580511,40.25508107039519,40
26.3672,63.29129999999999,63.27625231245621,62.98323315506259,63.13113300342364,40.145119309032566,40.293019157393616,40
27.832,64.931,64.91429282586145,64.60678009079362,64.76212362591514,40.152169199946314,40.30751273506783,40
29.2969,66.1244,66.10784171342364,65.79584587913152,65.95450780971942,40.15333390370422,40.31199583429212,40
30.7617,67.3028,67.2852107820435,66.97079708284154,67.13013003566608,40.15508074637742,40.314413699201964,40
32.2266,68.2767,68.25946921498847,67.9414609584852,68.10215141108922,40.15731780389925,40.318008256503276,40
33.6914,69.3299,69.31411359467992,69.02559035721166,69.17173584908973,40.142377745590196,40.28852323746827,40
35.1562,70.39819999999999,70.3802860670795,70.04827283587832,70.21542543546002,40.164860631619476,40.332013231201174,40
36.6211,71.2391,71.22128562775369,70.89458107685708,71.05930703300318,40.16197859475051,40.32670455089661,40
38.0859,72.0777,72.06053984716439,71.74290085359443,71.90352506220484,40.15701478495956,40.31763899356996,40
39.5508,72.9245,72.90670675625255,72.57864200526842,72.74381344442835,40.16289331182419,40.328064750984126,40
41.0156,73.761,73.74183487615181,73.38953533658855,73.56684154430663,40.17499333184519,40.35229953956326,40
42.4805,74.46140000000001,74.44233492815135,74.08921850811294,74.2671272731504,40.17520765500096,40.35311642003842,40
43.9453,75.1886,75.1707307896547,74.83274777746222,75.00466519578058,40.16606559387412,40.33798301219248,40
45.4102,75.8173,75.79955123713133,75.46282109960465,75.63455339934212,40.1649978377892,40.33673013752667,40
46.875,76.5235,76.5043453943358,76.15706026635247,76.33273611852418,40.17160927581162,40.347285127983326,40
48.3398,76.978,76.95808036606556,76.60267823055271,76.78148018869659,40.17660017736897,40.35540213551285,40
51.2695,78.0039,77.98548452381802,77.64659439777982,77.81705184966943,40.16843267414859,40.338890126038194,40
52.7344,78.5364,78.51782968053915,78.17710414011441,78.34824372190802,40.16958595863113,40.34072554042474,40
54.1992,79.073,79.05278295516463,78.68486007365013,78.86971301610966,40.183069939054974,40.3679228815145,40
55.6641,79.54780000000001,79.5248584349543,79.11245684245304,79.31836493839914,40.206493496555154,40.412401592501254,40
58.5938,80.2748,80.25151604162812,79.80888845691085,80.03175404712172,40.2197619945064,40.44262758471727,40
60.0586,80.6795,80.65697758270494,80.2342577799487,80.4458123326608,40.21116525004415,40.422719802756234,40
62.9883,81.28360000000002,81.26064786802742,80.83423023878711,81.04792546116218,40.21272240686524,40.426417629240305,40
64.4531,81.54119999999999,81.51687493524899,81.07420806882088,81.29386318181987,40.22301175342912,40.44266686642811,40
67.3828,81.9841,81.96118667155002,81.55721399288785,81.7544939646898,40.206692706860224,40.40397267866217,40
68.8477,82.147,82.12586731617522,81.76163022508179,81.93899566412883,40.18687165204639,40.36423709109343,40
71.7773,82.67389999999999,82.65175951599862,82.27034129242305,82.45607272448883,40.195686791509786,40.381418223575565,40
74.707,83.1178,83.09361323895749,82.67500470355817,82.87801256136201,40.215600677595475,40.418608535399315,40
77.6367,83.51019999999998,83.48418402106596,83.03632205533744,83.25329689968696,40.230887121379,40.44786196572852,40
79.1016,83.6753,83.64827699048908,83.18399139732645,83.40982700414474,40.238449986344335,40.46428559316263,40
82.0312,83.86569999999999,83.8376963168784,83.35933731774352,83.58776171111391,40.24993460576448,40.47835899913487,40
84.9609,84.0684,84.04334238075715,83.6198933530345,83.823341246117,40.22000113464016,40.423449027722654,40
87.8906,84.4876,84.46410666403678,84.0573781254005,84.25597225681209,40.20813440722469,40.40672853863627,40
90.8203,84.8723,84.83964872334472,84.27688064021187,84.55207485369561,40.28757386964911,40.56276808313285,40
95.2148,84.9392,84.90738542638984,84.37717446402694,84.6331675849428,40.27421784144704,40.5302109623629,40
98.1445,85.1744,85.14341478850702,84.61436051796385,84.87016677878914,40.273248009717875,40.52905427054317,40
101.074,85.1889,85.16077638896074,84.70524854778982,84.92016871056965,40.240607678391086,40.45552784117092,40
105.469,85.5619,85.5266814450528,84.94495893775178,85.22156597618695,40.30511546886585,40.58172250730102,40
108.398,85.7703,85.73375803775568,85.12939033500042,85.41743080226782,40.31632723548786,40.604367702755255,40
112.793,85.9777,85.93710801266418,85.3025088724223,85.60020712835814,40.33690088430605,40.63459914024189,40
117.188,86.2093,86.16364480431169,85.39803892616764,85.76716607046346,40.39647873384823,40.765605878144044,40
120.117,86.2575,86.21143015465537,85.44540222217414,85.81206329150885,40.399366863146525,40.76602793248124,40
124.512,86.2886,86.2413466220885,85.4836935067058,85.84298931464846,40.39835730744004,40.757653115382695,40
128.906,86.3108,86.26384121830503,85.52653909677313,85.87315260291903,40.390688615386,40.7373021215319,40
133.301,86.3981,86.35189047617958,85.59831941170397,85.95350142828484,40.39838904789474,40.75357106447561,40
139.16,86.4789,86.42829293868574,85.6387430956574,86.00654303239271,40.42174990629303,40.78954984302834,40
143.555,86.5702,86.51427525556129,85.63862964284337,86.04685619046008,40.46741906510121,40.87564561271792,40
147.949,86.6068,86.54855147365257,85.63434970719852,86.0586287479922,40.489922725660364,40.91420176645404,40
153.809,86.6321,86.57117204719465,85.60675171155158,86.05603936303937,40.515132684155276,40.96442033564307,40
159.668,86.6459,86.58316871781663,85.62061951259678,86.06505238551497,40.51811633230166,40.96254920521986,40
165.527,86.8241,86.75829426681122,85.76206012429157,86.21854459139841,40.53974967541281,40.996234142519654,40
171.387,86.84320000000001,86.77175711304771,85.67167213143584,86.17818528697696,40.59357182607076,41.10008498161187,40
177.246,86.8607,86.78004959028031,85.54150072909657,86.11714819368748,40.66290139659283,41.238548861183745,40
183.105,86.7739,86.69133849942325,85.43215759855731,86.01632922149858,40.67500927792467,41.25918090086594,40
188.965,86.8054,86.71797227926444,85.37833038754474,85.99727752185825,40.72069475740619,41.33964189171971,40
196.289,86.8584,86.7646681483236,85.31444596369204,85.98585765865269,40.7788104896709,41.450222184631556,40
203.613,86.9242,86.82131775170338,85.22260420024966,85.96432878681537,40.856988964888004,41.59871355145371,40
210.938,86.8499,86.74599535159862,85.08317197203935,85.85169100136635,40.894304350232275,41.66282337955927,40
218.262,86.60429999999998,86.49990577837042,84.94099057637173,85.64737405610295,40.85253172226747,41.55891520199869,40
225.586,86.7291,86.60905405757578,84.87331629365569,85.66029889874575,40.948755158830025,41.735737763920085,40
232.91,86.9017,86.77503042223954,84.7986619873026,85.71327306257356,41.061757359665975,41.976368434936944,40
241.699,86.7848,86.64915524459158,84.49980358164292,85.49830950422252,41.150845740369064,42.14935166294866,40
250.488,86.8282,86.67788591547992,84.3116253866893,85.41232104967426,41.26556486580566,42.36626052879062,40
259.277,87.0179,86.87364852236682,84.45527237136757,85.58880378112339,41.28484474124343,42.41837615099925,40
268.066,86.8799,86.72100655928229,84.09553358888517,85.32797086999302,41.39303568928926,42.62547297039711,40
276.855,87.06589999999998,86.91181237451995,84.1331415186487,85.4593302565187,41.45248211800126,42.778670855871255,40
287.109,86.9006,86.74158414764807,84.09786458367056,85.3105379170597,41.431046230588365,42.64371956397751,40
297.363,87.1359,86.95851195184612,84.08006662292752,85.40123930953624,41.55727264230988,42.8784453289186,40
307.617,87.4656,87.284583469943,84.06354837404285,85.56662037559711,41.71796309434589,43.22103509590015,40
319.336,86.9528,86.76780280190316,83.52978723871023,85.02985334589006,41.7379494560131,43.23801556319293,40
329.59,86.8885,86.69919876567991,83.24073785158943,84.88067160415189,41.818527161528024,43.45846091409048,40
341.309,86.8251,86.62945870042226,83.13180855717432,84.76935173423468,41.86010696618759,43.49765014324794,40
353.027,87.1903,86.97561469070382,82.94187321734243,84.9057371096995,42.06987758100432,44.03374147336139,40
366.211,87.265,87.05636321138275,83.06703970656207,84.92789772756238,42.128465483820364,43.989323504820675,40
379.395,87.5704,87.35853251236611,83.13505180491408,85.11037559220382,42.24815692016229,44.223480707452026,40
392.578,87.0337,86.82602623579173,82.6295566710045,84.57959095231051,42.24643528348122,44.196469564787236,40
405.762,86.8977,86.688962941135,82.54329716994948,84.45966246433998,42.22930047679502,44.14566577118552,40
420.41,87.5965,87.37299933415363,82.7853209385766,84.89222662293513,42.480772711218506,44.58767839557703,40
435.059,86.8323,86.62532326646732,82.2275713355266,84.24822025702942,42.3771030094379,44.397751930940714,40
451.172,87.2994,87.04714749619751,81.96327156256976,84.27276760251051,42.774379893687,45.08387593362775,40
465.82,87.0773,86.84522860253459,81.8584973773577,84.11652186823675,42.728706734297845,44.9867312251769,40
483.398,87.5142,87.28330492165756,82.21397675069315,84.47695028797621,42.80635463368135,45.06932817096441,40
499.512,87.1221,86.90009463352152,81.95956137937127,84.14005681944347,42.760037814078046,44.94053325415025,40
517.09,86.8021,86.57380743934992,81.52726694133409,83.72554156282041,42.84826587652951,45.04654049801583,40
536.133,86.4657,86.15208735474253,80.86955727724634,83.12268235459631,43.02940500014623,45.28253007749619,40
555.176,86.46220000000001,86.24499488505613,81.14715723658006,83.28928663008816,42.95570825496797,45.09783764847607,40
574.219,86.1726,85.9140547298704,81.0894447572668,83.01169349199958,42.90236123787082,44.8246099726036,40
594.727,87.0047,86.53572703951515,80.60597327838038,82.84666410575589,43.68906293375926,45.929753761134776,40
615.234,87.0488,86.619942721783,80.51579657017676,82.81246321291688,43.80747950886612,46.104146151606244,40
637.207,86.8773,86.43192404928398,80.99933186610275,82.90197768712542,43.529946362158555,45.43259218318123,40
659.18,88.1889,87.63938903439771,81.31811909256594,83.72005450065053,43.919334533747175,46.32126994183177,40
682.617,87.4894,87.03479821906518,81.06057923198964,83.25212416383657,43.78267405522861,45.974218987075545,40
707.52,87.2433,86.77373495783277,80.62586644363536,82.89495276282862,43.87878219500415,46.14786851419741,40
732.422,86.7038,86.27202630996582,80.87701527684385,82.73381465605075,43.53821165391507,45.395011033121975,40
757.324,87.10960000000001,86.54570344101975,80.61614658325477,82.65808718995801,43.88761625106174,45.92955685776498,40
785.156,86.6991,86.11149653353091,79.75997459589499,82.03921346163627,44.072283071894645,46.35152193763592,40
811.523,86.7072,86.30751556166769,80.72272822398362,82.61111258013128,43.69640298153641,45.58478733768406,40
840.82,84.9687,84.62295738771073,80.40100876520202,81.73505517456076,42.88790221314997,44.221948622508705,40
870.117,86.35539999999999,85.72709568082117,80.4243536571666,82.10019042163269,43.626905259188476,45.30274202365456,40
900.879,86.6363,85.7246883415789,80.1804294856161,81.9365162088098,43.78817213276909,45.544258855962795,40
933.105,88.2556,87.03657262002021,79.5060944706616,82.01782069849517,45.01875192152504,47.530478149358615,40
965.332,87.7032,86.67012636005002,79.44913139890713,82.13715266500739,44.53297369504263,47.22099496114289,40
1000.49,86.5395,85.72507099279086,79.55238293793931,81.6786122522341,44.04645874055676,46.17268805485155,40
1035.64,88.0978,86.82066556564236,78.43759604454864,81.53648072262895,45.284184843013406,48.38306952109372,40
1072.27,87.2719,86.39008987671309,79.49457531271312,81.98637430606605,44.40371557064704,46.89551456399997,40
1108.89,86.7144,86.10393647226458,79.55330526854924,81.94760551711734,44.15633095514724,46.55063120371534,40
1148.44,84.6682,84.84268156716557,80.42355181476671,82.10981097401006,42.73287059315551,44.41912975239886,40
1189.45,83.9962,84.55201025010345,79.90514426110192,81.70797539417441,42.84403485592904,44.646865989001526,40
1230.47,85.5981,84.92317226005025,80.04717216812445,81.65777195336351,43.26540030668674,44.8760000919258,40
1274.41,87.28839999999998,85.87418799344415,79.41977047226604,81.733597044132,44.140590949312156,46.454417521178115,40
1319.82,87.0158,85.50002886129786,79.39663241477416,81.61555794159787,43.88447091969999,46.1033964465237,40
1366.7,86.8948,85.44556510664269,80.23619258163419,82.24540661852461,43.20015848811808,45.209372525008504,40
1413.57,86.4164,85.7652645814607,80.83024599585319,82.84614927198871,42.91911530947199,44.93501858560751,40
1463.38,85.9803,85.8126296060636,80.86974072508117,83.07452883156257,42.73810077450102,44.94288888098242,40
1516.11,86.48609999999998,85.7158842881269,81.06956840958402,82.88198355333272,42.833900734794184,44.64631587854288,40
1568.85,85.7566,85.35867837223199,79.55898858141639,82.1782470317068,43.18043134052519,45.799689790815606,40
1624.51,87.2044,86.17814846027444,79.88667653162341,82.7734727965314,43.40467566374305,46.291471928651035,40
1681.64,88.3747,86.78336158028142,80.431480071133,83.36235654186868,43.421005038412744,46.35188150914843,40
1741.7,88.8625,87.34521747295047,80.54355088193368,83.80455747824173,43.54065999470873,46.80166659101678,40
1803.22,89.0203,87.52836043992882,80.8745805631985,83.8941926046917,43.63416783523712,46.65377987673031,40
1866.21,88.2924,87.14516688445562,80.44112572522515,83.4727438809662,43.67242300348941,46.70404115923047,40
1932.13,87.9182,86.82321081567623,79.7796562720414,82.87066181639959,43.952548999276644,47.04355454363484,40
1999.51,87.6527,86.3080581161137,78.6588470703683,82.09002878217298,44.21802933394072,47.6492110457454,40
2069.82,87.03750000000001,85.2634680909484,77.39574022709563,80.94539488088436,44.31807321006403,47.867727863852764,40
2143.07,86.4527,84.77761879357001,76.67058202569638,80.29703673845854,44.48058205511147,48.10703676787364,40
2219.24,85.604,84.19254673911574,75.86273243738613,79.5822918308353,44.61025490828044,48.32981430172961,40
2296.88,85.3042,84.1666919795227,75.89776540444633,79.47730280026322,44.68938917925948,48.268926575076364,40
2378.91,85.2597,83.82111005487776,76.01679120553803,79.29615157155388,44.524958483323886,47.80431884933974,40
2462.4,86.20359999999998,84.62805911440262,76.5800746301144,80.02205506168534,44.60600405271728,48.04798448428822,40
2548.83,86.3668,85.15712324140138,77.41599110085187,80.54202017337356,44.61510306802782,47.74113214054951,40
2639.65,86.212,85.37447486241503,78.03721245365394,80.8046400829038,44.569834779511226,47.33726240876109,40
2731.93,86.3599,85.51799777115765,78.47255827642216,81.13919443895784,44.37880333219981,47.04543949473549,40
2828.61,87.5052,86.31206128686536,79.53696834660995,82.0911670241876,44.22089426267776,46.775092940255405,40
2928.22,88.4715,87.53983401350658,80.74619011752897,83.27603415529393,44.26379985821265,46.79364389597761,40
3030.76,88.5151,87.76433361606661,81.0324082710816,83.50378707454934,44.26054654151727,46.731925344985015,40
3137.7,88.404,87.83725638693342,81.28114835587591,84.04098972887182,43.7962666580616,46.556108031057505,40
3249.02,87.7874,87.48992066064305,81.37164310092662,84.11677890658393,43.37314175405912,46.11827755971643,40
3363.28,87.9545,87.28335153084281,81.28481227474565,84.11161198120854,43.17173954963427,45.99853925609716,40
3481.93,87.89130000000002,87.21364098940599,81.42562346422098,84.3806411275584,42.83299986184758,45.78801752518501,40
3604.98,88.0636,86.90682364195213,81.55265946939117,84.40087380545778,42.50594983649435,45.35416417256096,40
3732.42,88.7107,86.8439985161049,81.85836441126189,84.8263125205732,42.01768599553171,44.985634104843015,40
3864.26,87.5565,86.68742423271522,81.82802609330884,84.75573005590262,41.9316941768126,44.85939813940638,40
4000.49,87.0549,86.18539969952212,81.349329317988,84.44226356408106,41.74313613544106,44.83607038153413,40
4141.11,87.41419999999998,86.55682858255959,81.59024409029197,84.92685797763829,41.6299706049213,44.966584492267614,40
4287.6,85.979,86.47095543131503,81.61174539498136,84.92347546920656,41.54747996210847,44.85921003633368,40
4438.48,86.4593,86.89369863558821,81.64102561555984,84.92728706237644,41.96641157321177,45.25267302002837,40
4595.21,85.54729999999999,87.10521071739902,81.58069824984882,84.737337581938,42.367873135461025,45.524512467550196,40
4756.35,86.7101,87.40544970020964,81.36865634743113,84.54209079011625,42.863358910093396,46.03679335277852,40
4924.8,86.03259999999999,87.10418525083205,81.21038340473042,84.39550228403083,42.70868296680122,45.893801846101624,40
5097.66,85.0641,86.61959083810406,80.70820249943823,83.96882336722693,42.65076747087713,45.91138833866583,40
5277.83,86.7137,86.57161695506477,80.25408615898212,83.85155616488844,42.72006079017633,46.31753079608265,40
5463.87,87.5034,86.65791534643007,80.11654755674827,83.74056101808739,42.91735432834268,46.5413677896818,40
5657.23,87.5662,86.82234012734692,79.95641796758161,83.6069471436383,43.215392983708625,46.865922159765304,40
5856.45,87.51610000000001,86.61424390544968,79.62674552573917,83.26473358458394,43.34951032086575,46.987498379710516,40
6062.99,88.1817,86.64421263155401,79.79175801220278,83.13075046603251,43.5134621655215,46.852454619351235,40
6276.86,87.4885,86.3664165724095,79.71435122943416,82.97488284398584,43.39153372842367,46.65206534297535,40
6498.05,88.10530000000001,86.5135161484453,79.66631788381584,83.31421245232494,43.19930369612037,46.84719826462947,40
6726.56,88.6573,86.63623948254325,79.57884439886965,83.69516687825329,42.94107260428996,47.0573950836736,40
6963.87,88.5489,86.77783847552605,79.19316389696644,83.59517999650645,43.18265847901961,47.584674578559614,40
7209.96,87.807,86.59153796763225,79.1182591176996,83.34140009194586,43.25013787568639,47.473278849932655,40
7464.84,87.3904,86.29574986515787,78.569713053986,82.79149666586682,43.50425319929106,47.726036811171866,40
7727.05,87.50959999999999,86.03201778332644,78.20524794470363,82.52370975968108,43.508308023645355,47.82676983862281,40
7999.51,87.6419,86.09847447974144,77.87426018290843,82.3694436655266,43.72903081421484,48.22421429683301,40
8282.23,86.9303,86.21613877800141,77.66847982750129,82.23292848939168,43.983210288609726,48.54765895050012,40
8573.73,86.7102,86.07983773707025,77.51620639595077,82.20461764092725,43.875220096142996,48.563631341119475,40
8876.95,86.6768,85.59304693083877,76.9866633828719,81.71538729345104,43.87765963738772,48.60638354796687,40
9188.96,86.4878,85.4965058826996,76.65582248576719,81.2771527495376,44.21935313316199,48.840683396932405,40
9514.16,87.22619999999999,85.90971954415424,76.5410721940842,81.52808175830445,44.38163778584979,49.36864735007005,40
9849.61,87.43820000000001,85.96113650542698,76.18403427578626,81.27143484305073,44.68970166237625,49.77710222964072,40
10196.8,86.978,86.04015740081634,76.14150913089168,81.14328266593793,44.89687473487841,49.898648269924664,40
10555.7,87.6029,86.15091663933636,76.13108613373298,81.23549866739138,44.915417971944976,50.01983050560338,40
10927.7,88.3033,86.45263726494991,76.1437883631265,81.40316388863918,45.04947337631073,50.30884890182341,40
11313.0,88.24829999999999,86.50044755071147,76.02559571824364,81.3099345117386,45.19051303897287,50.474851832467834,40
11712.9,88.4257,86.53737832980627,75.85103801761198,81.16715331211932,45.37022501768695,50.68634031219429,40
12126.0,88.2309,86.46622033946095,75.65701475428557,80.87749724313922,45.58872309632173,50.80920558517538,40
