Freq "Early Reflections DI"
20.0 39.853810542155955
20.2909 39.8620545426042
20.586 39.87127832041253
20.8855 39.878923271249434
21.1893 39.88678961503716
21.4975 39.89481745895806
21.8102 39.90272345457541
22.1274 39.91049496208605
22.4492 39.918379444959584
22.7758 39.92638668913732
23.1071 39.934095847176934
23.4432 39.94186748507954
23.7841 39.95160790810341
24.1301 39.96100181000918
24.4811 39.97115989036982
24.8372 39.980426656146975
25.1984 39.98996070169571
25.5649 39.999689450290674
25.9368 40.008903998884534
26.3141 40.01848058732823
26.6968 40.026657181919376
27.0851 40.034500510172776
27.4791 40.04220080547137
27.8788 40.05011835403651
28.2843 40.05793945089738
28.6957 40.06590000137308
29.1131 40.07381185683043
29.5365 40.08012470812973
29.9661 40.08528921763802
30.402 40.09051345150863
30.8442 40.095942675032205
31.2929 40.10109487569002
31.748 40.10608479811566
32.2098 40.11144846536901
32.6783 40.1141085619701
33.1536 40.11706785920485
33.6359 40.119504863346236
34.1251 40.12215634826126
34.6215 40.12480619639811
35.125 40.127433635190826
35.6359 40.128202181477434
36.1543 40.12907812910527
36.6802 40.12963669562413
37.2137 40.13021617815596
37.755 40.1311090314891
38.3041 40.12486309242814
38.8613 40.107957976348985
39.4265 40.09044847783041
40.0 40.07271830389479
40.5818 40.05431398113687
41.1721 40.037675647064376
41.771 40.0274941815717
42.3785 40.01733968215622
42.9949 40.00684158147199
43.6203 39.996348792588904
44.2548 39.98860322175264
44.8985 39.98439223701848
45.5515 39.98008661388563
46.2141 39.975647776277
46.8863 39.97134167028585
47.5683 39.97203370697329
48.2602 39.97270466505459
48.9621 39.97317396556764
49.6743 39.973883734356946
50.3968 39.97768862391476
51.1299 39.98228395823185
51.8736 39.987141927464634
52.6281 39.99184123837075
53.3936 39.999595177986265
54.1702 40.00778906383009
54.9581 40.015764313967566
55.7575 40.02418922387193
56.5685 40.03557145580625
57.3914 40.04657948338186
58.2261 40.05767728936908
59.073 40.07072551809436
59.9323 40.08445537035857
60.804 40.09836823561909
61.6884 40.11254768661847
62.5857 40.12889849621928
63.496 40.14503764919088
64.4196 40.16154442494235
65.3566 40.17957901209361
66.3073 40.197825720227
67.2717 40.215756398436184
68.2502 40.23479107891896
69.2429 40.25380548574351
70.2501 40.27287599744429
71.2719 40.29195589719042
72.3086 40.3112078612985
73.3603 40.330213959507404
74.4274 40.34822723750595
75.5099 40.36635689852994
76.6083 40.38354118733815
77.7226 40.40023418479525
78.8531 40.41684175874758
80.0 40.43112756582707
81.1636 40.445073095804915
82.3442 40.458209813670805
83.5419 40.46971052828988
84.757 40.48104802086232
85.9899 40.490356503667485
87.2406 40.498930191046625
88.5096 40.50647808398074
89.797 40.51279963453453
91.1031 40.51847990169155
92.4282 40.52271646325356
93.7726 40.52629104487677
95.1366 40.528167270275205
96.5204 40.53023090410046
97.9243 40.52975086955897
99.3486 40.528836837785335
100.794 40.5282124286491
102.26 40.52741507964923
103.747 40.527466694332134
105.256 40.52791526192564
106.787 40.531119041892154
108.34 40.53498683989331
109.916 40.54446040696115
111.515 40.55485295031053
113.137 40.57202206190081
114.783 40.59116282348241
116.452 40.61519723377711
118.146 40.64134388544785
119.865 40.6696140409925
121.608 40.69855469962755
123.377 40.72688404409587
125.171 40.75316511822564
126.992 40.77561050260505
128.839 40.795310630142595
130.713 40.8077462797723
132.615 40.81628987654513
134.543 40.820469812365715
136.5 40.81946853298227
138.486 40.81679150849894
140.5 40.812617262425064
142.544 40.811367452334835
144.617 40.814089238164414
146.721 40.82260448119894
148.855 40.84168845130972
151.02 40.87106355981841
153.217 40.90738852752729
155.445 40.95000123676694
157.706 40.99416339072016
160.0 41.03153024425643
162.327 41.058951719433765
164.688 41.0753063686239
167.084 41.07860868070759
169.514 41.07072675557524
171.98 41.059631167275526
174.481 41.05088024152275
177.019 41.04732083440214
179.594 41.05067314362617
182.206 41.05799708925127
184.856 41.06358351582699
187.545 41.06053914180892
190.273 41.043426446134006
193.041 41.01505197280085
195.849 40.982096532382286
198.697 40.953802814268926
201.587 40.937949254018406
204.52 40.93925082564819
207.494 40.95775368268494
210.512 40.98622866896105
213.574 41.016617024314115
216.681 41.04161915600369
219.833 41.05994579024336
223.03 41.07266000160615
226.274 41.08208199257879
229.565 41.08934793849494
232.905 41.095529628326915
236.292 41.10361527273051
239.729 41.115936888790316
243.216 41.13431393055926
246.754 41.157819397711336
250.343 41.18040994317856
253.984 41.19560954723917
257.678 41.199519333865254
261.426 41.19348363850911
265.229 41.18619015479727
269.087 41.182155631114895
273.001 41.18221193049493
276.972 41.184513339037494
281.0 41.18760922743972
285.088 41.193060362817874
289.234 41.202178633929336
293.441 41.21330315871403
297.709 41.219583139922264
302.04 41.21382127297366
306.433 41.19962679419163
310.89 41.1873924592759
315.412 41.17453068558618
320.0 41.16164768963296
324.655 41.14819212395689
329.377 41.134307084121644
334.168 41.12031012351029
339.028 41.106442233021085
343.959 41.094659466975884
348.962 41.092410686965806
354.038 41.11924727277885
359.188 41.19249210825393
364.412 41.30801094803823
369.713 41.43811408707049
375.09 41.54319825466774
380.546 41.59435202781491
386.081 41.592756612959704
391.697 41.556028272241505
397.394 41.505712590968315
403.175 41.46040990389086
409.039 41.430875799152744
414.989 41.417473037003546
421.025 41.415034468251264
427.149 41.41614497997858
433.362 41.414779021233784
439.665 41.40938161358031
446.06 41.40831910396699
452.548 41.42109447699447
459.131 41.44583748541186
465.809 41.472631396795876
472.584 41.497796726339345
479.458 41.52731419922202
486.432 41.56543960507523
493.507 41.61030628780033
500.686 41.6612903518471
507.968 41.72541862620447
515.357 41.761327372126374
522.853 41.79308257379371
530.458 41.80820977364422
538.174 41.808381465996106
546.002 41.79858751656968
553.943 41.782174321325456
562.001 41.76141285989634
570.175 41.738470331223596
578.469 41.71287935263099
586.883 41.68677791949719
595.419 41.667426063314736
604.08 41.66330812445683
612.866 41.67333078386592
621.78 41.68920705654992
630.824 41.70464001999497
640.0 41.720784030979516
649.309 41.744198544007475
658.753 41.77784863386805
668.335 41.81676112007071
678.056 41.847253330481195
687.919 41.85928663596731
697.925 41.850857514567
708.077 41.83092557910254
718.376 41.81887723016354
728.825 41.80846716566117
739.426 41.79947078347193
750.181 41.78927746641615
761.093 41.78287656356551
772.163 41.78826449943469
783.394 41.8046116766791
794.789 41.81895676945686
806.349 41.82005514326072
818.078 41.806140416695456
829.977 41.78283828593875
842.05 41.7582090026516
854.298 41.738723506717264
866.724 41.72883826420821
879.33 41.73469790607005
892.12 41.75760391851482
905.097 41.78184716428126
918.262 41.773211556407404
931.618 41.73834947133247
945.169 41.70335184377474
958.917 41.697299060180256
972.864 41.706001349499616
987.015 41.70858249026429
1001.37 41.73782832701889
1015.94 41.83567468089865
1030.71 41.967314647450735
1045.71 42.070644324718614
1060.92 42.137724337637806
1076.35 42.15165739554189
1092.0 42.09588168749582
1107.89 42.06561245073077
1124.0 42.17050942164387
1140.35 42.31011837034447
1156.94 42.31980616126488
1173.77 42.23132025833766
1190.84 42.188456043264225
1208.16 42.23302180527422
1225.73 42.246886854669015
1243.56 42.23870519736107
1261.65 42.2953745522037
1280.0 42.32142838612272
1298.62 42.14783112594152
1317.51 41.8873635462557
1336.67 41.76665262588733
1356.11 41.77211677466845
1375.84 41.84414552939762
1395.85 41.89150434679698
1416.15 41.86927434447978
1436.75 41.768949699972254
1457.65 41.64620454378813
1478.85 41.60636280256607
1500.36 41.595266554062775
1522.19 41.45348230926737
1544.33 41.32363625973298
1566.79 41.270316426642566
1589.58 41.23845835264035
1612.7 41.201634595864306
1636.16 41.23624521463793
1659.95 41.315299490030654
1684.1 41.36373741010013
1708.6 41.426460795641376
1733.45 41.48584557672966
1758.66 41.528361487235145
1784.24 41.58249015409025
1810.19 41.61728552696189
1836.52 41.682264460968526
1863.24 41.74634167534691
1890.34 41.81685814339592
1917.83 41.97613389770858
1945.73 42.11238368207435
1974.03 42.20155164008436
2002.74 42.32662483592266
2031.87 42.59096640978838
2061.43 42.87491882713678
2091.41 42.92619566901391
2121.83 42.84307046333407
2152.69 42.80403521070616
2184.01 42.7078195811403
2215.77 42.640360518058614
2248.0 42.687402282272316
2280.7 42.74765316227517
2313.87 42.81726376151697
2347.53 42.87791174788727
2381.68 42.925545643507434
2416.32 42.95007960737152
2451.46 42.93352864470407
2487.12 42.883431705897834
2523.3 42.761491084443136
2560.0 42.639395972265035
2597.24 42.613749475042226
2635.01 42.66317838509062
2673.34 42.66338563857738
2712.23 42.582364432544054
2751.68 42.54079772551786
2791.7 42.467599257238106
2832.31 42.43319557626418
2873.5 42.46979417033333
2915.3 42.47320539013232
2957.7 42.49086312385637
3000.72 42.527610945714656
3044.37 42.5330481864588
3088.65 42.53452472520917
3133.58 42.560172922550336
3179.16 42.59608864371286
3225.4 42.62399137141057
3272.31 42.664230350878526
3319.91 42.68665705171122
3368.2 42.70835771533112
3417.19 42.81000696386302
3466.89 42.99570473277147
3517.32 43.16603649095555
3568.48 43.250440416709395
3620.39 43.315277217540896
3673.05 43.29992520293226
3726.47 43.18013393284939
3780.67 43.09998488448967
3835.67 43.09179617783177
3891.46 43.05838025209647
3948.06 42.95522168075206
4005.49 42.958733258661255
4063.75 43.06812098301853
4122.86 43.07025063097589
4182.82 43.09112532987338
4243.66 43.234082696461186
4305.39 43.32735027615277
4368.01 43.33865280920378
4431.55 43.34980897322933
4496.01 43.349529361286685
4561.4 43.31907316280099
4627.75 43.40369227794602
4695.06 43.50997625319516
4763.35 43.540998664751186
4832.64 43.59168086669992
4902.93 43.67450159703061
4974.24 43.71618533322156
5046.6 43.758934380705185
5120.0 43.8038294588781
5194.47 43.86456544788612
5270.03 43.94559346411968
5346.68 43.920833069087905
5424.45 43.87826934552227
5503.35 43.892905707943044
5583.4 43.907477142799934
5664.61 43.952850866235025
5747.01 43.9287451541239
5830.6 43.90531635085793
5915.41 44.011411579023545
6001.45 44.158719525046436
6088.74 44.232311383797395
6177.3 44.243027008809264
6267.15 44.3103577665303
6358.31 44.38233994678919
6450.8 44.37630080809227
6544.62 44.316545303314186
6639.82 44.30254882581285
6736.4 44.40531258677834
6834.38 44.53932517641309
6933.79 44.62924602133921
7034.64 44.733142979886026
7136.96 44.860057270726244
7240.77 44.95298805255534
7346.09 45.00829841576079
7452.94 45.086319806297396
7561.35 45.185948616158456
7671.33 45.24272588590743
7782.91 45.19687342484045
7896.12 45.23079767887191
8010.97 45.29938206409119
8127.49 45.234691987823666
8245.71 45.17196640945696
8365.65 45.154969762419285
8487.33 45.11364146770282
8610.78 45.0489715619762
8736.03 45.0508063252916
8863.09 45.10150026051974
8992.01 45.13272953788184
9122.8 45.15961458150804
9255.5 45.12366280637559
9390.12 44.9869402835418
9526.7 44.86647283374015
9665.27 44.79832494380736
9805.86 44.80470695607423
9948.49 44.9186878358567
10093.2 45.05350859440614
10240.0 45.135682657092985
10388.9 45.15621638791124
10540.1 45.144271925006336
10693.4 45.14704187038349
10848.9 45.17927689050228
11006.7 45.2406607166249
11166.8 45.30830331349412
11329.2 45.352820830785745
11494.0 45.36949994846738
11661.2 45.37867806919243
11830.8 45.39685017530455
12002.9 45.42527047605938
12177.5 45.47022772505261
12354.6 45.53778584719315
12534.3 45.607662665625355
12716.6 45.668985880694976
12901.6 45.735875248218846
13089.2 45.811611367061275
13279.6 45.87401631666991
13472.8 45.90291889604413
13668.8 45.89004973610881
13867.6 45.85726495204297
14069.3 45.85071090834967
14273.9 45.88952352552873
14481.5 45.94172537384111
14692.2 45.98066166703218
14905.9 46.01043291057249
15122.7 46.026420512887725
15342.7 46.014023920582986
15565.8 45.989881401281096
15792.2 45.986952474043235
16021.9 45.994517280522416
16255.0 46.0089561726423
16491.4 46.01502464141974
16731.3 45.99523226963568
16974.7 45.96314431311502
17221.6 45.9275496349143
17472.1 45.87682014218399
17726.2 45.766469552070106
17984.0 45.55920157759003
18245.6 45.33303683371693
18511.0 45.162929334831745
18780.2 45.02582791978189
19053.4 44.85896237327012
19330.5 44.664918325654156
19611.7 44.469059007268044
19897.0 44.3612368323969
