Freq "On Axis"
20.0 72.029
20.2909 72.15
20.586 72.272
20.8855 72.368
21.1893 72.465
21.4975 72.56199999999998
21.8102 72.65900000000002
22.1274 72.755
22.4492 72.852
22.7758 72.949
23.1071 73.045
23.4432 73.143
23.7841 73.308
24.1301 73.473
24.4811 73.63900000000001
24.8372 73.804
25.1984 73.969
25.5649 74.134
25.9368 74.299
26.3141 74.464
26.6968 74.66
27.0851 74.86099999999999
27.4791 75.06199999999998
27.8788 75.263
28.2843 75.464
28.6957 75.665
29.1131 75.866
29.5365 76.078
29.9661 76.297
30.402 76.51600000000002
30.8442 76.73599999999999
31.2929 76.955
31.748 77.174
32.2098 77.393
32.6783 77.618
33.1536 77.844
33.6359 78.069
34.1251 78.29399999999998
34.6215 78.519
35.125 78.744
35.6359 78.967
36.1543 79.19
36.6802 79.412
37.2137 79.63399999999999
37.755 79.857
38.3041 80.076
38.8613 80.28899999999999
39.4265 80.502
40.0 80.716
40.5818 80.929
41.1721 81.13900000000001
41.771 81.338
42.3785 81.538
42.9949 81.737
43.6203 81.93699999999998
44.2548 82.12800000000001
44.8985 82.309
45.5515 82.491
46.2141 82.673
46.8863 82.854
47.5683 83.01599999999999
48.2602 83.17700000000002
48.9621 83.338
49.6743 83.499
50.3968 83.64099999999999
51.1299 83.78
51.8736 83.918
52.6281 84.05599999999998
53.3936 84.174
54.1702 84.289
54.9581 84.40299999999999
55.7575 84.51399999999998
56.5685 84.605
57.3914 84.695
58.2261 84.785
59.073 84.863
59.9323 84.93
60.804 84.997
61.6884 85.061
62.5857 85.108
63.496 85.155
64.4196 85.202
65.3566 85.234
66.3073 85.265
67.2717 85.295
68.2502 85.316
69.2429 85.335
70.2501 85.35299999999998
71.2719 85.36599999999999
72.3086 85.378
73.3603 85.39000000000001
74.4274 85.4
75.5099 85.41
76.6083 85.42000000000002
77.7226 85.431
78.8531 85.441
80.0 85.453
81.1636 85.465
82.3442 85.478
83.5419 85.492
84.757 85.506
85.9899 85.51999999999998
87.2406 85.534
88.5096 85.54599999999999
89.797 85.55700000000002
91.1031 85.56699999999998
92.4282 85.57400000000001
93.7726 85.57999999999998
95.1366 85.57999999999998
96.5204 85.57999999999998
97.9243 85.575
99.3486 85.569
100.794 85.559
102.26 85.548
103.747 85.535
105.256 85.523
106.787 85.51000000000002
108.34 85.496
109.916 85.483
111.515 85.47
113.137 85.459
114.783 85.449
116.452 85.44
118.146 85.434
119.865 85.429
121.608 85.42599999999999
123.377 85.423
125.171 85.422
126.992 85.42000000000002
128.839 85.419
130.713 85.417
132.615 85.41299999999998
134.543 85.408
136.5 85.402
138.486 85.395
140.5 85.386
142.544 85.37700000000001
144.617 85.368
146.721 85.36000000000001
148.855 85.354
151.02 85.352
153.217 85.35299999999998
155.445 85.357
157.706 85.36599999999999
160.0 85.378
162.327 85.393
164.688 85.408
167.084 85.423
169.514 85.436
171.98 85.44299999999998
174.481 85.445
177.019 85.441
179.594 85.431
182.206 85.416
184.856 85.399
187.545 85.382
190.273 85.367
193.041 85.359
195.849 85.357
198.697 85.362
201.587 85.371
204.52 85.381
207.494 85.39000000000001
210.512 85.392
213.574 85.385
216.681 85.37
219.833 85.346
223.03 85.32
226.274 85.297
229.565 85.282
232.905 85.279
236.292 85.29
239.729 85.31300000000002
243.216 85.342
246.754 85.372
250.343 85.39599999999999
253.984 85.41299999999998
257.678 85.424
261.426 85.43300000000002
265.229 85.449
269.087 85.477
273.001 85.522
276.972 85.57999999999998
281.0 85.643
285.088 85.69999999999999
289.234 85.742
293.441 85.75999999999999
297.709 85.751
302.04 85.718
306.433 85.68
310.89 85.65
315.412 85.626
320.0 85.601
324.655 85.565
329.377 85.513
334.168 85.444
339.028 85.36599999999999
343.959 85.299
348.962 85.26600000000002
354.038 85.295
359.188 85.394
364.412 85.548
369.713 85.722
375.09 85.872
380.546 85.96
386.081 85.97200000000001
391.697 85.916
397.394 85.813
403.175 85.68699999999998
409.039 85.55700000000002
414.989 85.43300000000002
421.025 85.32
427.149 85.225
433.362 85.156
439.665 85.121
446.06 85.124
452.548 85.16300000000001
459.131 85.234
465.809 85.327
472.584 85.432
479.458 85.538
486.432 85.639
493.507 85.72999999999999
500.686 85.802
507.968 85.83100000000002
515.357 85.808
522.853 85.744
530.458 85.652
538.174 85.561
546.002 85.501
553.943 85.48000000000002
562.001 85.48999999999998
570.175 85.498
578.469 85.476
586.883 85.414
595.419 85.32299999999998
604.08 85.227
612.866 85.138
621.78 85.067
630.824 85.036
640.0 85.066
649.309 85.168
658.753 85.321
668.335 85.472
678.056 85.56299999999999
687.919 85.57400000000001
697.925 85.532
708.077 85.494
718.376 85.495
728.825 85.506
739.426 85.493
750.181 85.448
761.093 85.401
772.163 85.37899999999999
783.394 85.36599999999999
794.789 85.31300000000002
806.349 85.198
818.078 85.068
829.977 84.991
842.05 84.983
854.298 84.983
866.724 84.93200000000002
879.33 84.847
892.12 84.8
905.097 84.811
918.262 84.807
931.618 84.755
945.169 84.685
958.917 84.642
972.864 84.623
987.015 84.64699999999999
1001.37 84.791
1015.94 85.034
1030.71 85.205
1045.71 85.22899999999998
1060.92 85.233
1076.35 85.277
1092.0 85.305
1107.89 85.44
1124.0 85.812
1140.35 86.164
1156.94 86.226
1173.77 86.104
1190.84 86.009
1208.16 85.993
1225.73 86.035
1243.56 86.12200000000001
1261.65 86.189
1280.0 86.198
1298.62 86.104
1317.51 85.913
1336.67 85.814
1356.11 85.87
1375.84 86.054
1395.85 86.25
1416.15 86.36600000000001
1436.75 86.333
1457.65 86.125
1478.85 85.97200000000001
1500.36 85.973
1522.19 85.77
1544.33 85.47
1566.79 85.16899999999998
1589.58 84.876
1612.7 84.821
1636.16 84.976
1659.95 85.0
1684.1 85.012
1708.6 85.187
1733.45 85.327
1758.66 85.382
1784.24 85.34
1810.19 85.297
1836.52 85.309
1863.24 85.071
1890.34 84.789
1917.83 84.73
1945.73 84.693
1974.03 84.712
2002.74 84.719
2031.87 84.86499999999998
2061.43 85.213
2091.41 85.255
2121.83 85.07300000000001
2152.69 84.89099999999999
2184.01 84.573
2215.77 84.32
2248.0 84.224
2280.7 84.178
2313.87 84.168
2347.53 84.11599999999999
2381.68 84.11000000000001
2416.32 84.084
2451.46 84.006
2487.12 83.792
2523.3 83.45500000000001
2560.0 83.39500000000001
2597.24 83.654
2635.01 83.857
2673.34 83.934
2712.23 84.154
2751.68 84.309
2791.7 84.364
2832.31 84.366
2873.5 84.25
2915.3 84.452
2957.7 84.87799999999999
3000.72 84.984
3044.37 84.857
3088.65 84.93200000000002
3133.58 85.257
3179.16 85.607
3225.4 85.868
3272.31 86.00399999999999
3319.91 86.119
3368.2 86.237
3417.19 86.41499999999999
3466.89 86.691
3517.32 86.993
3568.48 87.273
3620.39 87.311
3673.05 87.05100000000002
3726.47 86.705
3780.67 86.33
3835.67 85.933
3891.46 85.504
3948.06 85.374
4005.49 85.646
4063.75 85.849
4122.86 86.05
4182.82 86.32899999999998
4243.66 86.416
4305.39 86.362
4368.01 86.31900000000002
4431.55 86.31
4496.01 86.285
4561.4 86.104
4627.75 85.896
4695.06 85.763
4763.35 85.684
4832.64 85.66400000000002
4902.93 85.57400000000001
4974.24 85.472
5046.6 85.54000000000002
5120.0 85.696
5194.47 85.74699999999999
5270.03 85.731
5346.68 85.598
5424.45 85.265
5503.35 84.759
5583.4 84.189
5664.61 83.828
5747.01 83.63900000000001
5830.6 83.567
5915.41 83.717
6001.45 83.955
6088.74 84.181
6177.3 84.522
6267.15 84.794
6358.31 85.048
6450.8 85.329
6544.62 85.376
6639.82 85.25899999999999
6736.4 85.256
6834.38 85.30199999999999
6933.79 85.29600000000002
7034.64 85.39000000000001
7136.96 85.428
7240.77 85.308
7346.09 85.205
7452.94 85.08600000000001
7561.35 85.064
7671.33 85.10499999999999
7782.91 85.027
7896.12 84.956
8010.97 84.764
8127.49 84.408
8245.71 83.995
8365.65 83.542
8487.33 83.416
8610.78 83.582
8736.03 83.88
8863.09 84.16299999999998
8992.01 84.175
9122.8 84.066
9255.5 83.905
9390.12 83.761
9526.7 83.691
9665.27 83.717
9805.86 83.938
9948.49 84.33700000000002
10093.2 84.809
10240.0 85.187
10388.9 85.31700000000001
10540.1 85.19300000000001
10693.4 85.05600000000001
10848.9 85.101
11006.7 85.382
11166.8 85.785
11329.2 86.10500000000002
11494.0 86.244
11661.2 86.203
11830.8 86.053
12002.9 85.89699999999999
12177.5 85.86
12354.6 86.007
12534.3 86.254
12716.6 86.44
12901.6 86.42
13089.2 86.149
13279.6 85.819
13472.8 85.802
13668.8 86.228
13867.6 86.733
14069.3 86.88
14273.9 86.672
14481.5 86.465
14692.2 86.498
14905.9 86.66299999999998
15122.7 86.732
15342.7 86.652
15565.8 86.514
15792.2 86.37199999999999
16021.9 86.29
16255.0 86.384
16491.4 86.538
16731.3 86.411
16974.7 86.073
17221.6 86.006
17472.1 86.166
17726.2 86.077
17984.0 85.786
18245.6 85.679
18511.0 85.733
18780.2 85.767
19053.4 85.906
19330.5 86.106
19611.7 86.009
19897.0 85.74
