Freq,On Axis,Listening Window,Sound Power,Early Reflections,Early Reflections DI,Sound Power DI,DI offset
20.5078,56.04473636363636,55.951566970259904,60.79098639688078,56.628859485727844,39.32270748453206,35.16058057337912,40
21.9727,60.42883636363638,60.49939848163149,65.01141308606255,61.826130517117406,38.67326796451408,35.48798539556894,40
23.4375,66.02363636363637,66.08989884877123,69.65191951109546,67.11282628657719,38.97707256219404,36.43797933767577,40
24.9023,69.01803636363638,69.07581227042799,71.95048269998127,69.85642358969653,39.219388680731456,37.12532957044672,40
26.3672,71.27453636363636,71.3237498395523,73.92114164114376,71.99268552565607,39.331064313896235,37.402608198408544,40
27.832,73.34413636363637,73.3782168102477,75.55320512622576,73.8615634352423,39.51665337500539,37.82501168402193,40
29.2969,76.15643636363635,76.20521961806722,78.44059067551396,76.80221430744848,39.40300531061874,37.76462894255326,40
30.7617,79.43113636363637,79.4650699358995,81.15489911291591,79.89117689864591,39.5738930372536,38.31017082298359,40
32.2266,80.47123636363636,80.50104916060322,82.00561533870679,80.84725512063771,39.653794039965504,38.49543382189643,40
33.6914,81.97113636363636,81.99773760112873,83.3153732711511,82.29273225292697,39.705005348201766,38.68236432997763,40
35.1562,82.91063636363637,82.93357712893656,84.0830164230909,83.17797093197254,39.755606196964024,38.850560705845666,40
36.6211,83.26683636363636,83.28767225552693,84.3346827309087,83.50362822465785,39.78404403086908,38.95298952461823,40
38.0859,83.91503636363637,83.93211442012837,84.91780359276345,84.10899965957483,39.82311476055354,39.01431082736492,40
39.5508,83.98753636363637,84.00280386831707,84.8977394821353,84.15663360035087,39.8461702679662,39.10506438618178,40
41.0156,84.04953636363635,84.06282228888438,84.8652215396811,84.18931882017124,39.87350346871314,39.197600749203275,40
42.4805,83.93843636363637,83.94979045024074,84.67767024543625,84.05465222493555,39.89513822530519,39.272120204804494,40
43.9453,84.08853636363636,84.09691738766861,84.7125816192312,84.16239617682552,39.93452121084309,39.38433576843741,40
45.4102,84.14173636363637,84.14915451833704,84.70910086187615,84.20256986334483,39.94658465499221,39.44005365646089,40
46.875,84.14603636363637,84.15188423637689,84.66125902382596,84.19055419838836,39.96133003798853,39.490625212550924,40
48.3398,84.14803636363635,84.1534448420376,84.64025084781068,84.18874468534365,39.96470015669395,39.513193994226924,40
51.2695,84.31943636363637,84.32312369081109,84.71603801096683,84.3353719011346,39.987751789676494,39.60708567984426,40
52.7344,84.44773636363637,84.44656015893743,84.71220358880268,84.40638490986942,40.040175249068014,39.73435657013475,40
54.1992,84.39343636363637,84.39382440390884,84.66574126589245,84.362168376694,40.03165602721484,39.72808313801639,40
55.6641,84.48463636363637,84.49073623578751,84.87718573143613,84.50794423687826,39.98279199890925,39.61355050435138,40
58.5938,84.79843636363637,84.80216245208493,85.1105801425491,84.797161750098,40.00500070198693,39.69158230953583,40
60.0586,84.83423636363636,84.83902944668984,85.15284313322405,84.84101925624847,39.99801019044136,39.68618631346578,40
62.9883,84.93293636363636,84.93467139861703,85.16787157911875,84.90886725152984,40.025804147087186,39.766799819498274,40
64.4531,84.95253636363637,84.95242539291526,85.14158719764484,84.90912300109298,40.04330239182228,39.81083819527042,40
67.3828,85.05343636363637,85.05107943852227,85.185818917977,84.9873487966251,40.063730641897166,39.86526052054526,40
68.8477,85.12983636363637,85.12675204450179,85.23903728951747,85.05624346382027,40.07050858068152,39.887714754984316,40
71.7773,85.28393636363637,85.2760048294642,85.26997677911837,85.15676517382532,40.11923965563888,40.00602805034583,40
74.707,85.47053636363637,85.46096615977439,85.39785093530662,85.32280013404578,40.13816602572861,40.063115224467765,40
77.6367,85.57893636363636,85.56950281477606,85.50457340780827,85.43786865037082,40.13163416440524,40.06492940696779,40
79.1016,85.63063636363637,85.61981357164282,85.53581419690352,85.48159669495563,40.138216876687196,40.08399937473931,40
82.0312,85.78173636363636,85.76787613861731,85.6165420674549,85.60302320115088,40.164852937466435,40.15133407116241,40
84.9609,85.92403636363636,85.90892306252857,85.7199103274084,85.73255572796981,40.17636733455876,40.18901273512017,40
87.8906,85.98443636363636,85.96759193435244,85.75841205134219,85.78111409563593,40.18647783871651,40.20917988301025,40
90.8203,86.03063636363635,86.01238807464466,85.80977519955317,85.82857220276384,40.183815871880824,40.20261287509149,40
95.2148,86.22703636363636,86.20055727873496,85.85030032500656,85.94823083945246,40.2523264392825,40.350256953728405,40
98.1445,86.24733636363635,86.21809180806542,85.8089206718338,85.94022548085097,40.277866327214454,40.40917113623162,40
101.074,86.28843636363636,86.25336339691097,85.72970692857838,85.92452112595655,40.328842270954425,40.52365646833259,40
105.469,86.75413636363635,86.70971843595073,85.85087324597535,86.24111825992036,40.46860017603038,40.85884518997538,40
108.398,87.22153636363635,87.18168903703713,86.33484154126378,86.7251883838286,40.456500653208536,40.846847495773346,40
112.793,87.34783636363636,87.31027662085862,86.58605608559535,86.90192900018036,40.408347620678256,40.72422053526327,40
117.188,87.39253636363637,87.352379953629,86.57016749895655,86.91798614527475,40.434393808354244,40.78221245467245,40
120.117,87.54113636363637,87.50119896104674,86.66066830983115,87.04745230427437,40.45374665677237,40.84053065121559,40
124.512,87.75133636363637,87.71912123106301,87.09126856208371,87.35542820873312,40.3636930223299,40.6278526689793,40
128.906,87.65813636363636,87.62572676738732,87.12469965861077,87.30662137679471,40.31910539059261,40.501027108776555,40
133.301,87.47383636363637,87.44141739599921,87.1116789245402,87.18079907392645,40.26061832207276,40.32973847145901,40
139.16,86.97743636363637,86.94164262958324,86.79515394535281,86.72938935015998,40.212253279423265,40.146488684230434,40
143.555,86.47373636363636,86.43133453936018,86.46859110651623,86.262896680078,40.16843785928218,39.96274343284395,40
147.949,85.99783636363637,85.93947142389538,86.00379726298658,85.7299329411479,40.20953848274749,39.9356741609088,40
153.809,86.40413636363637,86.31462077602134,85.69031047747825,85.76667296684785,40.54794780917349,40.624310298543094,40
159.668,86.93833636363637,86.84563594918268,85.72305397546543,86.12437438934218,40.7212615598405,41.122581973717246,40
165.527,87.12483636363635,87.0356063983364,85.72036328416453,86.2751296155345,40.7604767828019,41.315243114171864,40
171.387,87.16623636363636,87.08869669209521,85.79156417921327,86.35990071024385,40.72879598185136,41.297132512881944,40
177.246,87.04443636363636,86.96289558685858,85.81051815531767,86.28745191693586,40.675443669922714,41.15237743154091,40
183.105,86.96713636363637,86.86916711992392,85.59115675574067,86.10219849992392,40.76696862,41.278010364183245,40
188.965,87.33813636363637,87.22416761889522,85.3409093973627,86.20591658627197,41.018251032623255,41.88325822153253,40
196.289,87.96613636363637,87.8798001711749,85.8003320624588,86.88003732576456,40.999762845410345,42.0794681087161,40
203.613,87.67403636363636,87.59278036332717,85.69608668782931,86.69948324151912,40.89329712180805,41.89669367549786,40
210.938,87.49823636363635,87.4076964265569,85.61366141170583,86.52733822673643,40.88035819982046,41.79403501485106,40
218.262,87.38373636363636,87.31107286139684,85.2627970218606,86.35536204756188,40.955710813834955,42.04827583953623,40
225.586,87.17633636363635,87.10939183437316,85.3058150907434,86.25962864673929,40.84976318763387,41.80357674362976,40
232.91,87.33933636363636,87.2417046813859,85.1392008144273,86.2698984124427,40.9718062689432,42.1025038669586,40
241.699,87.19353636363637,87.13056753166063,85.07086339237631,86.2767285604111,40.85383897124953,42.05970413928432,40
250.488,86.81443636363636,86.72861331734194,84.68176745260114,85.86058017776212,40.86803313957982,42.0468458647408,40
259.277,87.62663636363636,87.54035425017616,84.97998733433025,86.47351628886315,41.06683796131301,42.56036691584592,40
268.066,87.12463636363637,87.09104475733825,85.1614178208628,86.46331749897963,40.62772725835862,41.92962693647546,40
276.855,86.36493636363636,86.34676570242179,85.01167977110467,85.98111624719311,40.36564945522868,41.335085931317124,40
287.109,86.91343636363636,86.81509116316501,85.32319982355966,86.10742433711864,40.70766682604636,41.491891339605345,40
297.363,87.44223636363637,87.3408885624845,85.40549762972154,86.42320516273546,40.91768339974904,41.93539093276296,40
307.617,88.05033636363636,87.97105808369703,85.5826528672516,86.85941261820449,41.11164546549254,42.388405216445435,40
319.336,87.44353636363637,87.3909058674775,85.29068898869919,86.42255000195401,40.96835586552349,42.10021687877831,40
329.59,87.52963636363637,87.45934880725792,85.18517419364451,86.45839071432985,41.00095809292807,42.27417461361341,40
341.309,87.45593636363637,87.41548510224719,85.20610218085055,86.40558090417481,41.00990419807238,42.20938292139664,40
353.027,87.89903636363637,87.83870807110726,85.15454244859515,86.62084568780917,41.2178623832981,42.68416562251211,40
366.211,87.21773636363636,87.08195241182035,85.03478022042984,86.05726465295004,41.024687758870314,42.047172191390516,40
379.395,87.89773636363637,87.69691869995911,84.85697129745057,86.21959871162962,41.4773199883295,42.83994740250854,40
392.578,87.50183636363636,87.31773178288493,84.5488787956261,85.92558099436036,41.392150788524575,42.76885298725884,40
405.762,88.10243636363637,87.89500671334619,84.73933241417475,86.042908759844,41.852097953502195,43.15567429917144,40
420.41,88.69863636363637,88.46699281450513,84.679946692986,86.15506442899503,42.3119283855101,43.78704612151914,40
435.059,89.07823636363636,88.77142322340977,84.84766482729816,86.60721226762024,42.16421095578953,43.92375839611161,40
451.172,88.50173636363637,88.34250243326603,85.15483399818659,86.90188309832192,41.44061933494412,43.187668435079445,40
465.82,89.01823636363636,88.64573031633324,84.59012256175427,86.45670441641843,42.18902589991481,44.05560775457897,40
483.398,89.71653636363637,89.3469510838124,84.80615358061209,86.8365163425371,42.510434741275304,44.54079750320031,40
499.512,89.57183636363638,89.22251906737999,85.04357919563044,86.99619152328177,42.226327544098226,44.17893987174955,40
517.09,89.37963636363637,89.04870131019038,84.96009994476316,86.80801375480048,42.2406875553899,44.08860136542722,40
536.133,90.45123636363637,90.14287113948393,85.27148359069298,87.83440655296887,42.30846458651506,44.87138754879095,40
555.176,89.29493636363637,89.08770345539617,84.54206320374999,87.03723934330459,42.050464112091575,44.54564025164618,40
574.219,89.48433636363636,89.2908791438697,84.50356724682466,87.10967374982613,42.18120539404357,44.78731189704504,40
594.727,90.55953636363637,90.2085188136924,85.01664293208687,87.55161912258728,42.65689969110511,45.191875881605526,40
615.234,89.00703636363636,88.97035699722232,84.40364173217935,86.99208933786385,41.97826765935848,44.56671526504297,40
637.207,90.96903636363636,90.5874668500535,85.12119114275836,87.86200757939795,42.72545927065555,45.46627570729514,40
659.18,89.80393636363635,89.67460587676413,84.58891330382875,87.24730876608892,42.42729711067521,45.085692572935386,40
682.617,89.89153636363636,89.64032672390597,84.65923918388863,87.25471837160322,42.385608352302754,44.98108754001734,40
707.52,89.62163636363637,89.35649886607345,83.90294891547023,86.61939498236013,42.73710388371332,45.45354995060322,40
732.422,89.40353636363636,89.11124633462629,83.96240570536095,86.63664579922056,42.47460053540573,45.14884062926534,40
757.324,89.08203636363638,88.82883642918179,83.7071296720393,86.48082317635308,42.34801325282871,45.12170675714249,40
785.156,89.48003636363637,88.96633643521997,83.2907000323417,86.0373080467449,42.929028388475075,45.67563640287827,40
811.523,87.66103636363638,87.40555871280355,82.46984507186636,85.03544179038423,42.37011692241933,44.935713640937195,40
840.82,87.85003636363636,87.45262671886505,82.29211174853741,84.81013879423823,42.64248792462682,45.16051497032764,40
870.117,87.26703636363638,86.80701044162117,81.95137808553484,84.72132178713679,42.085688654484386,44.85563235608633,40
900.879,87.27933636363636,87.12850642254205,82.01464975209998,84.56116239465211,42.56734402788993,45.11385667044206,40
933.105,88.38593636363636,87.89427073569107,82.23045685299904,84.85563655410357,43.0386341815875,45.663813882692025,40
965.332,88.22873636363636,87.69130937462475,81.9388867616523,85.00756733751382,42.68374203711093,45.75242261297245,40
1000.49,85.75093636363637,86.14322535390858,81.8413450667577,83.21909309072626,42.924132263182315,44.30188028715088,40
1035.64,88.59663636363636,88.04211895608779,82.29836988627667,84.25817382022626,43.78394513586153,45.743749069811116,40
1072.27,88.60863636363636,87.58330318544881,81.61120722928419,84.58199954878968,43.00130363665913,45.97209595616462,40
1108.89,86.93303636363638,87.0443820037558,82.03718232285334,84.59877179886776,42.44561020488804,45.00719968090246,40
1148.44,87.02993636363635,86.88271145697644,81.29528075992242,84.34898535571631,42.53372610126013,45.58743069705402,40
1189.45,88.46533636363637,87.50619741871292,81.36214111653909,84.1143690057894,43.391828412923516,46.14405630217382,40
1230.47,88.71623636363637,87.16151106147228,81.1924465425241,83.3612291397397,43.80028192173258,45.96906451894819,40
1274.41,87.45693636363636,86.6111122115123,81.3990900894668,83.65055630681444,42.96055590469787,45.21202212204551,40
1319.82,86.44903636363637,86.21912216415099,81.98317295626237,83.16140989093279,43.0577122732182,44.23594920788862,40
1366.7,86.60903636363636,86.55189916131657,81.59632906083007,83.58121749080932,42.97068167050725,44.9555701004865,40
1413.57,85.56073636363637,85.77160270396752,80.71366106543906,82.8183510235313,42.95325168043621,45.05794163852846,40
1463.38,87.58133636363638,87.04768019571692,80.61239736394286,83.37451076731821,43.67316942839871,46.43528283177406,40
1516.11,87.89243636363636,86.78965351119166,81.04602519488567,83.32023084966886,43.4694226615228,45.74362831630599,40
1568.85,87.42513636363637,87.08076996751717,80.45982541422936,83.20923257157256,43.871537395944614,46.62094455328781,40
1624.51,87.92713636363635,86.28407491211735,79.88269232300341,82.82276073679299,43.46131417532436,46.401382589113936,40
1681.64,86.64173636363637,85.74175998723236,79.58407796732678,81.96323840252477,43.77852158470759,46.15768201990558,40
1741.7,86.79093636363636,85.74635778435027,79.38976739505331,82.11943694070249,43.62692084364778,46.356590389296954,40
1803.22,86.95543636363638,86.46000617575146,79.75581357383481,82.61360058018622,43.846405595565244,46.704192601916645,40
1866.21,86.41183636363637,85.93998216554729,79.7704046389285,81.84753875961358,44.09244340593371,46.169577526618795,40
1932.13,85.96783636363637,84.94253788012311,78.74409619007636,81.28269009545744,43.65984778466567,46.19844169004675,40
1999.51,85.51243636363637,84.72453681018148,78.33650095712075,80.81884815675423,43.90568865342725,46.38803585306073,40
2069.82,86.16393636363637,85.48869326258229,78.96223095229007,81.62198682439876,43.86670643818353,46.52646231029222,40
2143.07,85.96313636363637,85.17328094835715,78.99676047251145,81.4690458110096,43.70423513734755,46.17652047584569,40
2219.24,85.07263636363636,84.38293857929438,78.14953347982154,80.96822785158965,43.41471072770473,46.23340509947283,40
2296.88,84.83153636363636,84.37831192604767,78.21370811986844,80.96954936974802,43.40876255629965,46.16460380617923,40
2378.91,85.63693636363638,84.8794520367851,78.83201272765865,81.76611313281948,43.11333890396561,46.047439309126446,40
2462.4,84.44863636363637,84.40481223116899,78.28922699549192,81.21182510762073,43.192987123548264,46.115585235677074,40
2548.83,84.39723636363638,84.02666553137132,78.18642369542853,81.30203702987704,42.72462850149428,45.84024183594279,40
2639.65,84.82533636363637,84.14690043412706,78.31976184195587,81.52784194619765,42.61905848792941,45.827138592171195,40
2731.93,84.28373636363636,83.78551335411605,77.63843341291428,81.10788764786494,42.677625706251106,46.14707994120177,40
2828.61,85.09903636363636,83.96580912727582,77.87107671013274,81.37999404437844,42.58581508289738,46.09473241714308,40
2928.22,85.32433636363636,84.42478939294044,77.90644797817424,81.59463797774836,42.83015141519208,46.5183414147662,40
3030.76,85.02783636363637,83.9396660390724,77.74871402037662,81.58596764022198,42.353698398850426,46.19095201869578,40
3137.7,86.00623636363636,84.84312568258962,77.98319241415686,81.85786555371114,42.98526012887848,46.859933268432755,40
3249.02,87.55643636363635,85.81030016665711,78.54181380449485,82.5362668745468,43.27403329211032,47.268486362162264,40
3363.28,87.44493636363634,85.69071890770307,78.58536387720791,82.58472661420876,43.10599229349431,47.10535503049516,40
3481.93,89.01113636363637,86.7428531178201,79.00781712901559,83.13170266577481,43.611150452045294,47.73503598880451,40
3604.98,88.49793636363637,86.37326818962012,78.78571043367702,82.93063004167442,43.4426381479457,47.587557755943095,40
3732.42,87.97093636363637,85.9436776378928,78.67993622544704,82.59978979412384,43.34388784376897,47.26374141244577,40
3864.26,88.28943636363637,86.42028154356416,78.87571237789221,82.97168561910904,43.44859592445512,47.544569165671945,40
4000.49,87.59133636363634,85.93225411115048,78.45976408143204,82.59586884967706,43.336385261473424,47.47249002971844,40
4141.11,88.54033636363638,86.39986446877289,78.69998474233302,82.84904263242447,43.55082183634842,47.699879726439875,40
4287.6,87.97783636363637,86.27771224790317,78.69719647443159,82.67101018265308,43.60670206525009,47.580515773471575,40
4438.48,87.87623636363637,86.10222830721627,78.78947440719533,82.55171034862146,43.55051795859481,47.31275390002094,40
4595.21,87.90583636363637,86.55873064548905,79.09629872827264,82.7665940468276,43.79213659866144,47.462431917216406,40
4756.35,87.79513636363636,86.22906370467996,79.09570673123541,82.719759662326,43.50930404235396,47.13335697344455,40
4924.8,88.44643636363637,86.89789971622095,79.25854246902777,83.04436706747842,43.85353264874253,47.639357247193175,40
5097.66,87.97163636363636,86.22880754204789,78.79028743014771,82.7831043791342,43.44570316291369,47.438520111900175,40
5277.83,88.56623636363636,86.9275348750281,79.17748116832296,83.16206104516087,43.76547382986723,47.750053706705145,40
5463.87,88.10133636363636,86.43333230687547,78.88495184540528,83.09285366154228,43.34047864533319,47.54838046147019,40
5657.23,87.36933636363636,86.170021886583,78.68367259116289,82.89767321955101,43.27234866703199,47.48634929542011,40
5856.45,87.22383636363637,86.24355311225546,78.85250194865729,82.94477618928423,43.29877692297123,47.39105116359816,40
6062.99,86.68913636363636,86.11704716911622,78.78950967655331,82.84673131933108,43.270315849785135,47.32753749256291,40
6276.86,86.70973636363637,86.39384504910612,79.0061034485153,83.0025182548811,43.39132679422502,47.387741600590815,40
6498.05,86.74483636363637,86.38241837952962,78.95479735526659,83.04561712117297,43.33680125835666,47.42762102426303,40
6726.56,86.95613636363636,86.60334343396141,78.9370377053299,83.07072819589618,43.53261523806523,47.666305728631514,40
6963.87,87.62293636363637,87.13820232590348,79.12590105899005,83.28483868076964,43.85336364513384,48.012301266913425,40
7209.96,88.12503636363635,87.24865656175173,79.01218421705745,83.25706842184869,43.991588139903044,48.23647234469428,40
7464.84,87.86103636363636,87.11816593303202,78.79222993706375,82.98896958334566,44.12919634968635,48.325935995968266,40
7727.05,88.14063636363636,87.1823389786394,78.61928542083749,82.85968899945809,44.32264997918131,48.56305355780191,40
7999.51,88.18723636363634,87.2181283703516,78.43818394609443,82.71653147435114,44.50159689600045,48.77994442425717,40
