Freq,On Axis,Listening Window,Sound Power,Early Reflections,Early Reflections DI,Sound Power DI,DI offset
20.5078,55.695499999999996,55.60233060662354,60.44175003324442,56.27962312209148,39.32270748453206,35.16058057337912,40
21.9727,60.07960000000001,60.15016211799512,64.66217672242618,61.47689415348104,38.67326796451408,35.48798539556894,40
23.4375,65.6744,65.74066248513486,69.30268314745909,66.76358992294082,38.97707256219404,36.43797933767577,40
24.9023,68.66880000000002,68.72657590679162,71.6012463363449,69.50718722606017,39.219388680731456,37.12532957044672,40
26.3672,70.9253,70.97451347591594,73.5719052775074,71.6434491620197,39.331064313896235,37.402608198408544,40
27.832,72.9949,73.02898044661133,75.2039687625894,73.51232707160594,39.51665337500539,37.82501168402193,40
29.2969,75.80719999999998,75.85598325443085,78.0913543118776,76.45297794381212,39.40300531061874,37.76462894255326,40
30.7617,79.0819,79.11583357226314,80.80566274927955,79.54194053500954,39.5738930372536,38.31017082298359,40
32.2266,80.122,80.15181279696685,81.65637897507042,80.49801875700135,39.653794039965504,38.49543382189643,40
33.6914,81.6219,81.64850123749237,82.96613690751474,81.9434958892906,39.705005348201766,38.68236432997763,40
35.1562,82.5614,82.5843407653002,83.73378005945453,82.82873456833617,39.755606196964024,38.850560705845666,40
36.6211,82.9176,82.93843589189056,83.98544636727233,83.15439186102148,39.78404403086908,38.95298952461823,40
38.0859,83.56580000000001,83.582878056492,84.56856722912708,83.75976329593847,39.82311476055354,39.01431082736492,40
39.5508,83.6383,83.65356750468071,84.54850311849893,83.80739723671451,39.8461702679662,39.10506438618178,40
41.0156,83.70029999999998,83.71358592524801,84.51598517604474,83.84008245653487,39.87350346871314,39.197600749203275,40
42.4805,83.5892,83.60055408660438,84.32843388179988,83.70541586129919,39.89513822530519,39.272120204804494,40
43.9453,83.7393,83.74768102403225,84.36334525559484,83.81315981318916,39.93452121084309,39.38433576843741,40
45.4102,83.7925,83.79991815470068,84.35986449823979,83.85333349970847,39.94658465499221,39.44005365646089,40
46.875,83.7968,83.80264787274052,84.3120226601896,83.84131783475199,39.96133003798853,39.490625212550924,40
48.3398,83.79879999999999,83.80420847840124,84.29101448417431,83.83950832170729,39.96470015669395,39.513193994226924,40
51.2695,83.9702,83.97388732717472,84.36680164733046,83.98613553749823,39.987751789676494,39.60708567984426,40
52.7344,84.0985,84.09732379530107,84.36296722516632,84.05714854623305,40.040175249068014,39.73435657013475,40
54.1992,84.0442,84.04458804027247,84.31650490225609,84.01293201305764,40.03165602721484,39.72808313801639,40
55.6641,84.1354,84.14149987215114,84.52794936779976,84.1587078732419,39.98279199890925,39.61355050435138,40
58.5938,84.4492,84.45292608844856,84.76134377891273,84.44792538646163,40.00500070198693,39.69158230953583,40
60.0586,84.485,84.48979308305347,84.80360676958769,84.49178289261211,39.99801019044136,39.68618631346578,40
62.9883,84.5837,84.58543503498066,84.81863521548239,84.55963088789348,40.025804147087186,39.766799819498274,40
64.4531,84.6033,84.6031890292789,84.79235083400847,84.55988663745661,40.04330239182228,39.81083819527042,40
67.3828,84.7042,84.7018430748859,84.83658255434064,84.63811243298873,40.063730641897166,39.86526052054526,40
68.8477,84.7806,84.77751568086542,84.8898009258811,84.7070071001839,40.07050858068152,39.887714754984316,40
71.7773,84.9347,84.92676846582783,84.920740415482,84.80752881018896,40.11923965563888,40.00602805034583,40
74.707,85.1213,85.11172979613802,85.04861457167026,84.97356377040941,40.13816602572861,40.063115224467765,40
77.6367,85.2297,85.2202664511397,85.1553370441719,85.08863228673445,40.13163416440524,40.06492940696779,40
79.1016,85.2814,85.27057720800646,85.18657783326715,85.13236033131926,40.138216876687196,40.08399937473931,40
82.0312,85.43249999999999,85.41863977498095,85.26730570381854,85.25378683751451,40.164852937466435,40.15133407116241,40
84.9609,85.5748,85.55968669889221,85.37067396377203,85.38331936433345,40.17636733455876,40.18901273512017,40
87.8906,85.6352,85.61835557071608,85.40917568770583,85.43187773199956,40.18647783871651,40.20917988301025,40
90.8203,85.68139999999998,85.6631517110083,85.46053883591681,85.47933583912747,40.183815871880824,40.20261287509149,40
95.2148,85.8778,85.8513209150986,85.50106396137019,85.5989944758161,40.2523264392825,40.350256953728405,40
98.1445,85.89809999999999,85.86885544442906,85.45968430819744,85.5909891172146,40.277866327214454,40.40917113623162,40
101.074,85.9392,85.9041270332746,85.38047056494202,85.57528476232018,40.328842270954425,40.52365646833259,40
105.469,86.40489999999998,86.36048207231437,85.50163688233899,85.89188189628399,40.46860017603038,40.85884518997538,40
108.398,86.87229999999998,86.83245267340077,85.98560517762742,86.37595202019223,40.456500653208536,40.846847495773346,40
112.793,86.9986,86.96104025722225,86.23681972195898,86.552692636544,40.408347620678256,40.72422053526327,40
117.188,87.0433,87.00314358999263,86.22093113532019,86.56874978163839,40.434393808354244,40.78221245467245,40
120.117,87.1919,87.15196259741037,86.31143194619479,86.69821594063801,40.45374665677237,40.84053065121559,40
124.512,87.4021,87.36988486742665,86.74203219844735,87.00619184509675,40.3636930223299,40.6278526689793,40
128.906,87.3089,87.27649040375096,86.7754632949744,86.95738501315834,40.31910539059261,40.501027108776555,40
133.301,87.1246,87.09218103236284,86.76244256090384,86.83156271029009,40.26061832207276,40.32973847145901,40
139.16,86.6282,86.59240626594688,86.44591758171644,86.38015298652361,40.212253279423265,40.146488684230434,40
143.555,86.1245,86.08209817572381,86.11935474287986,85.91366031644164,40.16843785928218,39.96274343284395,40
147.949,85.6486,85.59023506025902,85.65456089935022,85.38069657751153,40.20953848274749,39.9356741609088,40
153.809,86.0549,85.96538441238498,85.34107411384188,85.41743660321148,40.54794780917349,40.624310298543094,40
159.668,86.5891,86.49639958554631,85.37381761182907,85.77513802570581,40.7212615598405,41.122581973717246,40
165.527,86.77559999999998,86.68637003470003,85.37112692052817,85.92589325189813,40.7604767828019,41.315243114171864,40
171.387,86.817,86.73946032845885,85.4423278155769,86.01066434660748,40.72879598185136,41.297132512881944,40
177.246,86.6952,86.61365922322221,85.4612817916813,85.9382155532995,40.675443669922714,41.15237743154091,40
183.105,86.6179,86.51993075628755,85.2419203921043,85.75296213628755,40.76696862,41.278010364183245,40
188.965,86.9889,86.87493125525886,84.99167303372633,85.8566802226356,41.018251032623255,41.88325822153253,40
196.289,87.6169,87.53056380753854,85.45109569882244,86.5308009621282,40.999762845410345,42.0794681087161,40
203.613,87.3248,87.2435439996908,85.34685032419294,86.35024687788275,40.89329712180805,41.89669367549786,40
210.938,87.14899999999999,87.05846006292053,85.26442504806947,86.17810186310007,40.88035819982046,41.79403501485106,40
218.262,87.0345,86.96183649776047,84.91356065822424,86.00612568392552,40.955710813834955,42.04827583953623,40
225.586,86.82709999999999,86.76015547073679,84.95657872710703,85.91039228310292,40.84976318763387,41.80357674362976,40
232.91,86.9901,86.89246831774953,84.78996445079093,85.92066204880634,40.9718062689432,42.1025038669586,40
241.699,86.8443,86.78133116802427,84.72162702873995,85.92749219677474,40.85383897124953,42.05970413928432,40
250.488,86.4652,86.37937695370557,84.33253108896477,85.51134381412575,40.86803313957982,42.0468458647408,40
259.277,87.2774,87.1911178865398,84.63075097069388,86.12427992522679,41.06683796131301,42.56036691584592,40
268.066,86.7754,86.74180839370189,84.81218145722643,86.11408113534327,40.62772725835862,41.92962693647546,40
276.855,86.0157,85.99752933878543,84.6624434074683,85.63187988355675,40.36564945522868,41.335085931317124,40
287.109,86.5642,86.46585479952864,84.9739634599233,85.75818797348228,40.70766682604636,41.491891339605345,40
297.363,87.093,86.99165219884813,85.05626126608517,86.07396879909909,40.91768339974904,41.93539093276296,40
307.617,87.7011,87.62182172006067,85.23341650361523,86.51017625456812,41.11164546549254,42.388405216445435,40
319.336,87.0943,87.04166950384113,84.94145262506282,86.07331363831764,40.96835586552349,42.10021687877831,40
329.59,87.1804,87.11011244362156,84.83593783000815,86.10915435069349,41.00095809292807,42.27417461361341,40
341.309,87.1067,87.06624873861082,84.85686581721419,86.05634454053845,41.00990419807238,42.20938292139664,40
353.027,87.5498,87.4894717074709,84.80530608495879,86.2716093241728,41.2178623832981,42.68416562251211,40
366.211,86.8685,86.73271604818399,84.68554385679347,85.70802828931367,41.024687758870314,42.047172191390516,40
379.395,87.5485,87.34768233632275,84.5077349338142,85.87036234799325,41.4773199883295,42.83994740250854,40
392.578,87.15259999999999,86.96849541924857,84.19964243198973,85.576344630724,41.392150788524575,42.76885298725884,40
405.762,87.7532,87.54577034970983,84.39009605053839,85.69367239620763,41.852097953502195,43.15567429917144,40
420.41,88.3494,88.11775645086877,84.33071032934963,85.80582806535867,42.3119283855101,43.78704612151914,40
435.059,88.729,88.4221868597734,84.4984284636618,86.25797590398388,42.16421095578953,43.92375839611161,40
451.172,88.1525,87.99326606962967,84.80559763455022,86.55264673468555,41.44061933494412,43.187668435079445,40
465.82,88.669,88.29649395269688,84.2408861981179,86.10746805278207,42.18902589991481,44.05560775457897,40
483.398,89.3673,88.99771472017603,84.45691721697573,86.48727997890073,42.510434741275304,44.54079750320031,40
499.512,89.22260000000001,88.87328270374363,84.69434283199408,86.6469551596454,42.226327544098226,44.17893987174955,40
517.09,89.0304,88.69946494655402,84.6108635811268,86.45877739116412,42.2406875553899,44.08860136542722,40
536.133,90.102,89.79363477584756,84.92224722705662,87.48517018933251,42.30846458651506,44.87138754879095,40
555.176,88.9457,88.7384670917598,84.19282684011363,86.68800297966823,42.050464112091575,44.54564025164618,40
574.219,89.1351,88.94164278023334,84.1543308831883,86.76043738618976,42.18120539404357,44.78731189704504,40
594.727,90.2103,89.85928245005603,84.6674065684505,87.20238275895092,42.65689969110511,45.191875881605526,40
615.234,88.6578,88.62112063358596,84.05440536854299,86.64285297422748,41.97826765935848,44.56671526504297,40
637.207,90.6198,90.23823048641714,84.771954779122,87.51277121576159,42.72545927065555,45.46627570729514,40
659.18,89.45469999999999,89.32536951312777,84.23967694019238,86.89807240245256,42.42729711067521,45.085692572935386,40
682.617,89.5423,89.2910903602696,84.31000282025227,86.90548200796685,42.385608352302754,44.98108754001734,40
707.52,89.2724,89.00726250243709,83.55371255183387,86.27015861872377,42.73710388371332,45.45354995060322,40
732.422,89.0543,88.76200997098992,83.61316934172459,86.2874094355842,42.47460053540573,45.14884062926534,40
757.324,88.73280000000001,88.47960006554543,83.35789330840294,86.13158681271672,42.34801325282871,45.12170675714249,40
785.156,89.13080000000001,88.61710007158361,82.94146366870534,85.68807168310853,42.929028388475075,45.67563640287827,40
811.523,87.31180000000002,87.05632234916719,82.12060870823,84.68620542674786,42.37011692241933,44.935713640937195,40
840.82,87.5008,87.10339035522868,81.94287538490104,84.46090243060186,42.64248792462682,45.16051497032764,40
870.117,86.91780000000001,86.45777407798481,81.60214172189848,84.37208542350042,42.085688654484386,44.85563235608633,40
900.879,86.9301,86.77927005890568,81.66541338846362,84.21192603101575,42.56734402788993,45.11385667044206,40
933.105,88.0367,87.5450343720547,81.88122048936268,84.5064001904672,43.0386341815875,45.663813882692025,40
965.332,87.8795,87.34207301098839,81.58965039801593,84.65833097387745,42.68374203711093,45.75242261297245,40
1000.49,85.4017,85.79398899027221,81.49210870312133,82.8698567270899,42.924132263182315,44.30188028715088,40
1035.64,88.2474,87.69288259245143,81.94913352264031,83.9089374565899,43.78394513586153,45.743749069811116,40
1072.27,88.2594,87.23406682181245,81.26197086564783,84.23276318515332,43.00130363665913,45.97209595616462,40
1108.89,86.58380000000001,86.69514564011943,81.68794595921698,84.2495354352314,42.44561020488804,45.00719968090246,40
1148.44,86.68069999999999,86.53347509334007,80.94604439628606,83.99974899207994,42.53372610126013,45.58743069705402,40
1189.45,88.1161,87.15696105507655,81.01290475290273,83.76513264215303,43.391828412923516,46.14405630217382,40
1230.47,88.367,86.81227469783592,80.84321017888773,83.01199277610334,43.80028192173258,45.96906451894819,40
1274.41,87.1077,86.26187584787594,81.04985372583043,83.30131994317807,42.96055590469787,45.21202212204551,40
1319.82,86.0998,85.86988580051462,81.633936592626,82.81217352729642,43.0577122732182,44.23594920788862,40
1366.7,86.2598,86.2026627976802,81.24709269719371,83.23198112717296,42.97068167050725,44.9555701004865,40
1413.57,85.2115,85.42236634033115,80.36442470180269,82.46911465989494,42.95325168043621,45.05794163852846,40
1463.38,87.23210000000002,86.69844383208056,80.2631610003065,83.02527440368185,43.67316942839871,46.43528283177406,40
1516.11,87.5432,86.4404171475553,80.69678883124931,82.9709944860325,43.4694226615228,45.74362831630599,40
1568.85,87.0759,86.7315336038808,80.11058905059299,82.85999620793619,43.871537395944614,46.62094455328781,40
1624.51,87.57789999999999,85.93483854848098,79.53345595936705,82.47352437315662,43.46131417532436,46.401382589113936,40
1681.64,86.2925,85.39252362359599,79.23484160369041,81.6140020388884,43.77852158470759,46.15768201990558,40
1741.7,86.4417,85.3971214207139,79.04053103141695,81.77020057706612,43.62692084364778,46.356590389296954,40
1803.22,86.60620000000002,86.1107698121151,79.40657721019845,82.26436421654985,43.846405595565244,46.704192601916645,40
1866.21,86.0626,85.59074580191093,79.42116827529213,81.49830239597722,44.09244340593371,46.169577526618795,40
1932.13,85.6186,84.59330151648675,78.39485982644,80.93345373182107,43.65984778466567,46.19844169004675,40
1999.51,85.1632,84.37530044654511,77.98726459348438,80.46961179311786,43.90568865342725,46.38803585306073,40
2069.82,85.8147,85.13945689894592,78.6129945886537,81.2727504607624,43.86670643818353,46.52646231029222,40
2143.07,85.6139,84.82404458472078,78.64752410887509,81.11980944737323,43.70423513734755,46.17652047584569,40
2219.24,84.7234,84.03370221565801,77.80029711618518,80.61899148795328,43.41471072770473,46.23340509947283,40
2296.88,84.4823,84.02907556241131,77.86447175623208,80.62031300611166,43.40876255629965,46.16460380617923,40
2378.91,85.28770000000002,84.53021567314873,78.48277636402229,81.41687676918312,43.11333890396561,46.047439309126446,40
2462.4,84.0994,84.05557586753262,77.93999063185555,80.86258874398436,43.192987123548264,46.115585235677074,40
2548.83,84.04800000000002,83.67742916773496,77.83718733179217,80.95280066624068,42.72462850149428,45.84024183594279,40
2639.65,84.4761,83.7976640704907,77.9705254783195,81.17860558256129,42.61905848792941,45.827138592171195,40
2731.93,83.9345,83.43627699047968,77.28919704927792,80.75865128422858,42.677625706251106,46.14707994120177,40
2828.61,84.7498,83.61657276363945,77.52184034649638,81.03075768074207,42.58581508289738,46.09473241714308,40
2928.22,84.9751,84.07555302930407,77.55721161453788,81.245401614112,42.83015141519208,46.5183414147662,40
3030.76,84.6786,83.59042967543604,77.39947765674026,81.23673127658562,42.353698398850426,46.19095201869578,40
3137.7,85.657,84.49388931895325,77.6339560505205,81.50862919007477,42.98526012887848,46.859933268432755,40
3249.02,87.20719999999999,85.46106380302075,78.19257744085849,82.18703051091043,43.27403329211032,47.268486362162264,40
3363.28,87.09569999999998,85.34148254406671,78.23612751357155,82.2354902505724,43.10599229349431,47.10535503049516,40
3481.93,88.6619,86.39361675418374,78.65858076537923,82.78246630213845,43.611150452045294,47.73503598880451,40
3604.98,88.1487,86.02403182598376,78.43647407004066,82.58139367803805,43.4426381479457,47.587557755943095,40
3732.42,87.6217,85.59444127425644,78.33069986181067,82.25055343048747,43.34388784376897,47.26374141244577,40
3864.26,87.9402,86.0710451799278,78.52647601425585,82.62244925547267,43.44859592445512,47.544569165671945,40
4000.49,87.24209999999998,85.58301774751412,78.11052771779568,82.2466324860407,43.336385261473424,47.47249002971844,40
4141.11,88.19110000000002,86.05062810513652,78.35074837869665,82.4998062687881,43.55082183634842,47.699879726439875,40
4287.6,87.6286,85.9284758842668,78.34796011079523,82.32177381901671,43.60670206525009,47.580515773471575,40
4438.48,87.527,85.7529919435799,78.44023804355896,82.20247398498509,43.55051795859481,47.31275390002094,40
4595.21,87.5566,86.20949428185268,78.74706236463628,82.41735768319124,43.79213659866144,47.462431917216406,40
4756.35,87.4459,85.8798273410436,78.74647036759904,82.37052329868963,43.50930404235396,47.13335697344455,40
4924.8,88.0972,86.54866335258458,78.90930610539141,82.69513070384205,43.85353264874253,47.639357247193175,40
5097.66,87.6224,85.87957117841152,78.44105106651135,82.43386801549784,43.44570316291369,47.438520111900175,40
5277.83,88.217,86.57829851139174,78.82824480468659,82.8128246815245,43.76547382986723,47.750053706705145,40
5463.87,87.7521,86.0840959432391,78.53571548176892,82.74361729790591,43.34047864533319,47.54838046147019,40
5657.23,87.0201,85.82078552294664,78.33443622752652,82.54843685591464,43.27234866703199,47.48634929542011,40
5856.45,86.8746,85.89431674861909,78.50326558502093,82.59553982564786,43.29877692297123,47.39105116359816,40
6062.99,86.3399,85.76781080547985,78.44027331291694,82.49749495569472,43.270315849785135,47.32753749256291,40
6276.86,86.3605,86.04460868546975,78.65686708487894,82.65328189124473,43.39132679422502,47.387741600590815,40
6498.05,86.3956,86.03318201589326,78.60556099163023,82.6963807575366,43.33680125835666,47.42762102426303,40
6726.56,86.6069,86.25410707032505,78.58780134169353,82.72149183225982,43.53261523806523,47.666305728631514,40
6963.87,87.2737,86.78896596226711,78.77666469535369,82.93560231713327,43.85336364513384,48.012301266913425,40
7209.96,87.77579999999999,86.89942019811537,78.66294785342109,82.90783205821232,43.991588139903044,48.23647234469428,40
7464.84,87.5118,86.76892956939565,78.44299357342739,82.6397332197093,44.12919634968635,48.325935995968266,40
7727.05,87.7914,86.83310261500303,78.27004905720112,82.51045263582172,44.32264997918131,48.56305355780191,40
7999.51,87.83799999999998,86.86889200671523,78.08894758245806,82.36729511071478,44.50159689600045,48.77994442425717,40
8282.23,88.27139999999999,87.00786601926977,78.20916127341285,82.51334176776228,44.494524251507485,48.798704745856924,40
8573.73,88.56760000000001,87.19105212756035,78.32032939012332,82.57919834071423,44.611853786846126,48.870722737437035,40
8876.95,88.782,87.40859464960093,78.54828628157092,82.81431977358871,44.59427487601222,48.860308368030005,40
9188.96,88.7602,87.40486343572815,78.68976189514197,82.98887039790704,44.41599303782111,48.715101540586176,40
9514.16,88.4737,87.25718156923953,78.59226370711579,82.96610015688874,44.29108141235079,48.664917862123744,40
9849.61,88.2514,86.95953770180246,78.34864178138719,82.73415862776675,44.225379074035715,48.610895920415274,40
10196.8,88.0897,86.79347174020158,78.14831381060789,82.51723706864932,44.27623467155226,48.645157929593694,40
10555.7,87.78159999999998,86.60764932633558,77.9545898517688,82.30564081857612,44.30200850775945,48.653059474566774,40
10927.7,87.424,86.16479808336216,77.66554859753926,81.99101765169084,44.17378043167132,48.4992494858229,40
11313.0,87.0254,85.83310626701443,77.42700426996952,81.61345094473711,44.21965532227732,48.406101997044914,40
11712.9,86.53429999999999,85.66885004650057,77.20824545084068,81.30694315342932,44.36190689307125,48.46060459565989,40
12126.0,86.17569999999999,85.5109322766289,76.93218751207635,81.00953534775795,44.50139692887096,48.57874476455255,40
