Freq,On Axis,Listening Window,Sound Power,Early Reflections,Early Reflections DI,Sound Power DI,DI offset
22.4,6.268354430379716,9.947882796743116,6.544955300195866,7.247719041803137,42.70016375493998,43.40292749654725,40
23.0,8.368354430379739,11.77491216950476,8.264632434067678,9.206603495068592,42.56830867443617,43.51027973543708,40
23.6,10.568354430379728,13.567390067097037,10.070658548266394,11.216779314687003,42.350610752410034,43.49673151883064,40
24.0,13.068354430379728,16.26167205792258,13.218771389976936,14.356512418117703,41.90515963980488,43.042900667945645,40
25.0,15.368354430379739,18.9873640027745,16.564860059894514,17.66015955951535,41.32720444325915,42.422503942879985,40
25.8,17.468354430379733,21.746543971802296,20.184458113453857,21.236478306384257,40.51006566541804,41.56208585834844,40
26.5,19.568354430379728,23.920857889233147,24.039393127120192,25.072337799968594,38.848520089264554,39.881464762112955,40
27.2,22.068354430379728,23.310879924885356,25.646118638089845,26.939204624494423,36.37167530039093,37.66476128679551,40
28.0,24.36835443037974,25.638255932821934,27.832350638316214,29.40295737129709,36.23529856152484,37.80590529450572,40
29.0,26.568354430379728,28.980262124282987,30.386279003682276,32.202791539135816,36.77747058514717,38.59398312060071,40
30.0,28.768354430379745,36.347431903949726,35.29330470899508,36.51637270462699,39.83105919932274,41.054127194954646,40
30.7,31.468354430379733,36.03079308612884,34.91313486306065,35.97537661765024,40.0554164684786,41.11765822306819,40
31.5,33.768354430379745,36.336295560453934,35.37916270367522,36.265361421771175,40.07093413868276,40.95713285677871,40
32.5,35.96835443037973,37.86508513960395,37.23371378272212,37.89511121720504,39.96997392239891,40.63137135688183,40
33.5,38.56835443037973,39.79050508827491,39.30237444717865,39.95102931602291,39.839475772252,40.48813064109626,40
34.5,40.86835443037974,41.69911230972379,41.28864128616509,42.032175372796345,39.66693693692744,40.4104710235587,40
35.5,43.06835443037973,43.76859152950517,43.509647909963164,44.2758817479595,39.49270978154567,40.25894361954201,40
36.5,45.66835443037975,47.120536224090486,47.00756993123939,47.32215133470625,39.79838488938424,40.1129662928511,40
37.5,47.96835443037973,50.554607463155165,50.482643219145544,50.338426743187725,40.21618071996744,40.07196424400962,40
38.7,50.36835443037974,53.040854076273675,52.9120314551494,52.528012025438514,40.51284205083516,40.12882262112427,40
40.0,52.96835443037973,53.902341072844095,53.99270168580999,53.842083519568305,40.06025755327579,39.909639387034105,40
41.2,55.268354430379745,54.88835608927617,55.35882901885428,55.576525211609024,39.31183087766715,39.52952707042189,40
42.5,57.86835443037974,57.49603869216672,57.84648336350112,58.31233336094125,39.18370533122547,39.6495553286656,40
43.7,60.46835443037973,60.92274396077734,60.90206879570535,61.54190903721438,39.38083492356296,40.02067516507199,40
45.0,62.86835443037974,63.6241697623004,63.286611085810236,63.91011617870808,39.71405358359232,40.33755867649016,40
46.2,65.56835443037974,65.68118437424032,65.02025260083677,65.43020971720823,40.25097465703209,40.66093177340355,40
47.5,67.86835443037974,68.06970031575989,67.27621063618263,67.55609207294955,40.513608242810335,40.79348967957726,40
48.7,70.46835443037973,71.20606457489556,71.06782564881739,71.11838786068552,40.08767671421005,40.138238926078174,40
50.0,72.76835443037973,75.21259872927835,75.36096772231618,75.3400935405471,39.87250518873125,39.85163100696218,40
51.5,74.96835443037973,75.52324691714836,74.3253179336234,74.79952976789231,40.723717149256046,41.19792898352496,40
53.0,76.86835443037974,76.99506205741828,74.84777169648912,75.80000059395854,41.19506146345974,42.14729036092916,40
54.5,78.56835443037973,78.37207946006352,76.03646540302641,77.28447590124571,41.087603558817804,42.335614057037105,40
56.0,79.86835443037974,79.62608918283188,77.29576219644662,78.57735277297836,41.04873640985352,42.33032698638526,40
58.0,80.76835443037972,80.4469856381451,78.09535557052125,79.25512056468627,41.19186507345883,42.351630067623844,40
60.0,81.46835443037973,81.08557060329777,78.75076003959755,79.86297853763035,41.22259206566741,42.334810563700216,40
61.5,81.76835443037974,81.46215564783259,79.1935214099366,80.26609773900677,41.19605790882582,42.268634237895995,40
63.0,81.96835443037973,81.58862407666011,79.43081054641289,80.48168653159995,41.10693754506016,42.157813530247225,40
65.0,82.06835443037976,81.59990839620383,79.56291643288323,80.59065793013548,41.00925046606835,42.0369919633206,40
67.0,82.06835443037976,81.67125689149633,79.77347012715026,80.71714260969304,40.954114281803285,41.897786764346066,40
69.0,82.06835443037976,81.7136248217271,79.95958317693712,80.80973385753728,40.90389096418981,41.75404164478998,40
71.0,81.96835443037973,81.65683639228727,80.16437980978124,80.87033504617271,40.78650134611456,41.49245658250604,40
73.0,81.96835443037973,81.7411050489044,80.46356062584974,81.04550759595702,40.69559745294738,41.277544423054664,40
75.0,81.96835443037973,81.76169829631677,80.76777352861764,81.21917207582459,40.54252622049218,40.99392476769913,40
77.5,81.96835443037973,81.76041619507542,81.00652018263993,81.32936420604359,40.43105198903183,40.75389601243549,40
80.0,81.86835443037974,81.69355852035734,81.18979636260882,81.41238403019761,40.28117449015973,40.503762157748525,40
82.5,81.76835443037974,81.6588718810294,81.28929789930555,81.45042076283181,40.20845111819759,40.369573981723846,40
85.0,81.56835443037974,81.52571527114449,81.19140532073853,81.33354162047365,40.19217365067084,40.33430995040597,40
87.5,81.36835443037974,81.31436115263998,80.92378477965995,81.06120563532052,40.253155517319456,40.39057637298002,40
90.0,81.16835443037974,81.01384890957853,80.64719517770055,80.77912798942822,40.23472092015031,40.366653731877975,40
92.5,80.86835443037974,80.74761606861985,80.43557719645327,80.53313838962869,40.21447767899116,40.31203887216658,40
95.0,80.56835443037974,80.38285594877186,80.13795407956272,80.24866084824056,40.1341951005313,40.244901869209144,40
97.5,80.16835443037974,80.19506213431964,79.75734023666587,79.96438832634814,40.2306738079715,40.43772189765377,40
100.0,79.86835443037974,79.94286406308964,79.37928258816103,79.66216144510831,40.28070261798133,40.56358147492861,40
103.0,79.76835443037973,79.85479104083994,78.99089853094739,79.40549641444177,40.44929462639817,40.86389250989255,40
106.0,79.76835443037973,79.85751591102358,78.89229206114156,79.40558419112641,40.451931719897175,40.96522384988202,40
109.0,79.96835443037973,79.99784276040307,78.84080595878466,79.4450393597214,40.55280340068167,41.15703680161842,40
112.0,80.16835443037974,80.20927080654138,78.79772480048162,79.55720245041844,40.65206835612294,41.411546006059766,40
115.0,80.46835443037973,80.45682457742068,78.89983914766792,79.7538918737506,40.70293270367007,41.55698542975276,40
118.0,80.76835443037972,80.7533549519125,79.15045317110985,80.03110894047335,40.722246011439154,41.602901780802654,40
122.0,81.16835443037974,81.07489992648134,79.41018757091331,80.27446623143196,40.80043369504938,41.66471235556803,40
125.0,81.46835443037973,81.41711177131062,79.8132708955095,80.63941575059796,40.77769602071265,41.60384087580111,40
128.0,81.66835443037974,81.54935741553352,79.98152931016223,80.75159035135118,40.79776706418234,41.56782810537129,40
132.0,81.46835443037973,81.28137199534007,79.72215835386282,80.46818508880938,40.81318690653069,41.55921364147724,40
136.0,80.86835443037974,80.71709984787833,79.01332614776499,79.81245567754537,40.90464417033296,41.703773700113345,40
140.0,80.26835443037973,80.0770016951176,78.22909351842314,79.13981914641356,40.937182548704044,41.84790817669446,40
145.0,79.76835443037973,79.53238412823428,77.49642622019253,78.48938673600436,41.04299739222992,42.03595790804175,40
150.0,79.46835443037973,79.25438091183916,77.05751037375128,78.1452085432902,41.10917236854897,42.19687053808788,40
155.0,79.26835443037974,79.0399613435591,76.62625265187837,77.84479180064717,41.19516954291193,42.413708691680725,40
160.0,79.16835443037974,78.9125340587027,76.39254074544819,77.66349401237044,41.24904004633227,42.51999331325452,40
165.0,79.26835443037974,78.94669084373602,76.34252867752777,77.62921039983966,41.31748044389636,42.604162166208255,40
170.0,79.36835443037974,79.0888685654832,76.51238817952115,77.7793972862389,41.30947127924429,42.57648038596204,40
175.0,79.46835443037973,79.2403373473945,76.83435921657387,78.01792271858292,41.22241462881158,42.40597813082063,40
180.0,79.76835443037973,79.58660075018724,77.27814757346874,78.38356851470196,41.20303223548528,42.3084531767185,40
185.0,80.06835443037974,79.86603162108354,77.5184800212147,78.60805923528874,41.2579723857948,42.34755159986884,40
190.0,80.36835443037974,80.09952619144856,77.64274520529162,78.7944332618984,41.305092929550156,42.45678098615694,40
195.0,80.66835443037975,80.29011301571148,77.68605456460679,78.9670487534217,41.32306426228979,42.60405845110469,40
200.0,80.86835443037974,80.5156515583797,77.6517917198535,79.10386824931284,41.41178330906686,42.863859838526196,40
206.0,81.16835443037974,80.76442931756769,77.56073090655822,79.22646907127442,41.53796024629327,43.20369841100947,40
212.0,81.36835443037974,81.08460549831018,77.66511054191898,79.4899427283976,41.59466276991259,43.419494956391205,40
218.0,81.76835443037974,81.44052849398004,77.70392625825501,79.70816850000473,41.73235999397531,43.73660223572503,40
224.0,82.16835443037972,81.7936067549893,77.70797543291447,79.91034239580341,41.88326435918589,44.08563132207483,40
230.0,82.56835443037974,82.17035982354713,77.94969904549727,80.23855233843148,41.931807485115655,44.22066077804986,40
236.0,82.96835443037973,82.4965655800637,78.08398423822742,80.47095133766057,42.02561424240314,44.41258134183629,40
240.0,83.26835443037972,82.79896994519709,78.26660614652442,80.73831499812988,42.060654947067206,44.53236379867266,40
250.0,83.46835443037973,83.06399757768372,78.62401797521021,81.11065052501398,41.95334705266974,44.439979602473514,40
258.0,83.56835443037973,83.2055101286783,78.9435857557142,81.3699681783588,41.835541950319495,44.2619243729641,40
265.0,83.46835443037973,83.2037763108056,79.1200116996889,81.46192519556543,41.741851115240166,44.08376461111669,40
272.0,83.36835443037974,83.0975932306089,79.0828339134595,81.3571645296437,41.7404287009652,44.0147593171494,40
280.0,83.06835443037974,82.78528849053768,78.910043503238,81.0802522452689,41.705036245268786,43.87524498729968,40
290.0,82.66835443037974,82.37314807330489,78.49863657492251,80.64018971420023,41.73295835910466,43.874511498382375,40
300.0,82.06835443037976,81.6974053388656,77.80756113059445,79.9626199825898,41.73478535627579,43.88984420827114,40
307.0,81.26835443037973,80.87807056065229,76.98789713175942,79.11031948104201,41.76775107961028,43.890173428892865,40
315.0,80.36835443037974,79.89795604772512,76.04978212259793,78.11171399186797,41.786242055857144,43.848173925127185,40
325.0,79.36835443037974,78.97809462354476,75.20336235333889,77.17826594070446,41.7998286828403,43.774732270205874,40
335.0,78.56835443037973,78.27424845535747,74.58958606171979,76.47656743512853,41.797681020228936,43.68466239363768,40
345.0,78.46835443037973,78.2524931962824,74.44872687018433,76.35725217518254,41.895241021099864,43.80376632609807,40
355.0,78.96835443037973,78.78909805157276,74.74633282729155,76.76815622083946,42.02094183073331,44.04276522428121,40
365.0,79.56835443037976,79.43042048870144,75.10713817063119,77.31685330214344,42.113567186558,44.323282318070255,40
375.0,80.16835443037974,80.10102077187749,75.56875264192033,77.91143536662132,42.18958540525617,44.53226812995716,40
387.0,80.76835443037972,80.63558830123249,75.89595957965334,78.34807334895855,42.28751495227394,44.73962872157915,40
400.0,81.26835443037973,81.00329065002806,75.96016721621314,78.56970139751485,42.433589252513215,45.04312343381493,40
412.0,81.36835443037974,81.0803815157657,75.76578802746906,78.53361962185096,42.546761893914734,45.31459348829664,40
425.0,81.06835443037973,80.78182763579068,75.2705444123771,78.22584885465315,42.555978781137526,45.51128322341357,40
437.0,80.36835443037974,80.19816988556353,74.82834188031322,77.80896756499415,42.38920232056938,45.36982800525031,40
450.0,79.66835443037972,79.5654612398815,74.47271675675441,77.34720258785569,42.21825865202581,45.09274448312709,40
462.0,79.36835443037974,79.27793611922009,74.53857299585215,77.21994061079415,42.05799550842593,44.73936312336794,40
475.0,78.96835443037973,79.12808207142679,74.77250797778696,77.20404483100246,41.924037240424326,44.35557409363983,40
487.0,79.16835443037974,79.52864423877519,75.30313152982366,77.57250839195817,41.95613584681702,44.22551270895153,40
500.0,80.86835443037974,81.29541345908058,76.53580633395484,78.86776982999879,42.427643629081786,44.75960712512574,40
515.0,82.96835443037973,83.09331538572036,77.57442170855757,80.16387249737028,42.92944288835008,45.518893677162794,40
530.0,83.86835443037974,83.94290667793528,77.75956326513305,80.70157847189726,43.24132820603802,46.18334341280223,40
545.0,83.66835443037974,83.84703536962493,77.34087115493078,80.55879295960516,43.28824241001978,46.50616421469415,40
560.0,82.86835443037974,83.25924616314695,76.77142489640906,80.01892571178489,43.24032045136207,46.487821266737896,40
580.0,82.26835443037973,82.57276659879071,76.02168980597509,79.32645646185152,43.24631013693919,46.55107679281562,40
600.0,82.06835443037976,82.02936498652525,75.30262842419067,78.79768471491776,43.23168027160749,46.72673656233458,40
615.0,81.96835443037973,81.59113390427241,74.74221532466497,78.3870190607652,43.20411484350721,46.84891857960744,40
630.0,81.76835443037974,81.12047681182834,74.19313955805056,77.96329550334005,43.15718130848829,46.92733725377778,40
650.0,81.56835443037974,80.82620136063385,73.81847997665054,77.65173584753964,43.174465513094205,47.00772138398331,40
670.0,81.56835443037974,80.7554323791595,73.75154590886787,77.54436243888462,43.21106994027488,47.00388647029163,40
690.0,81.66835443037974,80.68607949448452,73.5747607181098,77.3295814936078,43.35649800087671,47.111318776374716,40
710.0,81.96835443037973,80.67969182361243,73.24549904192502,77.04724416256812,43.63244766104431,47.434192781687415,40
730.0,82.26835443037973,80.89129973335879,73.26257383020885,77.19664733845052,43.694652394908275,47.62872590314994,40
750.0,82.56835443037974,81.03723820140702,73.40171303802045,77.4106195222561,43.62661867915092,47.635525163386575,40
775.0,82.46835443037973,80.79224488373978,73.06332590407614,77.11449781519133,43.677747068548456,47.728918979663646,40
800.0,82.76835443037973,80.99133731023598,73.03103660457138,77.16494384759675,43.82639346263923,47.960300705664594,40
825.0,83.36835443037974,81.45165183273615,73.31276647770495,77.56187696170369,43.88977487103246,48.13888535503119,40
850.0,83.66835443037974,81.76215068570401,73.54805497759334,77.81224722255001,43.949903463154,48.214095708110676,40
875.0,83.86835443037974,81.93090609515805,73.79949507174973,77.9996313835669,43.93127471159114,48.13141102340832,40
900.0,83.36835443037974,81.35290685744,73.39480157660556,77.45693943662079,43.89596742081922,47.958105280834445,40
925.0,82.56835443037974,80.67364845694148,73.31874501695195,77.22030650097166,43.45334195596982,47.35490343998953,40
950.0,82.16835443037972,80.32212614041383,73.86077588049882,77.55456477026665,42.76756137014718,46.46135025991501,40
975.0,82.16835443037972,80.45604099748915,73.50798143133686,77.25703226254454,43.19900873494461,46.948059566152295,40
1000.0,81.56835443037974,80.03409948658903,73.09559314157086,76.91304804335992,43.121051443229106,46.93850634501817,40
1030.0,81.76835443037974,79.8349490383522,72.22086234805046,76.19835319541367,43.63659584293853,47.61408669030175,40
1060.0,81.36835443037974,79.39075618509735,71.10385665348193,74.98436754421084,44.406388640886505,48.28689953161542,40
1090.0,80.66835443037975,78.96021997946033,70.98108813693078,74.56309443297744,44.3971255464829,47.979131842529554,40
1120.0,80.16835443037974,78.68404612775711,71.33760328928476,74.45149155037248,44.23255457738463,47.346442838472356,40
1150.0,80.06835443037974,78.50590934637079,71.3916850781477,74.43786341526949,44.068045931101295,47.11422426822308,40
1180.0,79.86835443037974,78.54684200811774,71.15396879628447,74.26517395185117,44.28166805626657,47.39287321183326,40
1220.0,79.66835443037972,78.51888544587598,70.65458190258185,73.90518819203542,44.613697253840556,47.86430354329413,40
1250.0,79.66835443037972,78.5013726975939,70.50963878842181,73.82582746003983,44.67554523755406,47.99173390917208,40
1280.0,79.96835443037973,78.67560066373663,70.67090322287957,74.07344661025863,44.602154053478,48.00469744085706,40
1320.0,79.86835443037974,78.6279910519802,70.70305095983808,74.15183470258863,44.47615634939157,47.92494009214212,40
1360.0,79.36835443037974,78.1070531112602,70.12251325493838,73.61385158744575,44.49320152381445,47.98453985632182,40
1400.0,79.26835443037974,78.06615671923417,69.97596904805603,73.50747191515121,44.55868480408296,48.09018767117814,40
1450.0,79.86835443037974,78.55253775110351,69.69022833935816,73.4561009545097,45.09643679659382,48.86230941174536,40
1500.0,80.46835443037973,78.96081208805515,69.79646748814001,73.72214302970782,45.23866905834733,49.16434459991514,40
1550.0,80.46835443037973,79.01169605822788,69.78651559849187,73.74314338796198,45.268552670265905,49.22518045973601,40
1600.0,80.66835443037975,79.1432714590046,69.64519361732708,73.74192770086084,45.40134375814375,49.498077841677514,40
1650.0,80.66835443037975,79.17043789580501,69.89825240413792,73.93797116496528,45.23246673083973,49.27218549166709,40
1700.0,79.86835443037974,78.48825972196143,69.87561843463644,73.73579292373209,44.752466798229335,48.61264128732499,40
1750.0,79.56835443037976,78.15081214626746,69.66742246983009,73.49961337527849,44.65119877098897,48.48338967643737,40
1800.0,80.46835443037973,79.0533401540937,70.2848208180523,74.1653377056086,44.88800244848511,48.76851933604141,40
1850.0,80.06835443037974,78.73333634767067,70.00974539139106,73.8087800472447,44.92455630042598,48.72359095627961,40
1900.0,78.26835443037972,77.19102860381246,69.44437946298576,72.914198040944,44.276830562868454,47.74664914082669,40
1950.0,78.96835443037973,77.88812762910115,69.09953674809569,72.81251720382467,45.07561042527648,48.78859088100546,40
2000.0,80.76835443037972,78.97041403365232,69.27596291523498,73.4442229033412,45.52619113031112,49.694451118417334,40
2060.0,81.36835443037974,79.30930243391933,68.86642453575934,73.54047414648765,45.768828287431674,50.44287789815999,40
2120.0,81.76835443037974,79.63449596809461,69.36481943689645,74.06632549106682,45.56817047702779,50.26967653119816,40
2180.0,81.36835443037974,79.35300423685439,69.34942961044446,73.9184467958516,45.434557441002795,50.00357462640993,40
2240.0,80.86835443037974,78.9730470569986,68.9801783174804,73.51595826604687,45.45708879095173,49.9928687395182,40
2300.0,80.76835443037972,79.00795292012438,69.37485407900132,73.81710269768455,45.190850222439835,49.63309884112306,40
2360.0,80.96835443037973,79.48896461541408,69.89638494172266,74.27568370573954,45.21328090967454,49.59257967369142,40
2400.0,81.76835443037974,80.39144706800775,70.91012639413611,75.27517059186853,45.11627647613922,49.481320673871636,40
2500.0,81.56835443037974,80.6257531061429,71.23800992646443,75.52985466804961,45.095898438093286,49.387743179678466,40
2580.0,81.86835443037974,80.87642152086686,71.2399866544353,75.58611929733635,45.2903022235305,49.63643486643156,40
2650.0,82.66835443037974,81.46517026159299,71.53521049022275,76.07970072832605,45.38546953326694,49.929959771370235,40
2720.0,83.26835443037972,81.91088382375054,71.77535050088936,76.50510905151665,45.40577477223388,50.13553332286118,40
2800.0,83.76835443037973,82.2475622309144,72.13463087186436,76.98818674394892,45.25937548696548,50.11293135905004,40
