Freq "Estimated In-Room Response"
22.4 58.71330133215352
23.0 58.95379538504176
23.6 59.29891495071132
24.0 59.570219633989296
25.0 59.87042201856488
25.8 60.194394656126775
26.5 60.48701061506392
27.2 60.923084113911756
28.0 61.56497158374691
29.0 62.50733054394223
30.0 63.34447551201302
30.7 64.17938340287421
31.5 65.01405253286576
32.5 66.19250703196238
33.5 67.63453700430246
34.5 68.73320551703272
35.5 69.88928430369097
36.5 71.24652213700428
37.5 72.48171942170228
38.7 73.64786222472698
40.0 74.73458860335303
41.2 75.76331320263637
42.5 76.70162356222714
43.7 77.78572360999202
45.0 78.80105131217391
46.2 79.62344333555245
47.5 80.6334473728681
48.7 81.74849733817878
50.0 82.59976392739873
51.5 83.60418031529942
53.0 84.57196107907576
54.5 85.33577535886707
56.0 85.87906899815343
58.0 86.55090186688403
60.0 87.22888791772996
61.5 87.748030229165
63.0 88.09850537222266
65.0 88.46331708928749
67.0 88.83457088372796
69.0 89.11951106163349
71.0 89.3918928250308
73.0 89.5907671711864
75.0 89.82007826698995
77.5 90.12498433674114
80.0 90.47121014770708
82.5 90.74040760874828
85.0 90.82388723968818
87.5 90.7870427556341
90.0 90.6417367286357
92.5 90.46596533712507
95.0 90.27439686312513
97.5 90.05127002046382
100.0 89.71394434197288
103.0 89.34931494647734
106.0 88.98942529180599
109.0 88.6294526027748
112.0 88.29200682577888
115.0 87.95414890344365
118.0 87.61948795223267
122.0 87.23360380816591
125.0 86.78747842940557
128.0 86.31280031689072
132.0 85.86922751812777
136.0 85.52477391813302
140.0 85.33113669596736
145.0 85.29036887345062
150.0 85.28774060508732
155.0 85.37595255824593
160.0 85.47762279226049
165.0 85.58688327543388
170.0 85.70582931651231
175.0 85.81389248951362
180.0 85.83807905989228
185.0 85.7455319583697
190.0 85.61872028105273
195.0 85.45849609343743
200.0 85.24175936111561
206.0 84.95859691009571
212.0 84.47959589100539
218.0 83.8084111439734
224.0 83.1335345740367
230.0 82.6689575140202
236.0 82.66075465478724
240.0 83.17092309837105
250.0 83.96214377390591
258.0 84.7765223974975
265.0 85.3633361323989
272.0 85.72698289481306
280.0 85.99929662157837
290.0 86.26507431496955
300.0 86.56983276825034
307.0 86.833202532415
315.0 87.06910359470916
325.0 87.22830027959927
335.0 87.26853424028397
345.0 87.1549000720256
355.0 86.881170812588
365.0 86.48606778646882
375.0 86.03412337284237
387.0 85.59309100124092
400.0 85.16755137489002
412.0 84.69123659059548
425.0 84.23447929500199
437.0 83.77508677278635
450.0 83.44570607391239
462.0 83.34313079466175
475.0 83.40978691560849
487.0 83.5587842456373
500.0 83.65073850960995
515.0 83.53301841630473
530.0 83.33198766714328
545.0 83.23022922258002
560.0 83.3181479494358
580.0 83.66000896768031
600.0 84.10078338485286
615.0 84.46210050499782
630.0 84.68495578981133
650.0 84.74093288411423
670.0 84.76559023864871
690.0 84.80734324520517
710.0 84.88239773695423
730.0 84.91456327877523
750.0 84.9327245720004
775.0 84.74479506164697
800.0 84.46810832636743
825.0 84.08383808669501
850.0 83.67046718128216
875.0 83.36271818801643
900.0 83.10580136712578
925.0 83.04857506983265
950.0 83.26173744339616
975.0 83.58958532854099
1000.0 84.01342481163522
1030.0 84.35974144561334
1060.0 84.49093688924313
1090.0 84.43906752045456
1120.0 84.27250808981691
1150.0 84.07993483431233
1180.0 83.98714849209938
1220.0 84.00673211348828
1250.0 84.21855676654116
1280.0 84.35150932841574
1320.0 84.29552186329016
1360.0 84.05376305005844
1400.0 83.62029061580334
1450.0 83.14493281796388
1500.0 82.69303980633651
1550.0 82.25023911910682
1600.0 81.80099336018688
1650.0 81.32511351845314
1700.0 80.92614618052082
1750.0 80.54731514408799
1800.0 80.23254179950013
1850.0 80.07938783204168
1900.0 80.02968549623616
1950.0 80.04881647909113
2000.0 80.2265741745436
2060.0 80.45196767664504
2120.0 80.63896167484808
2180.0 80.78509261359812
2240.0 80.71269668240734
2300.0 80.51104571257866
2360.0 80.30421460008321
2400.0 80.22757144845184
2500.0 80.39231591616885
2580.0 80.73024330026558
2650.0 81.03090314818792
2720.0 81.25424151953851
2800.0 81.37724429798097
2900.0 81.44572069970525
3000.0 81.44493386565296
3070.0 81.41383024176751
3150.0 81.38069642923396
3250.0 81.42747849586286
3350.0 81.59004452115322
3450.0 81.86507896538856
3550.0 82.09627502670423
3650.0 82.21756882279733
3750.0 82.17698592795915
3870.0 82.05223573704794
4000.0 81.89771121520155
4120.0 81.7148355780481
4250.0 81.6302323994885
4370.0 81.67518268403518
4500.0 81.81833969634634
4620.0 82.03691976829654
4750.0 82.28652412625408
4870.0 82.42299632308004
5000.0 82.43630057326078
5150.0 82.4518856428046
5300.0 82.39056899455355
5450.0 82.38850694153692
5600.0 82.54963371589142
5800.0 82.82014729803277
6000.0 83.16736973680221
6150.0 83.47563990156658
6300.0 83.58576229281783
6500.0 83.41051303062699
6700.0 82.96105538097767
6900.0 82.36867250175236
7100.0 81.86978471041702
7300.0 81.59782173131069
7500.0 81.57850843961124
7750.0 81.71247477527317
8000.0 81.92994675698418
8250.0 82.16219052243882
8500.0 82.35962177713839
8750.0 82.5368538767295
9000.0 82.64139135704828
9250.0 82.61171807323191
9500.0 82.57963694376708
9750.0 82.46248051832501
10000.0 82.13911953975725
10300.0 81.73278565218465
10600.0 81.10893545608465
10900.0 80.37849974268508
11200.0 79.4051905732087
11500.0 77.96455143539225
11800.0 76.24865617436154
12200.0 74.64674498659426
12500.0 73.60587240786931
12800.0 73.44569936823953
13200.0 73.97173154776175
13600.0 74.47923186983036
14000.0 75.04512442722383
14500.0 75.59951421389731
15000.0 76.16637382052912
15500.0 76.92515398972772
16000.0 77.10763729198925
16500.0 76.46472697731267
17000.0 75.14085706513389
17500.0 73.06655789498197
18000.0 71.07166764849325
18500.0 69.71247977755667
19000.0 68.94091297964772
19500.0 69.00756797695439
