Freq,Floor Bounce,Ceiling Bounce,Front Wall Bounce,Side Wall Bounce,Rear Wall Bounce,Total Early Reflection
20.0,52.896,52.896,52.896,52.896,52.896,52.896
20.2909,53.66199999999999,53.66199999999999,53.66199999999999,53.66199999999999,53.66199999999999,53.66199999999999
20.586,54.31499999999998,54.31499999999998,54.31499999999998,54.31499999999998,54.31499999999998,54.31499999999998
20.8855,54.967,54.967,54.967,54.967,54.967,54.967
21.1893,55.68599999999999,55.68599999999999,55.68599999999999,55.68599999999999,55.68599999999999,55.68599999999999
21.4975,56.43400000000001,56.43400000000001,56.43400000000001,56.43400000000001,56.43400000000001,56.43400000000001
21.8102,57.157,57.157,57.157,57.157,57.157,57.157
22.1274,57.84599999999999,57.84599999999999,57.84599999999999,57.84599999999999,57.84599999999999,57.84599999999999
22.4492,58.53699999999999,58.53699999999999,58.53699999999999,58.53699999999999,58.53699999999999,58.53699999999999
22.7758,59.260000000000005,59.260000000000005,59.260000000000005,59.260000000000005,59.260000000000005,59.260000000000005
23.1071,59.986000000000004,59.986000000000004,59.986000000000004,59.986000000000004,59.986000000000004,59.986000000000004
23.4432,60.699,60.699,60.699,60.699,60.699,60.699
23.7841,61.42100000000001,61.42100000000001,61.42100000000001,61.42100000000001,61.42100000000001,61.42100000000001
24.1301,62.157,62.157,62.157,62.157,62.157,62.157
24.4811,62.90400000000001,62.90400000000001,62.90400000000001,62.90400000000001,62.90400000000001,62.90400000000001
24.8372,63.64,63.64,63.64,63.64,63.64,63.64
25.1984,64.372,64.372,64.372,64.372,64.372,64.372
25.5649,65.11899999999999,65.11899999999999,65.11899999999999,65.11899999999999,65.11899999999999,65.11899999999999
25.9368,65.89399999999999,65.89399999999999,65.89399999999999,65.89399999999999,65.89399999999999,65.89399999999999
26.3141,66.689,66.689,66.689,66.689,66.689,66.689
26.6968,67.48,67.48,67.48,67.48,67.48,67.48
27.0851,68.25,68.25,68.25,68.25,68.25,68.25
27.4791,69.011,69.011,69.011,69.011,69.011,69.011
27.8788,69.761,69.761,69.761,69.761,69.761,69.761
28.2843,70.47700000000002,70.47700000000002,70.47700000000002,70.47700000000002,70.47700000000002,70.47700000000002
28.6957,71.147,71.147,71.147,71.147,71.147,71.147
29.1131,71.762,71.762,71.762,71.762,71.762,71.762
29.5365,72.317,72.317,72.317,72.317,72.317,72.317
29.9661,72.791,72.791,72.791,72.791,72.791,72.791
30.402,73.19100000000002,73.19100000000002,73.19100000000002,73.19100000000002,73.19100000000002,73.19100000000002
30.8442,73.519,73.519,73.519,73.519,73.519,73.519
31.2929,73.789,73.789,73.789,73.789,73.789,73.789
31.748,73.991,73.991,73.991,73.991,73.991,73.991
32.2098,74.13700000000001,74.13700000000001,74.13700000000001,74.13700000000001,74.13700000000001,74.13700000000001
32.6783,74.23,74.23,74.23,74.23,74.23,74.23
33.1536,74.273,74.273,74.273,74.273,74.273,74.273
33.6359,74.266,74.266,74.266,74.266,74.266,74.266
34.1251,74.218,74.218,74.218,74.218,74.218,74.218
34.6215,74.136,74.136,74.136,74.136,74.136,74.136
35.125,74.022,74.022,74.022,74.022,74.022,74.022
35.6359,73.897,73.897,73.897,73.897,73.897,73.897
36.1543,73.771,73.771,73.771,73.771,73.771,73.771
36.6802,73.65499999999999,73.65499999999999,73.65499999999999,73.65499999999999,73.65499999999999,73.65499999999999
37.2137,73.564,73.564,73.564,73.564,73.564,73.564
37.755,73.494,73.494,73.494,73.494,73.494,73.494
38.3041,73.434,73.434,73.434,73.434,73.434,73.434
38.8613,73.397,73.397,73.397,73.397,73.397,73.397
39.4265,73.379,73.379,73.379,73.379,73.379,73.379
40.0,73.371,73.371,73.371,73.371,73.371,73.371
40.5818,73.379,73.379,73.379,73.379,73.379,73.379
41.1721,73.403,73.4006666922503,73.401,73.40080001841983,73.39952634449195,73.40099875662729
41.771,73.42799999999998,73.42300007675284,73.42399999999999,73.4232000644711,73.42073691290709,73.42378805704709
42.3785,73.454,73.44533351242983,73.447,73.44460011973187,73.44084221753046,73.44635732047955
42.9949,73.49666669225029,73.48300069077551,73.48571430920927,73.48220020261986,73.47615811608688,73.48475321522069
43.6203,73.56133343566522,73.5420012280453,73.54571430920927,73.5412005249775,73.53210591640622,73.5444815779914
44.2548,73.64633343566523,73.6200019188207,73.62485718984898,73.61900092103399,73.60684322360055,73.62342653347208
44.8985,73.75933343566521,73.72566991574509,73.73214293702708,73.72400133549928,73.7083700479162,73.72993551159004
45.5515,73.88300023024084,73.84067221824066,73.84885732141446,73.83880236694183,73.818950210792,73.84610692716461
46.2141,73.99600023024084,73.94400767528025,73.95385732141446,73.94160371142675,73.9173727033136,73.95064441822932
46.8863,74.06800053721682,74.00534441047134,74.017286033817,74.00280489964682,73.97384804913843,74.01356605190529
47.5683,74.04400053721683,73.9703484013065,73.98400049337322,73.9668072481678,73.93242985965904,73.9796705073477
48.2602,73.9450009208926,73.85902095109556,73.87514343040677,73.85540946773835,73.81506407255976,73.8701355166937
48.9621,73.8900009208926,73.7913610645213,73.80957224619561,73.78661264456572,73.74043571833607,73.80387187320538
49.6743,73.91666792007172,73.80403553240815,73.82528679030813,73.79881595026347,73.74623070379458,73.81856533679942
50.3968,74.0013349703919,73.8747109717434,73.89871569068448,73.86902085976848,73.80944627491071,73.89109922273228
51.1299,74.11800207184916,73.97572271305691,74.00243030994663,73.96922594291496,73.90261088097272,73.99417022512792
51.8736,74.27466922443962,74.11640487857653,74.14614497616503,74.1094332719492,74.03509157155874,74.13705624759281
52.6281,74.4543364281593,74.28008893566992,74.31285968933508,74.27204028896242,74.18989071953587,74.30270510476772
53.3936,74.6380036830043,74.44644140553878,74.48243178991225,74.43764855760213,74.34721636820929,74.47139075353012
54.1702,74.8140046803312,74.60479283920647,74.64414658760298,74.5948591369441,74.49580690907628,74.63197029410317
54.9581,74.98433834605443,74.75614878827854,74.7995757323258,74.74586995661518,74.63787418740216,74.78624234402706
55.7575,75.16333949672769,74.91651052516059,74.9632906051321,74.90508255168264,74.78757307281839,74.9489005799281
56.5685,75.36500698158927,75.09820401314683,75.1484347823549,75.08569422583275,74.95869388496365,75.13324351472069
57.3914,75.57867451755448,75.29157436237885,75.34614977719121,75.27831074228061,75.14123956461047,75.32955108861246
58.2261,75.79134210461937,75.48360996370072,75.54172230075703,75.46932873368725,75.322153592599,75.52434829524104
59.073,75.9873435618024,75.6583197129609,75.7204373800768,75.64274789674617,75.48491384062535,75.70186837198425
59.9323,76.19801127659781,75.84769409134351,75.91415250630736,75.83116950719699,75.66236043474736,75.89421905564889
60.804,76.41134685944233,76.03840973902209,76.10929718125112,76.02099276528676,75.84080913323238,76.08818979828742
61.6884,76.61634869988141,76.22146765780339,76.29615569559077,76.20221902601284,76.01110172835236,76.27398199376007
62.5857,76.8226826465988,76.40451675421636,76.48415733910171,76.38444697902831,76.1814498487371,76.46052928525023
63.496,77.04468464025409,76.60291519780456,76.68673032324769,76.58127488932107,76.36632928650823,76.66207149787594
64.4196,77.28168671034935,76.81698384981833,76.90487550532765,76.79350762066439,76.56641910780961,76.8790140243327
65.3566,77.51835483372129,77.02871574008175,77.12159098805833,77.00454214120124,76.76456425741668,77.09457356137496
66.3073,77.72835713373779,77.21446631379959,77.31173640479005,77.18838242334066,76.93566257895061,77.2834847606156
67.2717,77.90335951014696,77.36554646352091,77.46759542606588,77.33761906484493,77.07165633175725,77.43770060996138
68.2502,78.05736203987213,77.49396414183964,77.6007411056301,77.46446352751722,77.18523259372472,77.56975122715771
69.2429,78.18836464595442,77.59905195294645,77.7108869447839,77.56811214293901,77.27544733782396,77.6786741238216
70.2501,78.3080331266233,77.69316238661622,77.809746266423,77.66076109622438,77.35386786908364,77.77636604297253
71.2719,78.47570165831874,77.83526906943753,77.95689236836103,77.8008124408945,77.4800903986369,77.92200548439614
72.3086,78.7080388747736,78.04171289908373,78.16832429932003,78.0052680532831,77.66999980951013,78.13198666946342
73.3603,78.96070755952506,78.268151325988,78.39947071074566,78.22992930939212,77.87990832889379,78.36207001134952
74.4274,79.20671070154539,78.48728197910438,78.62361728170751,78.4467875931608,78.0820917887941,78.58493134248133
75.5099,79.44004508205624,78.6940734801454,78.83547711923133,78.65165604829028,78.27168617679666,78.79545921772709
76.6083,79.66804837709095,78.89554850793361,79.04162395287652,78.85052813382416,78.45503060145869,79.00033890702991
77.7226,79.90438625662398,79.10469523892125,79.25577094603172,79.05740231724677,78.64627654139763,79.21326591780866
78.8531,80.15372073912073,79.32650149874489,79.48263108375251,79.27687984140171,78.85015952073353,79.43897893750206
80.0,80.37772434011274,79.52367294168026,79.6847783395425,79.47196697139525,79.02872953082428,79.63985748567735
81.1636,80.56206262752546,79.68048933122894,79.84649854046785,79.62565710351329,79.16629709081141,79.80026998579449
82.3442,80.73173184769341,79.8223388655114,79.9940733295652,79.76514374751032,79.2891393429232,79.94619590508164
83.5419,80.90340111883043,79.96684707259446,80.1429362941219,79.90664017687149,79.41383117114232,80.09413682633067
84.757,81.09273583130502,80.1290268460002,80.30979851131859,80.06574050910953,79.55593907423767,80.25981264836983
85.9899,81.30807457743934,80.31689479389617,80.50294658293636,80.25064770891363,79.72353305756094,80.45141852470874
87.2406,81.53674402694126,80.51742001282801,80.70838047974694,80.4481628911179,79.90328769943872,80.65573527043837
88.5096,81.76574839308256,80.71930040125068,80.91467287020016,80.64627370606189,80.08373683064015,80.86085975467618
89.797,82.01108307879467,80.93650311383185,81.13738997289245,80.8606002407164,80.2798150839939,81.08205881567194
91.1031,82.26308759778335,81.16139592899171,81.36639992538956,81.0815221202211,80.48264049668607,81.31010740788089
92.4282,82.51775727654164,81.38762923417521,81.59783152259044,81.30446598671865,80.68704327383327,81.54027523822275
93.7726,82.77042700623323,81.61353497990604,81.82769789591353,81.52600069249229,80.88977705168588,81.76908248417917
95.1366,83.0317620251226,81.8474471848921,82.06684712021841,81.7559340203815,81.1008276141672,82.00650760780904
96.5204,83.30410168823458,82.09236584784205,82.31628217610205,81.99689098188263,81.32219692760187,82.2547472738767
97.9243,83.57110168823459,82.33262507242658,82.56057595453163,82.23245341642408,81.5383728888463,82.49789536726185
99.3486,83.8271067427803,82.56155665263749,82.79372567525925,82.45660878767633,81.74291597375188,82.72983851454283
100.794,84.07010674278028,82.77749468635702,83.01373772638357,82.66777984304308,81.93398776169074,82.94874692776368
102.26,84.28877672710206,82.96912785698787,83.20974350087425,82.85417172287357,82.10033086632727,83.14331502144731
103.747,84.49078201119146,83.14507929155032,83.38989377422176,83.02515235320418,82.25058303803114,83.32196236225606
105.256,84.69845212279535,83.32637137664157,83.57461873402438,83.20113768542468,82.40551062503008,83.50577896179014
106.787,84.91778744843951,83.51902596119812,83.77134310581651,83.38815209617967,82.57161439614437,83.70114411516612
108.34,85.12078744843951,83.6963064906192,83.95249394996755,83.55996030762627,82.72209349924935,83.88090046646938
109.916,85.26612787527408,83.81597495859292,84.07564495335163,83.67316700217798,82.81378626569783,84.00265749790945
111.515,85.37079303884595,83.89495912191263,84.15794068161253,83.7460042279659,82.86495253450013,84.08384928519028
113.137,85.50512849261015,84.00394972638779,84.270522310509,83.84863477350304,82.94524857575267,84.19491134714256
114.783,85.68812849261015,84.1622810559145,84.43139249992491,83.99987192767274,83.07432627428152,84.35476728054128
116.452,85.90913431297794,84.35861887436579,84.63126304427311,84.18931335211589,83.24094680391659,84.55286903530587
118.146,86.13113431297795,84.55632260887982,84.83184091733092,84.37998954518028,83.40860614692438,84.75209853386399
119.865,86.35046989488345,84.75133945497818,85.02971196679484,84.56745847055885,83.57292541229809,84.94852254161738
121.608,86.56046989488345,84.93769714074803,85.21786430846281,84.74573329489692,83.72773372410232,85.13573415549233
123.377,86.74980552813088,85.10372684776458,85.38673594640166,84.90402183014645,83.86195228786117,85.30283379261171
125.171,86.92447082102801,85.25609743706086,85.5410335766821,85.04772501160176,83.98149278964932,85.45556122494419
126.992,87.06647082102802,85.37547449829275,85.66247215824856,85.15864324591689,84.06790262852725,85.57550435822611
128.839,87.18980653149217,85.47718898176511,85.7654896448507,85.25094414570457,84.13529790018676,85.67705524841942
130.713,87.31780653149217,85.5839134283834,85.87407687595942,85.34850168809906,84.20777098730206,85.78375835208277
132.615,87.47180768921662,85.71597524934977,86.00751610914376,85.47123322712605,84.3051892639051,85.91587691378832
134.543,87.64713732283333,85.87137807561419,86.16353470797176,85.61659805874497,84.42462083259399,86.07036637518418
136.5,87.81080900130411,86.01508847616327,86.30868869501143,85.75037169587473,84.53194358733727,86.21337534815554
138.486,87.92180418450945,86.10650370060745,86.40070801376932,85.83096188008913,84.58650913689459,86.30365717395057
140.5,87.95880418450946,86.12522551488085,86.41986242152882,85.83855136690087,84.5669614021625,86.32065849533068
142.544,87.96546978544971,86.11295280021402,86.4084515159904,85.81575744508149,84.51668709751654,86.30716313443428
144.617,88.01380114107072,86.1440203222313,86.43932295803417,85.83478265499043,84.50874711616514,86.33596781161742
146.721,88.0768011410707,86.18975856384841,86.48491265039185,85.86859737091359,84.51438299004224,86.37940192918079
148.855,88.11979670706995,86.2165022700717,86.5115027274222,85.88327034322822,84.50047167015957,86.40351626921336
151.02,88.15879855879484,86.24025143887069,86.53466443631295,85.8941318601098,84.48292172885938,86.42409367566613
153.217,88.22845833386225,86.29463832341706,86.58868636944963,85.9360251090006,84.49538442580292,86.47542160397198
155.445,88.34679030332971,86.39902983204506,86.69156318483932,86.02630628637596,84.5564470674919,86.57572754466067
157.706,88.48112247766466,86.52009099487962,86.81114402020312,86.13424004468415,84.63360877346177,86.69268206317807
160.0,88.60745254306046,86.63349169883806,86.92302133956949,86.23377563905156,84.70290628341871,86.80177986842845
162.327,88.70244887410186,86.7168970206064,87.0050447110569,86.3023194043135,84.74079065789081,86.8802270209571
164.688,88.73911170051372,86.74260220346484,87.02863714535742,86.31368629570258,84.72058367902578,86.90074524822357
167.084,88.7541084138622,86.74801631844245,87.03194699579323,86.30407582405785,84.67917471040018,86.90039337737635
169.514,88.79510528007704,86.7797294670567,87.06154016847901,86.32010117732767,84.66336832440633,86.92611600145729
171.98,88.89776892250312,86.87444640244068,87.15341932314558,86.39951386047028,84.70946767612551,87.01428872309303
174.481,89.0274329220397,86.99679598935347,87.27344478481753,86.50556327218699,84.78268690271574,87.12984074343733
177.019,89.10609727864777,87.06948395478823,87.34333691849777,86.56198642289208,84.80528750401776,87.1951825783944
179.594,89.1157566935539,87.07421153208965,87.34464135089132,86.54989954904106,84.75879675057529,87.19195250297544
182.206,89.10708902474043,87.06186338430538,87.32852206896816,86.52021159286478,84.69414837316096,87.17103894122117
184.856,89.08408734338798,87.03622538926174,87.2991175416902,86.47732385750582,84.61585947263298,87.13655370888742
187.545,88.96841572573238,86.91888240926656,87.17814515731301,86.34226367908553,84.44490925351398,87.00996940456876
190.273,88.82274976474326,86.77250445640408,87.02817323001925,86.17825720713596,84.2447710047658,86.85412098230465
193.041,88.77207985372313,86.72316606671457,86.97490912466047,86.11020802375934,84.13945158665142,86.79423786558976
195.849,88.80807908947124,86.76079234382415,87.00837519137092,86.12983153778639,84.12159405755969,86.8214187360513
198.697,88.85841091076028,86.81474925601513,87.0582582073875,86.16526898511694,84.1187030552998,86.86414765481486
201.587,88.89641205718246,86.85796040275432,87.09700249971715,86.18958128137395,84.10409577726622,86.89544481676232
204.52,88.94474599320925,86.91192048096478,87.1470327911418,86.22483360163484,84.10006966589825,86.93755184321986
207.494,89.01174966190031,86.98713396164523,87.2176402361605,86.28074760102406,84.11567486108991,86.9997465598377
210.512,89.06775470634803,87.05134845478848,87.2785248505814,86.32667650402574,84.12115732575758,87.0515380495339
213.574,89.07775883362125,87.07218951238727,87.29512428518608,86.3280040340586,84.0815421957926,87.05860965931247
216.681,89.00843007066477,87.01535937451071,87.23417149609635,86.25216473130503,83.96338995046361,86.98757041999343
219.833,88.88844199480032,86.90920176871222,87.1242041969869,86.12658949763092,83.79574324153343,86.86682681930507
223.03,88.79678640491291,86.83299800510328,87.04423735430841,86.03141627203527,83.65689353285693,86.77555959638018
226.274,88.73679855879485,86.79041972552194,86.99727096801108,85.96964158716962,83.55107957191744,86.71713426107465
229.565,88.66514491758257,86.73755266105549,86.94159680551154,85.89831795998867,83.43508988769939,86.64852411521362
232.905,88.63116571226335,86.72397485462791,86.92519887448228,85.8664097238818,83.35833397659361,86.61877319899061
236.292,88.64752406772239,86.76235854439655,86.96053583953307,85.88670433291743,83.33240940729468,86.64042505068873
239.729,88.5975500619305,86.73669488250297,86.93313884063129,85.843249310929,83.24259342468926,86.59772661217622
243.216,88.50724261982148,86.67269488250298,86.86789970787719,85.76217667028693,83.11391611486499,86.51631656553943
246.754,88.47527381868484,86.66932001482054,86.86221134217844,85.74115745352655,83.04498195195946,86.49448058836839
250.343,88.47898050976994,86.70257044132556,86.89541308013038,85.7587760058468,83.01426246315766,86.51002951080342
253.984,88.45369108249727,86.70882108363635,86.90230329149037,85.75057289336655,82.95615050971584,86.4983520108854
257.678,88.40640553768783,86.696071941728,86.89007387561675,85.72254646087809,82.87821622269051,86.46659137679755
261.426,88.44479726374209,86.77090104179901,86.96711256775326,85.78403897236964,82.88867920555262,86.52268739773046
265.229,88.52719363441054,86.89044156495083,87.0901517155895,85.89126606092246,82.94456452808039,86.62390111876425
269.087,88.59193337909888,86.99598245078545,87.199484103645,85.98470979128065,82.98518969138878,86.71009012466352
273.001,88.49200403941649,86.9377286135628,87.1469648864601,85.91701324156685,82.86418752582121,86.63340675700323
276.972,88.24807946059867,86.73718647148874,86.95358392028407,85.70789137076949,82.60129119588602,86.41454299895199
281.0,87.97017525392788,86.50556175475667,86.7309182410268,85.46998675898038,82.30889019443941,86.16478501787317
285.088,87.7469535971081,86.32993892465697,86.56482266145768,85.2886317830218,82.07440610881265,85.97116185575749
289.234,87.67138665367825,86.30431798116297,86.55144348061985,85.26111525007532,81.99257825503022,85.92849201665295
293.441,87.65551415913782,86.34094340164037,86.60207306255539,85.29674693093978,81.97431014506816,85.9481544633767
297.709,87.6166367477965,86.35524553788932,86.63311643724255,85.31374754889413,81.93732225557646,85.94704725736483
302.04,87.5431089007111,86.33650528700201,86.63288731926912,85.29931576151519,81.86889737995715,85.91345404152959
306.433,87.44294555003535,86.29276880557744,86.6092045519444,85.26231930487381,81.7774436898748,85.8555521221754
310.89,87.30508997228831,86.2126651208257,86.55227034535527,85.1923576590265,81.65237249088761,85.76269276824148
315.412,87.15659977734693,86.122858647419,86.48958827728882,85.11451556783582,81.51872246320514,85.66148465979397
