Freq "Ceiling Bounce"
20.0 51.987100628930804
20.2909 52.753100628930795
20.586 53.40610062893079
20.8855 54.058100628930774
21.1893 54.777100628930796
21.4975 55.52510062893079
21.8102 56.24810062893077
22.1274 56.93710062893079
22.4492 57.628100628930795
22.7758 58.35110062893078
23.1071 59.07710062893078
23.4432 59.7901006289308
23.7841 60.51210062893078
24.1301 61.24810062893077
24.4811 61.995100628930786
24.8372 62.731100628930776
25.1984 63.4631006289308
25.5649 64.21010062893079
25.9368 64.9851006289308
26.3141 65.78010062893078
26.6968 66.5711006289308
27.0851 67.34110062893079
27.4791 68.10210062893078
27.8788 68.85210062893078
28.2843 69.5681006289308
28.6957 70.23810062893078
29.1131 70.85310062893079
29.5365 71.40810062893078
29.9661 71.88210062893079
30.402 72.28210062893079
30.8442 72.6101006289308
31.2929 72.88010062893079
31.748 73.08210062893079
32.2098 73.22810062893079
32.6783 73.3211006289308
33.1536 73.36410062893079
33.6359 73.35710062893081
34.1251 73.30910062893079
34.6215 73.22710062893078
35.125 73.11310062893081
35.6359 72.9881006289308
36.1543 72.86210062893078
36.6802 72.74610062893079
37.2137 72.65510062893078
37.755 72.58510062893079
38.3041 72.52510062893079
38.8613 72.48810062893081
39.4265 72.4701006289308
40.0 72.4621006289308
40.5818 72.4701006289308
41.1721 72.49176732118109
41.771 72.51410070568362
42.3785 72.53643414136062
42.9949 72.57410131970629
43.6203 72.6331018569761
44.2548 72.7111025477515
44.8985 72.81677054467589
45.5515 72.93177284717144
46.2141 73.03510830421104
46.8863 73.09644503940213
47.5683 73.06144903023728
48.2602 72.95012158002635
48.9621 72.8824616934521
49.6743 72.89513616133894
50.3968 72.96581160067417
51.1299 73.06682334198769
51.8736 73.20750550750732
52.6281 73.37118956460071
53.3936 73.53754203446958
54.1702 73.69589346813726
54.9581 73.84724941720933
55.7575 74.00761115409138
56.5685 74.18930464207762
57.3914 74.38267499130964
58.2261 74.57471059263152
59.073 74.74942034189169
59.9323 74.9387947202743
60.804 75.12951036795288
61.6884 75.31256828673418
62.5857 75.49561738314713
63.496 75.69401582673534
64.4196 75.90808447874912
65.3566 76.11981636901254
66.3073 76.30556694273038
67.2717 76.45664709245172
68.2502 76.58506477077044
69.2429 76.69015258187724
70.2501 76.784263015547
71.2719 76.92636969836832
72.3086 77.13281352801452
73.3603 77.35925195491879
74.4274 77.57838260803517
75.5099 77.78517410907621
76.6083 77.98664913686441
77.7226 78.19579586785203
78.8531 78.41760212767566
80.0 78.61477357061105
81.1636 78.77158996015976
82.3442 78.91343949444219
83.5419 79.05794770152525
84.757 79.22012747493099
85.9899 79.40799542282694
87.2406 79.60852064175879
88.5096 79.81040103018145
89.797 80.02760374276264
91.1031 80.2524965579225
92.4282 80.478729863106
93.7726 80.70463560883682
95.1366 80.9385478138229
96.5204 81.18346647677284
97.9243 81.42372570135736
99.3486 81.6526572815683
100.794 81.8685953152878
102.26 82.06022848591867
103.747 82.2361799204811
105.256 82.41747200557238
106.787 82.61012659012891
108.34 82.78740711955
109.916 82.9070755875237
111.515 82.98605975084342
113.137 83.09505035531858
114.783 83.25338168484531
116.452 83.44971950329658
118.146 83.64742323781063
119.865 83.84244008390898
121.608 84.02879776967883
123.377 84.19482747669538
125.171 84.34719806599166
126.992 84.46657512722354
128.839 84.56828961069589
130.713 84.67501405731419
132.615 84.80707587828056
134.543 84.96247870454496
136.5 85.10618910509406
138.486 85.19760432953824
140.5 85.21632614381166
142.544 85.20405342914482
144.617 85.23512095116209
146.721 85.28085919277919
148.855 85.30760289900249
151.02 85.33135206780149
153.217 85.38573895234786
155.445 85.49013046097585
157.706 85.6111916238104
160.0 85.72459232776883
162.327 85.80799764953717
164.688 85.83370283239564
167.084 85.83911694737323
169.514 85.87083009598749
171.98 85.96554703137146
174.481 86.08789661828426
177.019 86.16058458371901
179.594 86.16531216102044
182.206 86.15296401323617
184.856 86.12732601819252
187.545 86.00998303819735
190.273 85.86360508533487
193.041 85.81426669564536
195.849 85.85189297275492
198.697 85.90584988494594
201.587 85.9490610316851
204.52 86.00302110989556
207.494 86.07823459057603
210.512 86.14244908371927
213.574 86.16329014131806
216.681 86.10646000344151
219.833 86.00030239764301
223.03 85.92409863403408
226.274 85.88152035445273
229.565 85.82865328998628
232.905 85.81507548355869
236.292 85.85345917332735
239.729 85.82779551143376
243.216 85.76379551143377
246.754 85.76042064375135
250.343 85.79367107025637
253.984 85.79992171256715
257.678 85.7871725706588
261.426 85.8620016707298
265.229 85.98154219388162
269.087 86.08708307971624
273.001 86.02882924249359
276.972 85.82828710041953
281.0 85.59666238368746
285.088 85.42103955358776
289.234 85.39541861009374
293.441 85.43204403057115
297.709 85.4463461668201
302.04 85.4276059159328
306.433 85.38386943450823
310.89 85.3037657497565
315.412 85.2139592763498
320.0 85.12986511434842
324.655 85.0654058696445
329.377 85.0652783882993
334.168 85.10749317242251
339.028 85.14500834371442
343.959 85.15489776728494
348.962 85.12679271693038
354.038 85.07698964816758
359.188 85.02726277696327
364.412 84.97554066679048
369.713 84.92038948382435
375.09 84.85904355912237
380.546 84.79100058705058
386.081 84.71802818994928
391.697 84.63705933902006
397.394 84.55152291063528
403.175 84.45865331176809
409.039 84.35948555673633
414.989 84.25374753443698
421.025 84.14143904751735
427.149 84.02356098620417
433.362 83.89911533041304
439.665 83.76883754534377
446.06 83.63366697205981
452.548 83.49301150040802
459.131 83.3482860842481
465.809 83.20010730466052
472.584 83.04890168764639
479.458 82.89607449852795
486.432 82.74229269314836
493.507 82.58963852746211
500.686 82.44031285901453
507.968 82.29410658248962
515.357 82.15471188171928
522.853 82.02427408375937
530.458 81.90359375744848
538.174 81.79567654579533
546.002 81.7038501864747
553.943 81.62950521001133
562.001 81.57394753998267
570.175 81.53571371025521
578.469 81.52358947855261
586.883 81.53311224640956
595.419 81.56427176278225
604.08 81.61604358817925
612.866 81.68874504400121
621.78 81.78142210534257
630.824 81.89304157345373
640.0 82.0196037903338
649.309 82.15990731346461
658.753 82.31131270883097
668.335 82.47048923151071
678.056 82.63560217199223
687.919 82.80419825501943
697.925 82.9734898499221
708.077 83.14205152212253
718.376 83.30741527504327
728.825 83.46789888718824
739.426 83.62209740109385
750.181 83.76711444670441
761.093 83.901515360398
772.163 84.02345454348271
783.394 84.13197547424748
794.789 84.22573631210963
806.349 84.30164677261884
818.078 84.35937228562933
829.977 84.3969290509094
842.05 84.41158957580058
854.298 84.40143228281343
866.724 84.36442242598906
879.33 84.30096683636113
892.12 84.2018632982365
905.097 84.07418475233224
918.262 83.90947543197183
931.618 83.70846315729905
945.169 83.46945464437033
958.917 83.19114015779842
972.864 82.87374301920097
987.015 82.51960540828664
1001.37 82.1311228930068
1015.94 81.71973951083432
1030.71 81.29776444405589
1045.71 80.88671323119125
1060.92 80.51258263205806
1076.35 80.21480266972738
1092.0 80.02832151518489
1107.89 79.97757381132398
1124.0 80.0884281699121
1140.35 80.32641959001154
1156.94 80.70039482975059
1173.77 81.13403243843699
1190.84 81.62385055789586
1208.16 82.12444941230349
1225.73 82.61144839362355
1243.56 83.07846965317658
1261.65 83.50414185182397
1280.0 83.89143564200272
1298.62 84.21525039588883
1317.51 84.53343848806374
1336.67 84.79061789816461
1356.11 85.01323120055638
1375.84 85.20214969786035
1395.85 85.35843951824424
1416.15 85.47927255430496
1436.75 85.58036621265306
1457.65 85.64262902955313
1478.85 85.6731289014565
1500.36 85.66465009788601
1522.19 85.60278430248493
1544.33 85.48620044713697
1566.79 85.3077882559352
1589.58 85.0596721626962
1612.7 84.73608973113552
1636.16 84.33358956551898
1659.95 83.85124597554685
1684.1 83.29798618753834
1708.6 82.69148716864332
1733.45 82.0636613152834
1758.66 81.46271947125271
1784.24 80.94859079406959
1810.19 80.57437076686398
1836.52 80.36787192702847
1863.24 80.3148405686032
1890.34 80.36584313041554
1917.83 80.45954742704856
1945.73 80.5399638085721
1974.03 80.56406807836828
2002.74 80.50209043069081
2031.87 80.35736627192428
2061.43 80.1310649956353
2091.41 79.8422474822073
2121.83 79.52094439955982
2152.69 79.20403242945157
2184.01 78.92888506247719
2215.77 78.74142330052663
2248.0 78.65374315885457
2280.7 78.68806185507552
2313.87 78.83019936909413
2347.53 79.05638667583348
2381.68 79.33884778529664
2416.32 79.65420458540554
2451.46 79.99025642459968
2487.12 80.34066202252097
2523.3 80.70817461034925
2560.0 81.08900176826744
2597.24 81.4745088898388
2635.01 81.85147154358495
2673.34 82.19821835538971
2712.23 82.51287496284988
2751.68 82.78017701373656
2791.7 83.01065914785588
2832.31 83.19924711635475
2873.5 83.35220896252135
2915.3 83.46191678697443
2957.7 83.52533886422896
3000.72 83.54973177800167
3044.37 83.57820833822458
3088.65 83.66912546008662
3133.58 83.8325613794692
3179.16 84.03536998915567
3225.4 84.19076603228716
3272.31 84.21485701336874
3319.91 84.06033565771774
3368.2 83.74958102886907
3417.19 83.38766841502482
3466.89 83.12210422922914
3517.32 83.04056335708748
3568.48 83.0893630983819
3620.39 83.13378260495007
3673.05 83.08668662887627
3726.47 82.95666976525914
3780.67 82.83240762528034
3835.67 82.76589287468836
3891.46 82.82289577628717
3948.06 82.94460704945816
4005.49 83.10379413825159
4063.75 83.27276909209948
4122.86 83.44584992754633
4182.82 83.60392459703604
4243.66 83.69336025381715
4305.39 83.63967334269357
4368.01 83.36352085606688
4431.55 82.8105663209944
4496.01 82.07839733645487
4561.4 81.35415506416363
4627.75 80.89138387443104
4695.06 80.91415186191385
4763.35 81.21400972349512
4832.64 81.57018893165933
4902.93 81.99484233440062
4974.24 82.57805803466033
5046.6 83.18566565318349
5120.0 83.51451074640805
5194.47 83.38752413954383
5270.03 83.00290448398623
5346.68 82.67132510588472
5424.45 82.45195037767067
5503.35 82.25798929436054
5583.4 82.08672229981175
5664.61 81.94907264183996
5747.01 81.88229661526726
5830.6 81.92468961022882
5915.41 82.04997258980096
6001.45 82.05795802061978
6088.74 82.18796432285241
6177.3 82.64291481088303
6267.15 82.90294513626915
6358.31 82.70598825191335
6450.8 82.42498244875635
6544.62 82.28194526547874
6639.82 82.23485138552327
6736.4 82.16665794977582
6834.38 81.98340252643416
6933.79 81.5337722611143
7034.64 80.9116119020673
7136.96 80.51518269607264
7240.77 80.59373899611894
7346.09 80.95541869926612
7452.94 81.17759889287092
7561.35 81.02904053762315
7671.33 80.87338074025152
7782.91 80.92965989786825
7896.12 81.07307579933492
8010.97 80.96648832278817
8127.49 80.45956481150351
8245.71 79.80989042846035
8365.65 79.56187040525195
8487.33 79.71485523389602
8610.78 80.16126486964264
8736.03 80.49335790975748
8863.09 80.71813235907496
8992.01 80.90470633302955
9122.8 80.6989086901644
9255.5 80.03870988770176
9390.12 79.19235269609446
9526.7 78.76427029862118
9665.27 79.0366945016732
9805.86 79.40386691392975
9948.49 79.45232786864813
10093.2 79.18317756868045
10240.0 78.82422274569745
10388.9 78.4165720200135
10540.1 77.94674990614027
10693.4 77.6922428164696
10848.9 77.77429025272019
11006.7 77.75258581392175
11166.8 77.29883520014218
11329.2 76.99462829167955
11494.0 77.1367592779174
11661.2 77.04295022185234
11830.8 76.66509994029973
12002.9 76.39465164508485
12177.5 76.17627733269852
12354.6 75.71238093675348
12534.3 75.601492207783
12716.6 76.03533939927138
12901.6 76.06764788223663
13089.2 75.75179669364948
13279.6 75.35272691887184
13472.8 74.99516593664065
13668.8 75.13491398039994
13867.6 76.01882051872325
14069.3 76.44607422010544
14273.9 76.08616019339634
14481.5 75.6862777262363
14692.2 75.22255569576244
14905.9 74.9548315996519
15122.7 74.68492077765633
15342.7 74.1020744849999
15565.8 73.13717239652813
15792.2 71.85161835060595
16021.9 69.90518879313719
16255.0 67.97988562724116
16491.4 66.4268893100272
16731.3 65.2882487470697
16974.7 64.5540621377428
17221.6 63.72578564528483
17472.1 63.52502328061392
17726.2 63.92041201506241
17984.0 64.38339813014211
18245.6 64.51518796611067
18511.0 64.38954502558035
18780.2 64.95553356776816
19053.4 65.89441500090223
19330.5 66.29991279254067
19611.7 66.03842990128028
19897.0 66.02663767544254
