Freq "Early Reflections DI"
20.6 39.028473597266355
21.2 39.10554391345701
21.8 39.17892142986804
22.4 39.24054515462734
23.0 39.296138940536295
23.6 39.348756620844085
24.3 39.40554898218724
25.0 39.46083063572952
25.8 39.52956477138288
26.5 39.584565349320485
27.2 39.6277190726061
28.0 39.6684092132479
29.0 39.687235869306164
30.0 39.70090252655943
30.7 39.708852159150496
31.5 39.70685017513776
32.5 39.71281141607895
33.5 39.74337145727837
34.5 39.78218433238149
35.5 39.81477579616529
36.5 39.83342880807736
37.5 39.84602395387981
38.7 39.85822947110792
40.0 39.87036936016226
41.2 39.88211848014626
42.5 39.89020908379349
43.7 39.87836512466281
45.0 39.88363435536044
46.2 39.89232178624283
47.5 39.89792719548551
48.7 39.90106655023767
50.0 39.90858081003978
51.5 39.917490076017785
53.0 39.92890493880506
54.5 39.9400965294619
56.0 39.9501556492594
58.0 39.9605001114988
60.0 39.967950882444796
61.5 39.978222016372555
63.0 39.98850000481099
65.0 40.002334690840826
67.0 39.99050625470849
69.0 39.978861601069
71.0 39.971790389425564
73.0 39.97463122818064
75.0 39.984160094498066
77.5 40.000414123754126
80.0 40.018551096164515
82.5 40.02959863260192
85.0 40.01942749114956
87.5 40.01558492113651
90.0 39.993353224055014
92.5 39.9754883349284
95.0 39.96143678113742
97.5 39.95165710933664
100.0 39.943497431253135
103.0 39.93247229291737
106.0 39.930957525630404
109.0 39.971460120139724
112.0 39.98912720672918
115.0 39.97307481836825
118.0 40.05334605971649
122.0 40.30391722770247
125.0 40.310433809610544
128.0 40.31892387218835
132.0 40.35636816093607
136.0 40.38243730708885
140.0 40.39304507887394
145.0 40.38469000422313
150.0 40.386282221023535
155.0 40.38350664848575
160.0 40.41159265977976
165.0 40.522391278539644
170.0 40.55025457355909
175.0 40.48927988976743
180.0 40.47443091962529
185.0 40.6007982504764
190.0 40.79750456214171
195.0 40.823769890035834
200.0 40.86702561860611
206.0 40.90082193753135
212.0 40.90490813566878
218.0 40.94354143588052
224.0 41.0993026844164
230.0 41.13883276424595
236.0 41.06857543424191
243.0 40.94595834294525
250.0 40.99739624331711
258.0 41.214490283097405
265.0 41.13601056011703
272.0 41.028249116525956
280.0 41.14386998117547
290.0 41.534838363609296
300.0 41.55746806880441
307.0 41.39769354413592
315.0 41.23393876732088
325.0 41.33672877442643
335.0 41.55020933138472
345.0 41.542439243175664
355.0 41.41262259648359
365.0 41.37925978316726
375.0 41.587790674424454
387.0 41.7849889997064
400.0 41.664588584019114
412.0 41.538197148659634
425.0 41.674403275182044
437.0 41.78200878781388
450.0 41.15958759660275
462.0 41.630302271080566
475.0 41.685674303813386
487.0 41.61801129168633
500.0 41.75689234309132
515.0 41.60023079819116
530.0 41.87426203987724
545.0 42.243020521897435
560.0 42.53700537325
580.0 42.65896110582631
600.0 42.57349469992468
615.0 42.60323185610186
630.0 42.65736026560663
650.0 43.02367515682391
670.0 43.34099433122431
690.0 43.378667436735554
710.0 43.326138752601224
730.0 43.601520145306935
750.0 43.582526639542266
775.0 43.502345437261866
800.0 43.355024841611026
825.0 43.20790211094685
850.0 43.15508214033294
875.0 43.12268552049437
900.0 43.16860127032247
925.0 43.38571348448052
950.0 43.46034968205845
975.0 43.51824870539966
1000.0 43.67302924004437
1030.0 43.82254504653068
1060.0 43.77701272337703
1090.0 43.74165432131653
1120.0 43.75653111560054
1150.0 43.79813913224612
1180.0 43.888974246388614
1220.0 43.83259888847947
1250.0 43.79356829002275
1280.0 43.74758403425733
1320.0 43.48682828878604
1360.0 43.37264223270324
1400.0 43.24294027707286
1450.0 43.40501573778444
1500.0 43.48826469756766
1550.0 43.395216674422244
1600.0 43.28006473500977
1650.0 43.180022673435914
1700.0 43.10034058349041
1750.0 43.001090452728974
1800.0 42.782799068626105
1850.0 42.390326266291154
1900.0 42.2547531420913
1950.0 42.30230197859137
2000.0 42.425785734718644
2060.0 42.11956275222869
2120.0 41.84534873036095
2180.0 41.71850497821278
2240.0 41.73010223372144
2300.0 41.802945056420356
2360.0 41.88439453017058
2430.0 41.83137157162757
2500.0 41.888962672999995
2580.0 41.86701369750587
2650.0 41.64488073062523
2720.0 41.9715600890665
2800.0 42.33378941775864
2900.0 42.511080617457665
3000.0 42.95789873153723
3070.0 43.31079919980402
3150.0 43.6228210065411
3250.0 43.7393238810735
3350.0 43.774979245867314
3450.0 43.73644683075
3550.0 43.85240860130038
3650.0 43.95346357854761
3750.0 43.948545390770434
3870.0 43.890874422151796
4000.0 43.84015753681453
4120.0 43.62565608879915
4250.0 43.529216706847876
4370.0 43.43380770168815
4500.0 43.35374388326946
4620.0 43.33898210045122
4750.0 43.416564056695435
4870.0 43.249466606403985
5000.0 43.36383785227139
5150.0 43.59498966305107
5300.0 43.56873164302857
5450.0 43.65065596196092
5600.0 43.929970231593984
5800.0 44.00591154070209
6000.0 43.990631666744804
6150.0 44.09015414442999
6300.0 44.23765432132204
6500.0 44.24705377014712
6700.0 44.40303764320541
6900.0 44.46456462669896
7100.0 44.54108459683427
7300.0 44.63438597403834
7500.0 44.7233875907593
7750.0 44.81772143743811
8000.0 44.99910603461424
8250.0 45.14545071165095
8500.0 45.240751559799776
8750.0 45.30316669747985
9000.0 45.34251594288321
9250.0 45.36552533031801
9500.0 45.38554626319875
9750.0 45.39855908519006
10000.0 45.438137471693466
10300.0 45.49853958744259
10600.0 45.535164197695195
10900.0 45.55294812121295
11200.0 45.5469653400591
11500.0 45.544907890028185
11800.0 45.563084622400225
12200.0 45.6329424908169
12500.0 45.66956545324642
12800.0 45.66048725641279
13200.0 45.64159790856512
13600.0 45.62180442227046
14000.0 45.592375469292676
14500.0 45.580112931887925
15000.0 45.59273957544043
15500.0 45.64080441874489
16000.0 45.70517260769668
16500.0 45.712922007582364
17000.0 45.766102647098265
17500.0 45.793649719816756
18000.0 45.82713243725138
18500.0 45.86401636095019
19000.0 45.86487679597141
19500.0 45.88743441019241
