Freq "Rear Wall Bounce"
20.5078 68.27375456312377
21.9727 71.55341879779782
23.4375 75.0103083345116
24.9023 76.66980226179193
26.3672 79.00211000303554
27.832 80.07700291761448
29.2969 82.20418353890321
30.7617 84.48549032873632
32.2266 85.20276936725874
33.6914 86.78470285208482
35.1562 88.307136829952
36.6211 89.53120977276134
38.0859 90.34460643708246
39.5508 92.04504914570795
41.0156 93.27484327131035
42.4805 94.31470879199826
43.9453 95.31844556591004
45.4102 96.3305161079437
46.875 97.33319959976528
48.3398 98.44696683485911
51.2695 99.87150795708926
52.7344 100.27197907917375
54.1992 100.5945935427219
55.6641 100.97038281194236
58.5938 101.40080981477051
60.0586 101.49990438185738
62.9883 101.31812910593005
64.4531 101.22209687538185
67.3828 100.99259748389284
68.8477 100.85095255383739
71.7773 100.62759598851314
74.707 100.38796626135088
77.6367 100.11523849690705
79.1016 99.99857277436557
82.0312 99.74406610126796
84.9609 99.53111122658561
87.8906 99.33651858822009
90.8203 99.1746783106685
95.2148 98.82092571154341
98.1445 98.68102635073888
101.074 98.48288992992795
105.469 98.24983441610668
108.398 98.27118376401208
112.793 98.23363411489869
117.188 98.01408997027434
120.117 97.93721046611881
124.512 97.96269637992023
128.906 97.83619750093838
133.301 97.69080832564501
139.16 97.64464063487146
143.555 97.56687117162225
147.949 97.31587829988844
153.809 97.14836586511852
159.668 97.18597418061034
165.527 97.40471536444396
171.387 97.22236647085144
177.246 96.97944895466001
183.105 96.90434024356925
188.965 96.6915317693159
196.289 96.78543888332031
203.613 96.59626623314387
210.938 96.38485229641549
218.262 96.58439229926944
225.586 96.52893899498638
232.91 96.21904078175298
241.699 96.13020397489932
250.488 95.87873460672391
259.277 96.11368603940141
268.066 95.86425577955131
276.855 95.83572906175222
287.109 95.8480919145798
297.363 95.885870098989
307.617 95.68100737274283
319.336 95.55878013730157
329.59 95.37998108251351
341.309 95.17228233124784
353.027 94.75023381828282
366.211 94.53200896466002
379.395 94.66585629244324
392.578 94.99600984163736
405.762 94.83082884682723
420.41 94.12658169146538
435.059 95.07991910386052
451.172 94.43331169805218
465.82 94.77613130655637
483.398 94.83085003966586
499.512 94.42788938536863
517.09 94.59120566896489
536.133 94.19392139054567
555.176 93.50438940732941
574.219 93.70342899062003
594.727 93.89888756037399
615.234 92.93928593026837
637.207 94.2475388473552
659.18 93.03675579941927
682.617 93.30378011269079
707.52 92.63561459591448
732.422 91.68190869634705
757.324 91.38397815845825
785.156 90.90014584922177
811.523 90.46815765622576
840.82 90.02005847193945
870.117 90.74090585866506
900.879 89.78042851742843
933.105 89.13662127610526
965.332 90.52979464646596
1000.49 88.43953644452814
1035.64 89.89328066587792
1072.27 88.64171218703395
1108.89 87.8292374997667
1148.44 88.05387032819785
1189.45 88.42106242928345
1230.47 88.89914262910852
1274.41 88.12009616453683
1319.82 88.28500134304316
1366.7 88.43659786501397
1413.57 87.57462829893522
1463.38 88.6841953194435
1516.11 88.08724202323454
1568.85 88.4038163191914
1624.51 87.03100322924121
1681.64 86.63909891451011
1741.7 88.27607163008535
1803.22 88.5153460666074
1866.21 88.22657910520327
1932.13 87.53587448572704
1999.51 87.14232559110228
2069.82 87.0924730326849
2143.07 87.31178248226472
2219.24 86.92793080439877
2296.88 86.67155581949703
2378.91 86.87668211955886
2462.4 87.01822775445154
2548.83 86.75574118051388
2639.65 86.08894975498525
2731.93 85.87830463740536
2828.61 86.27325224114485
2928.22 86.38827790876105
3030.76 86.03845783943682
3137.7 86.80294220163209
3249.02 87.73426581131321
3363.28 87.59640999651141
3481.93 88.19042038216875
3604.98 88.21954686214566
3732.42 88.19096188782217
3864.26 88.41565882054658
4000.49 87.97717762187784
4141.11 87.87313032132897
4287.6 86.54520765117076
4438.48 85.5798237086513
4595.21 86.82467265292276
4756.35 87.18446563643636
4924.8 87.84225752055754
5097.66 88.9266054945419
5277.83 88.42193924904797
5463.87 88.74265579879284
5657.23 90.01550557512344
5856.45 89.13763764190999
6062.99 88.92344904275494
6276.86 88.55178833755345
6498.05 87.82525159119233
6726.56 87.34302769383345
6963.87 87.0775539661924
7209.96 86.49427091955079
7464.84 86.0380593701861
7727.05 86.0068890637304
7999.51 85.80167919562818
8282.23 85.57553412219872
8573.73 85.4139473868675
8876.95 84.70045479554226
9188.96 84.04620902854545
9514.16 83.12530474222423
9849.61 82.70687772950713
10196.8 81.49694267567659
10555.7 79.42747931219228
10927.7 77.88562437768464
11313.0 76.73652051324434
11712.9 75.62382230824694
12126.0 74.61720937567678
12553.7 74.7554666043083
12996.1 74.66148835368814
13454.6 74.10112523497124
13929.2 72.85211391443418
14419.9 71.81246258673626
14928.2 70.38263083134537
15455.6 70.141567405142
16000.5 71.57083946813678
16564.5 72.66715488861796
17148.9 74.10589152686394
17752.4 75.22641946715227
18379.4 73.92065848648112
19026.9 72.81800050348885
19697.8 72.46359622255194
19999.5 72.45792232760029
