Freq "Side Wall Bounce"
20.5078 67.36776237738054
21.9727 70.62393667160352
23.4375 74.36035252723455
24.9023 76.26413612466116
26.3672 78.50817763386063
27.832 79.6021888398287
29.2969 81.8683305209813
30.7617 84.13271519238101
32.2266 84.88495509989811
33.6914 86.52396996478554
35.1562 87.99424339293701
36.6211 89.29261863894305
38.0859 90.22452924611562
39.5508 91.80708608076131
41.0156 92.99976642235586
42.4805 94.06037739532783
43.9453 95.1554067006125
45.4102 96.18904715295362
46.875 97.1381239916639
48.3398 98.10305140969149
51.2695 99.74927513086264
52.7344 100.17384564857805
54.1992 100.5102485540405
55.6641 100.88144620237806
58.5938 101.27437687661627
60.0586 101.28929125215925
62.9883 101.12715507857668
64.4531 101.02656193214783
67.3828 100.79369934129288
68.8477 100.67444282746574
71.7773 100.45444999008284
74.707 100.19502508368049
77.6367 99.91401169772523
79.1016 99.810546886886
82.0312 99.59288192891357
84.9609 99.30227860355151
87.8906 99.1660459529539
90.8203 99.01063148511867
95.2148 98.78905720251717
98.1445 98.62218069005148
101.074 98.43984543137688
105.469 98.26815626107609
108.398 98.28320216593063
112.793 98.19579948245477
117.188 98.08163193627438
120.117 98.05507146817372
124.512 98.05723493687152
128.906 97.94678534808476
133.301 97.81597730393297
139.16 97.64528878503995
143.555 97.53247237055326
147.949 97.50202865162704
153.809 97.44883707456636
159.668 97.59904751472243
165.527 97.63304943326943
171.387 97.43299292771931
177.246 97.31594494491497
183.105 97.20496544003727
188.965 97.11589484397508
196.289 97.43323732126137
203.613 97.29239332916502
210.938 97.30809437417814
218.262 97.30689482643773
225.586 97.17577396317722
232.91 97.32428802512212
241.699 97.2097950245902
250.488 97.27921956979154
259.277 97.68003930023893
268.066 97.2759900847859
276.855 97.41507698750033
287.109 97.35369517647348
297.363 97.382275215544
307.617 97.62987423429593
319.336 97.1916617556216
329.59 97.30860362046225
341.309 97.10369474524005
353.027 97.05675762463265
366.211 97.25481767843769
379.395 97.94244566270132
392.578 96.95865222935642
405.762 96.6781414848571
420.41 97.84696331699452
435.059 97.44845318735993
451.172 98.09244408016404
465.82 98.36322692951317
483.398 97.90528635283744
499.512 97.66983591056929
517.09 97.5937720693421
536.133 97.31010858793313
555.176 97.94123124524928
574.219 97.9185054918593
594.727 97.47557514627624
615.234 97.34163293280976
637.207 97.12906225168554
659.18 97.24115655901265
682.617 97.21424330822707
707.52 96.73762426936209
732.422 96.0800828497839
757.324 96.2169793996763
785.156 95.08961813333023
811.523 95.73330755130296
840.82 96.45553011868022
870.117 95.29953626798758
900.879 95.83833798430419
933.105 95.51817912821663
965.332 96.07296356698633
1000.49 95.7006859562606
1035.64 95.99130988090229
1072.27 95.02306310996445
1108.89 95.44503849433129
1148.44 95.3147337726309
1189.45 95.4976276895376
1230.47 95.67112115322382
1274.41 95.34776335674421
1319.82 95.37253969069879
1366.7 94.71567669022359
1413.57 94.93274014566758
1463.38 95.65877237004092
1516.11 96.03636336823403
1568.85 95.74983752636201
1624.51 95.40268702602326
1681.64 95.58044280795407
1741.7 96.42060100632244
1803.22 96.96210588445975
1866.21 96.92580853524879
1932.13 96.2258205682445
1999.51 96.25313870213895
2069.82 96.93362437437429
2143.07 96.98793296180615
2219.24 96.45110266557246
2296.88 96.32848529043197
2378.91 96.69737693408864
2462.4 96.49355825424307
2548.83 96.36726876869409
2639.65 96.39531048119565
2731.93 95.94126341804527
2828.61 95.79206746063822
2928.22 95.53712443045781
3030.76 94.8067847979569
3137.7 95.90202221017829
3249.02 96.55638196297697
3363.28 97.01133214068754
3481.93 97.70651938313001
3604.98 97.9248537854283
3732.42 98.09837535397102
3864.26 98.30128693147573
4000.49 98.50560733739017
4141.11 98.30970800865983
4287.6 97.43561223127229
4438.48 96.69529898994602
4595.21 96.80501462928534
4756.35 96.98396036979214
4924.8 98.23212440705053
5097.66 98.29408239840077
5277.83 99.6719619392537
5463.87 99.54960134654645
5657.23 100.67719172781514
5856.45 101.21850969376558
6062.99 100.54391403814672
6276.86 100.46535329028531
6498.05 99.86100242668202
6726.56 99.35648640766384
6963.87 99.43180993948688
7209.96 99.19584276348752
7464.84 99.07166052392087
7727.05 98.86284712956055
7999.51 98.52832485010241
8282.23 98.07201539690402
8573.73 97.45125095743923
8876.95 96.98037841548165
9188.96 96.6023994879939
9514.16 95.84994251709766
9849.61 95.49301776629632
10196.8 94.8929954944648
10555.7 94.1014924064558
10927.7 93.27263790904588
11313.0 92.43069912075617
11712.9 91.92532819582843
12126.0 91.46204652459444
12553.7 91.20744413402127
12996.1 90.7159603319838
13454.6 89.96152983623665
13929.2 89.42794970939441
14419.9 88.99538613987285
14928.2 88.31028779830338
15455.6 88.23834894359499
16000.5 88.07470084822262
16564.5 87.55473800000128
17148.9 87.53208718957616
17752.4 87.8702116068341
18379.4 87.60674665761366
19026.9 87.54485727581125
19697.8 87.32096096535652
19999.5 87.35034437016333
