Freq,Floor Bounce,Ceiling Bounce,Front Wall Bounce,Side Wall Bounce,Rear Wall Bounce,Total Early Reflection
20.5078,52.78029657928916,50.33084302837848,51.66792958644372,51.92139331628117,52.51079208613059,51.921985964845746
21.9727,51.22524967600718,48.41277130120413,49.88845918653429,50.21951790462201,50.99480933090017,50.25610773719869
23.4375,55.0576353200651,52.291305916452515,53.830065159179114,53.974374964370284,54.287439825847756,53.97791952902777
24.9023,55.73974317962082,52.92055244769223,54.409719994218236,54.70188964480788,55.35326414683253,54.72807646165599
26.3672,59.66110529605898,57.11855467287445,58.50706603345951,58.60091252955148,58.79726392949733,58.61149207906904
27.832,62.68882929765324,60.24240221427708,61.594050960164154,61.633095081771145,61.6935480484773,61.63851428317416
29.2969,65.72647208611325,63.459462814395266,64.71505719350277,64.72118100354304,64.70587681970302,64.72413918844282
30.7617,68.72594534950603,66.55818364036925,67.77324431488931,67.74367366936376,67.63347604684499,67.74079810933898
32.2266,71.47839094551584,69.3773179175932,70.56048380009982,70.52159470472542,70.39345680499554,70.51703917333482
33.6914,73.95626532791088,71.97066108352995,73.08562524155438,73.05146571438316,72.945962977382,73.04730416110478
35.1562,76.50295541402055,74.51023651140257,75.65188780406994,75.58099778473657,75.38662691189312,75.57289817170964
36.6211,78.52106336467935,76.66275920489319,77.73355636245721,77.64205724538218,77.39417279414714,77.63185888349093
38.0859,80.11073942180161,78.20297288766074,79.31837228739079,79.17280920143456,78.79833933010923,79.16620131644495
39.5508,81.49195224967764,79.62370257207992,80.7220950389942,80.57030767531491,80.19169998152984,80.56392109039128
41.0156,82.5522305748659,80.73737690790537,81.80996649866937,81.65068512171526,81.2611252476165,81.64426396154185
42.4805,83.33207658244048,81.55092024454545,82.6108281725627,82.44033716555789,82.02972021102518,82.43387559689124
43.9453,83.83624790297179,82.0890050896984,83.13725305589286,82.95020448743779,82.49661825445997,82.9426272206424
45.4102,84.23694445989045,82.52443350286218,83.55423625611569,83.36800511665139,82.922338198528,83.36039572191908
46.875,84.42838217089043,82.74126802926203,83.75935434016482,83.56894700594104,83.12564500727575,83.56294220083275
48.3398,84.6263679464542,82.97017919549447,83.97805351149229,83.77412333098611,83.29103263471926,83.76597514670686
51.2695,84.59210821324035,83.00014591159477,83.96376740735988,83.7819026877709,83.39751443558318,83.780528610218
52.7344,84.55956621084967,82.97200883738931,83.93986556822597,83.74462453257944,83.34702106972289,83.74629961090885
54.1992,84.59389156962447,82.98878695791704,83.98093770462545,83.75294935067532,83.27673807887847,83.75499245978942
55.6641,84.5938367663479,83.01760207331124,83.9973569430859,83.76098717884403,83.24949631350613,83.76003232871443
58.5938,84.44752613419632,82.90093641152352,83.86595008040875,83.62574067760242,83.13834042526915,83.63035048539341
60.0586,84.40799931758703,82.85926621572906,83.83010152480725,83.58182700271199,83.08589617456337,83.58805812389377
62.9883,84.32223489862668,82.80457643588676,83.76811619741086,83.50304895235483,82.98390631340432,83.51111162646468
64.4531,84.2509884392837,82.76073721158387,83.71344317415628,83.43469599966615,82.88086545197014,83.4430270983626
67.3828,84.23815534504418,82.78135233342901,83.71092558978158,83.43346939551952,82.88890916457679,83.44410629031003
68.8477,84.23036287863391,82.79888980353066,83.72198266917323,83.43028789209502,82.87840345328011,83.44512711905385
71.7773,84.20198445319087,82.76758818852674,83.69620673948815,83.39809332713786,82.86558753481944,83.41877584705287
74.707,84.1601414356891,82.71609323273314,83.65547575081466,83.34729478090615,82.82220454221992,83.37345692293404
77.6367,84.15874090610475,82.70581922803473,83.65839779744334,83.33636055343389,82.81151582927014,83.36792589348632
79.1016,84.16172226068805,82.71402154102375,83.66686926002397,83.33608089161429,82.80134008365938,83.37002022738865
82.0312,84.1519868145745,82.69052915870114,83.6574732074008,83.31582039953447,82.77571919694175,83.35312148692434
84.9609,84.14078993393758,82.68150426428262,83.64895528579915,83.30716162582145,82.82134217493946,83.35337542137256
87.8906,84.21939605986417,82.76876833008787,83.74074253657524,83.36836864674581,82.88369299773315,83.42998520226818
90.8203,84.33061970361591,82.87283766178086,83.85744359114419,83.45561917662906,82.90710221705943,83.52106640946165
95.2148,84.33331323139384,82.83107319256311,83.85146166984228,83.42909306952843,82.86316924769517,83.50041487126109
98.1445,84.33941694866972,82.79780579469023,83.85266850332478,83.40248367977844,82.8033866383031,83.48095835378928
101.074,84.32328890224962,82.75170430543818,83.83385341552805,83.35542945515012,82.67858261148793,83.43461810762913
105.469,84.13930869509699,82.56560218138522,83.65400336609117,83.15844560840333,82.45245840069657,83.24157413329458
108.398,84.06604774273038,82.51141444515207,83.58226993880685,83.09753141835738,82.45065403567972,83.1863251452486
112.793,84.00407817936684,82.43112506966325,83.51430848026932,83.03471343881351,82.41620370161395,83.12440844911795
117.188,83.61313753261108,81.86846826939305,83.06208982471871,82.63196176768048,82.10542800482433,82.70277837019144
120.117,83.32412649382869,81.62758574405235,82.81448621825818,82.37499340814219,82.05650008812292,82.47964418409228
124.512,82.64075796354393,81.01175170077538,82.21780200322075,81.60741548284153,81.25919769902147,81.78968759605955
128.906,82.62831442354921,80.91492316246263,82.19169678476804,81.52891523645776,80.92687308285649,81.69227710844623
133.301,82.72328083357752,81.02140061576459,82.30979186414162,81.6225198116337,80.85327233736153,81.7663374204608
139.16,82.82765271423419,81.30199993263459,82.48985166702766,81.80227426051695,81.10996087934468,81.95728491474297
143.555,83.01450448733955,81.61164239416222,82.72869245473738,82.03935101922713,81.36201204622238,82.197609727667
147.949,83.02970100510586,81.78504847286109,82.81362172859794,82.11773309527727,81.67003707592815,82.31782719098248
153.809,82.70772154885042,81.71754139312951,82.56367262025122,81.80605845794766,81.68384360427011,82.11885295849667
159.668,83.00916154208524,81.38078936302243,82.70387075690653,81.63216416535722,81.31516540554578,82.06684572217735
165.527,83.11725565675562,81.32194447718769,82.80289192268732,81.58022130725344,80.79741452770115,82.01550795033734
171.387,83.29738191372475,81.89844610362773,83.10775096041509,81.93415269580896,80.79695574821253,82.30080266793843
177.246,83.39517943547527,81.74506048045477,83.07977928144571,81.8179662644637,80.77889522346683,82.26774875072435
183.105,83.44727442811953,81.54906209924481,83.07924094870619,81.79187426779485,80.68232671742315,82.22880358311788
188.965,83.4843523083825,81.48605989320204,83.13637366272336,81.72328838454072,80.27537292786626,82.17489833329832
196.289,83.49912224474473,81.66473656696255,83.18645896696262,81.84032732132668,79.47723993627761,82.14975247629535
203.613,83.30063022545322,81.41860514576523,82.89063859632587,81.81994702859663,79.78819567697983,82.01023218936085
210.938,83.47669705475569,81.44631344614398,83.0893786935476,81.81541988254679,79.45901826403501,82.07391994529861
218.262,82.6216631366578,80.73809891422857,82.16855899061218,81.07943912827393,79.26190722716554,81.32742142977878
225.586,82.2003300478252,80.09226553354354,81.72966418049886,80.44468244311985,79.30331270641881,80.8849303700703
232.91,82.19569620002184,79.77323636053356,81.73863131872966,80.26099671376218,78.46799172163234,80.69229818053755
241.699,82.04461651603107,79.57451968782023,81.64642165240694,80.0417782905794,77.68958169183581,80.46573731868736
250.488,81.9663167810695,79.45491917615658,81.65117047416236,80.07466362332592,77.33989902156448,80.39540707698487
259.277,82.39732831220094,80.14713506719899,82.1146146746145,80.63148653819813,77.42657850520358,80.86921269025105
268.066,82.38504297374513,80.38183242682219,82.08718746680293,80.73459219101427,78.7768159783386,81.05822873056356
276.855,82.62364576958707,80.19544059558726,82.25360934973801,80.59154981584487,77.92186927137635,81.01849772079478
287.109,82.72441788214417,80.34371609728176,82.41602648915156,80.83446862760333,77.85911241318487,81.15399663836887
297.363,83.0555522149495,80.52985559615938,82.5871576769272,80.93271043220193,77.58141680143562,81.32105126961201
307.617,82.44375503434689,80.63741802151236,82.15884182427844,80.8598814580122,78.18178890375243,81.09531614336517
319.336,82.13814633093459,80.14469227116552,81.85847505512511,80.46366041472324,77.72040892415133,80.72496987455297
329.59,82.31912142629098,80.11891300620086,82.04505293144076,80.51582228256707,77.88845700670414,80.8464693823123
341.309,82.8496168576968,80.32811637690669,82.5020106247959,80.4953401258597,77.41616689635269,81.11083797806874
353.027,83.43846335821257,80.75332020906463,83.18005700103366,81.21229609666334,76.6383791167374,81.6193662238846
366.211,82.536094357018,80.59988041635792,82.43623235276354,80.98053833594237,76.87770822197722,81.09522511064549
379.395,82.51618707047824,80.38412409639075,82.40555582436943,80.80032065069089,76.11150748971045,80.9539511155249
392.578,82.16430844558165,80.2641152488493,82.2477832602233,80.79257093026276,76.24446712291075,80.79761541967147
405.762,82.52834501678223,80.35918499135605,82.40568021781172,80.86466650065549,77.00235325853255,81.02980832524048
420.41,82.68414862855582,80.49508675282316,82.72921376035741,81.03344488740358,76.10958276075003,81.15786584515347
435.059,82.4398285767594,79.78184569150194,82.30108096949154,80.57377246967529,76.01168258024397,80.75101984144106
451.172,81.60058381082095,79.11638972006865,81.47969808755035,79.8736685473712,75.21291311357766,79.97468077989457
465.82,82.47377121840304,79.95132404058508,82.28801295523682,81.0063625844081,76.0877209238024,80.8756780519297
483.398,83.65644679327575,80.8936796403417,83.66185317450375,81.87777540690499,77.08475108487825,82.00030347771535
499.512,83.16620279194126,80.5137561696116,83.02601468062124,81.30593038006398,77.31443416162693,81.52016305733751
517.09,83.6124924703975,79.35580775564908,83.73421118145912,81.35682178978854,76.35730231357645,81.65621429363743
536.133,83.73847287443128,79.16320714522881,83.67194249898512,81.52321920089145,76.7321228665089,81.70864908588435
555.176,82.8819729388767,78.52718524259579,82.70853088227041,79.9635456393061,76.00158209728427,80.72602840480715
574.219,84.11129584787322,77.81253463186488,83.77632129068283,80.65880738717657,76.03330423989898,81.54251009477898
594.727,82.51874404735588,76.74854326872021,81.44355667525844,78.56892618501796,74.10758892493307,79.66613052928521
615.234,84.1391508424335,79.86196256857282,83.63635342056962,79.91363750310042,76.2700518185245,81.62950780847954
637.207,84.82310306242931,80.18798686779982,84.80760351476195,82.2070794038113,75.45247338043124,82.60966992958721
659.18,83.82642557295186,79.80414199463709,83.99712085311337,81.77854031173679,76.24092802982348,81.9348727753719
682.617,84.82728943144018,79.39210867300831,84.5311091892518,80.84418692221318,75.59193955860992,82.21360924737469
707.52,83.88023239221864,79.3332484979543,83.16703420344497,79.4603498624485,72.87807088689006,81.10717012587837
732.422,81.81783586022748,79.63075666406125,81.46407265128374,77.90828415887873,71.47708609786856,79.6354849953283
757.324,81.86533013107282,79.13362367975154,81.00093977575014,76.78798915610977,71.97993071293071,79.29410164852669
785.156,79.83651927834065,77.65879481027696,79.25951789196985,76.24368671503693,67.58347300886957,77.58607716324643
811.523,76.79223648114139,80.52786121444393,80.14670192052846,77.02652500293007,68.2021618051269,78.07769182206663
840.82,74.5576586123292,83.22928699580966,81.41857789597708,77.59976777884434,70.32591662234333,79.50222893459937
870.117,79.56417951357359,84.72485856497892,84.94504627680612,81.318081356959,72.80859726771912,82.32523451964308
900.879,81.32162777387687,82.27472741213236,84.51612244761479,80.587779368157,73.11571242455365,81.59735203710927
933.105,80.62294501479656,80.52347157582237,83.3358079490206,79.28641845191366,71.46906489971627,80.35568115427982
965.332,80.8585461812602,79.26820108654888,82.75427090052536,78.87569048342858,70.46655231791735,79.85181013482863
1000.49,81.36597478761779,77.51843620609364,82.46029424016008,77.69225647331179,70.4733043244919,79.44062953410261
1035.64,82.95380314369287,73.16091613437963,82.46698216064912,77.49266244367483,69.53206009212687,79.63523120923227
1072.27,83.1739393312479,77.15854673316372,83.14423214963337,78.28527426152691,69.4951383966347,80.35195696515983
1108.89,83.28215793846415,79.27243848386316,83.92769175134474,78.99729917168453,70.19774564685278,81.03383177784623
1148.44,83.71568856425618,80.2404066519359,83.74496418139346,78.98033357562362,70.43045941327037,81.2576832240612
1189.45,84.20970057435808,80.72984026882175,83.60315366867286,79.19295860817451,68.95359464555675,81.47409442711918
1230.47,83.77300652180826,81.09754780204989,83.00843344376985,78.36424394255098,68.66882247730395,81.09267404839686
1274.41,83.51538503884052,81.93183381031967,81.82055038913319,77.44214916130909,68.60070542553689,80.75909790109567
1319.82,81.10165936232393,82.8652214213936,81.12582430769778,76.67985990514019,67.98494065716046,80.04099042883534
1366.7,78.35498037014034,79.67246933527149,83.69475571839045,78.63075319250002,68.41834572141106,79.7795331912056
1413.57,79.61137046549483,76.41136100188618,84.06375181460072,79.02885145143394,68.36240110742722,79.79484805536077
1463.38,79.31926468612933,75.87564811937507,83.75891251559376,78.515287746255,67.97650807259195,79.4361662827102
1516.11,77.66936740169301,73.12956133842134,83.43988716523394,78.07993229594305,67.32523136811872,78.68634372369768
1568.85,76.08279319675934,69.34780507903406,83.24817869576732,77.97415701243342,66.61329844509538,78.16571519773305
1624.51,75.52112842064689,67.522049432085,83.59516180972173,78.08805407856468,67.35358870172156,78.3246187038231
1681.64,75.66251466793271,66.87383239623735,83.82527907773749,77.97924375887625,66.85063013635987,78.45871102486869
1741.7,76.281414075088,68.83688374710476,83.10709347861462,77.61381353281296,66.86474021845778,78.02389610292423
1803.22,75.5370673868948,70.7324303126738,82.5629292313682,77.28098001065287,67.69042909862746,77.59501509012914
1866.21,75.45515784889412,73.25571095430223,82.43287247714258,77.15193175971638,67.01480584600965,77.60892845822656
1932.13,75.49762217586934,74.6531628854084,82.46164693458091,77.42302845009522,67.12429173597457,77.80065900873616
1999.51,75.39570922436803,76.13233490865913,82.57968653863144,77.27774387806338,66.62286957118056,77.99101330952917
2069.82,75.73186895101735,75.62763418150254,83.14904946549244,77.77064145463741,66.58237766404363,78.38675234224281
2143.07,75.73944717310532,78.93138146308567,84.30741643768685,78.82481732203486,66.91613162828942,79.69883668878374
2219.24,78.7604133671293,74.59188810390519,83.05139108717928,77.71511600856697,67.5195969961152,78.69930439111944
2296.88,77.46811446473079,78.54518250450027,83.10694461508204,78.41465365415581,68.37016432869264,79.11845681933033
2378.91,80.08436914127955,77.53587072730932,82.68509424298202,78.30489893195026,67.72461480802049,79.22039390607128
2462.4,79.99983899057459,78.85542326745374,82.77387184926165,78.18306592995071,66.71745286405105,79.41252850452445
2548.83,80.05969811840716,79.13580269032147,82.44633942713365,77.92033448675136,66.66741437480296,79.30006632522851
2639.65,79.77871469984281,78.86791541856893,82.30105509595863,77.75105037480274,66.1343807277474,79.0916877289914
2731.93,79.75458159069585,78.60968087936982,82.15794579062559,77.84254531238626,65.91234349653664,78.98967576600236
2828.61,79.9184644895485,77.53504581256989,82.31446963091182,77.36864515145824,65.0446407791926,78.84200057324571
2928.22,79.57095607555364,76.87166439630342,81.83870698084706,76.2239947670174,64.4253078915446,78.28211092467164
3030.76,79.47739559629694,76.7446801985897,82.32618343559581,76.5278591293626,64.16582845716398,78.50445780938342
3137.7,80.0180987399159,76.6304581607299,82.13209013015388,76.57632743805327,64.38238835133512,78.54955913698781
3249.02,79.98154976786745,76.34895320843114,82.33180073191981,75.95780548708933,64.11077122833896,78.52226916299931
3363.28,79.75861021029658,76.0543263770852,82.36418575941984,76.47657704252063,63.526622331724795,78.49958117216512
3481.93,79.68863976247657,76.27970105415899,82.21626624819422,76.06843630120328,64.14884551841673,78.39056245209953
3604.98,79.97054664123284,76.4470239093467,81.90949308049571,76.27000450782931,63.34250429915389,78.36570711317829
3732.42,80.20237527045879,76.40253550431116,81.54224201071912,76.49726659719202,64.1913338450796,78.30392157885237
3864.26,80.55172325481573,76.24499361590519,81.68073861340888,76.76350431342195,63.715792388450524,78.48483149124262
4000.49,80.6339780965778,76.31262215929391,81.68946437493526,76.69771685630501,63.76507539399675,78.51478850802837
4141.11,80.96687616754342,75.79695545128617,82.20175425265077,77.03552700579657,63.059279274873845,78.82532645033284
4287.6,80.8993676990056,75.48089277633206,82.32370559119737,76.70828557910414,63.67510106545093,78.78845762262324
4438.48,80.81361017715109,75.17250221291422,82.43732715192321,76.8968735541065,62.55176949862971,78.80276454134379
4595.21,80.82843878334245,74.9833616379882,82.44612029256292,76.42108294126554,63.07256158447353,78.73955515478254
4756.35,80.72728580517146,74.3852548805274,82.22913055964231,76.61782225611937,62.549679921487225,78.57875394523514
4924.8,80.6191881224953,74.15496356484711,82.28914943798928,75.9822729390375,62.14017826583731,78.47623398323275
5097.66,80.2359421658993,73.96284297232849,82.15476351636845,75.98621416248528,61.71875700678713,78.27236124815067
5277.83,80.01276694339178,73.40264131144835,81.72734748130968,75.94375220985573,60.79590991022111,77.94529959022661
5463.87,79.53661679710437,73.39269860759875,82.13598184784838,76.0673889171401,61.01356804277994,78.0201663914818
5657.23,79.27771513739857,73.23061137507597,82.1752095872428,75.76775361142349,61.15376235846526,77.92076332929774
5856.45,78.56650943506084,73.17657624276426,82.30479664748093,76.05561888227606,61.50803189184802,77.84501325620248
6062.99,78.1288518049609,73.27515637277502,82.56113933868427,76.0292678043818,60.78969594968075,77.89414100480577
6276.86,78.0155114200375,72.68463763746719,82.46710450158535,75.70403155220801,60.694107686562475,77.73382703603401
6498.05,77.9116897632773,72.66334318300778,82.57311267240841,75.73749782465997,60.32081893376453,77.77701387370351
6726.56,78.11428379806092,72.74652232103757,82.62833061077643,75.64309116227861,59.29724431625122,77.84304843719595
6963.87,78.35704633503141,72.43485462502566,82.60373455025643,75.58623755032058,58.9791320710287,77.85515387183554
7209.96,78.41604849859159,72.37635175092448,82.7014729296808,75.68009359733999,58.55701739440228,77.93365176222157
7464.84,78.42946314505504,72.42679977040413,82.92770460403312,75.73512928543389,58.416962529109966,78.08240299653677
7727.05,78.50396644509581,72.11571617933676,82.94755376054528,75.52516405211237,58.227423014154326,78.07020291930004
7999.51,78.60072421245869,72.3085109360141,82.88242605156024,75.21687686420695,57.278703125135294,78.02698367815422
8282.23,78.59634244712852,72.35346749887265,82.78245127619309,74.93871852161436,56.71019838009569,77.93792651214672
8573.73,78.50022505446961,72.22959086842552,82.72490828189108,74.82352660630285,56.60153691387704,77.86194913611145
8876.95,78.24804295665004,72.65873614904268,82.5905903802304,74.52668243926352,56.108357719527376,77.71721202236336
9188.96,78.13696569790994,72.48446718364458,82.50305254403493,74.26104341811092,55.43416383826785,77.60142031200935
9514.16,78.11516306257296,72.65894504951066,82.65135668266002,73.94243736465889,54.3182929896427,77.67051987765895
