Freq "Side Wall Bounce"
22.4 -39.8629056846949
23.0 -39.48570939853578
23.6 -39.78366761489536
24.0 -35.60887024622158
25.0 -32.57875046780776
25.8 -30.460608977355484
26.5 -28.940308159117414
27.2 -27.78703109614738
28.0 -26.720888138137234
29.0 -25.6497644082716
30.0 -21.714534067258562
30.7 -17.147380818163178
31.5 -14.940313471612932
32.5 -13.067331370800439
33.5 -9.237532067478746
34.5 -6.102903206124829
35.5 -2.676590539606103
36.5 5.103340424567314
37.5 11.99004396640752
38.7 18.02967309317075
40.0 17.859033996341147
41.2 17.47727811562087
42.5 16.316653870816857
43.7 16.2704988663505
45.0 17.26519233019443
46.2 19.600610335537915
47.5 21.41078586690393
48.7 23.958163010016825
50.0 26.19965825319634
51.5 28.80122864256743
53.0 31.744218079921644
54.5 31.670001068149624
56.0 33.03366349406128
58.0 37.51943528678749
60.0 40.27127172122835
61.5 42.1097548664604
63.0 43.70312978512835
65.0 45.371950047940466
67.0 47.17228539692098
69.0 49.22052361883801
71.0 51.28998379488228
73.0 53.02191648853377
75.0 54.86159698892788
77.5 56.55754868414406
80.0 57.85661717960375
82.5 58.95661717960375
85.0 59.87866330223215
87.5 60.37771472134896
90.0 60.377714721348944
92.5 60.13679422115673
95.0 59.89689603377651
97.5 59.915972083240696
100.0 60.156617179603735
103.0 60.076339635612435
106.0 60.316436827514
109.0 60.756617179603744
112.0 61.03679422115672
115.0 61.11735559083386
118.0 61.00063043369958
122.0 60.95984052602875
125.0 60.95984052602875
128.0 60.85799852317215
132.0 60.7987206486474
136.0 60.7968960337765
140.0 60.93634218031756
145.0 60.85615671548084
150.0 60.837256742676864
155.0 60.697352198903225
160.0 60.57724581461924
165.0 60.297797934158574
170.0 60.15752748273406
175.0 60.15615671548081
180.0 59.93587956138152
185.0 59.75569620253166
190.0 59.45615671548084
195.0 59.13725674267686
200.0 58.61689094487348
206.0 57.86176650584576
212.0 57.46445318986613
218.0 56.77639808374406
224.0 56.29857475279724
230.0 55.71686554765659
236.0 55.103462587428815
240.0 54.228977270977516
250.0 53.271116241998364
258.0 52.58115041209036
265.0 52.21515232456242
272.0 51.88838676414844
280.0 51.6428701946575
290.0 51.452915425643845
300.0 51.69896383195182
307.0 51.97587435042332
315.0 52.467635666041495
325.0 52.86398938469831
335.0 53.106199227377864
345.0 53.501615057720095
355.0 53.73287174851503
365.0 54.102275454750774
375.0 54.79465119279265
387.0 54.967635666041495
400.0 53.60777579081569
412.0 54.22772078891855
425.0 54.60074359008912
437.0 54.49488309677937
450.0 54.8478461285495
462.0 54.527412433546196
475.0 54.51823304088348
487.0 55.42888433932833
500.0 56.43223618134842
515.0 56.61744580493704
530.0 56.702959502271206
545.0 56.720803209577674
560.0 56.69857520973796
580.0 56.68849640394097
600.0 56.46513738846817
615.0 56.101920007961816
630.0 55.989848869156425
650.0 55.5484978669982
670.0 54.997830864988096
690.0 54.538572120566506
710.0 53.0211285224406
730.0 52.2264519766941
750.0 52.3571961818166
775.0 52.79760490452109
800.0 52.70549707911476
825.0 53.06371371001301
850.0 52.92339430634747
875.0 52.79316510850936
900.0 52.36511229822057
925.0 51.72075510561117
950.0 50.015168170276816
975.0 49.86701294720381
1000.0 51.43585196229635
1030.0 53.306113937678965
1060.0 53.462238602188755
1090.0 52.03165933153951
1120.0 51.533047600998664
1150.0 52.94908728126432
1180.0 54.29945616517491
1220.0 55.38379146714713
1250.0 55.47654690030098
1280.0 56.2459257028566
1320.0 54.9168960411718
1360.0 55.24068097787957
1400.0 55.14214554376989
1450.0 54.082429446750574
1500.0 54.00915253950141
1550.0 54.54842704501021
1600.0 55.56753167840713
1650.0 56.524617039846625
1700.0 56.37564117083631
1750.0 55.48907926780539
1800.0 55.58144700549938
1850.0 55.69238425864217
1900.0 54.797002306712095
1950.0 52.505454018570624
2000.0 55.53595724510945
2060.0 56.958188261416275
2120.0 56.47039465179187
2180.0 55.804664116007906
2240.0 54.129950011880986
2300.0 52.868118599963346
2360.0 52.65013709370857
2400.0 51.310029167428546
2500.0 50.72133595063999
2580.0 51.82295352120055
2650.0 53.27751848782919
2720.0 55.55521700768491
2800.0 54.89211953710568
2900.0 56.76106654149594
3000.0 56.21439377836993
3070.0 55.40780320393183
3150.0 56.286145949099655
3250.0 55.78983052480161
3350.0 54.61438889271222
3450.0 55.66544444665127
3550.0 54.565216776809145
3650.0 54.82830770633479
3750.0 54.74957994114906
3870.0 54.25155143477502
4000.0 53.212928060687155
4120.0 55.607207633810596
4250.0 57.51671957673809
4370.0 57.00384801139767
4500.0 56.51060004579285
4620.0 53.325916128518166
4750.0 52.67793070469049
4870.0 53.35375313451559
5000.0 56.24804715822071
5150.0 58.222931039131076
5300.0 58.125617988614216
5450.0 57.345424064929496
5600.0 56.01173995479396
5800.0 55.189349362539
6000.0 53.962823709358396
6150.0 53.23507099460932
6300.0 53.32265291051781
6500.0 53.23891957026945
6700.0 53.20193179595865
6900.0 54.30614660270859
7100.0 55.55398261452299
7300.0 55.64555879126048
7500.0 56.29275865827355
7750.0 56.39769440949568
8000.0 57.417360957548375
8250.0 57.423266641456
8500.0 58.530107680153186
8750.0 57.574062927928274
9000.0 57.527240334221425
9250.0 56.14180324888074
9500.0 55.602229017879104
9750.0 54.972249965851866
10000.0 52.790874951540495
10300.0 52.66449420751673
10600.0 50.23121335481324
10900.0 49.14655924387983
11200.0 47.11188171303521
11500.0 45.72141057323348
11800.0 46.15303252136345
12200.0 47.57238350555625
12500.0 47.933679917128764
12800.0 47.205239615481936
13200.0 47.236082446076416
13600.0 46.594695046452024
14000.0 45.3252809312603
14500.0 43.11754814517892
15000.0 45.286538349314775
15500.0 47.87805005458022
16000.0 47.4476663356028
16500.0 47.443557695752595
17000.0 47.8795224661153
17500.0 47.78577892961423
18000.0 40.95769464218568
18500.0 29.270397901250597
19000.0 28.386229856259384
19500.0 36.31062146406504
