Freq "Total Early Reflection"
22.4 -37.923587156167905
23.0 -37.15025296360334
23.6 -36.682339205185194
24.0 -33.01424254872517
25.0 -30.80847441226134
25.8 -29.217404127709095
26.5 -27.59526675726891
27.2 -26.306910964887884
28.0 -25.441826978589738
29.0 -24.49781604792414
30.0 -20.612989235520324
30.7 -15.927949338420653
31.5 -13.237422184547817
32.5 -10.0609527939095
33.5 -5.781898461385815
34.5 -2.465495505744137
35.5 0.8047822279560606
36.5 4.541371477553476
37.5 9.702495007835672
38.7 15.203079659663878
40.0 15.759853482745179
41.2 16.4180421292457
42.5 15.760098966312349
43.7 16.604402417814278
45.0 19.581481153791664
46.2 21.16079434981112
47.5 23.54559577694699
48.7 24.939063846320785
50.0 26.96417657793973
51.5 29.586140771287553
53.0 33.35498339544237
54.5 34.146025459006445
56.0 35.282028165833374
58.0 37.561541866138164
60.0 39.90977741961442
61.5 42.2137051317279
63.0 44.05492390421512
65.0 45.890921871312976
67.0 48.15087388797631
69.0 50.11544294634232
71.0 51.8588454908738
73.0 53.62494588867737
75.0 55.3772303997472
77.5 56.986143396867284
80.0 58.32438541326426
82.5 59.52972486329303
85.0 60.49235389498683
87.5 60.93624423428401
90.0 60.86214202843485
92.5 60.6147306556723
95.0 60.49254587225662
97.5 60.38388359221562
100.0 60.56440458933245
103.0 60.58713090127649
106.0 60.81434849570055
109.0 61.22323675567976
112.0 61.41031710229944
115.0 61.56480860544878
118.0 61.46040410195122
122.0 61.3917460099098
125.0 61.309259481078264
128.0 61.24877323622291
132.0 61.226728074678284
136.0 61.27384402017501
140.0 61.3315323387265
145.0 61.2403161298327
150.0 61.29598153558562
155.0 61.13014243031113
160.0 60.957573255207144
165.0 60.781228510215165
170.0 60.63866886139112
175.0 60.64871599989896
180.0 60.419394627407776
185.0 60.26315089832935
190.0 59.98185184976686
195.0 59.758425868447226
200.0 59.32243518331919
206.0 58.73366235229343
212.0 58.17153364777213
218.0 57.50262918832387
224.0 56.933220717415445
230.0 56.34358105165948
236.0 55.82180472801644
240.0 54.985392792159395
250.0 54.17307102424889
258.0 53.52878911600272
265.0 52.919813990431585
272.0 52.59519946429109
280.0 52.36295617465243
290.0 52.14982035498823
300.0 52.3363202755876
307.0 52.64399569505185
315.0 52.99259641050839
325.0 53.39041940484061
335.0 53.66883759507562
345.0 54.135337427726974
355.0 54.37042253238399
365.0 54.82113966896224
375.0 55.359686407638456
387.0 55.76289787537417
400.0 55.76364018132795
412.0 56.035627265082404
425.0 56.13122297487934
437.0 55.99837561429228
450.0 56.08055898444017
462.0 55.907911772156815
475.0 55.90034208390521
487.0 56.5512214927498
500.0 57.39710808544876
515.0 57.87056334474283
530.0 58.266511497934694
545.0 58.488178402813155
560.0 58.26722598348896
580.0 57.88837522642698
600.0 57.41689960011929
615.0 57.25687205108425
630.0 57.271809505142976
650.0 57.12981749097367
670.0 56.55538132556989
690.0 55.97897190584671
710.0 55.140976794985654
730.0 54.77794901397909
750.0 55.01694280517892
775.0 55.30097707637339
800.0 55.406848547158596
825.0 55.50158979733926
850.0 55.447855059729356
875.0 55.45275384639384
900.0 55.43708349945336
925.0 54.83658900154257
950.0 53.643981852270095
975.0 53.746522003104566
1000.0 55.008774681892966
1030.0 56.15121426080196
1060.0 56.78057727761068
1090.0 56.43824079956162
1120.0 55.89342393674709
1150.0 56.59028635119959
1180.0 57.33770487382859
1220.0 57.69307228518998
1250.0 57.430835772911756
1280.0 57.469265978138786
1320.0 57.147507292677496
1360.0 57.342462615161914
1400.0 57.589758396626486
1450.0 57.31585589034477
1500.0 56.97974610743274
1550.0 56.76294990535934
1600.0 56.77428833925051
1650.0 57.15255110113464
1700.0 57.407211558474565
1750.0 57.734759467341824
1800.0 57.84512489333385
1850.0 57.4739795745462
1900.0 56.62818430729333
1950.0 56.02808097497306
2000.0 57.20743650260109
2060.0 58.06466984326109
2120.0 57.086140360764425
2180.0 56.673984276494885
2240.0 56.058374257071044
2300.0 55.5009279348667
2360.0 54.93808331507085
2400.0 54.6718542253411
2500.0 55.095292453663696
2580.0 55.569176258865134
2650.0 55.908053098451724
2720.0 56.75659128988975
2800.0 56.6899351597196
2900.0 57.86181086144661
3000.0 57.39461439710828
3070.0 56.78965043353795
3150.0 57.901926692307946
3250.0 58.4110833483763
3350.0 57.90582994907721
3450.0 58.32287055650796
3550.0 57.60956581108366
3650.0 58.01874916502303
3750.0 57.9683300723319
3870.0 57.573239782837554
4000.0 57.41237882179032
4120.0 58.16548735577724
4250.0 58.377101872867776
4370.0 56.494597215925644
4500.0 56.25633635733252
4620.0 55.58628828524207
4750.0 56.59390462799528
4870.0 57.46699393286223
5000.0 59.17061863210508
5150.0 59.565617990348734
5300.0 58.441169974781126
5450.0 57.60368952502703
5600.0 56.34915862099323
5800.0 57.01544391550359
6000.0 56.47686072242542
6150.0 56.54971124816459
6300.0 56.8744356630092
6500.0 56.637593809680546
6700.0 55.43270252628296
6900.0 56.51012974980046
7100.0 58.83676476858685
7300.0 59.26006153111128
7500.0 60.262743043523365
7750.0 60.88460049112016
8000.0 61.37996159574006
8250.0 60.88946338938988
8500.0 60.89032417496431
8750.0 60.34604495703686
9000.0 60.46002831110261
9250.0 59.342007993404074
9500.0 58.059017903062205
9750.0 56.33344214457845
10000.0 53.996780383262184
10300.0 53.448199559402305
10600.0 51.35191573565874
10900.0 51.13062752694784
11200.0 50.332605840364174
11500.0 51.74224746573051
11800.0 53.340313913301536
12200.0 54.77052907304073
12500.0 54.57660409996692
12800.0 54.61622008325437
13200.0 54.91551879740417
13600.0 56.04832137352036
14000.0 57.370471809558786
14500.0 55.420258240630496
15000.0 54.08040897905632
15500.0 54.668363822390184
16000.0 53.290351479835046
16500.0 51.475452068216875
17000.0 51.33401689840607
17500.0 51.18126529902296
18000.0 47.60128797369436
18500.0 42.01871811169071
19000.0 39.63344517394258
19500.0 42.155365960346934
