Freq "Sound Power"
20.5078 54.36356857802777
21.9727 57.19975329999663
23.4375 58.73858021082013
24.9023 60.643259862651135
26.3672 62.61613598170605
27.832 64.057424446569
29.2969 65.77835066923241
30.7617 67.58245582630046
32.2266 69.1170068167835
33.6914 70.79066926890879
35.1562 72.43052644456462
36.6211 73.85200908761794
38.0859 75.34556726819149
39.5508 76.72031392235785
41.0156 78.590368661813
42.4805 79.0086431373041
43.9453 79.83419801166636
45.4102 80.61793417790301
46.875 81.0925691340224
48.3398 81.47124831876366
51.2695 81.95132633433941
52.7344 82.10429082547888
54.1992 82.17305254744981
55.6641 82.22488646150369
58.5938 82.30332865552008
60.0586 82.34684276590038
62.9883 82.490124702947
64.4531 82.55337573854621
67.3828 82.62868420435231
68.8477 82.693865008608
71.7773 82.84635879489794
74.707 83.06436907183313
77.6367 83.21828251381662
79.1016 83.2647948728018
82.0312 83.44369850637067
84.9609 83.61639263456222
87.8906 83.73915767228976
90.8203 84.03655926297047
95.2148 84.19019270780309
98.1445 84.38893531578555
101.074 84.4917319681262
105.469 84.74353292822722
108.398 84.9364300067606
112.793 85.07837818563064
117.188 85.24620019723632
120.117 85.3391521286184
124.512 85.41624663096015
128.906 85.5372583257777
133.301 85.6419545537509
139.16 85.7541471132657
143.555 85.80019093832742
147.949 85.85467108820995
153.809 85.89571913013857
159.668 86.00979466899662
165.527 86.06022066276638
171.387 86.03736205438283
177.246 85.94156847764455
183.105 85.9084436009097
188.965 85.86573396728791
196.289 85.76261874429683
203.613 85.63875024979303
210.938 85.53986806941222
218.262 85.46232923259082
225.586 85.38250769862887
232.91 85.22398387622883
241.699 84.92891453413993
250.488 84.96040013155236
259.277 84.888223151046
268.066 84.60939461178992
276.855 84.54014140843132
287.109 84.42415652553233
297.363 84.37294050952049
307.617 84.1948958179146
319.336 83.94699619942897
329.59 83.75995682694436
341.309 83.42814441002297
353.027 83.32460501416095
366.211 83.34418796832017
379.395 83.55275407468622
392.578 83.32805140130658
405.762 82.9532311638432
420.41 82.90997593631137
435.059 82.90811403050829
451.172 82.97822475960749
465.82 82.86006587708592
483.398 82.69573534520578
499.512 82.80970423283803
517.09 82.81884432675606
536.133 82.43245995188585
555.176 82.39602160657044
574.219 82.60396962517964
594.727 82.12523658110581
615.234 81.78403752007353
637.207 81.95235694834867
659.18 81.32488724268447
682.617 81.95240185291063
707.52 82.33544505650003
732.422 81.9547279713682
757.324 81.64550615301557
785.156 81.73841791463171
811.523 81.56181328130731
840.82 81.28036705402609
870.117 81.22610295897933
900.879 81.15377744171168
933.105 81.11260622340477
965.332 80.51068967345707
1000.49 81.06201910542754
1035.64 80.85132440096781
1072.27 80.66083304819891
1108.89 80.2022536237357
1148.44 80.08924496433315
1189.45 79.63030821757731
1230.47 80.03080415312486
1274.41 80.35285226190986
1319.82 80.88654246548445
1366.7 81.44374560000449
1413.57 81.63323215499648
1463.38 80.90643453051928
1516.11 80.39728819153436
1568.85 79.87337780926374
1624.51 79.93022516488284
1681.64 80.40236742535387
1741.7 80.27979144510128
1803.22 80.20934335268126
1866.21 80.03406721523437
1932.13 79.6041585639366
1999.51 79.45691550401911
2069.82 79.36093442360759
2143.07 79.22192994597557
2219.24 78.65778510769447
2296.88 79.17574489138575
2378.91 79.60141282626135
2462.4 80.45573897555724
2548.83 80.77300413984477
2639.65 80.30989086504492
2731.93 79.80470423024275
2828.61 79.98391228084257
2928.22 80.61708564614396
3030.76 80.63034713952658
3137.7 80.62309504245056
3249.02 80.61259377467711
3363.28 80.57585379825171
3481.93 80.67378263528323
3604.98 80.63906710345383
3732.42 80.73177983458797
3864.26 80.36896487600178
4000.49 80.58838695568137
4141.11 80.97614095035256
4287.6 81.23140603749147
4438.48 81.13730437514788
4595.21 80.85397809702114
4756.35 81.07382579443232
4924.8 81.43926104264521
5097.66 81.00949654530116
5277.83 80.90626562601689
5463.87 80.77424278725088
5657.23 80.56573009231809
5856.45 80.86288133068064
6062.99 80.93384229020295
6276.86 80.79638223281488
6498.05 80.6997533563345
6726.56 80.65363256299048
6963.87 80.50175534931019
7209.96 80.63391494703754
7464.84 80.19099858013244
7727.05 80.06530248703702
7999.51 79.72570257379054
8282.23 79.83998288206737
8573.73 79.72331886607205
8876.95 79.70402840309359
9188.96 79.64924172545655
9514.16 79.37979813033235
9849.61 79.28547328686618
10196.8 79.1158750525556
10555.7 79.02766584477799
10927.7 78.7734956222762
11313.0 78.6513605468709
11712.9 78.28529652218808
12126.0 77.90984991578941
12553.7 77.64987578434733
12996.1 77.1391504940256
13454.6 76.39214043478843
13929.2 75.4854201760613
14419.9 74.949202707428
14928.2 74.25495271339773
15455.6 73.40116234305245
16000.5 73.4645154051215
16564.5 73.47060495839203
17148.9 72.88199378422905
17752.4 72.12327397741728
18379.4 71.4310423711586
19026.9 71.20701050203506
19697.8 71.02135453529304
19999.5 70.89585361859731
