Freq "On Axis"
20.0 69.69946540880504
20.2909 70.05846540880503
20.586 70.38046540880504
20.8855 70.68146540880505
21.1893 71.00046540880504
21.4975 71.33846540880504
21.8102 71.69246540880503
22.1274 72.06346540880504
22.4492 72.43446540880504
22.7758 72.80646540880502
23.1071 73.19446540880506
23.4432 73.60646540880504
23.7841 74.03546540880504
24.1301 74.45946540880504
24.4811 74.86946540880504
24.8372 75.25146540880505
25.1984 75.61046540880503
25.5649 75.94846540880502
25.9368 76.27946540880504
26.3141 76.59946540880503
26.6968 76.90346540880503
27.0851 77.19446540880503
27.4791 77.48246540880504
27.8788 77.77146540880504
28.2843 78.06046540880504
28.6957 78.34446540880504
29.1131 78.62046540880505
29.5365 78.88546540880503
29.9661 79.14446540880505
30.402 79.40746540880502
30.8442 79.66946540880504
31.2929 79.92746540880505
31.748 80.17746540880505
32.2098 80.41546540880505
32.6783 80.65546540880504
33.1536 80.90446540880504
33.6359 81.15946540880505
34.1251 81.41646540880504
34.6215 81.66346540880502
35.125 81.90546540880504
35.6359 82.14546540880505
36.1543 82.38246540880505
36.6802 82.61446540880505
37.2137 82.83946540880504
37.755 83.05746540880506
38.3041 83.27046540880504
38.8613 83.47946540880504
39.4265 83.68546540880504
40.0 83.89346540880504
40.5818 84.10046540880504
41.1721 84.31046540880504
41.771 84.52046540880504
42.3785 84.73446540880504
42.9949 84.95246540880504
43.6203 85.17146540880505
44.2548 85.39246540880504
44.8985 85.61346540880504
45.5515 85.82746540880504
46.2141 86.01146540880504
46.8863 86.15846540880503
47.5683 86.27446540880504
48.2602 86.37046540880505
48.9621 86.46346540880504
49.6743 86.55046540880505
50.3968 86.62246540880504
51.1299 86.68246540880504
51.8736 86.74446540880504
52.6281 86.82546540880504
53.3936 86.93046540880505
54.1702 87.04746540880504
54.9581 87.16546540880505
55.7575 87.29246540880504
56.5685 87.41946540880505
57.3914 87.53346540880504
58.2261 87.63746540880504
59.073 87.72846540880504
59.9323 87.80646540880502
60.804 87.86746540880505
61.6884 87.91746540880504
62.5857 87.95846540880504
63.496 87.98546540880504
64.4196 88.00446540880505
65.3566 88.02246540880505
66.3073 88.03646540880504
67.2717 88.04646540880503
68.2502 88.04546540880504
69.2429 88.02146540880504
70.2501 87.98146540880504
71.2719 87.93746540880505
72.3086 87.89446540880505
73.3603 87.84746540880505
74.4274 87.80546540880505
75.5099 87.77346540880504
76.6083 87.74646540880502
77.7226 87.72346540880505
78.8531 87.71046540880505
80.0 87.70946540880504
81.1636 87.72046540880504
82.3442 87.74746540880504
83.5419 87.77846540880505
84.757 87.78846540880504
85.9899 87.77746540880504
87.2406 87.75146540880505
88.5096 87.69546540880503
89.797 87.61646540880506
91.1031 87.53146540880505
92.4282 87.43346540880505
93.7726 87.32046540880503
95.1366 87.20946540880504
96.5204 87.12346540880505
97.9243 87.07946540880504
99.3486 87.06646540880504
100.794 87.06746540880503
102.26 87.08046540880504
103.747 87.11046540880504
105.256 87.15146540880502
106.787 87.20746540880504
108.34 87.26246540880504
109.916 87.28446540880503
111.515 87.28146540880505
113.137 87.28846540880502
114.783 87.30346540880504
116.452 87.30946540880504
118.146 87.31546540880504
119.865 87.33046540880504
121.608 87.36146540880503
123.377 87.39046540880504
125.171 87.41246540880505
126.992 87.41846540880505
128.839 87.40446540880504
130.713 87.39146540880503
132.615 87.39246540880504
134.543 87.39846540880504
136.5 87.39846540880504
138.486 87.37846540880503
140.5 87.34546540880504
142.544 87.32146540880504
144.617 87.30346540880504
146.721 87.28346540880504
148.855 87.25046540880504
151.02 87.20446540880504
153.217 87.15746540880504
155.445 87.11646540880504
157.706 87.07746540880504
160.0 87.03546540880504
162.327 86.98946540880505
164.688 86.96846540880505
167.084 86.97146540880505
169.514 86.98346540880505
171.98 87.00546540880504
174.481 87.02946540880504
177.019 87.05446540880504
179.594 87.07946540880504
182.206 87.08846540880504
184.856 87.08846540880504
187.545 87.09146540880502
190.273 87.11046540880504
193.041 87.13146540880504
195.849 87.15746540880504
198.697 87.19946540880504
201.587 87.25646540880504
204.52 87.33146540880503
207.494 87.41146540880504
210.512 87.47846540880504
213.574 87.53246540880502
216.681 87.56446540880503
219.833 87.58846540880504
223.03 87.61146540880505
226.274 87.63246540880505
229.565 87.65146540880504
232.905 87.67346540880504
236.292 87.68446540880504
239.729 87.67846540880504
243.216 87.65646540880505
246.754 87.62046540880505
250.343 87.57246540880504
253.984 87.51646540880505
257.678 87.46946540880504
261.426 87.43846540880503
265.229 87.42046540880504
269.087 87.41546540880506
273.001 87.43246540880506
276.972 87.46446540880504
281.0 87.49546540880505
285.088 87.49646540880505
289.234 87.50246540880502
293.441 87.53746540880505
297.709 87.57046540880503
302.04 87.61746540880505
306.433 87.66446540880504
310.89 87.70846540880504
315.412 87.76046540880505
320.0 87.79346540880505
324.655 87.76446540880504
329.377 87.66846540880505
334.168 87.53546540880504
339.028 87.41146540880504
343.959 87.31246540880505
348.962 87.28746540880505
354.038 87.34046540880504
359.188 87.41646540880504
364.412 87.50146540880505
369.713 87.59446540880504
375.09 87.66146540880504
380.546 87.70646540880506
386.081 87.74446540880504
391.697 87.75746540880505
397.394 87.74946540880504
403.175 87.72146540880505
409.039 87.67146540880505
414.989 87.61946540880504
421.025 87.60246540880505
427.149 87.66146540880504
433.362 87.74946540880504
439.665 87.86346540880504
446.06 87.98146540880504
452.548 88.09746540880502
459.131 88.19746540880504
465.809 88.24846540880505
472.584 88.24146540880506
479.458 88.18746540880502
486.432 88.07546540880504
493.507 87.98246540880504
500.686 87.93446540880504
507.968 87.92246540880504
515.357 87.93246540880504
522.853 87.98646540880503
530.458 88.05346540880504
538.174 88.07746540880504
546.002 88.11146540880505
553.943 88.14846540880504
562.001 88.11546540880504
570.175 88.04446540880505
578.469 87.91746540880504
586.883 87.82646540880503
595.419 87.79046540880505
604.08 87.80846540880505
612.866 87.93946540880503
621.78 88.03046540880504
630.824 88.07946540880504
640.0 88.19346540880504
649.309 88.25646540880504
658.753 88.37746540880504
668.335 88.51546540880506
678.056 88.54846540880504
687.919 88.48746540880504
697.925 88.33846540880504
708.077 88.10246540880505
718.376 87.95746540880504
728.825 87.94846540880503
739.426 87.97346540880503
750.181 88.01846540880504
761.093 88.04646540880503
772.163 87.97646540880504
783.394 87.91346540880502
794.789 87.83946540880504
806.349 87.76046540880505
818.078 87.70646540880506
829.977 87.62446540880504
842.05 87.53346540880504
854.298 87.44246540880502
866.724 87.34546540880504
879.33 87.21746540880504
892.12 87.06446540880503
905.097 86.94646540880504
918.262 86.86446540880505
931.618 86.87746540880502
945.169 86.92346540880504
958.917 86.93146540880505
972.864 86.85946540880504
987.015 86.71946540880504
1001.37 86.67446540880505
1015.94 86.67346540880504
1030.71 86.83546540880504
1045.71 87.12246540880504
1060.92 87.34346540880505
1076.35 87.46546540880504
1092.0 87.47946540880505
1107.89 87.46846540880503
1124.0 87.52846540880503
1140.35 87.66746540880504
1156.94 87.82346540880502
1173.77 87.96146540880504
1190.84 88.01446540880505
1208.16 87.97346540880503
1225.73 87.92246540880504
1243.56 87.88146540880504
1261.65 87.82446540880504
1280.0 87.77946540880504
1298.62 87.71146540880504
1317.51 87.63346540880505
1336.67 87.62146540880504
1356.11 87.65946540880506
1375.84 87.67546540880504
1395.85 87.63646540880504
1416.15 87.68346540880505
1436.75 87.83346540880504
1457.65 88.02046540880502
1478.85 88.18946540880503
1500.36 88.19246540880503
1522.19 88.10946540880504
1544.33 88.02546540880505
1566.79 87.93346540880506
1589.58 87.75246540880504
1612.7 87.47046540880504
1636.16 87.21546540880504
1659.95 87.12346540880505
1684.1 87.17246540880504
1708.6 87.27046540880504
1733.45 87.37146540880504
1758.66 87.51246540880504
1784.24 87.63046540880504
1810.19 87.61146540880505
1836.52 87.58246540880504
1863.24 87.53046540880504
1890.34 87.36246540880504
1917.83 87.11446540880505
1945.73 86.92146540880505
1974.03 86.94646540880504
2002.74 86.92446540880505
2031.87 86.95646540880504
2061.43 87.15446540880504
2091.41 87.28146540880505
2121.83 87.22746540880505
2152.69 86.97546540880504
2184.01 86.77146540880504
2215.77 86.72646540880504
2248.0 86.79146540880504
2280.7 86.85246540880505
2313.87 86.98446540880502
2347.53 87.20946540880504
2381.68 87.35146540880504
2416.32 87.44646540880504
2451.46 87.33246540880504
2487.12 87.05046540880504
2523.3 86.87146540880505
2560.0 86.80546540880505
2597.24 86.87246540880504
2635.01 86.97346540880504
2673.34 86.87446540880504
2712.23 86.71146540880504
2751.68 86.59146540880504
2791.7 86.80946540880504
2832.31 87.01146540880504
2873.5 86.94846540880505
2915.3 86.56646540880504
2957.7 86.06546540880504
3000.72 85.81946540880504
3044.37 85.95246540880504
3088.65 86.16946540880505
3133.58 86.07346540880503
3179.16 85.81146540880502
3225.4 85.46646540880504
3272.31 85.43646540880503
3319.91 85.67346540880504
3368.2 86.16346540880504
3417.19 86.61146540880505
3466.89 86.49946540880504
3517.32 85.88446540880503
3568.48 85.79646540880505
3620.39 86.24646540880505
3673.05 86.71046540880502
3726.47 86.71746540880505
3780.67 86.50046540880504
3835.67 86.38046540880504
3891.46 86.50746540880505
3948.06 86.58546540880504
4005.49 86.61146540880505
4063.75 86.70446540880505
4122.86 86.77846540880505
4182.82 86.69346540880503
4243.66 86.57446540880504
4305.39 86.67546540880504
4368.01 86.67746540880505
4431.55 86.48146540880504
4496.01 86.43546540880504
4561.4 86.52446540880504
4627.75 86.49846540880505
4695.06 86.60646540880504
4763.35 86.93446540880504
4832.64 87.04246540880504
4902.93 86.46846540880505
4974.24 86.62446540880504
5046.6 87.17146540880506
5120.0 87.39946540880504
5194.47 87.34246540880505
5270.03 87.54746540880504
5346.68 87.99746540880506
5424.45 88.07546540880504
5503.35 87.79346540880505
5583.4 87.78446540880505
5664.61 87.87346540880506
5747.01 87.67246540880504
5830.6 87.29446540880504
5915.41 87.10646540880504
6001.45 87.19746540880504
6088.74 87.33446540880504
6177.3 86.81546540880504
6267.15 86.78246540880504
6358.31 86.92046540880503
6450.8 87.15246540880504
6544.62 86.63346540880502
6639.82 86.61546540880504
6736.4 87.12646540880505
6834.38 87.07146540880504
6933.79 86.96346540880504
7034.64 87.25046540880504
7136.96 87.50046540880504
7240.77 87.39946540880504
7346.09 87.38446540880504
7452.94 87.70746540880504
7561.35 87.79346540880505
7671.33 87.66446540880504
7782.91 87.66546540880503
7896.12 87.79846540880504
8010.97 87.75646540880504
8127.49 87.80746540880504
8245.71 87.70246540880504
8365.65 87.77446540880504
8487.33 87.52546540880505
8610.78 87.37546540880504
8736.03 86.63746540880504
8863.09 86.56246540880504
8992.01 87.40946540880505
9122.8 87.49646540880505
9255.5 87.59846540880504
9390.12 87.72146540880505
9526.7 87.27746540880504
9665.27 87.36446540880505
9805.86 87.36346540880504
9948.49 87.57446540880504
10093.2 87.92446540880505
10240.0 87.94546540880503
10388.9 87.91746540880504
10540.1 87.72846540880504
10693.4 87.68646540880502
10848.9 87.46846540880503
11006.7 87.49646540880505
11166.8 87.54946540880505
11329.2 87.74946540880504
11494.0 87.89146540880505
11661.2 88.08246540880504
11830.8 88.15346540880503
12002.9 88.25446540880506
12177.5 88.20346540880504
12354.6 88.47446540880503
12534.3 88.52946540880504
12716.6 88.67746540880505
12901.6 88.70646540880504
13089.2 88.69546540880503
13279.6 88.72346540880504
13472.8 88.49846540880506
13668.8 88.39446540880505
13867.6 88.24446540880504
14069.3 88.40546540880504
14273.9 88.38846540880505
14481.5 88.30046540880504
14692.2 87.68246540880503
14905.9 88.23746540880504
15122.7 87.74346540880504
15342.7 87.94746540880504
15565.8 87.80846540880505
15792.2 87.06346540880504
16021.9 86.40346540880505
16255.0 87.14946540880504
16491.4 86.16446540880504
16731.3 85.36946540880504
16974.7 85.11246540880504
17221.6 85.78146540880505
17472.1 86.08546540880502
17726.2 84.94146540880504
17984.0 83.91546540880503
18245.6 85.77746540880503
18511.0 85.12346540880505
18780.2 84.41146540880504
19053.4 84.28746540880505
19330.5 84.63646540880504
19611.7 84.96146540880504
19897.0 85.11746540880505
