Freq "Ceiling Bounce"
22.4 46.508404396134154
23.0 48.0638104722716
23.6 49.578290955893806
24.0 51.87829095589382
25.0 53.89305892027784
25.8 55.50811906767214
26.5 56.96746466663842
27.2 58.523476137282046
28.0 59.85510017661545
29.0 61.05510017661547
30.0 62.37137679706828
30.7 63.92843343343131
31.5 65.30488360217561
32.5 66.56227190599319
33.5 67.89742480089824
34.5 69.11550659235185
35.5 70.21550659235184
36.5 71.25270592623133
37.5 72.21152699540306
38.7 73.03083644122569
40.0 73.75050718524295
41.2 74.3909529026224
42.5 75.01173806284328
43.7 75.49340724183762
45.0 75.95445848526063
46.2 76.25984568729274
47.5 76.55984568729275
48.7 76.60615252762366
50.0 76.62992552238313
51.5 76.71659062692784
53.0 76.86668408046667
54.5 77.09238414975147
56.0 77.38239860760774
58.0 77.60920925226938
60.0 77.83647412390414
61.5 78.19238562216104
63.0 78.45768127821952
65.0 78.71592692226707
67.0 78.8457671943847
69.0 78.90690501035459
71.0 78.80542400732661
73.0 78.93746771551315
75.0 79.10542400732662
77.5 79.27150800786937
80.0 79.10531806766471
82.5 79.10906430015984
85.0 79.17449351030437
87.5 79.20986628672328
90.0 79.14576719438469
92.5 79.11592692226706
95.0 78.98982856673473
97.5 78.8898285667347
100.0 78.82758719283592
103.0 78.76588846059687
106.0 78.86588846059686
109.0 79.06588846059687
112.0 79.43331023801676
115.0 79.83331023801676
118.0 79.83331023801676
122.0 79.67244826645843
125.0 79.56235742942079
128.0 79.53049751401599
132.0 79.26235742942079
136.0 78.86023818113064
140.0 78.49188145404554
145.0 78.22188682922213
150.0 77.62188682922212
155.0 76.75237800738083
160.0 75.58407839372549
165.0 74.45237800738082
170.0 73.81483523633479
175.0 73.11483523633478
180.0 72.3148352363348
185.0 71.7840783937255
190.0 71.7840783937255
195.0 72.58407839372549
200.0 73.95380974359446
206.0 75.39188145404555
212.0 76.76235742942079
218.0 77.8012357262664
224.0 78.67244826645845
230.0 79.24413052381576
236.0 79.71627783177748
240.0 79.98888547155002
250.0 80.10265450340339
258.0 80.17641629732151
265.0 80.22526453928849
272.0 80.12526453928848
280.0 80.00034112939827
290.0 79.85177437534742
300.0 79.5517743753474
307.0 79.28573781157955
315.0 78.86226919657724
325.0 78.42021956404324
335.0 77.92021956404322
345.0 77.24391589069238
355.0 76.4925701141361
365.0 75.65866027600835
375.0 74.95866027600835
387.0 74.42526453928849
400.0 74.11832544184972
412.0 74.06136837622763
425.0 74.31457895753309
437.0 74.8361070797735
450.0 75.53753193576905
462.0 76.0625132206552
475.0 76.42180052683973
487.0 76.36893616304387
500.0 75.9493489016972
515.0 75.06893616304386
530.0 73.88888863538651
545.0 72.74197022557485
560.0 72.11638770313007
580.0 72.23753193576903
600.0 72.49220047151572
615.0 72.51638770313008
630.0 72.26893616304386
650.0 71.81378996755589
670.0 71.51498382011471
690.0 71.59083949114904
710.0 72.80034112939828
730.0 75.06419800295964
750.0 77.32349685065981
775.0 78.92926676879422
800.0 79.69965439277178
825.0 79.87215664893684
850.0 79.34680047887707
875.0 78.45858760124327
900.0 77.76194729184085
925.0 77.1969370438189
950.0 76.41655999317607
975.0 75.27872996753788
1000.0 74.33696012594369
1030.0 74.15521969308378
1060.0 74.74258273663014
1090.0 75.47245249207644
1120.0 75.93638088039144
1150.0 75.83012177221653
1180.0 74.40807851055699
1220.0 71.98120661450054
1250.0 70.33051385117167
1280.0 70.70370209631378
1320.0 71.13386746839947
1360.0 70.21124970721759
1400.0 69.69265755490996
1450.0 69.83695108716925
1500.0 68.75243652821501
1550.0 66.348525514475
1600.0 64.44879285571511
1650.0 62.824388982788804
1700.0 61.61916705502752
1750.0 62.43510550729974
1800.0 62.44088138244294
1850.0 62.248690135370694
1900.0 64.46319866652692
1950.0 66.29561295623506
2000.0 66.58509485802375
2060.0 66.66283617001537
2120.0 65.10943953665227
2180.0 63.76859045933918
2240.0 64.79898396407431
2300.0 65.6034135819828
2360.0 65.15308911183314
2400.0 64.61317722264143
2500.0 63.961236837193695
2580.0 64.16622401291977
2650.0 64.931064847812
2720.0 65.07617418613408
2800.0 65.838581192224
2900.0 67.22129597378644
3000.0 66.2561283432411
3070.0 64.94017712961599
3150.0 63.33366374812309
3250.0 64.37093249231427
3350.0 65.32843343343131
3450.0 66.9918007865745
3550.0 65.40391141983602
3650.0 65.722869040822
3750.0 66.30242922576686
3870.0 65.6205727933722
4000.0 65.14050345837428
4120.0 66.01678155938055
4250.0 65.81141089427591
4370.0 64.79039126596282
4500.0 65.56407948744143
4620.0 66.83063574568854
4750.0 66.93264353543223
4870.0 66.69165391074552
5000.0 68.25255044133479
5150.0 68.6373257360721
5300.0 67.47691451983917
5450.0 66.85113618833881
5600.0 65.23333606359368
5800.0 65.90018176743453
6000.0 66.37572801847607
6150.0 66.3531574813214
6300.0 64.56739147265057
6500.0 63.53700062225714
6700.0 64.93598672337149
6900.0 65.48506975681548
7100.0 66.26142965586368
7300.0 67.76915788647945
7500.0 67.89061414884667
7750.0 67.18531467818934
8000.0 66.73099025260487
8250.0 67.12299570617506
8500.0 66.62603621628804
8750.0 66.77969334658988
9000.0 64.51910119791776
9250.0 65.97938128519206
9500.0 62.701306250838144
9750.0 66.46756938529856
10000.0 64.98017590682613
10300.0 65.89786491005914
10600.0 63.76081282856882
10900.0 65.79707065012053
11200.0 61.7372352180728
11500.0 61.85780730191027
11800.0 64.15720370462115
12200.0 65.74686547290104
12500.0 64.52285999755263
12800.0 63.13696012594369
13200.0 61.486070260640176
13600.0 66.88591413862913
14000.0 65.41658036590303
14500.0 66.28155303979669
15000.0 63.491290094607976
15500.0 64.59288071667498
16000.0 63.90358767157589
16500.0 59.751132942957554
17000.0 64.02457476005074
17500.0 63.14559926092345
18000.0 59.29661277224194
18500.0 63.742338290030375
19000.0 59.56974806126138
19500.0 58.371194659772556
