Freq "Front Wall Bounce"
22.4 41.896932963263154
23.0 43.65004319401906
23.6 45.40624011317088
24.0 47.9322094859598
25.0 50.232209485959814
25.8 52.059864898080534
26.5 53.732209485959814
27.2 55.54247739630897
28.0 57.16882969878006
29.0 58.568829698780064
30.0 60.068829698780064
30.7 61.86882969878006
31.5 63.49689035541459
32.5 64.95187386548808
33.5 66.55187386548808
34.5 67.95187386548808
35.5 69.25187386548808
36.5 70.55187386548808
37.5 71.68004393614281
38.7 72.75187386548808
40.0 73.6800439361428
41.2 74.50677663913568
42.5 75.2800439361428
43.7 75.9800439361428
45.0 76.60677663913567
46.2 77.13523979093107
47.5 77.59035192176468
48.7 77.83523979093108
50.0 78.06351761253588
51.5 78.31892256906953
53.0 78.61892256906954
54.5 79.01892256906953
56.0 79.41892256906954
58.0 79.79035192176467
60.0 80.19035192176467
61.5 80.69035192176467
63.0 81.09035192176468
65.0 81.41892256906952
67.0 81.69035192176467
69.0 81.81892256906953
71.0 81.84603298028449
73.0 82.06224885006768
75.0 82.34603298028448
77.5 82.5460329802845
80.0 82.49100436398312
82.5 82.49100436398312
85.0 82.61828906517609
87.5 82.69100436398313
90.0 82.64603298028449
92.5 82.61828906517609
95.0 82.51828906517609
97.5 82.41828906517607
100.0 82.27489570678641
103.0 82.17489570678639
106.0 82.17489570678639
109.0 82.29100436398313
112.0 82.57489570678639
115.0 82.87489570678639
118.0 82.71892256906953
122.0 82.41892256906955
125.0 82.1761607804711
128.0 82.0048246308923
132.0 81.54985305921129
136.0 80.94985305921128
140.0 80.44985305921126
145.0 79.99545206432329
150.0 79.32532959138727
155.0 78.32532959138727
160.0 77.08136796239529
165.0 75.85384957474133
170.0 75.22800966543187
175.0 74.58471380885621
180.0 73.8578445320159
185.0 73.38410403475054
190.0 73.54198234716428
195.0 74.5108118344119
200.0 76.0108118344119
206.0 77.6379727652667
212.0 79.11203793516128
218.0 80.31203793516129
224.0 81.31203793516129
230.0 82.03797276526672
236.0 82.56559161814825
240.0 82.90934798359972
250.0 83.10934798359972
258.0 83.20748604150724
265.0 83.16559161814823
272.0 83.06559161814823
280.0 82.86559161814826
290.0 82.52240107820748
300.0 82.05011882069675
307.0 81.4810094856381
315.0 80.83832657103392
325.0 80.06594318112631
335.0 79.33832657103393
345.0 78.55533114690876
355.0 77.89883348218352
365.0 77.23411574666662
375.0 76.74291482689704
387.0 76.35990560599006
400.0 76.08465496881674
412.0 76.0160131049083
425.0 76.16523495020336
437.0 76.5427970348454
450.0 77.09746408444563
462.0 77.57519249137009
475.0 77.82013682659506
487.0 77.77080143347548
500.0 77.34564622939696
515.0 76.49772398748283
530.0 75.41997661755687
545.0 74.34901245292467
560.0 73.98753992737475
580.0 74.56996789856989
600.0 75.5492880167103
615.0 76.45876010145822
630.0 77.10783236580649
650.0 77.69771899545078
670.0 78.33722683136217
690.0 79.22898823919249
710.0 80.18655536891445
730.0 81.09286376807694
750.0 81.89838114366329
775.0 82.45889771776797
800.0 82.63590316805414
825.0 82.26910891534219
850.0 81.41744258912951
875.0 80.48959085970502
900.0 80.24452794722275
925.0 80.61309055656305
950.0 80.79880652260002
975.0 80.57803146319424
1000.0 80.12667477771515
1030.0 79.88638423818992
1060.0 79.67662239294668
1090.0 79.41636939314995
1120.0 79.35541714897235
1150.0 79.37970080773563
1180.0 79.24501533433174
1220.0 79.1986446021918
1250.0 79.43281448352928
1280.0 79.28198614617722
1320.0 78.04776099047682
1360.0 76.44336755349534
1400.0 76.14673037263827
1450.0 76.47971477429512
1500.0 76.8070702717928
1550.0 77.69719619814963
1600.0 78.20060780177963
1650.0 78.5604284031596
1700.0 78.8788237247941
1750.0 78.27836893295877
1800.0 77.04673099211034
1850.0 76.4251456868265
1900.0 77.01441945522859
1950.0 77.42230718750298
2000.0 77.52304961972537
2060.0 77.89932138130611
2120.0 78.05545863246657
2180.0 78.09457991074993
2240.0 77.8882685446125
2300.0 77.91785998011783
2360.0 78.07573055432296
2400.0 78.5430370948708
2500.0 78.80330255893186
2580.0 78.5027978836667
2650.0 78.46385524542761
2720.0 78.3302145565724
2800.0 78.19349625192807
2900.0 78.69891336969069
3000.0 78.94930710088538
3070.0 79.06327877534365
3150.0 79.2928488059405
3250.0 79.59996729622901
3350.0 79.55558967330722
3450.0 79.59369226776252
3550.0 79.90898597951377
3650.0 80.01477312743951
3750.0 79.89797322006191
3870.0 79.3076058566273
4000.0 79.3010358655736
4120.0 79.62789061420472
4250.0 79.93298169304914
4370.0 80.15920982201189
4500.0 79.85213718326173
4620.0 80.24401358607022
4750.0 80.60177268334452
4870.0 80.75622296601173
5000.0 81.15526091805025
5150.0 81.97823486662065
5300.0 82.77282188432018
5450.0 82.59998988127553
5600.0 81.86868113782789
5800.0 81.35127617979194
6000.0 81.98789223525965
6150.0 81.73707135135511
6300.0 80.68141148919888
6500.0 80.25523227625897
6700.0 79.99579425051466
6900.0 79.5667970978199
7100.0 80.25421870872981
7300.0 81.65735195938794
7500.0 81.56274019241629
7750.0 80.84558972529241
8000.0 81.10482984855119
8250.0 81.61384112481728
8500.0 81.95617629360801
8750.0 81.57149393754679
9000.0 81.48773483547416
9250.0 81.8934013060892
9500.0 82.00686923618392
9750.0 82.56204793512491
10000.0 82.09218850109315
10300.0 81.93383212928659
10600.0 82.0161247905817
10900.0 81.2774219143446
11200.0 80.61922808856379
11500.0 79.19036043015332
11800.0 80.91878118275942
12200.0 81.63628230728328
12500.0 82.22111753187292
12800.0 79.16549608926877
13200.0 81.25251456110284
13600.0 77.98340600442491
14000.0 75.89912049241657
14500.0 79.41085116965449
15000.0 78.80512496471336
15500.0 77.74556446187778
16000.0 78.45889630564126
16500.0 75.39177453611042
17000.0 78.56672883348806
17500.0 79.55163892903975
18000.0 77.89434631391309
18500.0 83.03937803467797
19000.0 77.26868854821767
19500.0 80.81364420015319
