Freq "Rear Wall Bounce"
22.4 44.40882333308967
23.0 45.956255041906715
23.6 47.52373074628956
24.0 49.83865957720626
25.0 51.84359328384345
25.8 53.49158612642138
26.5 54.97427030408086
27.2 56.55749438087928
28.0 57.93876478162595
29.0 59.1787274260235
30.0 60.471218903942315
30.7 62.06487640226301
31.5 63.46045117879005
32.5 64.74068125877439
33.5 66.09797016715873
34.5 67.3269232999126
35.5 68.44343117924453
36.5 69.48310142107009
37.5 70.44678914981388
38.7 71.30960425563377
40.0 72.03484401368944
41.2 72.69409734273447
42.5 73.28320562563239
43.7 73.79490594354782
45.0 74.25336978934946
46.2 74.60383394747863
47.5 74.8945665287487
48.7 74.96124693582654
50.0 75.00607299311703
51.5 75.12535176944117
53.0 75.27916384168401
54.5 75.49646624418634
56.0 75.7536268133444
58.0 75.99746644298811
60.0 76.27392067458644
61.5 76.60673063397057
63.0 76.89044663574374
65.0 77.09931406797617
67.0 77.26846563543477
69.0 77.3163785200292
71.0 77.25839402247082
73.0 77.4109116064801
75.0 77.58400303244409
77.5 77.71991552485282
80.0 77.60453531834303
82.5 77.56317399969073
85.0 77.63556083236263
87.5 77.70419297420558
90.0 77.61971354439913
92.5 77.58072730195451
95.0 77.47730082314264
97.5 77.3869962381553
100.0 77.2794218517462
103.0 77.1985317082365
106.0 77.27872647750061
109.0 77.4680125444666
112.0 77.85448681036485
115.0 78.22060483487816
118.0 78.19053730713995
122.0 77.99961088353764
125.0 77.88587009174985
128.0 77.81917435444656
132.0 77.50895056548146
136.0 77.05077106764487
140.0 76.62321386425873
145.0 76.2674566132713
150.0 75.67679073666255
155.0 74.6676937099554
160.0 73.41243351923613
165.0 72.1172283129285
170.0 71.39827629193998
175.0 70.56423164281307
180.0 69.65221238121444
185.0 68.91262781837256
190.0 68.78500824961743
195.0 69.45204591261123
200.0 70.67698569094881
206.0 71.96516714560872
212.0 73.14705526534202
218.0 74.08005604218776
224.0 74.8043503153125
230.0 75.30216730821734
236.0 75.60216730821735
240.0 75.76959082575495
250.0 75.8228595877477
258.0 75.77410582985915
265.0 75.65148370128826
272.0 75.49572947353089
280.0 75.22646079356299
290.0 74.94138507676429
300.0 74.48795776833266
307.0 73.9807325330893
315.0 73.34980307177777
325.0 72.57958398207892
335.0 71.61822435889832
345.0 70.41230733194696
355.0 68.90852708075296
365.0 67.33052047119044
375.0 66.0075154577922
387.0 65.16026745672426
400.0 64.64560770694156
412.0 64.44425989635057
425.0 64.50204424259057
437.0 64.72594645207309
450.0 64.97962106755132
462.0 65.1345328234448
475.0 65.09879532638716
487.0 64.93869958451748
500.0 64.7289996556031
515.0 64.4072627966735
530.0 64.08118039988915
545.0 63.908696556928476
560.0 64.25644913966569
580.0 65.13243723656493
600.0 65.77503774674243
615.0 65.78663844900908
630.0 65.49000315173829
650.0 65.48882706700545
670.0 66.36598539685191
690.0 68.17467745435513
710.0 70.36624583265545
730.0 72.07824678602293
750.0 72.57820799251404
775.0 72.09481022703523
800.0 71.00429785860241
825.0 69.55318834347352
850.0 67.78512847489658
875.0 65.94235710522761
900.0 64.32644443127246
925.0 63.245572898454085
950.0 62.45730760394186
975.0 61.53976715802855
1000.0 60.601599685793204
1030.0 60.043310573080745
1060.0 59.90685635159183
1090.0 59.71747943871857
1120.0 58.88355597477826
1150.0 57.276900011884734
1180.0 55.40332507193749
1220.0 54.605823354928546
1250.0 55.21469727307364
1280.0 56.83387096478435
1320.0 58.68293338962653
1360.0 59.60243291815141
1400.0 59.815815168849866
1450.0 59.43973900724758
1500.0 59.308766336182984
1550.0 59.617851470708686
1600.0 59.41740755856425
1650.0 59.17424555260261
1700.0 58.965617677202374
1750.0 58.36685926899159
1800.0 57.58147638984552
1850.0 57.28869154041742
1900.0 58.60755995383576
1950.0 59.18492369589866
2000.0 58.04521239539005
2060.0 56.58775237182381
2120.0 56.86832962644449
2180.0 57.456924049178
2240.0 57.41159928174109
2300.0 57.55932872327122
2360.0 57.69122815123714
2400.0 58.03081532098501
2500.0 57.33290547175977
2580.0 55.54980537533005
2650.0 55.01561966674164
2720.0 54.455246816509614
2800.0 54.39286350587251
2900.0 55.38593660616873
3000.0 56.42758997483763
3070.0 57.386941233085665
3150.0 58.05127481965256
3250.0 58.61185616236577
3350.0 57.996109143988406
3450.0 55.66398753293636
3550.0 54.028691635262945
3650.0 55.25453729238846
3750.0 56.661333947862076
3870.0 57.03667704197245
4000.0 56.99849205833297
4120.0 56.46230804500992
4250.0 55.94290118094703
4370.0 55.52203605104448
4500.0 55.56423726774868
4620.0 56.56356143807676
4750.0 56.43780461002564
4870.0 56.89618918250365
5000.0 58.12755168724826
5150.0 58.52143851307602
5300.0 58.7059688854293
5450.0 57.34118224059911
5600.0 56.59003882977596
5800.0 56.89287177241886
6000.0 57.413112562725615
6150.0 56.43793477604275
6300.0 54.211064884186115
6500.0 53.501009276334784
6700.0 54.127468567243895
6900.0 54.314440193129954
7100.0 52.97623215063429
7300.0 54.06171581226458
7500.0 54.53166468018908
7750.0 54.10205108365194
8000.0 52.932346965264784
8250.0 55.18933650679851
8500.0 56.2697817755389
8750.0 54.51112756386654
9000.0 53.67322156414336
9250.0 53.50493273283051
9500.0 54.14684952322584
9750.0 54.495289363859385
10000.0 54.38971384473338
10300.0 54.82590777289768
10600.0 53.31997584606664
10900.0 51.7111265640314
11200.0 50.25723792665802
11500.0 49.54684171714881
11800.0 50.99445877102572
12200.0 52.85317143321346
12500.0 53.87388025458439
12800.0 50.4728067067859
13200.0 52.969128528109295
13600.0 51.90577767409296
14000.0 47.371342439679424
14500.0 47.23486057796619
15000.0 44.85800942634914
15500.0 46.57167014914417
16000.0 48.28888097357422
16500.0 47.01957588168996
17000.0 44.213386520831804
17500.0 45.512157797411206
18000.0 40.834226886188944
18500.0 47.14175807067009
19000.0 43.57026671176486
19500.0 48.84152651466714
