Freq,Floor Bounce,Ceiling Bounce,Front Wall Bounce,Side Wall Bounce,Rear Wall Bounce,Total Early Reflection
20.5078,54.04528437415772,46.21189325385845,52.588740790221124,49.14471150249378,54.09164659689321,52.12609203629168
21.9727,54.95346558205341,49.94221424281636,53.742714242102466,51.02089858976012,56.83893907391746,54.006126628091266
23.4375,56.03379190582393,50.90701973813643,54.82066200323885,52.09690134125074,58.50585392073998,55.311835347717306
24.9023,57.659444782900636,54.31395986424917,56.709284170579394,55.01942913114172,60.498667851194256,57.42166654482605
26.3672,59.12578214653769,56.767662498496605,58.32984517655373,57.20883706623229,61.849201497504566,59.06354141576759
27.832,61.166521370775484,58.62029611914676,60.46697756902316,59.22511514128465,63.15251909931092,60.829754670710884
29.2969,62.13224463133095,60.08915976347916,61.47915423704566,60.59643951040226,64.60842777190737,62.093679845600164
30.7617,63.832846774286224,62.048959122744876,63.261320962638266,62.5394944718458,65.92381085905863,63.74575186384861
32.2266,64.7220999376195,63.19443403730463,64.2209080593488,63.59697480281943,66.77257114277695,64.69565381395063
33.6914,66.16091940201076,64.85157739452976,65.72015461305519,65.22049096940783,68.06535804340385,66.1599699851433
35.1562,67.21467835854143,65.77330104655907,66.73788445062839,66.23037464209675,68.84264680493001,67.09632036434223
36.6211,68.07264762399501,67.02794567697453,67.6719365014719,67.36877817285986,70.0142898951589,68.16900432026152
38.0859,69.51112951438284,68.63742151584923,69.16716628804542,68.9537062131786,71.17063379852306,69.58565903262388
39.5508,70.53250070499968,69.66329574163115,70.20380850039628,69.98793267980288,71.98201310066004,70.55337194125606
41.0156,71.79592739935707,70.94358210421976,71.47847658181206,71.28363524480413,72.98360171027304,71.75628108124066
42.4805,72.70603942907292,71.9077006914106,72.40322364918106,72.23928334788053,73.84330447701089,72.67306613792621
43.9453,73.60704970137834,72.83273018109384,73.31918568817292,73.17245626182688,74.62287752794285,73.5553747809645
45.4102,74.1781932548312,73.48613538666044,73.87553391559175,73.84274770690347,75.33819177318153,74.19312279315636
46.875,75.53505218403679,74.84073117824951,75.27177516838145,75.1713334472891,76.2980656193139,75.45188526115196
48.3398,76.15358083569183,75.4721071103176,75.88557745070108,75.82542931257501,76.93982876005064,76.08407896105007
51.2695,77.5485099905829,76.9605408630631,77.30006392690754,77.29417780791786,78.23562566385274,77.4893181378613
52.7344,78.30029639737762,77.74931658341204,78.06797959548695,78.06448873216566,78.88231146114904,78.22964933373271
54.1992,78.95275055225616,78.3925369886069,78.71962076028886,78.71839442607758,79.44810968150816,78.86057947735904
55.6641,79.48446897814463,78.93102999817471,79.24847510061264,79.26998171154378,79.95644570355024,79.39147597719641
58.5938,80.50137354714332,79.99691337988536,80.27701111202717,80.32736874482502,80.88861665275381,80.40829060860608
60.0586,80.91448348341707,80.43347933406048,80.69729851042032,80.75772120256445,81.27154169355782,80.82374455648642
62.9883,81.81226564996253,81.32216370247454,81.59180186640862,81.6613516604304,82.04677103027706,81.69349820762007
64.4531,82.16734302179407,81.67930377961667,81.94846163315246,82.0229915246806,82.36645055672454,82.04291542187974
67.3828,82.68779719186989,82.21110171663157,82.46995595196535,82.5667630374714,82.85217228741445,82.56286311687661
68.8477,82.83682169801757,82.37405048895334,82.61695895706598,82.7355545664529,83.01639017619402,82.72127378590284
71.7773,83.30751541818552,82.85948332006248,83.08964713471042,83.21354786904875,83.40668088070649,83.17947800416712
74.707,83.88135837408865,83.45890399476588,83.68178953837784,83.7879554317152,83.8591877579357,83.73654448054636
77.6367,84.15297989943438,83.72893034726799,83.95846634468751,84.06188475033444,84.05596284336684,83.9940438823509
79.1016,84.19912888761135,83.76251202940169,84.00158505147344,84.10570009617072,84.06678076544878,84.02960532134585
82.0312,84.4149892244672,83.96903689210183,84.20916676639794,84.32837935053838,84.25708672088113,84.23831172122905
84.9609,84.63491304577883,84.22910545596417,84.44910618910548,84.58054566414265,84.49290187884067,84.47955589486696
87.8906,84.59031974811774,84.20418983780183,84.39309882575313,84.55859502165157,84.53414754559155,84.4583979107584
90.8203,85.04842617846356,84.62054812566437,84.87522722245643,84.91098736223003,84.50269872597582,84.7961624455136
95.2148,84.94232765503847,84.50549068161705,84.73718852820275,84.88945299733693,84.76897127303494,84.7713140918475
98.1445,85.08216885697234,84.66425939433915,84.89459523790322,84.99951333721994,84.73243502401148,84.87743629737298
101.074,84.90700628249743,84.46560586577448,84.68599828623098,84.87423662561093,84.76046234669978,84.74150561987409
105.469,85.16813583642802,84.79699863330708,85.00189626378302,85.11376994466643,84.74578901226316,84.96855821545213
108.398,85.39451712504479,85.00606766106843,85.2453656074603,85.28367141170673,84.77800320952156,85.1471226539776
112.793,85.40196254659861,85.0185619869248,85.26898655304139,85.30246093890253,84.82045264195712,85.16764244884035
117.188,85.51371516497622,85.0106854718485,85.32828386039529,85.31180387284208,84.68446904283448,85.17943546627254
120.117,85.68264493571517,85.19253963016787,85.51378801178402,85.46124543827406,84.6429989401629,85.31349110178779
124.512,85.61009226716823,85.15639429323906,85.47533551550202,85.46521999143543,84.64429417809,85.28374837046299
128.906,85.3951133820042,84.95244990110713,85.21886991949854,85.32568739356174,84.87468945443803,85.15818838056872
133.301,85.4607144709476,84.94452749146402,85.24949916785422,85.33391130739017,84.84239036978401,85.17253183860916
139.16,85.46563847617739,84.9682042250709,85.27798602524065,85.30601059529391,84.71316033857207,85.15449711767707
143.555,85.47487070719042,84.9261688649976,85.28072731158785,85.28455466171903,84.68691142609919,85.13984637929376
147.949,85.43413234501298,84.8369458635278,85.24381218863292,85.2334595334648,84.60199191666555,85.08061915439933
153.809,85.46789263090409,84.80682202237637,85.25779009793142,85.19388885366934,84.47146567051419,85.05392784926877
159.668,85.46298973930776,84.83769553152894,85.25399128558072,85.21643156082654,84.56629668934767,85.07927019408832
165.527,85.45871482491522,84.87412412132261,85.26098618372791,85.24921995759028,84.70281342234772,85.11798232941555
171.387,85.56552067789339,84.91978686539723,85.36387082607463,85.24368299844787,84.55931934686745,85.14469332002564
177.246,85.62914961296417,84.9381255625843,85.4907352186869,85.23756640142629,84.16422468687564,85.12207072237693
183.105,85.24896368965436,84.67909362491339,85.11834484312837,85.00473331984884,84.11884903625518,84.85233723215295
188.965,85.28355250568937,84.48627170949705,85.09278105817268,84.90587289976416,84.11434241582315,84.79692152401766
196.289,85.4695575277824,84.75835812020593,85.34560245140443,85.0068896919606,83.72190556207428,84.90297724173328
203.613,85.39926613598706,84.6180694414903,85.20772572247351,84.89822603742388,83.66671811202075,84.79874954412256
210.938,85.3330492435935,84.51745817700152,85.19249054222774,84.94790115320973,83.74390001502553,84.78343248907495
218.262,85.10454773505575,84.340349262165,84.96149742283848,84.76258931903385,83.87573146917623,84.63158999993367
225.586,85.17911964646052,84.36558862830859,85.00804742021631,84.67882284932168,83.79064902642475,84.6319369055473
232.91,85.28885999582812,84.5336548726255,85.19198209138071,84.745826816744,83.42760288533412,84.68627880593688
241.699,85.1027069198399,84.23556041967053,84.95965661731944,84.56304721312566,83.12859568994537,84.45221344473384
250.488,85.20497237384072,83.86495374495547,84.90219643513016,84.42025865876656,82.90439418615856,84.3331748771812
259.277,85.28207992058049,84.24104072523133,85.09935030270864,84.57128728436714,83.06425156575136,84.51946335798056
268.066,85.12159302939837,83.96171831830452,84.907391904774,84.27071662377679,82.79351908739407,84.28573226155366
276.855,84.99598898681221,83.92694462775749,84.79830132580238,84.45563695531118,82.41243612765052,84.2096646050612
287.109,84.71493337006594,83.86696428944099,84.6547499419215,84.24471958874162,82.8193248961152,84.11267813501794
297.363,84.32445808574812,83.39290078390337,84.2352364971506,84.07488131776084,82.7565412418911,83.79656424850984
307.617,83.63792664597368,82.44129057346049,83.32498616400795,82.94963792755001,83.09057682166333,83.1070315812069
319.336,85.54431594157798,83.13427641366646,85.34671222228594,83.27673400035117,83.20458929800725,84.24410159350083
329.59,85.39413825450995,83.59904846306044,85.32633915654507,84.06006899267938,82.3706979915235,84.2927082630415
341.309,85.3670086862796,83.44833908155097,85.19896805362394,83.94412018253814,82.18963519474619,84.18278273759121
353.027,85.33697883315007,83.16002275306244,85.22408568952109,83.99952916644449,81.70539672483702,84.08574266267819
366.211,85.55246731503773,83.72282279290125,85.51935364560352,84.1859409694072,81.5506380527469,84.33375873612616
379.395,85.7689683633221,84.11716181682877,85.69484410747796,84.41073721906429,81.77365069348934,84.57330581573461
392.578,85.432977024288,83.65746660841674,85.26787002236904,84.26915687755034,81.52331089508571,84.23942563382306
405.762,85.26622173724584,83.42844918692455,85.1960640569788,83.899536380727,81.36514478449457,84.04711887303546
420.41,85.43659502430991,83.93419954885309,85.48736482108843,84.44210422417615,80.95985497711143,84.32554120964167
435.059,84.83226196575774,83.23340994338841,84.8959906251915,83.88305321075072,80.73383010724953,83.7528230162093
451.172,85.7083585517632,83.33335830022253,85.60931196739759,84.2286936198291,80.76528562660421,84.26704034763367
465.82,85.39970404327944,83.39023552218379,85.40834334303953,84.33251778233709,80.2362153880475,84.11339408811438
483.398,85.03673146761801,83.39829904609172,85.25764444990828,84.49748528730098,80.6766001458868,84.05412380186283
499.512,85.10134606244291,83.28708968489224,85.08393711073248,83.92315473118886,80.51721252544938,83.86921510774931
517.09,85.41239005721954,83.36177067755024,85.33258485513748,84.38798541495157,80.87250619485873,84.15939345631573
536.133,84.94788349460167,82.21921802338386,85.09233328296543,83.29540611084585,80.0376986306938,83.48933547782914
555.176,85.55577674392703,82.29443208118609,85.81385957410004,84.506280166361,79.32880309301937,84.07675486897861
574.219,85.71728966102798,82.34340262978294,85.66951991620084,84.27209764696894,80.09984764117733,84.09337770201248
594.727,85.15888684990026,81.72457746297357,85.3632338505326,83.78465590310512,80.30588993972542,83.68067335058129
615.234,85.28783229359237,81.84400336527861,85.63181324150214,83.87711223972815,78.85276306449212,83.71993386330931
637.207,85.22571518325884,81.45401347010214,85.33448882730028,83.96624336101878,79.78017490731965,83.65007520602401
659.18,84.45747783433222,80.82500849514132,84.96666263146822,83.16068089544481,78.85725023346407,83.00044589769804
682.617,84.25302447500346,80.87491685901666,84.66954392480956,82.6567452342419,78.88199366245306,82.75680586260336
707.52,84.72339796553624,80.61520893234855,84.86354523094565,82.72680580187154,79.04668601263666,82.94921299113447
732.422,84.13880203244985,81.23351827976222,84.90251563681399,82.62101381136733,78.18479928584804,82.78796211010174
757.324,84.93183826034362,81.69868047591524,85.42844891838364,82.79097114027633,78.83609443611286,83.32368202171932
785.156,84.86897990324671,82.71622605364979,85.32396668304614,82.97264986539174,78.42003557961503,83.4330290770848
811.523,84.70980477707266,82.17324399734957,84.66454514757423,81.14449675356782,77.1120890928629,82.71855318518392
840.82,84.09264649406555,82.130424367424,85.12222680884912,81.9422698127398,77.09676819985795,82.80042854133242
870.117,83.56539555686558,81.36402595098227,84.4449686393715,81.14917098391669,77.11131638430044,82.1704662602242
900.879,83.48757688465167,82.5312093521442,85.52274891858045,82.78788912713624,77.67300330497167,83.04298683850213
933.105,83.59898039853306,81.42305810630104,84.55863237370852,81.8137000710847,77.32556385209489,82.35189919102352
965.332,83.70014078916111,82.6851021238967,85.49527554382561,82.0827377425856,77.01097307243339,82.95000416169243
1000.49,83.60758261691275,82.32508461267466,84.54822508248535,81.59079243777569,77.08474236458848,82.45820833911344
1035.64,83.48888220994016,82.62290646589933,85.01350292387771,81.95527956437515,76.3353367342701,82.66380729964033
1072.27,83.41193149217233,82.01786145541217,84.36004907779636,80.96340901337643,75.41187238127853,82.10064931329485
1108.89,83.36634723836929,83.03757163158373,84.45284135836854,80.76371374679005,74.39014532953709,82.27294087589037
1148.44,83.49518462034513,81.9111901015184,83.60963038219573,80.1378280514674,73.80795201397592,81.6776463050775
1189.45,82.85114905577899,79.43109344172028,83.40802040654852,80.12895350268793,73.85655705846145,80.98313313948609
1230.47,83.17916639982812,80.81802134424677,83.45537202949768,80.11818787918335,74.14766222310277,81.32890725293535
1274.41,82.80592206977971,78.13984235603985,83.74666582802803,80.1669455195844,73.89269588602755,80.94363978091974
1319.82,82.9169158793595,79.2186699214171,84.03680789893527,79.40543388192236,74.2527405888667,81.11555644406204
1366.7,83.34489600084896,78.66928623649792,84.6338912250886,80.41744879585258,74.62926331835406,81.58008616943505
1413.57,82.815541006603,79.94716142814437,84.40101151755819,79.87528285665383,73.75391382788477,81.37614317913025
1463.38,82.69822699315546,78.92113648161585,84.13864212923397,79.85588166696536,72.65364651395342,81.06280780907072
1516.11,82.17526414129836,78.3412634143108,83.12335981557247,78.74019630451942,71.88424038956717,80.2431915721472
1568.85,81.22208381559444,76.85378197507978,82.15784663973574,77.68227754160513,70.39210610666566,79.1897575844651
1624.51,79.68804983706224,75.68203722840344,81.45751980607244,76.82766641181064,70.1776003718188,78.17610700723378
1681.64,78.6607022762692,75.6143545364356,81.63475496597482,77.7257547100808,70.1054425751915,78.13016223491817
1741.7,78.71286179243312,75.76319418554368,82.79940303688085,78.54254762802044,70.59925566526466,78.8709943444355
1803.22,78.89755900422622,74.67281430990218,83.248850791635,79.62563539577438,72.31061305713459,79.31424319494694
1866.21,78.10076345106185,73.30439763781592,83.0051129524388,78.46415880835241,71.05557830591856,78.67707207842962
1932.13,78.34995974016857,74.7692588280517,82.92940759688115,78.10879691979369,70.86469321495397,78.71088987083924
1999.51,76.77674796846274,75.481476716835,83.19292216477102,78.56256452440014,70.48589449560285,78.74519835638539
2069.82,76.21881532407166,75.93539719117443,83.7940693843921,79.24402972353498,70.64330927475672,79.20402297870737
2143.07,76.33588521961988,74.98857065892503,83.98354030225224,79.6189154101888,70.87349294148032,79.33099383024808
2219.24,77.50460550579422,75.78205447807696,83.50855842987636,79.38683129914027,70.688770533077,79.2118790720181
2296.88,76.538822329116,77.81388477216161,82.3145421958089,78.80201390894861,70.08660473428964,78.59746587071228
2378.91,75.2088605948996,78.65245066123974,82.3736700969443,78.8632506821851,70.17623122464204,78.65244988855991
2462.4,75.31901234088542,78.35763982745291,83.62153815819825,80.32930643861332,71.30086264973923,79.5821986330607
2548.83,75.64679834724161,79.00089497712372,84.1290406944195,81.08530269117848,71.90051210739333,80.1602511034834
2639.65,76.3976739928599,80.40808882617068,83.28742374479143,80.71922432060268,71.75581573952032,79.99697476204886
2731.93,76.6707971246066,81.186646161977,82.53624499385663,80.04620386104784,70.81494636388047,79.73435369375235
2828.61,77.21750511189443,81.44545068922082,82.61183587654881,80.20359940166003,70.78505347288652,79.92492588575153
2928.22,77.3691119961828,81.29024146159358,83.31492994668709,81.36555396034007,71.54576652601278,80.45255302753176
3030.76,77.5568517451064,81.74064942843566,83.74449268170548,81.94997954450763,71.90764637014837,80.90119416165945
3137.7,78.20400153111959,82.46602390578259,84.06599055646598,82.13437888457469,72.01996866217479,81.31617956541652
3249.02,79.20715662185162,82.83804895641106,84.31223472702067,82.01384194406046,71.86068962324012,81.58237627160118
3363.28,80.23152404674181,82.53014232359277,84.6140833367395,81.69161772181268,71.16164461897606,81.67065751642106
3481.93,80.42494923627379,82.6344207083971,85.12994435825834,81.88838797906777,70.70879288321021,81.9632598938155
3604.98,80.7073093057496,81.94662638025679,85.00557627918717,82.27812705327528,71.48670629130976,81.8973087951815
3732.42,80.8941251677439,81.88560139794885,85.53484617523694,82.65296418713609,71.82447890190488,82.22365441559538
3864.26,81.67396324568271,81.28331589305967,85.23975404571982,82.65407869911469,71.55401924027814,82.11726014851918
4000.49,82.74432336396303,80.72255022287791,84.49173370902913,81.68788901513251,70.74867860859493,81.7429417453923
4141.11,82.52286173465134,81.12085640447658,85.3535684816857,81.88582471256309,71.11332579637167,82.14080624290648
4287.6,83.37272920927498,80.17427047384874,84.99517779313317,81.58574515669834,71.32925064962988,82.01412948405232
4438.48,83.18440798121196,81.40237119632471,84.17273924480212,81.45577521909644,71.02781080782691,81.8193980652412
4595.21,83.66916023972627,80.64034071341757,83.84048084006828,81.09304551390024,70.93669322504768,81.65426289935611
4756.35,83.56060834550205,81.56886794053058,83.79025145876282,81.15162577279006,70.36496684534691,81.76737821496826
4924.8,83.23056571296107,81.02558592879005,83.57088894836942,81.80074170603558,70.38971174870497,81.62515891032454
5097.66,83.22581180237867,81.58292824949712,83.57804279374523,81.74745045122185,71.39023646892255,81.7341473732175
5277.83,82.57700957697439,81.88745414026482,84.13631752850931,81.7489079705952,69.4091956120796,81.77799780738857
5463.87,84.13444083106299,81.9768155620303,83.96078579411791,82.33337597248916,70.0141447328059,82.28825961533474
5657.23,84.7514524157309,82.60258818698821,84.5596188845845,81.21014146960475,68.9885916843339,82.58401144631537
5856.45,84.79106079208385,82.37519655176803,84.36193077296183,81.11176981047704,68.53388900178585,82.47233220118954
6062.99,83.02465362296125,82.43177428731435,84.35894689635789,80.78510026663615,68.32044361432139,81.90419835792454
6276.86,82.7935833442034,82.15626093121033,83.6966834520752,80.20259352273112,68.45596726541716,81.46492558906007
6498.05,83.38864659592406,81.81728053116987,83.7422591107319,79.93596925511201,67.66831491479324,81.53059423506834
6726.56,83.18963384352546,81.49902068784155,84.11551432716793,80.41664899813874,67.68259530971505,81.6049657456876
6963.87,82.38444250901597,81.3642920091311,83.56264203347953,79.63963967902602,66.96506176182106,81.03256535854194
7209.96,82.45271025078864,81.0025577715502,83.77590960067559,80.11050724057137,66.66998179735356,81.12368656761808
7464.84,82.09445295738962,80.54225770221292,83.52996214236393,79.41940570007088,65.91742603925468,80.73415792743775
7727.05,81.7217568434443,79.79932773185445,83.13959629865462,79.25920708016622,65.89269038183274,80.32122132280185
7999.51,82.27611469185702,79.3958088437854,83.62497184424372,79.15337713544326,65.19914526697704,80.58359181216055
8282.23,82.56487488624143,78.91909450708656,83.42303136029102,78.40363252272363,64.42403070936282,80.41724971719665
8573.73,81.73738525351337,78.5274390179972,83.88173063003453,78.54533225305201,63.38329829307429,80.3228835456402
8876.95,82.28776471001427,78.20484176326161,83.46489865637221,77.92664777295785,61.79652108701879,80.17960214235123
9188.96,82.7580962259465,77.85443241067682,83.75777280462727,77.75995562447281,60.79796115539364,80.39968320902054
9514.16,82.23129540007378,77.33380882025487,83.34402020984426,77.2072318873418,60.080339729096664,79.91972549470775
9849.61,81.48472601180552,76.7087605586879,83.36143951690104,76.8894893826004,59.12726019074151,79.58225026123716
