Freq,On Axis,Listening Window,Sound Power,Early Reflections,Early Reflections DI,Sound Power DI,DI offset
20.5078,56.0462,55.99221141820104,54.69791163502745,55.374405448790526,40.61780596941051,41.294299783173585,40
21.9727,60.879099999999994,60.850470234674276,60.186448994555946,60.52112001798358,40.3293502166907,40.66402124011833,40
23.4375,61.88980000000001,61.86370473807381,61.24539223250156,61.550001186262165,40.31370355181164,40.61831250557225,40
24.9023,62.8878,62.86578442120131,62.32046453756877,62.587183166030684,40.27860125517063,40.545319883632544,40
26.3672,64.1806,64.16062304456499,63.67412240647306,63.91006099964412,40.25056204492087,40.486500638091925,40
27.832,64.9125,64.89444610278571,64.4655988716929,64.67125391749792,40.223192185287786,40.4288472310928,40
29.2969,66.0218,66.00308333839786,65.5830602026416,65.78446791275567,40.218615425642184,40.42002313575625,40
30.7617,67.0668,67.04792682366869,66.61681885800388,66.82243232215056,40.22549450151813,40.43110796566481,40
32.2266,67.72379999999998,67.7056115538139,67.29365713439518,67.48908849050163,40.216523063312266,40.41195441941872,40
33.6914,68.6323,68.6134803455831,68.18974130617973,68.39132910498212,40.22215124060098,40.42373903940337,40
35.1562,69.3495,69.33056569763073,68.91503662030445,69.11195247598533,40.2186132216454,40.41552907732628,40
36.6211,69.9957,69.97613346564047,69.5494156393696,69.75227475251185,40.22385871312862,40.426717826270874,40
38.0859,70.6611,70.64346608413908,70.2615912083669,70.44206608502412,40.201399999114955,40.38187487577218,40
39.5508,71.291,71.27276179139467,70.8862594925596,71.06814930631883,40.20461248507584,40.38650229883507,40
41.0156,72.0071,71.9875926552531,71.57901705253511,71.77175036024853,40.21584229500456,40.40857560271799,40
42.4805,72.6052,72.58591219736086,72.19275094717061,72.37717466335477,40.20873753400609,40.393161250190246,40
43.9453,73.08509999999998,73.0661020867648,72.6927717068304,72.86636083392949,40.19974125283531,40.3733303799344,40
45.4102,73.7081,73.68858228483843,73.3084247244274,73.48548467348961,40.203097611348824,40.380157560411035,40
46.875,74.2871,74.26708121766694,73.87985590899446,74.05923719887986,40.207844018787085,40.387225308672484,40
48.3398,74.7242,74.70439105149265,74.34408056312809,74.5096753609808,40.194715690511856,40.36031048836456,40
51.2695,75.8011,75.78060275592017,75.42608863063433,75.58772223276495,40.192880523155225,40.354514125285846,40
52.7344,76.302,76.28117354053708,75.93344491298333,76.09125708080573,40.18991645973135,40.34772862755375,40
54.1992,76.7972,76.7748876016683,76.40941444713218,76.5755805901043,40.199307011564,40.36547315453612,40
55.6641,77.2339,77.21186887008707,76.86169265710211,77.0198084350202,40.19206043506688,40.35017621298496,40
58.5938,78.28820000000002,78.26138283886802,77.84537267610943,78.0365039828706,40.22487885599742,40.41601016275858,40
60.0586,78.87960000000001,78.8473061890159,78.32614242917549,78.57141440907743,40.27589177993846,40.521163759840405,40
62.9883,79.5077,79.47959322840465,79.03763124898074,79.24218058518433,40.237412643220324,40.44196197942391,40
64.4531,79.8405,79.8141269594638,79.42908936788345,79.60390656104258,40.21022039842123,40.38503759158036,40
67.3828,80.662,80.63107171628572,80.18061674886707,80.38713993541135,40.24393178087436,40.45045496741865,40
68.8477,80.9974,80.96734992740441,80.54227269791508,80.73527521889096,40.23207470851345,40.42507722948933,40
71.7773,81.576,81.54651741711344,81.16807908568026,81.33561031626024,40.21090710085319,40.37843833143317,40
74.707,82.325,82.29240050771944,81.87622512363177,82.06160747318818,40.23079303453126,40.416175384087666,40
77.6367,82.93289999999999,82.89897146744906,82.50004787696095,82.6749063215691,40.22406514587996,40.39892359048811,40
79.1016,83.25060000000002,83.21383864474012,82.775973683782,82.97050259563397,40.24333604910615,40.43786496095812,40
82.0312,83.8168,83.77737412021295,83.31074354019482,83.51888232694829,40.25849179326467,40.46663058001813,40
84.9609,84.315,84.27331178031825,83.79162673164187,84.00596216316853,40.26734961714972,40.48168504867638,40
87.8906,84.78310000000002,84.73979780869787,84.25824565297384,84.47160455234172,40.268193256356156,40.48155215572403,40
90.8203,85.2627,85.21718023181234,84.73388685772335,84.94651620379159,40.27066402802075,40.48329337408899,40
95.2148,85.8386,85.78819545386611,85.26146901144611,85.49338249454175,40.29481295932436,40.52672644242,40
98.1445,86.1389,86.08622978516723,85.54872403070063,85.78515334171695,40.301076443450285,40.53750575446661,40
101.074,86.38500000000002,86.32950191406933,85.77431593602753,86.01858695595101,40.31091495811832,40.55518597804179,40
105.469,86.686,86.62522619516578,86.028448931479,86.29118359997841,40.33404259518737,40.596777263686775,40
108.398,86.86689999999999,86.8029756374895,86.17946923138766,86.45375798307771,40.34921765441179,40.62350640610184,40
112.793,87.0615,86.99279761580839,86.33123940772147,86.62257288184236,40.370224733966026,40.661558208086916,40
117.188,87.1539,87.07881909385696,86.3346480354363,86.6650624346549,40.413756659202065,40.74417105842066,40
120.117,87.2715,87.1938278492205,86.41808002956186,86.76367489332009,40.43015295590041,40.77574781965863,40
124.512,87.4085,87.33083834142106,86.63637905938467,86.93917736468245,40.391660976738606,40.69445928203639,40
128.906,87.3029,87.22026018929645,86.51907037241101,86.82373574479058,40.39652444450587,40.701189816885446,40
133.301,87.215,87.12597926971536,86.35944199331425,86.6979062794614,40.42807299025395,40.76653727640111,40
139.16,87.1234,87.02487782220634,86.1812006288781,86.55422655680727,40.47065126539907,40.84367719332823,40
143.555,87.1051,86.99853060227196,86.04532820500278,86.47169971184478,40.52683089042718,40.95320239726918,40
147.949,87.2833,87.17416241533388,86.22378301166793,86.64844107074335,40.525721344590536,40.95037940366595,40
153.809,87.3478,87.23564648309011,86.27406042775775,86.70933054520016,40.52631593788995,40.96158605533236,40
159.668,87.0463,86.92758436395758,85.99379525859189,86.40510183606129,40.52248252789629,40.93378910536569,40
165.527,86.9065,86.7733393986668,85.63664207403362,86.15722101744092,40.61611838122589,41.13669732463319,40
171.387,86.93449999999999,86.79912986874781,85.59028580738664,86.15862511886411,40.6405047498837,41.20884406136118,40
177.246,86.683,86.54842329966618,85.5183659114038,85.98060461467404,40.56781868499215,41.03005738826238,40
183.105,86.5631,86.4116524666201,85.19994669391848,85.7552495851597,40.656402881460394,41.21170577270162,40
188.965,86.4663,86.30958344308381,85.03674858972991,85.62097282679832,40.68861061628549,41.2728348533539,40
196.289,86.3426,86.17749903036463,84.84545297399916,85.45094362855423,40.7265554018104,41.33204605636547,40
203.613,86.0902,85.91725304999429,84.65264873316832,85.21236220902095,40.704890840973334,41.26460431682597,40
210.938,86.155,85.96246661339659,84.46992672373062,85.15212421341931,40.81034239997727,41.49253988966596,40
218.262,86.0949,85.90368592279191,84.43884197289857,85.11131823022035,40.79236769257156,41.464843949893336,40
225.586,85.7575,85.54485590635784,84.02168003591603,84.71095483838586,40.83390106797198,41.523175870441804,40
232.91,85.7238,85.4923868273686,83.72745441543347,84.55700492990557,40.93538189746303,41.764932411935135,40
241.699,85.46779999999998,85.21383676363298,83.09603311770387,84.14199101534886,41.07184574828412,42.117803645929115,40
250.488,86.2445,85.98958328944329,83.21874977577703,84.72187861258514,41.267704676858145,42.77083351366626,40
259.277,86.4118,86.17240806339595,84.27645263175734,85.19776636636732,40.97464169702863,41.89595543163861,40
268.066,86.0207,85.76087769450373,83.74774806633968,84.7084709146868,41.052406779816934,42.01312962816405,40
276.855,85.9357,85.67470743100245,83.89834475409144,84.68779048691266,40.986916944089785,41.776362676911006,40
287.109,86.4384,86.09644381259318,83.51247228821009,84.729387125741,41.36705668685218,42.58397152438309,40
297.363,86.0866,85.78998581096974,83.43529382871309,84.56119046213732,41.22879534883242,42.354691982256654,40
307.617,86.2713,85.93441992589786,83.49829978980216,84.6587069290971,41.27571299680076,42.436120136095695,40
319.336,86.44320000000002,86.07100007676311,82.62275964890179,84.51574384804758,41.555256228715535,43.44824042786132,40
329.59,86.1439,85.83000977747204,82.948031995473,84.47191490598985,41.358094871482194,42.88197778199904,40
341.309,85.8532,85.50312157273612,82.74213385344605,84.1502529599673,41.352868612768816,42.76098771929007,40
353.027,85.6098,85.23322438412718,82.57689445600496,83.86613359795281,41.36709078617437,42.65632992812222,40
366.211,86.3699,85.94315169252373,82.24944352209948,84.25305866945115,41.69009302307258,43.693708170424244,40
379.395,86.7099,86.320257402266,82.74866929426419,84.78576576484255,41.53449163742344,43.571588108001805,40
392.578,86.73,86.30379057541727,82.95067925413078,84.82376937883568,41.48002119658159,43.35311132128649,40
405.762,86.6148,86.1640802984876,82.55094428339831,84.58371925215938,41.58036104632822,43.613136015089296,40
420.41,85.8871,85.51708179658175,82.55715280471753,84.17121555158286,41.34586624499889,42.95992899186422,40
435.059,85.4176,84.95998504614083,81.80398480895039,83.45844192676769,41.50154311937314,43.15600023719044,40
451.172,85.5478,85.03694012435626,81.81212796094664,83.45827655010649,41.578663574249774,43.224812163409624,40
465.82,86.2684,85.72021550160875,81.85967748307688,84.02626554013763,41.69394996147112,43.86053801853187,40
483.398,87.4508,86.93155866788169,82.6195026616268,85.1481905064864,41.78336816139529,44.31205600625489,40
499.512,86.72319999999999,86.21571381387722,82.71321614429046,84.68006517938994,41.53564863448727,43.50249766958676,40
517.09,85.9958,85.46859166420921,81.87962957148996,83.94690413693719,41.52168752727202,43.58896209271926,40
536.133,85.82059999999998,85.23658552325718,81.74797581855952,83.72277921174143,41.51380631151575,43.48860970469765,40
555.176,85.2653,84.6430561036938,81.47390597318196,83.25411289346408,41.38894321022971,43.16915013051184,40
574.219,85.19469999999998,84.49923932731839,80.95241423618214,82.80752574044087,41.691713586877526,43.546825091136256,40
594.727,87.22490000000002,86.51659060988655,81.4896650399796,84.36757212806626,42.14901848182029,45.02692556990695,40
615.234,87.1877,86.5086369894843,81.97048032895955,84.65132783769259,41.85730915179171,44.53815666052475,40
637.207,84.94070000000002,84.27396663257024,81.02382093601089,82.8492893585769,41.42467727399334,43.25014569655934,40
659.18,85.85130000000001,85.0913881206088,81.00806472647609,83.07389026582482,42.01749785478398,44.083323394132705,40
682.617,86.5532,85.74080552338967,81.51152588626947,83.79205875532645,41.94874676806322,44.2292796371202,40
707.52,87.71349999999998,86.81166046025827,81.70116422418263,84.2303586502598,42.581301809998465,45.11049623607563,40
732.422,88.7515,87.92059057633523,82.95819331313363,85.7247952072603,42.19579536907493,44.962397263201595,40
757.324,89.1481,88.21763214974338,83.14342656875068,85.91364422966333,42.30398792008005,45.0742055809927,40
785.156,88.8085,87.89683258144723,82.72939646148045,85.43050055966187,42.46633202178536,45.16743611996678,40
811.523,88.3592,87.46898082391294,82.91879133144472,85.38155289379617,42.087427930116775,44.55018949246822,40
840.82,89.3556,88.41808324467266,83.43600741121789,86.1343084926921,42.28377475198056,44.98207583345477,40
870.117,88.04910000000001,87.19595707403903,82.99626328468094,85.27264151297746,41.92331556106157,44.19969378935809,40
900.879,89.0507,88.06677920888049,83.4168642949332,85.84267683230412,42.22410237657637,44.649914913947285,40
933.105,89.3238,88.40492061715773,83.57027518114558,85.88645511873555,42.518465498422174,44.83464543601215,40
965.332,89.6577,89.00623993352009,83.90449618687092,86.71793062300893,42.28830931051117,45.10174374664918,40
1000.49,89.22409999999999,88.59922703838667,83.88103376386154,86.4452363988272,42.15399063955947,44.718193274525134,40
1035.64,89.2107,88.66820879407743,83.90927506290363,86.06950488979186,42.59870390428557,44.7589337311738,40
1072.27,88.4084,88.08873745213546,83.16132302960663,85.57224557208356,42.5164918800519,44.92741442252883,40
1108.89,88.86840000000001,88.5150887250114,83.57406849179881,86.0180510889904,42.49703763602099,44.94102023321258,40
1148.44,87.3262,87.04271563803155,82.45051362104182,85.11646787757789,41.92624776045366,44.59220201698973,40
1189.45,86.4976,86.26104793883758,82.2034623689,84.50936424346649,41.751683695371085,44.05758556993757,40
1230.47,86.0095,85.87753528533506,81.96955131331951,84.35820697556035,41.51932830977471,43.90798397201554,40
1274.41,85.9499,85.76995470062587,81.59381464213766,83.84693040135727,41.923024299268604,44.176140058488215,40
1319.82,85.8084,85.90468885120158,81.89518832414689,84.20441244279833,41.700276408403255,44.0095005270547,40
1366.7,86.5195,86.34990272344193,82.18655703730589,84.2981265946967,42.05177612874523,44.16334568613604,40
1413.57,86.0831,86.0788661840179,82.5378982827759,84.0382570631157,42.040609120902204,43.540967901242,40
1463.38,86.7583,86.76905818536429,82.54764355936955,84.74430104457429,42.02475714079,44.22141462599474,40
1516.11,85.8208,85.70766243300663,82.04884749134914,84.22719163493034,41.4804707980763,43.658814941657496,40
1568.85,85.7652,85.5817058538621,81.7228604384773,84.12565140531257,41.45605444854954,43.858845415384806,40
1624.51,85.8401,85.2683478846217,81.43124105945493,83.9916007950751,41.2767470895466,43.83710682516677,40
1681.64,86.8155,85.8758433042251,81.85264739690115,83.6558675212789,42.21997578294619,44.02319590732395,40
1741.7,87.5699,86.4848502745865,82.28530884085457,84.7106739209914,41.77417635359511,44.19954143373194,40
1803.22,87.0281,85.6653497838868,81.76834654099044,83.92707618248625,41.73827360140055,43.89700324289636,40
1866.21,86.9793,85.51773809224059,81.42581777178503,84.18335901256536,41.33437907967523,44.09192032045556,40
1932.13,86.78030000000001,85.0180013247125,80.7527765256063,83.48794634918406,41.530054975528444,44.26522479910621,40
1999.51,87.28549999999998,85.2911423417231,80.48273129240661,83.12723760641248,42.16390473531062,44.80841104931649,40
2069.82,86.29559999999998,84.41003203133403,79.79272914529889,82.05230118974822,42.357730841585806,44.617302886035134,40
2143.07,84.564,82.70434836741086,78.46801759089422,80.58738727858383,42.116961088827026,44.23633077651664,40
2219.24,84.5162,82.5641564486476,78.06864220359284,80.2859248081718,42.278231640475795,44.49551424505475,40
2296.88,85.5338,83.798338918531,78.67275984699845,80.88828513017177,42.910053788359235,45.125579071532556,40
2378.91,85.2481,84.01450177642842,79.38853406686331,81.12393621639035,42.89056556003807,44.6259677095651,40
2462.4,83.543,82.90630319923514,78.89313341265148,80.12105854597995,42.78524465325519,44.01316978658366,40
2548.83,83.0847,83.72149233703038,79.15654757622049,80.98709188982019,42.73440044721019,44.564944760809894,40
2639.65,84.4678,85.08452009046201,80.25822740678483,82.14504536302825,42.93947472743376,44.82629268367718,40
2731.93,82.19459999999998,84.48497418054684,80.21717128041263,81.6649759255014,42.81999825504545,44.267802900134214,40
2828.61,83.4735,85.10807602421008,80.50592526125266,82.25958146445645,42.84849455975363,44.60215076295742,40
2928.22,83.46119999999999,85.1353472132207,80.65013417741899,82.3862200261448,42.7491271870759,44.485213035801706,40
3030.76,84.55790000000002,85.83228545726914,81.43691393621418,83.17863546082137,42.65364999644777,44.395371521054955,40
3137.7,84.9188,86.01479269452113,81.62743512359344,83.37602736169045,42.63876533283069,44.38735757092769,40
3249.02,85.26080000000002,85.76408758326569,81.43402263116072,83.31817603676674,42.44591154649895,44.330064952104976,40
3363.28,86.2164,86.21122657141048,81.12040653672977,83.41746583635596,42.79376073505452,45.0908200346807,40
3481.93,86.1205,86.18676545514892,80.7669013680559,82.92395876666671,43.2628066884822,45.41986408709302,40
3604.98,87.0291,86.851935911157,80.96858410284844,83.33032702307838,43.52160888807862,45.88335180830856,40
3732.42,86.1481,86.48018771265896,80.73963919422101,82.87612823949671,43.60405947316225,45.74054851843795,40
3864.26,86.3654,86.56729432050038,80.97033170947108,83.24441822703201,43.322876093468366,45.5969626110293,40
4000.49,86.7392,86.92396430690009,81.34281619612565,83.6689845362682,43.25497977063189,45.581148110774436,40
4141.11,86.51,86.28562503500588,81.18827860682738,83.38862726361273,42.896997771393146,45.0973464281785,40
4287.6,87.4351,86.57502655871866,81.39331562267466,83.7368401685325,42.838186390186166,45.181710936044,40
4438.48,87.7199,86.8666835855681,81.68391427721218,84.19372239414147,42.67296119142662,45.182769308355915,40
4595.21,87.7388,87.19898330475061,81.99407227089151,84.64987663244162,42.549106672308994,45.204911033859105,40
4756.35,87.1429,86.1540410880109,81.64198202116518,84.40258488862781,41.751456199383085,44.51205906684572,40
4924.8,86.892,85.89455949394426,81.84025271733702,84.50353572125513,41.391023772689124,44.054306776607234,40
5097.66,84.4798,85.3820173923762,81.39198132780254,84.36627598793383,41.015741404442366,43.99003606457366,40
5277.83,84.1922,85.66611258522617,81.26485816436102,84.16108550553184,41.50502707969433,44.40125442086516,40
5463.87,86.1713,85.65799347328206,81.04869463313315,83.94811080440432,41.70988266887774,44.60929884014891,40
5657.23,86.43259999999998,85.59843092764297,81.37262137723613,84.20197695244957,41.396453975193396,44.22580955040684,40
5856.45,86.0477,86.38293697472898,81.7842215208936,84.77658972000498,41.606347254724,44.59871545383538,40
6062.99,86.3057,86.74950616212178,81.65101469152984,85.06318748943698,41.68631867268479,45.09849147059194,40
6276.86,86.6132,87.06096790774343,81.50212834552842,85.07640170953505,41.984566198208384,45.55883956221501,40
6498.05,86.8638,87.31790379518392,81.25291667193052,85.09886636850163,42.21903742668229,46.0649871232534,40
6726.56,87.9118,87.42232254758761,80.96062005775404,85.0133951595418,42.40892738804581,46.46170248983357,40
6963.87,87.6961,86.92919014804556,80.53813813471417,84.62837999004378,42.30081015800178,46.39105201333139,40
7209.96,88.28119999999998,86.94800344468878,80.4986235796731,84.16689792732058,42.7811055173682,46.449379865015686,40
7464.84,88.5548,87.43803189814977,80.38103638272182,84.08480819779027,43.35322370035951,47.05699551542796,40
7727.05,89.1139,87.37983078806597,80.0101152594387,83.89738268470595,43.48244810336003,47.36971552862727,40
7999.51,89.3013,87.79350351216658,80.20815256875383,84.08469648070228,43.7088070314643,47.58535094341275,40
8282.23,89.2694,87.9522470794455,80.19168660059178,84.29789014456128,43.65435693488422,47.76056047885372,40
8573.73,89.2083,87.99770619537011,80.13379635054197,84.45552753467783,43.54217866069229,47.86390984482814,40
8876.95,89.5462,88.25367526719067,80.22633911495912,84.58592240233342,43.66775286485725,48.027336152231555,40
9188.96,89.5117,88.28964730767251,80.18700147218945,84.5216905975425,43.76795671013001,48.10264583548306,40
9514.16,89.5265,88.36778097104204,80.12115878392633,84.43560198409159,43.93217898695045,48.246622187115705,40
9849.61,89.3847,88.44303230863892,80.01399660607649,84.3521613140239,44.09087099461502,48.42903570256243,40
10196.8,89.52880000000002,88.45157779852588,79.90979349910268,84.2340885564685,44.21748924205737,48.5417842994232,40
10555.7,89.3847,88.48736405344306,79.93308528848705,84.2555269027082,44.23183715073486,48.55427876495601,40
10927.7,89.8,88.73338015783314,79.89676356168374,84.31363947347964,44.4197406843535,48.8366165961494,40
11313.0,90.10050000000001,88.93101197136122,79.77783878821914,84.26530408035416,44.66570789100706,49.15317318314207,40
11712.9,90.28230000000002,88.97247817539845,79.54401328447992,84.14993438470833,44.82254379069012,49.428464890918534,40
12126.0,90.3194,88.95581135177363,79.29855221588699,83.95003414763693,45.005777204136706,49.65725913588665,40
