Freq "Listening Window"
20.5078 55.99221141820105
21.9727 60.85047023467429
23.4375 61.86370473807379
24.9023 62.8657844212013
26.3672 64.16062304456499
27.832 64.89444610278571
29.2969 66.00308333839784
30.7617 67.04792682366867
32.2266 67.7056115538139
33.6914 68.61348034558311
35.1562 69.33056569763075
36.6211 69.97613346564046
38.0859 70.64346608413908
39.5508 71.27276179139466
41.0156 71.98759265525311
42.4805 72.58591219736084
43.9453 73.06610208676479
45.4102 73.68858228483843
46.875 74.26708121766696
48.3398 74.70439105149264
51.2695 75.78060275592016
52.7344 76.28117354053707
54.1992 76.77488760166831
55.6641 77.21186887008706
58.5938 78.26138283886802
60.0586 78.84730618901588
62.9883 79.47959322840465
64.4531 79.81412695946382
67.3828 80.63107171628573
68.8477 80.9673499274044
71.7773 81.54651741711342
74.707 82.29240050771944
77.6367 82.89897146744906
79.1016 83.21383864474014
82.0312 83.77737412021297
84.9609 84.27331178031825
87.8906 84.73979780869787
90.8203 85.21718023181235
95.2148 85.78819545386611
98.1445 86.08622978516723
101.074 86.32950191406934
105.469 86.6252261951658
108.398 86.8029756374895
112.793 86.9927976158084
117.188 87.07881909385698
120.117 87.19382784922048
124.512 87.33083834142106
128.906 87.22026018929644
133.301 87.12597926971536
139.16 87.02487782220634
143.555 86.99853060227197
147.949 87.17416241533388
153.809 87.2356464830901
159.668 86.92758436395756
165.527 86.7733393986668
171.387 86.79912986874781
177.246 86.5484232996662
183.105 86.41165246662011
188.965 86.30958344308382
196.289 86.17749903036463
203.613 85.91725304999429
210.938 85.96246661339657
218.262 85.90368592279192
225.586 85.54485590635785
232.91 85.4923868273686
241.699 85.213836763633
250.488 85.98958328944329
259.277 86.17240806339595
268.066 85.76087769450375
276.855 85.67470743100246
287.109 86.09644381259317
297.363 85.78998581096972
307.617 85.93441992589784
319.336 86.0710000767631
329.59 85.83000977747204
341.309 85.50312157273612
353.027 85.2332243841272
366.211 85.94315169252373
379.395 86.320257402266
392.578 86.30379057541725
405.762 86.1640802984876
420.41 85.51708179658176
435.059 84.95998504614082
451.172 85.03694012435625
465.82 85.72021550160873
483.398 86.93155866788169
499.512 86.21571381387723
517.09 85.46859166420923
536.133 85.23658552325718
555.176 84.64305610369381
574.219 84.49923932731839
594.727 86.51659060988653
615.234 86.5086369894843
637.207 84.27396663257022
659.18 85.09138812060878
682.617 85.74080552338968
707.52 86.81166046025827
732.422 87.92059057633524
757.324 88.21763214974338
785.156 87.89683258144721
811.523 87.46898082391296
840.82 88.41808324467267
870.117 87.19595707403901
900.879 88.0667792088805
933.105 88.40492061715773
965.332 89.00623993352008
1000.49 88.59922703838666
1035.64 88.66820879407743
1072.27 88.08873745213548
1108.89 88.51508872501138
1148.44 87.04271563803154
1189.45 86.26104793883756
1230.47 85.87753528533506
1274.41 85.76995470062587
1319.82 85.9046888512016
1366.7 86.34990272344191
1413.57 86.07886618401788
1463.38 86.76905818536427
1516.11 85.70766243300663
1568.85 85.58170585386209
1624.51 85.2683478846217
1681.64 85.8758433042251
1741.7 86.4848502745865
1803.22 85.66534978388678
1866.21 85.5177380922406
1932.13 85.0180013247125
1999.51 85.29114234172312
2069.82 84.41003203133401
2143.07 82.70434836741087
2219.24 82.56415644864761
2296.88 83.798338918531
2378.91 84.01450177642843
2462.4 82.90630319923515
2548.83 83.7214923370304
2639.65 85.084520090462
2731.93 84.48497418054684
2828.61 85.10807602421009
2928.22 85.13534721322068
3030.76 85.83228545726912
3137.7 86.01479269452115
3249.02 85.76408758326568
3363.28 86.21122657141046
3481.93 86.1867654551489
3604.98 86.851935911157
3732.42 86.48018771265897
3864.26 86.56729432050038
4000.49 86.92396430690009
4141.11 86.28562503500589
4287.6 86.57502655871868
4438.48 86.8666835855681
4595.21 87.19898330475061
4756.35 86.15404108801089
4924.8 85.89455949394424
5097.66 85.38201739237621
5277.83 85.66611258522616
5463.87 85.65799347328205
5657.23 85.59843092764298
5856.45 86.38293697472898
6062.99 86.74950616212176
6276.86 87.06096790774342
6498.05 87.31790379518391
6726.56 87.42232254758763
6963.87 86.92919014804558
7209.96 86.94800344468878
7464.84 87.43803189814976
7727.05 87.37983078806597
7999.51 87.79350351216658
8282.23 87.9522470794455
8573.73 87.9977061953701
8876.95 88.25367526719066
9188.96 88.2896473076725
9514.16 88.36778097104204
9849.61 88.44303230863893
10196.8 88.45157779852586
10555.7 88.48736405344306
10927.7 88.73338015783314
11313.0 88.9310119713612
11712.9 88.97247817539845
12126.0 88.95581135177365
12553.7 88.88502803596931
12996.1 88.83133444636927
13454.6 88.87267848647599
13929.2 88.95078151283629
14419.9 88.8961732684861
14928.2 88.61592996633092
15455.6 88.14942766204135
16000.5 87.80327621653207
16564.5 87.45978071670223
17148.9 86.79385662718589
17752.4 86.10434299098078
18379.4 85.34537669313112
19026.9 84.54923413897248
19697.8 83.86911843932278
19999.5 83.5243743225323
