Freq "On Axis"
22.4 51.099999999999994
23.0 51.30000000000001
23.6 52.19999999999999
24.0 52.5
25.0 52.19999999999999
25.8 51.30000000000001
26.5 50.099999999999994
27.2 49.400000000000006
28.0 49.599999999999994
29.0 50.19999999999999
30.0 51.0
30.7 51.900000000000006
31.5 52.400000000000006
32.5 53.099999999999994
33.5 53.900000000000006
34.5 54.599999999999994
35.5 55.3
36.5 56.099999999999994
37.5 57.099999999999994
38.7 57.900000000000006
40.0 59.0
41.2 60.099999999999994
42.5 60.79999999999998
43.7 61.900000000000006
45.0 63.0
46.2 64.2
47.5 65.70000000000002
48.7 67.19999999999999
50.0 68.4
51.5 69.4
53.0 70.3
54.5 71.1
56.0 71.80000000000001
58.0 72.4
60.0 73.0
61.5 73.4
63.0 73.7
65.0 74.0
67.0 74.4
69.0 74.69999999999999
71.0 75.1
73.0 75.4
75.0 75.79999999999998
77.5 76.2
80.0 76.6
82.5 76.9
85.0 77.3
87.5 77.6
90.0 77.8
92.5 78.0
95.0 78.20000000000002
97.5 78.29999999999998
100.0 78.4
103.0 78.4
106.0 78.4
109.0 78.29999999999998
112.0 78.1
115.0 77.9
118.0 77.6
122.0 77.4
125.0 77.3
128.0 77.1
132.0 77.0
136.0 76.9
140.0 76.7
145.0 76.6
150.0 76.4
155.0 76.3
160.0 76.1
165.0 75.9
170.0 75.79999999999998
175.0 75.6
180.0 75.6
185.0 75.79999999999998
190.0 76.0
195.0 76.2
200.0 76.3
206.0 76.3
212.0 76.4
218.0 76.5
224.0 76.7
230.0 76.9
236.0 77.1
240.0 77.4
250.0 77.6
258.0 77.9
265.0 78.1
272.0 78.20000000000002
280.0 78.6
290.0 79.0
300.0 79.6
307.0 80.3
315.0 81.0
325.0 81.6
335.0 82.0
345.0 82.1
355.0 82.1
365.0 82.1
375.0 81.9
387.0 81.7
400.0 81.4
412.0 80.9
425.0 80.4
437.0 80.1
450.0 80.0
462.0 80.1
475.0 80.3
487.0 80.4
500.0 80.3
515.0 79.8
530.0 79.0
545.0 77.8
560.0 76.5
580.0 75.4
600.0 74.6
615.0 74.2
630.0 74.2
650.0 74.5
670.0 74.69999999999999
690.0 75.0
710.0 75.0
730.0 75.1
750.0 75.3
775.0 75.70000000000002
800.0 76.3
825.0 77.0
850.0 77.5
875.0 78.0
900.0 78.4
925.0 78.5
950.0 78.6
975.0 78.6
1000.0 78.7
1030.0 78.9
1060.0 79.1
1090.0 79.2
1120.0 79.1
1150.0 79.2
1180.0 79.69999999999999
1220.0 80.4
1250.0 81.2
1280.0 81.6
1320.0 81.6
1360.0 81.3
1400.0 80.79999999999998
1450.0 80.1
1500.0 79.5
1550.0 79.2
1600.0 79.4
1650.0 80.1
1700.0 80.6
1750.0 80.79999999999998
1800.0 80.6
1850.0 80.0
1900.0 79.2
1950.0 78.20000000000002
2000.0 77.0
2060.0 75.79999999999998
2120.0 75.0
2180.0 75.0
2240.0 75.4
2300.0 76.0
2360.0 76.5
2400.0 76.80000000000001
2500.0 77.19999999999999
2580.0 77.9
2650.0 78.20000000000002
2720.0 78.20000000000002
2800.0 78.1
2900.0 78.0
3000.0 78.1
3070.0 78.7
3150.0 79.1
3250.0 79.4
3350.0 79.8
3450.0 79.5
3550.0 78.9
3650.0 78.0
3750.0 76.9
3870.0 76.4
4000.0 76.3
4120.0 76.6
4250.0 77.1
4370.0 77.19999999999999
4500.0 77.4
4620.0 77.4
4750.0 77.19999999999999
4870.0 77.0
5000.0 77.0
5150.0 76.4
5300.0 74.69999999999999
5450.0 72.4
5600.0 70.2
5800.0 69.1
6000.0 69.6
6150.0 71.1
6300.0 72.5
6500.0 73.8
6700.0 75.3
6900.0 76.6
7100.0 77.7
7300.0 78.1
7500.0 77.6
7750.0 76.7
8000.0 75.5
8250.0 75.4
8500.0 76.0
8750.0 76.80000000000001
9000.0 77.7
9250.0 78.1
9500.0 78.1
9750.0 78.0
10000.0 77.9
10300.0 77.7
10600.0 77.8
10900.0 77.9
11200.0 77.6
11500.0 76.80000000000001
11800.0 75.9
12200.0 75.0
12500.0 74.69999999999999
12800.0 74.8
13200.0 74.69999999999999
13600.0 74.6
14000.0 74.69999999999999
14500.0 75.1
15000.0 76.2
15500.0 77.7
16000.0 78.8
16500.0 79.5
17000.0 79.8
17500.0 80.1
18000.0 80.9
18500.0 81.9
19000.0 82.5
19500.0 82.5
