Freq "On Axis"
22.4 51.10000000000001
23.0 51.3
23.6 52.2
24.0 52.500000000000014
25.0 52.2
25.8 51.3
26.5 50.10000000000001
27.2 49.39999999999999
28.0 49.60000000000001
29.0 50.2
30.0 51.000000000000014
30.7 51.89999999999999
31.5 52.39999999999999
32.5 53.10000000000001
33.5 53.89999999999999
34.5 54.60000000000001
35.5 55.3
36.5 56.10000000000001
37.5 57.10000000000001
38.7 57.89999999999999
40.0 58.999999999999986
41.2 60.10000000000001
42.5 60.8
43.7 61.89999999999999
45.0 63.0
46.2 64.2
47.5 65.7
48.7 67.2
50.0 68.4
51.5 69.4
53.0 70.3
54.5 71.10000000000001
56.0 71.8
58.0 72.4
60.0 73.0
61.5 73.4
63.0 73.7
65.0 73.99999999999999
67.0 74.4
69.0 74.7
71.0 75.09999999999998
73.0 75.39999999999999
75.0 75.8
77.5 76.2
80.0 76.6
82.5 76.9
85.0 77.3
87.5 77.59999999999998
90.0 77.8
92.5 78.0
95.0 78.2
97.5 78.3
100.0 78.4
103.0 78.4
106.0 78.4
109.0 78.3
112.0 78.1
115.0 77.89999999999999
118.0 77.59999999999998
122.0 77.4
125.0 77.3
128.0 77.1
132.0 77.0
136.0 76.9
140.0 76.7
145.0 76.6
150.0 76.40000000000002
155.0 76.3
160.0 76.10000000000001
165.0 75.9
170.0 75.8
175.0 75.6
180.0 75.6
185.0 75.8
190.0 76.0
195.0 76.2
200.0 76.3
206.0 76.3
212.0 76.40000000000002
218.0 76.49999999999999
224.0 76.7
230.0 76.9
236.0 77.1
240.0 77.4
250.0 77.59999999999998
258.0 77.89999999999999
265.0 78.1
272.0 78.2
280.0 78.60000000000001
290.0 78.99999999999999
300.0 79.6
307.0 80.3
315.0 81.0
325.0 81.6
335.0 82.0
345.0 82.1
355.0 82.1
365.0 82.1
375.0 81.9
387.0 81.7
400.0 81.40000000000002
412.0 80.9
425.0 80.39999999999999
437.0 80.09999999999998
450.0 80.00000000000001
462.0 80.09999999999998
475.0 80.3
487.0 80.39999999999999
500.0 80.3
515.0 79.8
530.0 78.99999999999999
545.0 77.8
560.0 76.49999999999999
580.0 75.39999999999999
600.0 74.6
615.0 74.2
630.0 74.2
650.0 74.5
670.0 74.7
690.0 75.00000000000001
710.0 75.00000000000001
730.0 75.09999999999998
750.0 75.3
775.0 75.7
800.0 76.3
825.0 77.0
850.0 77.50000000000001
875.0 78.0
900.0 78.4
925.0 78.5
950.0 78.60000000000001
975.0 78.60000000000001
1000.0 78.7
1030.0 78.90000000000002
1060.0 79.1
1090.0 79.2
1120.0 79.1
1150.0 79.2
1180.0 79.7
1220.0 80.39999999999999
1250.0 81.2
1280.0 81.6
1320.0 81.6
1360.0 81.3
1400.0 80.8
1450.0 80.09999999999998
1500.0 79.5
1550.0 79.2
1600.0 79.4
1650.0 80.09999999999998
1700.0 80.6
1750.0 80.8
1800.0 80.6
1850.0 80.00000000000001
1900.0 79.2
1950.0 78.2
2000.0 77.0
2060.0 75.8
2120.0 75.00000000000001
2180.0 75.00000000000001
2240.0 75.39999999999999
2300.0 76.0
2360.0 76.49999999999999
2400.0 76.8
2500.0 77.2
2580.0 77.89999999999999
2650.0 78.2
2720.0 78.2
2800.0 78.1
2900.0 78.0
3000.0 78.1
3070.0 78.7
3150.0 79.1
3250.0 79.4
3350.0 79.8
3450.0 79.5
3550.0 78.90000000000002
3650.0 78.0
3750.0 76.9
3870.0 76.40000000000002
4000.0 76.3
4120.0 76.6
4250.0 77.1
4370.0 77.2
4500.0 77.4
4620.0 77.4
4750.0 77.2
4870.0 77.0
5000.0 77.0
5150.0 76.40000000000002
5300.0 74.7
5450.0 72.4
5600.0 70.2
5800.0 69.1
6000.0 69.6
6150.0 71.10000000000001
6300.0 72.50000000000001
6500.0 73.8
6700.0 75.3
6900.0 76.6
7100.0 77.7
7300.0 78.1
7500.0 77.59999999999998
7750.0 76.7
8000.0 75.5
8250.0 75.39999999999999
8500.0 76.0
8750.0 76.8
9000.0 77.7
9250.0 78.1
9500.0 78.1
9750.0 78.0
10000.0 77.89999999999999
10300.0 77.7
10600.0 77.8
10900.0 77.89999999999999
11200.0 77.59999999999998
11500.0 76.8
11800.0 75.9
12200.0 75.00000000000001
12500.0 74.7
12800.0 74.8
13200.0 74.7
13600.0 74.6
14000.0 74.7
14500.0 75.09999999999998
15000.0 76.2
15500.0 77.7
16000.0 78.8
16500.0 79.5
17000.0 79.8
17500.0 80.09999999999998
18000.0 80.9
18500.0 81.9
19000.0 82.50000000000001
19500.0 82.50000000000001
