Freq "On Axis"
22.4 58.49999999999999
23.0 58.70000000000001
23.6 58.9
24.0 59.1
25.0 59.300000000000004
25.8 59.6
26.5 59.800000000000004
27.2 59.99999999999999
28.0 60.20000000000001
29.0 60.4
30.0 60.6
30.7 60.70000000000001
31.5 60.800000000000004
32.5 60.99999999999999
33.5 61.100000000000016
34.5 61.20000000000001
35.5 61.300000000000004
36.5 61.4
37.5 61.4
38.7 61.4
40.0 61.300000000000004
41.2 61.300000000000004
42.5 61.4
43.7 61.4
45.0 61.4
46.2 61.4
47.5 61.4
48.7 61.4
50.0 61.4
51.5 61.4
53.0 61.4
54.5 61.4
56.0 61.4
58.0 61.4
60.0 61.4
61.5 61.4
63.0 61.4
65.0 61.4
67.0 61.4
69.0 61.4
71.0 61.4
73.0 61.4
75.0 61.4
77.5 61.4
80.0 61.4
82.5 61.4
85.0 61.4
87.5 61.4
90.0 61.4
92.5 61.4
95.0 61.4
97.5 61.4
100.0 61.4
103.0 61.4
106.0 61.4
109.0 61.4
112.0 61.4
115.0 61.4
118.0 61.4
122.0 61.4
125.0 61.4
128.0 61.4
132.0 61.4
136.0 61.4
140.0 61.4
145.0 61.4
150.0 61.4
155.0 61.4
160.0 61.4
165.0 61.4
170.0 61.4
175.0 61.4
180.0 61.4
185.0 61.4
190.0 61.4
195.0 61.4
200.0 61.4
206.0 61.4
212.0 61.4
218.0 61.4
224.0 61.4
230.0 61.4
236.0 61.4
240.0 61.4
250.0 61.4
258.0 61.4
265.0 61.4
272.0 61.4
280.0 61.4
290.0 61.4
300.0 61.4
307.0 61.4
315.0 61.4
325.0 61.4
335.0 61.4
345.0 61.4
355.0 61.4
365.0 61.4
375.0 61.4
387.0 61.4
400.0 61.4
412.0 61.300000000000004
425.0 61.300000000000004
437.0 61.300000000000004
450.0 61.4
462.0 61.4
475.0 61.4
487.0 61.4
500.0 61.300000000000004
515.0 61.4
530.0 61.300000000000004
545.0 61.4
560.0 61.4
580.0 61.4
600.0 61.4
615.0 61.300000000000004
630.0 61.4
650.0 61.4
670.0 61.4
690.0 61.4
710.0 61.4
730.0 61.300000000000004
750.0 61.300000000000004
775.0 61.300000000000004
800.0 61.300000000000004
825.0 61.300000000000004
850.0 61.300000000000004
875.0 61.300000000000004
900.0 61.4
925.0 61.300000000000004
950.0 61.300000000000004
975.0 61.4
1000.0 61.300000000000004
1030.0 61.300000000000004
1060.0 61.300000000000004
1090.0 61.300000000000004
1120.0 61.300000000000004
1150.0 61.300000000000004
1180.0 61.300000000000004
1220.0 61.4
1250.0 61.4
1280.0 61.4
1320.0 61.4
1360.0 61.300000000000004
1400.0 61.300000000000004
1450.0 61.4
1500.0 61.4
1550.0 61.300000000000004
1600.0 61.4
1650.0 61.4
1700.0 61.300000000000004
1750.0 61.300000000000004
1800.0 61.300000000000004
1850.0 61.300000000000004
1900.0 61.300000000000004
1950.0 61.300000000000004
2000.0 61.300000000000004
2060.0 61.4
2120.0 61.4
2180.0 61.4
2240.0 61.4
2300.0 61.49999999999999
2360.0 61.49999999999999
2400.0 61.4
2500.0 61.300000000000004
2580.0 61.20000000000001
2650.0 61.300000000000004
2720.0 61.300000000000004
2800.0 61.300000000000004
2900.0 61.300000000000004
3000.0 61.20000000000001
3070.0 61.20000000000001
3150.0 61.20000000000001
3250.0 61.100000000000016
3350.0 61.20000000000001
3450.0 61.4
3550.0 61.4
3650.0 61.4
3750.0 61.4
3870.0 61.4
4000.0 61.49999999999999
4120.0 61.6
4250.0 61.6
4370.0 61.49999999999999
4500.0 61.49999999999999
4620.0 61.4
4750.0 61.4
4870.0 61.300000000000004
5000.0 61.20000000000001
5150.0 60.99999999999999
5300.0 60.99999999999999
5450.0 61.100000000000016
5600.0 61.20000000000001
5800.0 61.300000000000004
6000.0 61.49999999999999
6150.0 61.6
6300.0 61.49999999999999
6500.0 61.49999999999999
6700.0 61.4
6900.0 61.20000000000001
7100.0 61.100000000000016
7300.0 60.99999999999999
7500.0 61.100000000000016
7750.0 61.20000000000001
8000.0 61.300000000000004
8250.0 61.4
8500.0 61.20000000000001
8750.0 61.100000000000016
9000.0 61.100000000000016
9250.0 61.100000000000016
9500.0 61.100000000000016
9750.0 61.100000000000016
10000.0 61.100000000000016
10300.0 61.100000000000016
10600.0 60.99999999999999
10900.0 60.9
11200.0 60.9
11500.0 60.99999999999999
11800.0 60.9
12200.0 60.9
12500.0 60.800000000000004
12800.0 60.6
13200.0 60.49999999999999
13600.0 60.4
14000.0 60.300000000000004
14500.0 60.4
15000.0 60.300000000000004
15500.0 60.20000000000001
16000.0 60.09999999999999
16500.0 59.800000000000004
17000.0 59.6
17500.0 59.300000000000004
18000.0 59.1
18500.0 58.9
19000.0 58.70000000000001
19500.0 58.49999999999999
