Freq,On Axis,Listening Window,Sound Power,Early Reflections,Early Reflections DI,Sound Power DI,DI offset
20.5078,60.30225,60.356770073009855,61.63395935625705,61.11114419006189,49.24562588294796,48.722810716752804,50
21.9727,60.79655000000001,60.828897190997694,61.75594108116111,61.411389380282245,49.41750781071545,49.07295610983658,50
23.4375,62.078950000000006,62.12612950741915,63.09336182382195,62.72362280713641,49.40250670028274,49.0327676835972,50
24.9023,64.83395,64.85784743183304,65.13006388079869,65.06453925119412,49.79330818063892,49.72778355103435,50
26.3672,65.94955,65.96903133420473,66.33000565619146,66.20244573981087,49.76658559439386,49.63902567801327,50
27.832,67.14815,67.16753239070569,67.47990060711287,67.36675917850378,49.800773212201904,49.68763178359282,50
29.2969,68.12534999999998,68.13585365760487,68.2533471260182,68.22574878294746,49.91010487465741,49.88250653158667,50
30.7617,69.00775,69.01305068880298,69.00169145614636,69.0306866941251,49.98236399467788,50.011359232656616,50
32.2266,69.81025000000001,69.81143425463596,69.72765344395562,69.7842691960045,50.027165058631454,50.08378081068034,50
33.6914,70.62255,70.62076629334295,70.47890365433575,70.5618118324682,50.05895446087476,50.1418626390072,50
35.1562,71.38455,71.38012674288561,71.20340554380316,71.29654444013937,50.08358230274624,50.17672119908245,50
36.6211,71.98654999999998,71.97937121016743,71.75341813453309,71.87142813354649,50.10794307662094,50.22595307563434,50
38.0859,72.75974999999998,72.74816111588015,72.41883402183093,72.58836382237807,50.15979729350208,50.32932709404922,50
39.5508,73.48075,73.46701183257683,73.10535130928322,73.28805827844278,50.178953554134054,50.36166052329361,50
41.0156,74.14115,74.12612152258238,73.75761817824606,73.9407339303151,50.185387592267276,50.36850334433632,50
42.4805,74.84114999999998,74.82357774406935,74.41284048877021,74.6148456067,50.20873213736935,50.41073725529914,50
43.9453,75.46945,75.44937452274759,74.99770111064863,75.21730830060599,50.2320662221416,50.451673412098955,50
45.4102,76.09915,76.07779322957826,75.61508859025325,75.83709192980942,50.240701299768844,50.46270463932501,50
46.875,76.70305,76.67902345222686,76.18651740058498,76.42063770689747,50.25838574532939,50.49250605164188,50
48.3398,77.29594999999999,77.2707015939276,76.7474774813943,76.99666312238074,50.27403847154686,50.5232241125333,50
51.2695,78.52545,78.49640218218588,77.93136148547516,78.19810229988533,50.29829988230054,50.56504069671071,50
52.7344,79.11425,79.08284089507355,78.48295974170155,78.76650653937766,50.316334355695886,50.599881153371996,50
54.1992,79.72895,79.69554890734159,79.0704466416663,79.36466431290408,50.33088459443751,50.625102265675295,50
55.6641,80.33035,80.29413805218583,79.62374813435318,79.94050343803092,50.35363461415491,50.67038991783265,50
58.5938,81.49925,81.45791611839572,80.69512415220571,81.06096465840649,50.396951459989225,50.76279196619001,50
60.0586,82.05275,82.0099323779649,81.21203390163396,81.5967368806668,50.413195497298105,50.79789847633094,50
62.9883,83.11585,83.07250009839913,82.29280020762336,82.66529074971457,50.40720934868456,50.779699890775774,50
64.4531,83.66414999999999,83.62073032395291,82.85751861831703,83.21884840763133,50.401881916321585,50.76321170563588,50
67.3828,84.72744999999999,84.682286657573,83.93354347468689,84.28124659458469,50.401040062988315,50.748743182886116,50
68.8477,85.27375,85.22716321531597,84.46987738025088,84.81975571984232,50.40740749547365,50.75728583506509,50
71.7773,86.33645,86.28701242217696,85.51983374841045,85.86983374425346,50.4171786779235,50.76717867376651,50
74.707,87.44715000000001,87.39349589095512,86.58763248411881,86.95435714784958,50.439138743105545,50.80586340683631,50
77.6367,88.55925,88.50093173357564,87.63640252244181,88.0319599995746,50.468971734001045,50.86452921113383,50
79.1016,89.09915,89.03854321895535,88.14830359096149,88.55617434764378,50.48236887131158,50.890239627993864,50
82.0312,90.14965,90.08476939274914,89.15339281278642,89.57742825097141,50.50734114177773,50.931376579962716,50
84.9609,91.19915,91.12899680115008,90.11129432963774,90.57888723290161,50.55010956824847,51.01770247151234,50
87.8906,92.13105,92.05942775768857,91.03127367079513,91.5000999228413,50.55932783484727,51.02815408689344,50
90.8203,92.99145,92.91518376785157,91.86806538652367,92.33757946199674,50.577604305854834,51.047118381327905,50
95.2148,94.43225,94.35167096534423,93.27218529453465,93.76047517317222,50.591195792172,51.079485670809575,50
98.1445,95.18585,95.10235445671378,94.02440338880822,94.51090329009469,50.591451166619095,51.07795106790556,50
101.074,95.82405,95.7339053861506,94.57553507921085,95.1043122209772,50.62959316517339,51.158370306939744,50
105.469,96.23195,96.1320913786499,94.77220893789924,95.40965961971425,50.722431758935656,51.35988244075067,50
108.398,96.24575,96.13959035320472,94.72934102550668,95.38769616343787,50.75189418976686,51.41024932769804,50
112.793,96.14395,96.02589980052271,94.5736908224659,95.24114143271281,50.7847583678099,51.4522089780568,50
117.188,95.41295,95.28457272608074,93.6561989523384,94.40670996144068,50.87786276464006,51.62837377374234,50
120.117,94.90795,94.77157168227032,92.85908849793198,93.76881440926131,51.00275727300901,51.91248318433834,50
124.512,95.02784999999999,94.89806276739004,93.08767176137353,93.9522828108881,50.94577995650195,51.810391006016516,50
128.906,94.47885,94.33947007628315,92.57188153728079,93.40450409455343,50.93496598172972,51.76758853900236,50
133.301,94.01775,93.86744231650825,91.7753061260026,92.80322406635973,51.064218250148514,52.09213619050564,50
139.16,93.49165,93.33762081631018,91.15681728766627,92.22753000757315,51.11009080873703,52.18080352864391,50
143.555,93.18615,93.02803698843485,90.66497624724813,91.83417626830413,51.193860720130715,52.363060741186715,50
147.949,93.13805,92.98394595031071,90.69629689615472,91.81842403207548,51.16552191823523,52.28764905415599,50
153.809,93.03115,92.86704811577731,90.6894244349108,91.73746178819543,51.129586327581876,52.1776236808665,50
159.668,92.70315000000001,92.51198168932108,90.17114051908166,91.2987330431532,51.21324864616787,52.340841170239415,50
165.527,92.53285,92.32057058104742,89.27670654529472,90.83278968785952,51.4877808931879,53.043864035752705,50
171.387,92.93065,92.7276851587216,89.26725729547245,91.10619900136479,51.62148615735681,53.46042786324915,50
177.246,92.28805,92.08707061182251,89.00718319087957,90.58126105756146,51.50580955426105,53.07988742094294,50
183.105,92.00525,91.80988595943873,88.60606503143158,90.27688173686721,51.53300422257152,53.20382092800715,50
188.965,92.21714999999999,92.0191749833444,88.80949834248872,90.48601365461015,51.53316132873425,53.209676640855676,50
196.289,91.89625,91.70401519159584,88.51604240075172,90.18572191037167,51.518293281224175,53.18797279084413,50
203.613,90.72655000000002,90.54173473907574,87.73662480597206,89.14940991578275,51.39232482329298,52.80510993310368,50
210.938,89.98245000000001,89.7681848931579,86.72003766955167,88.26980428446419,51.49838060869371,53.04814722360622,50
218.262,90.49415,90.2956276052373,86.9795763776551,88.7166453248119,51.57898228042539,53.31605122758219,50
225.586,91.74825,91.53633367818415,88.91280993835711,90.2237795479317,51.31255413025245,52.623523739827036,50
232.91,94.08245,93.81815780778494,90.46214462180777,92.20382326617269,51.61433454161225,53.356013185977176,50
241.699,94.59385000000002,94.31549857076517,90.12542112953817,92.41005634949697,51.9054422212682,54.190077441227004,50
250.488,96.00445,95.7799901114675,91.28650424761976,93.8270685202698,51.95292159119769,54.49348586384774,50
259.277,95.02024999999999,94.8071474078548,91.49308918616477,93.2301328501814,51.577014557673394,53.31405822169003,50
268.066,95.12364999999998,94.86309618367629,91.10397650370096,93.06724629323175,51.79584989044454,53.75911967997533,50
276.855,95.83465,95.55075283364934,91.63181920653527,93.65367227284055,51.89708056080879,53.91893362711407,50
287.109,95.14665,94.88536679924361,90.76100467207205,92.98260916152493,51.90275763771868,54.124362127171565,50
297.363,94.86245000000001,94.56536478919512,89.96803370092314,92.35075340345863,52.21461138573649,54.59733108827197,50
307.617,95.56225000000002,95.2920915539896,90.87585502250519,93.21469120187906,52.07740035211053,54.4162365314844,50
319.336,96.39985,96.10495129874913,90.83292425521101,93.70347611650872,52.401475182240404,55.27202704353812,50
329.59,95.43945000000001,95.2106708149981,90.85323332772424,93.12744680913576,52.083224005862334,54.357437487273856,50
341.309,94.62505,94.3218637724374,90.53697774495383,92.43031281992857,51.89155095250882,53.784886027483566,50
353.027,95.05145,94.70284778901775,90.41102013201991,92.54914633913201,52.153701449885745,54.29182765699784,50
366.211,95.92225,95.61509096341084,90.83492420465974,93.32556949637203,52.28952146703881,54.78016675875109,50
379.395,95.79235000000001,95.4385291919064,90.93274626359127,93.27793902252894,52.16059016937746,54.50578292831513,50
392.578,94.01154999999999,93.66721147869625,88.7099461332428,91.20183202681893,52.46537945187731,54.95726534545345,50
405.762,91.44315,91.13706350140193,86.42961514976652,88.79889922996243,52.338164271439496,54.707448351635406,50
420.41,91.02325,90.66056209045423,85.48497691524248,88.16423990325391,52.49632218720032,55.17558517521175,50
435.059,90.61585,90.33122547948503,85.84813828892167,88.00824393427577,52.32298154520926,54.48308719056335,50
451.172,89.18505,88.79327873709165,85.55091243008818,87.12808658485534,51.665192152236315,53.24236630700348,50
465.82,92.57055,92.17713556259476,87.56849540866445,89.96597913834536,52.211156424249396,54.60864015393031,50
483.398,94.11004999999999,93.68281241724232,88.34662963741424,91.02024065236796,52.66257176487436,55.33618277982808,50
499.512,94.51705,94.12054899488477,88.78264225407561,91.40327726916102,52.71727172572375,55.33790674080916,50
517.09,92.07545,91.7348652512043,87.1792740895025,89.438888645463,52.2959766057413,54.5555911617018,50
536.133,91.84655000000001,91.34577444056278,87.23075993517317,89.99106482964295,51.354709610919826,54.11501450538961,50
555.176,93.71395,93.29928220923851,88.42318241635458,91.17196594248277,52.12731626675574,54.876099792883934,50
574.219,93.00345,92.58183831105646,87.66415913275404,90.33306855194213,52.248769759114325,54.91767917830242,50
594.727,92.28775,91.83808398401739,86.55625235098105,89.8387886770674,51.99929530694999,55.28183163303633,50
615.234,92.50935,91.93223434947181,86.44170804473603,89.38821663888922,52.544017710582594,55.49052630473578,50
637.207,93.14455,92.59583819249471,87.34744838426396,90.49968865195875,52.09614954053596,55.248389808230755,50
659.18,92.81415,92.24630393556014,86.24955303776456,89.96545472780322,52.280849207756916,55.99675089779558,50
682.617,91.20215,90.73307933318357,85.98261229543724,89.34524880325246,51.38783052993111,54.75046703774633,50
707.52,91.69925,91.19145092283878,85.63571071758814,89.42751862045618,51.7639323023826,55.55574020525064,50
732.422,92.20705,91.45750848644532,84.54547809324306,88.51525554828066,52.94225293816466,56.91203039320226,50
757.324,90.81125,90.20194765773068,83.37230085107895,87.58643912372553,52.61550853400516,56.82964680665174,50
785.156,88.49635,87.81716945814999,81.74040339111068,85.98439777279891,51.83277168535108,56.076766067039316,50
811.523,89.36135,88.95783381436696,83.32490380404688,87.45998549145021,51.49784832291675,55.63293001032008,50
840.82,93.29375,92.72272911249276,86.87818333425001,90.31741118960312,52.40531792288964,55.84454577824275,50
870.117,95.20705,94.82696700110323,89.19067431566997,92.83869502586796,51.988271975235264,55.63629268543326,50
900.879,94.33825,93.77712940830996,88.06716733691387,91.42318447573875,52.35394493257121,55.70996207139609,50
933.105,92.81265,92.72265891681708,87.88620168237843,91.06914815966847,51.65351075714861,54.836457234438654,50
965.332,94.72675,94.07951016103074,87.4670966633475,91.3891151774862,52.690394983544536,56.612413497683235,50
1000.49,93.61575,92.90294808692853,86.26604573533537,89.89764925862967,53.00529882829886,56.636902351593164,50
1035.64,94.24555,93.3454578781764,85.43114412458054,89.6819720602334,53.663485817943,57.91431375359586,50
1072.27,94.82075,93.63090879401369,84.47467273167872,89.16635635346232,54.46455244055137,59.15623606233497,50
1108.89,94.34535000000001,93.19717130062529,83.68878333710707,88.70050276763705,54.49666853298824,59.50838796351822,50
1148.44,94.24335,93.2264984841497,84.64370504118891,89.2203606418383,54.006137842311404,58.58279344296079,50
1189.45,94.03555000000001,92.89551552393988,84.61243770098933,88.97080063619002,53.92471488774986,58.283077822950546,50
1230.47,95.57404999999999,93.93629769566734,83.82323079828275,88.49393120151639,55.442366494150946,60.113066897384584,50
1274.41,92.93475,91.82723894228998,83.06359314055355,87.9111907421654,53.91604820012458,58.76364580173643,50
1319.82,90.46884999999999,89.55477243982466,81.72835499447203,86.29222644616492,53.26254599365974,57.82641744535263,50
1366.7,93.14225,91.32519978320819,81.52920418367458,86.42149704626532,54.903702736942876,59.79599559953361,50
1413.57,95.28255,93.1381628430959,82.25096619889683,87.63475678625184,55.50340605684406,60.887196644199065,50
1463.38,96.37975000000002,94.17840083978622,83.0433733468341,88.76672541896498,55.41167542082124,61.13502749295212,50
1516.11,97.10135,94.92879308052343,84.06258540065248,89.58936822309728,55.33942485742615,60.86620767987095,50
1568.85,95.94335,93.96470593785475,83.48726255729191,88.69579935608074,55.268906581774004,60.47744338056283,50
1624.51,95.66085,93.66084149932568,83.28609271174267,88.43900872954913,55.221832769776555,60.374748787583016,50
1681.64,95.93605000000001,93.90470253106267,83.65354165353602,88.8793400154591,55.02536251560356,60.251160877526644,50
1741.7,95.86104999999999,93.98921589970122,84.18051424121974,89.30218042422302,54.6870354754782,59.80870165848148,50
1803.22,94.96085000000001,93.38651887462285,83.80584045678397,88.55744132967976,54.82907754494309,59.58067841783888,50
1866.21,95.43395,93.37040094310433,83.79871047518431,88.53040868005515,54.83999226304918,59.57169046792002,50
1932.13,95.17655,93.4728114377682,84.2923283131014,88.9388629896696,54.5339484480986,59.18048312466681,50
1999.51,96.68425,94.27799133552541,84.91321796651931,89.68876144382386,54.58922989170155,59.3647733690061,50
2069.82,97.72435,95.30048467312447,85.95326007911856,90.64796549127654,54.652519181847936,59.34722459400591,50
2143.07,97.31705,95.15744386749707,85.87064584504897,90.41246380304811,54.74498006444895,59.286798022448096,50
2219.24,97.34545000000001,94.87885504248824,85.92389676279657,90.48045896974644,54.398396072741804,58.95495827969167,50
2296.88,97.69565,95.48269500309651,86.49249206959851,91.04392032113927,54.43877468195724,58.990202933498,50
2378.91,97.89405000000001,95.70668450583942,86.51497730136633,91.10616786682387,54.60051663901555,59.19170720447309,50
2462.4,95.92515,94.35623201717111,85.58413819401214,90.0349208376364,54.3213111795347,58.77209382315897,50
2548.83,94.28155,93.54233767252077,84.8796567942577,89.35759335487107,54.1847443176497,58.662680878263075,50
2639.65,94.32255000000002,93.91849348007524,85.15149604781223,89.35763785356139,54.560855626513856,58.76699743226301,50
2731.93,94.68665,93.68381312887473,84.9605561250881,89.16441959715249,54.519393531722244,58.72325700378663,50
2828.61,93.50365000000001,93.3598175433462,84.7021003127379,88.89929185938881,54.460525683957385,58.6577172306083,50
2928.22,93.03145,92.38862004882506,83.74529475329274,87.97552252381644,54.413097525008624,58.64332529553232,50
3030.76,92.09035,92.3496978775836,83.56005902281278,87.649545009216,54.700152868367596,58.789638854770814,50
3137.7,94.02875,93.15783402180732,84.13278791020397,88.24867882657135,54.90915519523597,59.025046111603345,50
3249.02,93.17585,91.87813017552392,82.7998525066321,86.96223588006974,54.91589429545418,59.078277668891815,50
3363.28,92.57025,92.05669415726628,82.87926308704405,87.0588738884698,54.997820268796474,59.17743107022223,50
3481.93,93.75735,92.84447766655195,83.4114785822489,87.48137817413719,55.36309949241476,59.43299908430305,50
3604.98,93.16655000000002,92.37879061890605,83.09423751378982,87.36092923876326,55.01786138014279,59.28455310511623,50
3732.42,93.81115,93.39379553319309,84.18718381482118,88.46620291804086,54.92759261515222,59.2066117183719,50
3864.26,92.52435,92.48480826633515,83.85889451704828,87.89529307379291,54.58951519254224,58.625913749286866,50
4000.49,95.44755,94.15687197232309,85.18786094161048,89.51888735930133,54.63798461302176,58.96901103071261,50
4141.11,95.04815,94.06935745074486,85.2798687777863,89.38032025305635,54.689037197688506,58.789488672958555,50
4287.6,95.73805,94.40831195039586,85.39823508849437,89.75935740535277,54.64895454504308,59.01007686190148,50
4438.48,96.12865000000001,94.7371100503922,85.38050712910696,89.58775861553825,55.149351434853955,59.356602921285244,50
4595.21,95.92615,94.40739980911242,84.96363831203787,89.28313347439607,55.12426633471635,59.44376149707455,50
4756.35,96.12395000000001,94.65352386789367,85.08268426982322,89.4592665359709,55.19425733192277,59.57083959807045,50
4924.8,96.25955,94.65915494912872,85.1503357815853,89.46207256750809,55.19708238162063,59.50881916754342,50
5097.66,96.03605,94.37105870148561,84.95916546929682,89.34814247975079,55.02291622173482,59.41189323218879,50
5277.83,95.58325,93.78489839603203,84.52532334040966,88.9552540963534,54.829644299678634,59.25957505562238,50
5463.87,94.46695,93.44689281094183,84.14048007327231,88.50228915236491,54.94460365857692,59.30641273766952,50
5657.23,93.98995000000001,92.98441894288517,83.64904787019113,88.1196960518081,54.864722891077065,59.335371072694045,50
5856.45,93.16545,92.22213396692466,82.80148265675692,87.07498112121002,55.14715284571464,59.42065131016774,50
6062.99,93.39575,92.14372702819996,82.5015572762634,86.95659780552793,55.18712922267203,59.642169751936564,50
6276.86,93.68975,92.36089660094329,82.55109164278196,86.91828843374913,55.442608167194166,59.80980495816134,50
6498.05,93.05835,91.77650942422112,82.1540345519934,86.59152243680923,55.18498698741189,59.62247487222771,50
6726.56,92.90005000000001,91.9427419282173,82.33632106625045,86.63463969707125,55.30810223114605,59.60642086196685,50
6963.87,93.32585,92.16395199937143,82.67935519240835,87.0635837497807,55.10036824959073,59.48459680696308,50
7209.96,93.68935,92.79013160092997,83.16152730010937,87.4032647040732,55.38686689685677,59.6286043008206,50
7464.84,94.66165,93.35658303503895,83.57708964708493,88.06073038590218,55.295852649136776,59.77949338795402,50
7727.05,94.77285,93.36564684774336,83.67953685935335,88.1167366570087,55.24891019073466,59.686109988390015,50
7999.51,95.25145,93.92056992390575,84.10288622833582,88.5859814440919,55.334588479813846,59.817683695569926,50
8282.23,95.09274999999998,94.08058183095923,84.09250626292965,88.64866418783693,55.431917643122304,59.988075568029586,50
8573.73,95.12145,94.4544601472367,84.37092325370571,88.90398174202168,55.55047840521502,60.08353689353099,50
8876.95,95.27915,94.50026116339849,84.41606630820523,88.98388284551923,55.51637831787926,60.08419485519326,50
9188.96,95.88815000000001,94.70291983012449,84.57461864302557,89.24751967186354,55.45540015826094,60.12830118709891,50
9514.16,96.43865,95.14095496138636,85.02949948303574,89.4974291876804,55.64352577370596,60.11145547835062,50
9849.61,96.71715,95.46807624812337,85.43383292256244,89.96427447567626,55.503801772447105,60.03424332556092,50
10196.8,96.90565,95.48704695701595,85.3785099433082,89.98507848797894,55.50196846903701,60.108537013707746,50
10555.7,97.19015,95.47970481873222,85.19971129558479,90.05963048937868,55.42007432935354,60.279993523147425,50
10927.7,96.22755000000002,94.43530979262756,84.04690783711904,89.07720287340818,55.35810691921938,60.38840195550853,50
11313.0,94.83805,93.10361999062559,82.7102497751362,87.64580377436567,55.457816216259914,60.393370215489384,50
