Freq "Early Reflections"
20.5078 61.11114419006189
21.9727 61.411389380282245
23.4375 62.72362280713641
24.9023 65.06453925119412
26.3672 66.20244573981087
27.832 67.36675917850378
29.2969 68.22574878294746
30.7617 69.0306866941251
32.2266 69.7842691960045
33.6914 70.5618118324682
35.1562 71.29654444013937
36.6211 71.87142813354649
38.0859 72.58836382237807
39.5508 73.28805827844278
41.0156 73.9407339303151
42.4805 74.6148456067
43.9453 75.21730830060599
45.4102 75.83709192980942
46.875 76.42063770689747
48.3398 76.99666312238074
51.2695 78.19810229988533
52.7344 78.76650653937766
54.1992 79.36466431290408
55.6641 79.94050343803092
58.5938 81.06096465840649
60.0586 81.5967368806668
62.9883 82.66529074971457
64.4531 83.21884840763133
67.3828 84.28124659458469
68.8477 84.81975571984232
71.7773 85.86983374425346
74.707 86.95435714784958
77.6367 88.0319599995746
79.1016 88.55617434764378
82.0312 89.57742825097141
84.9609 90.57888723290161
87.8906 91.5000999228413
90.8203 92.33757946199674
95.2148 93.76047517317222
98.1445 94.51090329009469
101.074 95.1043122209772
105.469 95.40965961971425
108.398 95.38769616343787
112.793 95.24114143271281
117.188 94.40670996144068
120.117 93.76881440926131
124.512 93.9522828108881
128.906 93.40450409455343
133.301 92.80322406635973
139.16 92.22753000757315
143.555 91.83417626830413
147.949 91.81842403207548
153.809 91.73746178819543
159.668 91.2987330431532
165.527 90.83278968785952
171.387 91.10619900136479
177.246 90.58126105756146
183.105 90.27688173686721
188.965 90.48601365461015
196.289 90.18572191037167
203.613 89.14940991578275
210.938 88.26980428446419
218.262 88.7166453248119
225.586 90.2237795479317
232.91 92.20382326617269
241.699 92.41005634949697
250.488 93.8270685202698
259.277 93.2301328501814
268.066 93.06724629323175
276.855 93.65367227284055
287.109 92.98260916152493
297.363 92.35075340345863
307.617 93.21469120187906
319.336 93.70347611650872
329.59 93.12744680913576
341.309 92.43031281992857
353.027 92.54914633913201
366.211 93.32556949637203
379.395 93.27793902252894
392.578 91.20183202681893
405.762 88.79889922996243
420.41 88.16423990325391
435.059 88.00824393427577
451.172 87.12808658485534
465.82 89.96597913834536
483.398 91.02024065236796
499.512 91.40327726916102
517.09 89.438888645463
536.133 89.99106482964295
555.176 91.17196594248277
574.219 90.33306855194213
594.727 89.8387886770674
615.234 89.38821663888922
637.207 90.49968865195875
659.18 89.96545472780322
682.617 89.34524880325246
707.52 89.42751862045618
732.422 88.51525554828066
757.324 87.58643912372553
785.156 85.98439777279891
811.523 87.45998549145021
840.82 90.31741118960312
870.117 92.83869502586796
900.879 91.42318447573875
933.105 91.06914815966847
965.332 91.3891151774862
1000.49 89.89764925862967
1035.64 89.6819720602334
1072.27 89.16635635346232
1108.89 88.70050276763705
1148.44 89.2203606418383
1189.45 88.97080063619002
1230.47 88.49393120151639
1274.41 87.9111907421654
1319.82 86.29222644616492
1366.7 86.42149704626532
1413.57 87.63475678625184
1463.38 88.76672541896498
1516.11 89.58936822309728
1568.85 88.69579935608074
1624.51 88.43900872954913
1681.64 88.8793400154591
1741.7 89.30218042422302
1803.22 88.55744132967976
1866.21 88.53040868005515
1932.13 88.9388629896696
1999.51 89.68876144382386
2069.82 90.64796549127654
2143.07 90.41246380304811
2219.24 90.48045896974644
2296.88 91.04392032113927
2378.91 91.10616786682387
2462.4 90.0349208376364
2548.83 89.35759335487107
2639.65 89.35763785356139
2731.93 89.16441959715249
2828.61 88.89929185938881
2928.22 87.97552252381644
3030.76 87.649545009216
3137.7 88.24867882657135
3249.02 86.96223588006974
3363.28 87.0588738884698
3481.93 87.48137817413719
3604.98 87.36092923876326
3732.42 88.46620291804086
3864.26 87.89529307379291
4000.49 89.51888735930133
4141.11 89.38032025305635
4287.6 89.75935740535277
4438.48 89.58775861553825
4595.21 89.28313347439607
4756.35 89.4592665359709
4924.8 89.46207256750809
5097.66 89.34814247975079
5277.83 88.9552540963534
5463.87 88.50228915236491
5657.23 88.1196960518081
5856.45 87.07498112121002
6062.99 86.95659780552793
6276.86 86.91828843374913
6498.05 86.59152243680923
6726.56 86.63463969707125
6963.87 87.0635837497807
7209.96 87.4032647040732
7464.84 88.06073038590218
7727.05 88.1167366570087
7999.51 88.5859814440919
8282.23 88.64866418783693
8573.73 88.90398174202168
8876.95 88.98388284551923
9188.96 89.24751967186354
9514.16 89.4974291876804
9849.61 89.96427447567626
10196.8 89.98507848797894
10555.7 90.05963048937868
10927.7 89.07720287340818
11313.0 87.64580377436567
11712.9 88.60327309101147
12126.0 89.92608350790186
12553.7 91.24956795949306
12996.1 91.7761829883687
13454.6 88.82322306847642
13929.2 89.77532622686375
14419.9 90.37640585344269
14928.2 90.96423337501169
15455.6 83.13495815104959
16000.5 71.78360520307513
16564.5 81.59926007943525
17148.9 83.59638206518602
17752.4 70.07551878240209
18379.4 67.9883715403265
19026.9 71.76370524838647
19697.8 75.0902866846968
19999.5 74.1868698924472
