Freq "Listening Window"
20.5078 60.8484363011997
21.9727 63.502279477621514
23.4375 65.33263266354562
24.9023 66.83632450785471
26.3672 68.00412792562774
27.832 68.99686385009453
29.2969 69.76289342027341
30.7617 70.35949188250675
32.2266 70.73281194083135
33.6914 71.03044382980185
35.1562 71.16075839453829
36.6211 71.17601328021713
38.0859 71.14166557040468
39.5508 70.86528772219486
41.0156 71.07083652386449
42.4805 71.50498037341845
43.9453 72.08050450466655
45.4102 72.84993471328737
46.875 73.72659663312238
48.3398 74.68993006768261
51.2695 76.2693845534808
52.7344 77.30338974848657
54.1992 78.29261215993976
55.6641 79.05200165870447
58.5938 80.06063121078584
60.0586 80.450797333499
62.9883 81.31627566354577
64.4531 81.28777128834916
67.3828 79.95545783887913
68.8477 79.0848247924279
71.7773 79.49486459832801
74.707 80.15164117041617
77.6367 80.13471715668206
79.1016 80.3889183803466
82.0312 80.78356013565623
84.9609 80.7224380625001
87.8906 80.93194610393061
90.8203 80.86595312734535
95.2148 80.95371817026547
98.1445 81.05509519090921
101.074 81.15473723830392
105.469 81.01244507655723
108.398 81.0194241830685
112.793 81.0829066335847
117.188 80.97618530681613
120.117 80.93417469272586
124.512 80.91386861075414
128.906 80.79549349370231
133.301 80.67391642913758
139.16 80.51312856892727
143.555 80.38953999293871
147.949 80.25419633812125
153.809 79.98376483238759
159.668 79.8358805846228
165.527 79.6649985009041
171.387 79.3573788153196
177.246 79.03871106572834
183.105 78.56398518371086
188.965 78.04266809226942
196.289 77.50097262521128
203.613 76.74465454247328
210.938 76.39905021385822
218.262 75.71054839223234
225.586 75.28080162658999
232.91 75.51458459864304
241.699 75.53374526262986
250.488 75.63704454219155
259.277 75.88373826198355
268.066 76.20363472798469
276.855 76.41750345168018
287.109 76.63741850323494
297.363 77.23230596324693
307.617 77.59943984208397
319.336 77.85791830984316
329.59 78.04856367405357
341.309 78.24146545885596
353.027 78.36602817894094
366.211 78.81951764697511
379.395 78.68885866106929
392.578 78.66251088430548
405.762 78.4367132398619
420.41 78.68036757924911
435.059 78.30230794323707
451.172 78.53151681528257
465.82 78.01540673864031
483.398 77.8469001675697
499.512 77.77099618229458
517.09 78.55352232026776
536.133 78.0398099116589
555.176 77.24801537250445
574.219 77.35226809196384
594.727 79.36422954227312
615.234 80.31234527634058
637.207 79.93809277220781
659.18 80.29745447106711
682.617 80.3196777605449
707.52 81.03079651500836
732.422 81.42246305289198
757.324 80.96229545847659
785.156 82.00452446850133
811.523 81.4836188623165
840.82 81.67516263867887
870.117 81.18892036554595
900.879 81.48141892767948
933.105 81.48076701879212
965.332 81.01948542566437
1000.49 82.10695811460928
1035.64 80.3760736548732
1072.27 80.39659947760735
1108.89 80.24722299365398
1148.44 80.2652904519092
1189.45 81.20409951862985
1230.47 81.78626744287082
1274.41 82.46949270270892
1319.82 83.26608131569343
1366.7 83.20083727729431
1413.57 83.65532660043311
1463.38 83.68497520741411
1516.11 84.78517734633293
1568.85 85.31388665285168
1624.51 84.91687531563454
1681.64 83.71070446813383
1741.7 81.8322076468086
1803.22 82.40017400802775
1866.21 82.49683248238138
1932.13 81.78651641753929
1999.51 80.56184779991722
2069.82 79.2844112912869
2143.07 78.42029467402519
2219.24 78.52858702113205
2296.88 78.81961835616042
2378.91 79.23183193348699
2462.4 80.28388823561836
2548.83 80.8161388760581
2639.65 81.68592499194293
2731.93 82.60927114597698
2828.61 82.71931208997555
2928.22 83.33001799812455
3030.76 84.25196705705045
3137.7 84.4027604125907
3249.02 84.88970790154532
3363.28 85.47075088982085
3481.93 85.14956458776919
3604.98 84.92019522581218
3732.42 84.8049912314941
3864.26 83.67893786839836
4000.49 83.19595699509652
4141.11 83.20087656517053
4287.6 82.07979117693438
4438.48 80.05024607895722
4595.21 77.68570901164911
4756.35 77.07221237268269
4924.8 78.74277248648217
5097.66 80.09197974389004
5277.83 80.33490828594473
5463.87 80.03383308006705
5657.23 79.52378528915783
5856.45 78.7827507698518
6062.99 77.85879349298803
6276.86 76.54585384413566
6498.05 74.70188461270818
6726.56 73.44940794161097
6963.87 72.60321529037437
7209.96 72.88848129955038
7464.84 73.62980881905206
7727.05 74.12575486510809
7999.51 74.85127267991626
8282.23 75.96465553707293
8573.73 76.74265423265085
8876.95 77.08570431929037
9188.96 76.80982285585
9514.16 76.47209800062755
9849.61 77.58417621013389
10196.8 78.31865077025093
10555.7 78.25177883364778
10927.7 78.2031129660498
11313.0 78.43309592422732
11712.9 78.09945583757303
12126.0 77.59019076464325
12553.7 77.7965548909059
12996.1 79.02756704391484
13454.6 80.52433081379823
13929.2 80.76224822402138
14419.9 80.67440230007345
14928.2 79.94352650540289
15455.6 77.10161468094088
16000.5 72.83720795404132
16564.5 70.25450956022826
17148.9 69.23229064806665
17752.4 69.32662592814133
18379.4 68.92987775673842
19026.9 70.5211719415134
19697.8 74.06956102890155
19999.5 75.39167534635634
