Freq "Listening Window"
20.5078 62.60017114968453
21.9727 65.25401432610634
23.4375 67.08436751203045
24.9023 68.58805935633954
26.3672 69.75586277411257
27.832 70.74859869857936
29.2969 71.51462826875824
30.7617 72.11122673099158
32.2266 72.48454678931618
33.6914 72.78217867828668
35.1562 72.91249324302312
36.6211 72.92774812870196
38.0859 72.89340041888951
39.5508 72.6170225706797
41.0156 72.82257137234932
42.4805 73.25671522190328
43.9453 73.83223935315138
45.4102 74.6016695617722
46.875 75.47833148160721
48.3398 76.44166491616744
51.2695 78.02111940196563
52.7344 79.0551245969714
54.1992 80.0443470084246
55.6641 80.8037365071893
58.5938 81.81236605927067
60.0586 82.20253218198383
62.9883 83.0680105120306
64.4531 83.03950613683399
67.3828 81.70719268736396
68.8477 80.83655964091272
71.7773 81.24659944681284
74.707 81.903376018901
77.6367 81.88645200516689
79.1016 82.14065322883143
82.0312 82.53529498414106
84.9609 82.47417291098493
87.8906 82.68368095241544
90.8203 82.61768797583018
95.2148 82.7054530187503
98.1445 82.80683003939404
101.074 82.90647208678875
105.469 82.76417992504206
108.398 82.77115903155332
112.793 82.83464148206953
117.188 82.72792015530096
120.117 82.68590954121069
124.512 82.66560345923897
128.906 82.54722834218714
133.301 82.4256512776224
139.16 82.2648634174121
143.555 82.14127484142354
147.949 82.00593118660608
153.809 81.73549968087242
159.668 81.58761543310763
165.527 81.41673334938893
171.387 81.10911366380444
177.246 80.79044591421317
183.105 80.31572003219569
188.965 79.79440294075425
196.289 79.2527074736961
203.613 78.49638939095811
210.938 78.15078506234305
218.262 77.46228324071717
225.586 77.03253647507482
232.91 77.26631944712787
241.699 77.2854801111147
250.488 77.38877939067638
259.277 77.63547311046838
268.066 77.95536957646952
276.855 78.169238300165
287.109 78.38915335171977
297.363 78.98404081173176
307.617 79.3511746905688
319.336 79.60965315832799
329.59 79.8002985225384
341.309 79.99320030734079
353.027 80.11776302742577
366.211 80.57125249545994
379.395 80.44059350955412
392.578 80.4142457327903
405.762 80.18844808834673
420.41 80.43210242773394
435.059 80.0540427917219
451.172 80.2832516637674
465.82 79.76714158712514
483.398 79.59863501605453
499.512 79.52273103077941
517.09 80.30525716875259
536.133 79.79154476014374
555.176 78.99975022098928
574.219 79.10400294044867
594.727 81.11596439075795
615.234 82.06408012482541
637.207 81.68982762069264
659.18 82.04918931955194
682.617 82.07141260902974
707.52 82.78253136349319
732.422 83.17419790137681
757.324 82.71403030696142
785.156 83.75625931698616
811.523 83.23535371080133
840.82 83.4268974871637
870.117 82.94065521403078
900.879 83.23315377616431
933.105 83.23250186727695
965.332 82.7712202741492
1000.49 83.85869296309411
1035.64 82.12780850335803
1072.27 82.14833432609218
1108.89 81.99895784213881
1148.44 82.01702530039402
1189.45 82.95583436711468
1230.47 83.53800229135565
1274.41 84.22122755119375
1319.82 85.01781616417826
1366.7 84.95257212577914
1413.57 85.40706144891794
1463.38 85.43671005589894
1516.11 86.53691219481776
1568.85 87.06562150133651
1624.51 86.66861016411937
1681.64 85.46243931661866
1741.7 83.58394249529343
1803.22 84.15190885651258
1866.21 84.24856733086621
1932.13 83.53825126602412
1999.51 82.31358264840205
2069.82 81.03614613977173
2143.07 80.17202952251002
2219.24 80.28032186961688
2296.88 80.57135320464525
2378.91 80.98356678197182
2462.4 82.0356230841032
2548.83 82.56787372454293
2639.65 83.43765984042776
2731.93 84.3610059944618
2828.61 84.47104693846038
2928.22 85.08175284660938
3030.76 86.00370190553528
3137.7 86.15449526107552
3249.02 86.64144275003015
3363.28 87.22248573830568
3481.93 86.90129943625402
3604.98 86.67193007429701
3732.42 86.55672607997893
3864.26 85.4306727168832
4000.49 84.94769184358135
4141.11 84.95261141365536
4287.6 83.83152602541921
4438.48 81.80198092744205
4595.21 79.43744386013394
4756.35 78.82394722116751
4924.8 80.494507334967
5097.66 81.84371459237487
5277.83 82.08664313442956
5463.87 81.78556792855188
5657.23 81.27552013764266
5856.45 80.53448561833663
6062.99 79.61052834147286
6276.86 78.2975886926205
6498.05 76.45361946119301
6726.56 75.2011427900958
6963.87 74.3549501388592
7209.96 74.64021614803521
7464.84 75.38154366753689
7727.05 75.87748971359292
7999.51 76.6030075284011
8282.23 77.71639038555776
8573.73 78.49438908113568
8876.95 78.8374391677752
9188.96 78.56155770433483
9514.16 78.22383284911238
9849.61 79.33591105861872
10196.8 80.07038561873576
10555.7 80.0035136821326
10927.7 79.95484781453463
11313.0 80.18483077271215
11712.9 79.85119068605786
12126.0 79.34192561312808
12553.7 79.54828973939073
12996.1 80.77930189239967
13454.6 82.27606566228306
13929.2 82.5139830725062
14419.9 82.42613714855828
14928.2 81.69526135388772
15455.6 78.85334952942571
16000.5 74.58894280252615
16564.5 72.00624440871309
17148.9 70.98402549655148
17752.4 71.07836077662616
18379.4 70.68161260522325
19026.9 72.27290678999823
19697.8 75.82129587738638
19999.5 77.14341019484117
