Freq "On Axis"
20.5078 62.58
21.9727 65.2331
23.4375 67.063
24.9023 68.567
26.3672 69.73469999999999
27.832 70.7274
29.2969 71.49329999999999
30.7617 72.0898
32.2266 72.46299999999998
33.6914 72.7607
35.1562 72.8911
36.6211 72.9061
38.0859 72.8721
39.5508 72.5956
41.0156 72.8011
42.4805 73.2349
43.9453 73.8105
45.4102 74.5801
46.875 75.4567
48.3398 76.4198
51.2695 77.9988
52.7344 79.0332
54.1992 80.0226
55.6641 80.7814
58.5938 81.79
60.0586 82.1801
62.9883 83.0459
64.4531 83.0168
67.3828 81.6842
68.8477 80.8136
71.7773 81.2239
74.707 81.8806
77.6367 81.8633
79.1016 82.11739999999999
82.0312 82.5119
84.9609 82.4509
87.8906 82.6602
90.8203 82.5936
95.2148 82.68149999999999
98.1445 82.7828
101.074 82.8817
105.469 82.7386
108.398 82.746
112.793 82.811
117.188 82.704
120.117 82.6614
124.512 82.6413
128.906 82.52209999999998
133.301 82.4
139.16 82.2391
143.555 82.11469999999998
147.949 81.9788
153.809 81.70729999999999
159.668 81.561
165.527 81.391
171.387 81.08480000000002
177.246 80.7684
183.105 80.2931
188.965 79.7692
196.289 79.2315
203.613 78.4713
210.938 78.13099999999999
218.262 77.4424
225.586 77.007
232.91 77.25169999999999
241.699 77.2782
250.488 77.3712
259.277 77.6189
268.066 77.94609999999999
276.855 78.1538
287.109 78.3675
297.363 78.9798
307.617 79.36129999999999
319.336 79.6116
329.59 79.8045
341.309 79.9817
353.027 80.1132
366.211 80.6032
379.395 80.4619
392.578 80.3924
405.762 80.1889
420.41 80.4527
435.059 80.0298
451.172 80.2444
465.82 79.69619999999999
483.398 79.5416
499.512 79.4654
517.09 80.2528
536.133 79.72529999999999
555.176 78.82809999999999
574.219 78.7165
594.727 81.0819
615.234 81.9469
637.207 81.6539
659.18 82.0123
682.617 82.0408
707.52 82.8424
732.422 83.19170000000001
757.324 82.7136
785.156 83.9386
811.523 83.2479
840.82 83.6274
870.117 83.0219
900.879 83.4509
933.105 83.2733
965.332 82.73119999999999
1000.49 84.0722
1035.64 81.77669999999999
1072.27 82.1563
1108.89 81.9239
1148.44 81.65939999999999
1189.45 82.9763
1230.47 83.18339999999999
1274.41 84.15160000000002
1319.82 84.61109999999998
1366.7 84.7906
1413.57 85.3773
1463.38 86.0421
1516.11 86.8137
1568.85 87.78610000000002
1624.51 86.9272
1681.64 86.1324
1741.7 84.1359
1803.22 85.3912
1866.21 85.0375
1932.13 84.3596
1999.51 83.2524
2069.82 82.11739999999999
2143.07 81.1313
2219.24 80.8264
2296.88 81.4128
2378.91 81.9666
2462.4 82.6772
2548.83 83.184
2639.65 84.0203
2731.93 85.0115
2828.61 85.24419999999999
2928.22 85.7298
3030.76 86.6532
3137.7 86.669
3249.02 87.1479
3363.28 87.7806
3481.93 87.4628
3604.98 86.6174
3732.42 86.3624
3864.26 84.522
4000.49 83.7213
4141.11 83.26780000000001
4287.6 81.0291
4438.48 76.6922
4595.21 73.0266
4756.35 72.2164
4924.8 74.86139999999999
5097.66 79.631
5277.83 81.1055
5463.87 80.78
5657.23 80.2421
5856.45 80.1138
6062.99 80.6092
6276.86 80.042
6498.05 78.53929999999998
6726.56 77.1198
6963.87 75.0476
7209.96 74.2047
7464.84 74.0253
7727.05 74.7903
7999.51 76.498
8282.23 78.15339999999999
8573.73 79.57780000000001
8876.95 79.617
9188.96 78.2536
9514.16 74.6253
9849.61 72.1824
10196.8 72.3714
10555.7 74.79
10927.7 78.3095
11313.0 81.21659999999999
11712.9 82.1806
12126.0 81.8106
12553.7 79.75150000000001
12996.1 78.0908
13454.6 82.8999
13929.2 85.9089
14419.9 85.0056
14928.2 81.8213
15455.6 74.5812
16000.5 62.593299999999985
16564.5 72.24499999999999
17148.9 75.2671
17752.4 73.72760000000001
18379.4 72.81489999999998
19026.9 77.2024
19697.8 79.049
19999.5 78.55409999999999
