Freq "Side Wall Bounce"
20.5078 54.19989393283511
21.9727 55.07608440528283
23.4375 56.32546037340832
24.9023 57.7019124400354
26.3672 59.8783385932327
27.832 61.81544278093389
29.2969 62.876824439606466
30.7617 65.10051147259297
32.2266 67.19121455251236
33.6914 68.96436539719016
35.1562 70.5259751349018
36.6211 71.92019476478163
38.0859 73.386544625838
39.5508 74.57350947341955
41.0156 75.73229107633449
42.4805 76.71858248505478
43.9453 77.63622422621036
45.4102 78.40084926630799
46.875 79.03400915897252
48.3398 79.62877617244659
51.2695 80.55281796793705
52.7344 80.95358210866605
54.1992 81.27193698086135
55.6641 81.5405391486869
58.5938 82.0785023686226
60.0586 82.30057741922316
62.9883 82.7180859211195
64.4531 82.90315497189331
67.3828 83.2278271536019
68.8477 83.37171375226026
71.7773 83.6187733023778
74.707 83.8815200387423
77.6367 84.08477833144009
79.1016 84.15556028009907
82.0312 84.31051831077197
84.9609 84.45314964969816
87.8906 84.53484291063081
90.8203 84.69695274720618
95.2148 84.8992931358355
98.1445 84.9503948157497
101.074 84.96755739220237
105.469 84.98331924821775
108.398 85.01273735007551
112.793 84.97352633693976
117.188 84.85732390076417
120.117 84.8750579427304
124.512 84.94169476898306
128.906 84.85629101538107
133.301 84.70120670789406
139.16 84.62800450893768
143.555 84.61082298814935
147.949 84.7768414325908
153.809 84.86353898671754
159.668 84.58192959399302
165.527 84.45261490828545
171.387 84.39493078149246
177.246 84.20085996117298
183.105 84.00679374870995
188.965 83.97390240279681
196.289 83.77500963441636
203.613 83.60592610516848
210.938 83.4499946951393
218.262 83.20512187044191
225.586 82.78683216474825
232.91 82.52485709377588
241.699 82.08723184484008
250.488 82.83148013302215
259.277 83.88917784888474
268.066 83.09896117104397
276.855 82.69074257947725
287.109 82.62331142956596
297.363 82.57191274002109
307.617 82.20306742577064
319.336 81.92339939387655
329.59 82.05445735705516
341.309 82.12866482200364
353.027 81.36598376754613
366.211 81.04549792996023
379.395 81.71214959985245
392.578 82.18021309292887
405.762 81.7530724166537
420.41 81.66836491728998
435.059 80.75967610047228
451.172 79.94619182859739
465.82 80.72322109182564
483.398 82.00062227273814
499.512 81.6834585719862
517.09 81.17337154444006
536.133 81.4934673551127
555.176 81.96340984134908
574.219 81.68100428279543
594.727 82.96742319792604
615.234 82.21203131083098
637.207 81.8933094327971
659.18 81.3208735443498
682.617 80.46761298323665
707.52 81.10423393977007
732.422 82.5429631981066
757.324 82.44686079863851
785.156 82.50360835634825
811.523 81.36730036750002
840.82 81.84403496837818
870.117 82.1956285765676
900.879 81.4986236504334
933.105 82.13925043678732
965.332 82.46300847794551
1000.49 82.43099110749964
1035.64 81.51015559410942
1072.27 80.3602576494636
1108.89 78.66973923291015
1148.44 77.46160692072213
1189.45 76.43208313256743
1230.47 77.3647317260501
1274.41 77.74838854353857
1319.82 78.02590903265418
1366.7 78.16237765424732
1413.57 77.74447880394273
1463.38 79.02095898410253
1516.11 79.47280527581437
1568.85 80.17503734140412
1624.51 79.02112458136389
1681.64 79.27755920878323
1741.7 79.10909010353585
1803.22 79.95560304446772
1866.21 79.73567966717634
1932.13 79.58200876596315
1999.51 80.19119965541267
2069.82 80.58974213249644
2143.07 80.45642606071195
2219.24 80.60809100809279
2296.88 81.71487132766929
2378.91 81.91464359376954
2462.4 81.1880654481922
2548.83 81.94474789203862
2639.65 82.92570850746348
2731.93 82.7153655057113
2828.61 82.74465711288838
2928.22 82.87207944184996
3030.76 83.3104243497707
3137.7 82.63996138396753
3249.02 82.36325601548171
3363.28 82.44873329501804
3481.93 81.99822030300967
3604.98 81.5915017651184
3732.42 81.5092964085819
3864.26 80.76761776827875
4000.49 80.0814063562201
4141.11 79.40435970970003
4287.6 78.68345381394205
4438.48 78.21275304573778
4595.21 78.6007768264544
4756.35 78.69491991400557
4924.8 79.64452163651362
5097.66 79.3063598511812
5277.83 79.48772360524208
5463.87 79.21936279068196
5657.23 78.99417750062698
5856.45 78.98003667489061
6062.99 79.22376435322525
6276.86 79.33526781029298
6498.05 79.25641335204557
6726.56 79.47136833153446
6963.87 79.02839410651204
7209.96 78.72084962563412
7464.84 78.49252766682837
7727.05 78.05217781660173
7999.51 77.74679840809425
8282.23 77.71407399619324
8573.73 77.77699713228229
8876.95 77.60736171550589
9188.96 77.2557040294873
9514.16 76.96280926814246
9849.61 76.50892651663757
10196.8 76.00072889353673
10555.7 75.46636256970204
10927.7 75.27657963381306
11313.0 75.02858673451762
11712.9 74.95190848635453
12126.0 74.43205408319186
12553.7 73.78151455044254
12996.1 73.01350429163567
13454.6 72.43597660938939
13929.2 72.28086699121408
14419.9 71.99391907967157
14928.2 71.23028521485855
15455.6 70.70784694775757
16000.5 69.52963647177955
16564.5 67.74390202373424
17148.9 65.55838252214363
17752.4 63.75563683148815
18379.4 62.5349105669725
19026.9 61.70803142489535
19697.8 61.27458008817392
19999.5 61.153372161514326
