Freq "Ceiling Bounce"
22.4 48.599999999999994
23.0 50.5
23.6 52.599999999999994
24.0 54.69999999999999
25.0 56.73358982687998
25.8 58.73358982687998
26.5 60.266921851160504
27.2 61.8669218511605
28.0 63.00076749445563
29.0 64.70076749445562
30.0 66.30076749445561
30.7 68.00076749445562
31.5 69.60076749445562
32.5 71.20076749445562
33.5 72.80076749445563
34.5 74.33358982687999
35.5 75.86692185116051
36.5 77.43358982687997
37.5 78.73358982687998
38.7 79.8
40.0 80.8
41.2 81.9669218511605
42.5 82.83358982687997
43.7 83.43358982687998
45.0 84.10076749445561
46.2 84.90076749445561
47.5 85.5669218511605
48.7 86.2669218511605
50.0 86.80076749445561
51.5 87.2
53.0 87.53358982687996
54.5 88.23358982687998
56.0 89.10076749445561
58.0 89.80076749445561
60.0 90.50076749445562
61.5 91.20076749445562
63.0 91.86692185116051
65.0 92.50076749445562
67.0 93.23358982687998
69.0 93.90076749445562
71.0 94.50076749445563
73.0 95.23358982687998
75.0 95.86692185116051
77.5 96.30076749445561
80.0 96.60076749445561
82.5 96.80076749445563
85.0 96.93435140868503
87.5 96.8022846139602
90.0 96.70228461396019
92.5 96.57071732495407
95.0 96.0053180676647
97.5 95.7053180676647
100.0 95.4053180676647
103.0 95.3053180676647
106.0 95.2053180676647
109.0 95.0404416794549
112.0 94.84044167945491
115.0 94.87609175449222
118.0 94.91592692226706
122.0 94.78219967332305
125.0 94.55260953202216
128.0 94.48982856673473
132.0 94.06096514237183
136.0 93.76096514237183
140.0 93.59897445130926
145.0 93.49897445130924
150.0 93.5096325668162
155.0 93.3096325668162
160.0 93.22179738688895
165.0 93.19506458035829
170.0 93.06194867563767
175.0 93.03546263134683
180.0 92.75062128010364
185.0 92.392378988098
190.0 92.16726558859611
195.0 91.98538710465898
200.0 91.86136837622763
206.0 91.70497668676808
212.0 91.3260245235669
218.0 90.90330383828929
224.0 90.75906263657508
230.0 90.38343461029551
236.0 89.77695775614916
240.0 89.2844476236301
250.0 88.79484664455461
258.0 87.97625435142636
265.0 87.20807851055699
272.0 86.82406634433558
280.0 86.6427329742451
290.0 86.4795147828385
300.0 86.18779399843015
307.0 85.66946044792391
315.0 85.09898600207457
325.0 84.73509895460995
335.0 84.83143825467694
345.0 85.31206543822881
355.0 85.80922325566853
365.0 86.30370209631377
375.0 86.57158989436597
387.0 86.52427436407064
400.0 86.12271524046542
412.0 85.34293178137855
425.0 84.36246138862944
437.0 83.31321937972791
450.0 82.16684682690847
462.0 81.33115519823288
475.0 80.87026290586937
487.0 80.96377341277214
500.0 81.51036112689506
515.0 82.21032707258254
530.0 82.69735774388856
545.0 82.65234182425075
560.0 82.23155215291052
580.0 81.85295536787778
600.0 81.72179738688894
615.0 81.55260953202217
630.0 81.20076749445562
650.0 80.77001488257476
670.0 80.52117404089635
690.0 80.48910480561007
710.0 80.56585727595257
730.0 80.7710061201148
750.0 80.91628511153326
775.0 80.78788684692405
800.0 80.41489550005284
825.0 79.94723247175403
850.0 79.58320713130698
875.0 79.31968132085582
900.0 79.2137906990815
925.0 79.2750124653695
950.0 79.36348409184528
975.0 79.70062351149433
1000.0 80.33134507421575
1030.0 81.38307260077038
1060.0 82.20185551045405
1090.0 82.69899139404578
1120.0 83.06857168516422
1150.0 83.6329809424154
1180.0 84.1903902919586
1220.0 84.53635504891596
1250.0 84.51326997082845
1280.0 83.98098974763786
1320.0 83.41115554505778
1360.0 82.75253664114182
1400.0 81.83496860938543
1450.0 80.57362826397426
1500.0 79.23078650810345
1550.0 79.00757365249842
1600.0 79.87521320264587
1650.0 80.51016384462658
1700.0 80.70204168412432
1750.0 80.30076041269733
1800.0 80.10517920355876
1850.0 80.25509490178062
1900.0 80.46327605012604
1950.0 80.23433151889408
2000.0 79.38451861283171
2060.0 78.06199511925614
2120.0 76.47138480885906
2180.0 76.10099270130729
2240.0 76.61828671879965
2300.0 77.7045044404048
2360.0 79.24504308340843
2400.0 80.31982242441175
2500.0 80.98567622869432
2580.0 81.11436254873647
2650.0 80.74272185999612
2720.0 79.67876001728112
2800.0 78.63387333691122
2900.0 78.50699206786125
3000.0 78.29962038125225
3070.0 78.37796950088773
3150.0 78.82452995690014
3250.0 79.01492621331236
3350.0 78.97371983360762
3450.0 78.6187342646711
3550.0 78.77222285443041
3650.0 79.0178551643711
3750.0 78.92958398910454
3870.0 79.21990088044564
4000.0 79.28015929543267
4120.0 79.79896195625264
4250.0 80.4889264649047
4370.0 79.40731433183649
4500.0 77.09486468685682
4620.0 77.4916488347202
4750.0 77.7864315980152
4870.0 77.59159559854399
5000.0 76.67488019392326
5150.0 76.91892235524028
5300.0 77.22113426457796
5450.0 76.80038315445829
5600.0 76.05204843811089
5800.0 76.60039145841122
6000.0 75.4147884211738
6150.0 74.1980953655925
6300.0 73.28744001510523
6500.0 71.84943984443674
6700.0 70.40910102226442
6900.0 72.09389642518191
7100.0 74.28839149731749
7300.0 76.43596997348044
7500.0 76.30351316864217
7750.0 75.84493320431456
8000.0 77.38297529590969
8250.0 76.63966922688142
8500.0 75.86079867160025
8750.0 78.21355984687298
9000.0 76.74153912439446
9250.0 75.73342778780197
9500.0 76.01168633761742
9750.0 75.14342841636484
10000.0 74.74037368189586
10300.0 74.23538090974202
10600.0 73.14860435984691
10900.0 73.25328113456106
11200.0 75.0166418505163
11500.0 74.87778630902393
11800.0 75.02945736043878
12200.0 75.30894996649074
12500.0 75.01922939741904
12800.0 77.51365684929002
13200.0 78.26716013021975
13600.0 78.12059159810552
14000.0 78.8125252900939
14500.0 79.57677442751935
15000.0 76.61711417108046
15500.0 74.77069050939443
16000.0 75.01953415865245
16500.0 74.32846464413421
17000.0 72.72373223235392
17500.0 74.70526228275908
18000.0 74.54228627895213
18500.0 76.75702166118884
19000.0 76.92917660238062
19500.0 77.79182579115225
