Freq "Front Wall Bounce"
22.4 48.38585448910237
23.0 50.28618450501949
23.6 52.54313939533782
24.0 54.5716627539189
25.0 56.671662753918895
25.8 58.743139395337806
26.5 60.44313939533782
27.2 61.915083142438846
28.0 63.243139395337806
29.0 64.87166275391891
30.0 66.5716627539189
30.7 68.17166275391891
31.5 69.84313939533783
32.5 71.4288071567453
33.5 72.98585448910238
34.5 74.54313939533782
35.5 76.0716627539189
36.5 77.52880715674529
37.5 78.67166275391891
38.7 79.7
40.0 80.61442746339746
41.2 81.5716627539189
42.5 82.2716627539189
43.7 82.75742449135815
45.0 83.2861845050195
46.2 83.94313939533782
47.5 84.4861845050195
48.7 85.01508314243884
50.0 86.2590700361194
51.5 85.88748929892041
53.0 85.80229476693694
54.5 86.44675150375355
56.0 87.23175513861906
58.0 87.97658977321828
60.0 88.69177750674625
61.5 89.32199455725407
63.0 89.8652871599955
65.0 90.39568844094993
67.0 90.99568844094995
69.0 91.69568844094992
71.0 92.39568844094993
73.0 93.0698262583904
75.0 93.64194243205382
77.5 94.09568844094993
80.0 94.39568844094993
82.5 94.5526993344688
85.0 94.88051440212308
87.5 94.95000634017072
90.0 95.0652871599955
92.5 95.08051440212307
95.0 94.88051440212308
97.5 94.50691231221836
100.0 94.53502122931327
103.0 94.53502122931327
106.0 94.36169626397191
109.0 94.14709226064556
112.0 93.94709226064558
115.0 94.04709226064557
118.0 94.34709226064557
122.0 94.31704993328867
125.0 94.14574459001024
128.0 94.20263119370127
132.0 93.97297191737702
136.0 93.73012930082682
140.0 93.77297191737702
145.0 93.85873795327733
150.0 93.88651449586095
155.0 93.81541094484143
160.0 93.80163697981935
165.0 93.90163697981934
170.0 93.8726484311316
175.0 93.94346508697899
180.0 93.74346508697899
185.0 93.47264843113159
190.0 93.40097926743462
195.0 93.32977995082831
200.0 93.30097926743463
206.0 93.23044853394865
212.0 93.00097926743462
218.0 92.63044853394865
224.0 92.60097926743462
230.0 92.31475531529209
236.0 91.80097926743463
240.0 91.4147553152921
250.0 91.00065786069425
258.0 90.30065786069426
265.0 89.62880715674527
272.0 89.37166275391891
280.0 89.3437907541973
290.0 89.35840584504061
300.0 89.17331062323636
307.0 88.84608542591296
315.0 88.39044363353324
325.0 88.23537086618987
335.0 88.52492954673289
345.0 89.2249295467329
355.0 90.04548235428294
365.0 90.82049951134702
375.0 91.37602210108668
387.0 91.65121482311349
400.0 91.65121482311349
412.0 91.31068966302631
425.0 90.74809312479161
437.0 90.10190494384014
450.0 89.38675264754275
462.0 88.82665233501481
475.0 88.69365037512866
487.0 89.10620930785954
500.0 89.8496804489069
515.0 90.66391523505612
530.0 91.20933512527256
545.0 91.2374284161211
560.0 90.83742841612113
580.0 90.46802465184253
600.0 90.26665221690693
615.0 89.97902955683283
630.0 89.47902955683284
650.0 88.86192422772251
670.0 88.31769047133515
690.0 87.9147553152921
710.0 87.60065786069426
730.0 87.34608542591296
750.0 87.02492954673289
775.0 86.4675819127257
800.0 85.70208450859423
825.0 84.89675142004312
850.0 84.19507853551454
875.0 83.72175206112071
900.0 83.385104433524
925.0 83.10421034020332
950.0 82.78233651463984
975.0 82.43057865793932
1000.0 82.30797700808364
1030.0 82.55762179737049
1060.0 82.4877596776618
1090.0 81.95937275465215
1120.0 81.36732396441725
1150.0 81.12921664092951
1180.0 81.1352116759
1220.0 81.19714290131442
1250.0 81.20889757467543
1280.0 80.94057812194609
1320.0 80.88610659548075
1360.0 80.72072058326418
1400.0 80.41214672262774
1450.0 80.52277870057047
1500.0 80.81456097652834
1550.0 81.37527004093275
1600.0 82.17971323156833
1650.0 82.59332460315102
1700.0 83.15029724297268
1750.0 83.35746450148743
1800.0 83.1775554068632
1850.0 83.26146611799362
1900.0 83.53393336837837
1950.0 83.61428822279271
2000.0 83.31084400479682
2060.0 82.54749469043327
2120.0 81.61189812977946
2180.0 80.5959989246202
2240.0 79.79086229183501
2300.0 79.90842240424969
2360.0 80.97089100946569
2400.0 81.93922105951141
2500.0 81.70812352753475
2580.0 80.50808946799532
2650.0 80.52638964625666
2720.0 81.95914525939185
2800.0 83.5136394060688
2900.0 84.27397404806362
3000.0 84.68110186186192
3070.0 84.50651430038141
3150.0 83.90632709113908
3250.0 83.63133614777541
3350.0 84.43623571486145
3450.0 85.03224520050476
3550.0 84.47930612532504
3650.0 83.32439334504727
3750.0 82.20097254848514
3870.0 82.1760810452431
4000.0 83.06779163544479
4120.0 83.34831893971334
4250.0 83.22295640673121
4370.0 83.32002340588184
4500.0 83.323620128833
4620.0 83.70021534520868
4750.0 83.9501381722196
4870.0 83.7226594188069
5000.0 83.41068966302632
5150.0 83.37110159770951
5300.0 84.08068188217032
5450.0 83.6900234868227
5600.0 82.83619560599413
5800.0 81.9669031315327
6000.0 81.45602025920402
6150.0 81.075229205732
6300.0 81.03799913471904
6500.0 81.28283481779151
6700.0 80.96514889198822
6900.0 81.00900447593727
7100.0 80.65315159377354
7300.0 80.33102494287569
7500.0 80.69209067370426
7750.0 80.77088286863999
8000.0 79.69011324176813
8250.0 79.31045045463503
8500.0 79.95546484617883
8750.0 79.80663692437659
9000.0 79.44421073000629
9250.0 78.60757458478888
9500.0 77.8534230423985
9750.0 78.50267084596261
10000.0 77.71382443524388
10300.0 78.67932296839601
10600.0 78.89922518727536
10900.0 79.02824230780804
11200.0 79.76756517626808
11500.0 81.03025838484648
11800.0 81.02096335169813
12200.0 80.95382137494755
12500.0 80.89478139188466
12800.0 81.21093473639533
13200.0 81.53275157997822
13600.0 81.21742473680803
14000.0 80.80072130310238
14500.0 81.53481806741696
15000.0 80.36926592400185
15500.0 79.43671648838657
16000.0 78.61191006979796
16500.0 77.48773947398911
17000.0 77.26720495371794
17500.0 79.28026557507897
18000.0 75.95826379529719
18500.0 77.22979499755904
19000.0 78.32162046717144
19500.0 78.4593254270525
