Freq "Rear Wall Bounce"
22.4 51.99476938338469
23.0 53.9213465962622
23.6 56.06863905698788
24.0 58.11093068342029
25.0 60.20024622901542
25.8 62.232226687254894
26.5 63.88440887489321
27.2 65.37939867317226
28.0 66.66912122704679
29.0 68.32183686724736
30.0 69.97976574104557
30.7 71.63765652835497
31.5 73.26960613465361
32.5 74.89123286856665
33.5 76.5021885682331
34.5 78.03415477922377
35.5 79.57191346997327
36.5 81.07705193037643
37.5 82.2774108369874
38.7 83.34212220753885
40.0 84.31113413872563
41.2 85.25430280062483
42.5 85.94296711779265
43.7 86.38737206369316
45.0 86.89311662466707
46.2 87.43948479609418
47.5 87.87138237360652
48.7 88.27617863933996
50.0 89.18087530612583
51.5 88.75293145275737
53.0 88.4924081083804
54.5 88.85838145723298
56.0 89.2849316734198
58.0 89.71828427408181
60.0 90.11823126033764
61.5 90.32792924152083
63.0 90.68618850078994
65.0 91.04021897398881
67.0 91.4849941080668
69.0 92.11736915362599
71.0 92.79984346482354
73.0 93.4532161617812
75.0 93.99654171829377
77.5 94.42140745256829
80.0 94.6975861305483
82.5 94.84790008980471
85.0 95.16954377028176
87.5 95.28276117329091
90.0 95.3996868418759
92.5 95.47402196531091
95.0 95.35396540139422
97.5 94.99035840322985
100.0 95.14569059466704
103.0 95.20651419352315
106.0 95.04545768337974
109.0 94.751276242237
112.0 94.47625938447403
115.0 94.5691279412141
118.0 94.81149593033263
122.0 94.79031588937148
125.0 94.58530978382475
128.0 94.62876336513995
132.0 94.38893377165112
136.0 94.09429321805898
140.0 94.1966967740457
145.0 94.24765774694811
150.0 94.25549481500533
155.0 94.14020063108462
160.0 94.09487977972766
165.0 94.15184323218621
170.0 94.11530077381093
175.0 94.14654880560342
180.0 93.90185910663293
185.0 93.59003578652015
190.0 93.46894124241817
195.0 93.39661820233418
200.0 93.3500769188598
206.0 93.22472986118194
212.0 92.96191942375793
218.0 92.58156576983325
224.0 92.51799569503208
230.0 92.1922443914037
236.0 91.64576490221557
240.0 91.21518631814774
250.0 90.82045032989356
258.0 90.06910140424358
265.0 89.36323612128098
272.0 89.05924013362414
280.0 89.00913587717578
290.0 88.9655919680641
300.0 88.77987995237262
307.0 88.42102446255448
315.0 87.95189577937722
325.0 87.70519037295735
335.0 87.96422822235168
345.0 88.59699034937677
355.0 89.35710642580938
365.0 90.05346896371404
375.0 90.48033373483158
387.0 90.6521987604356
400.0 90.4370597851095
412.0 89.919898504049
425.0 89.14490956369194
437.0 88.21755609286421
450.0 87.22534470248061
462.0 86.40128911002986
475.0 85.9449922369331
487.0 86.02087361800122
500.0 86.45314377364556
515.0 86.94597067271489
530.0 87.20444652945014
545.0 86.96916370409721
560.0 86.36018278492038
580.0 85.77817329856624
600.0 85.36178633851026
615.0 84.94056781630756
630.0 84.35781271971362
650.0 83.71961707170715
670.0 83.18202107201553
690.0 82.77784003719
710.0 82.52677689713273
730.0 82.3103164499495
750.0 81.95883577374853
775.0 81.2680001832061
800.0 80.47344814804933
825.0 79.55100155223286
850.0 78.47548688048023
875.0 77.46369353728215
900.0 76.49701438935702
925.0 75.45945580933582
950.0 74.44430220446529
975.0 73.66128906823525
1000.0 73.55823486810921
1030.0 73.95771201713062
1060.0 74.69278209380712
1090.0 75.50985993009809
1120.0 75.87294226535064
1150.0 76.32451287550867
1180.0 76.52331548401266
1220.0 76.59156325041681
1250.0 76.09347744545097
1280.0 74.82286007183819
1320.0 73.28844192339392
1360.0 72.16460484281968
1400.0 71.26775757007712
1450.0 70.83884095980835
1500.0 69.70828061769184
1550.0 68.73206882253236
1600.0 68.33835442428717
1650.0 65.6580313680501
1700.0 63.24240540886419
1750.0 64.90609218628757
1800.0 66.20381320656014
1850.0 66.99416688690084
1900.0 67.18329315494694
1950.0 66.87339469335063
2000.0 66.18146334379682
2060.0 65.11090133081169
2120.0 63.86145376960525
2180.0 62.626565995517325
2240.0 61.92343967548953
2300.0 62.05695939266434
2360.0 62.79623356561618
2400.0 63.402765146948724
2500.0 64.43324176290884
2580.0 65.70971690910147
2650.0 66.53251234037225
2720.0 66.45228851658356
2800.0 65.81501636461482
2900.0 65.74284754239036
3000.0 66.73933235692581
3070.0 67.33410339787295
3150.0 67.38046347395542
3250.0 67.8389405143671
3350.0 69.00227342215224
3450.0 69.20200292178887
3550.0 67.91544037997426
3650.0 65.77091330625211
3750.0 63.48494554816412
3870.0 62.492992922929716
4000.0 63.74272877140484
4120.0 64.90550368785276
4250.0 64.48690228450903
4370.0 63.3140041810442
4500.0 61.82753524380615
4620.0 61.25089188622607
4750.0 61.23079566736669
4870.0 61.85669935429581
5000.0 62.40315310220163
5150.0 61.850145963597356
5300.0 61.81665972097295
5450.0 62.521309473035785
5600.0 62.36586768904857
5800.0 61.294327330231994
6000.0 60.4098435949243
6150.0 61.537172354134924
6300.0 63.783840724478836
6500.0 64.34556993016989
6700.0 62.30745799148056
6900.0 62.21572471286265
7100.0 61.476019227506924
7300.0 61.435723544096476
7500.0 58.48326833378155
7750.0 57.66959172985261
8000.0 58.808753901912894
8250.0 58.98835906544147
8500.0 60.29162785761673
8750.0 59.35214017946396
9000.0 58.037621787729535
9250.0 56.0412513062671
9500.0 57.62708616231106
9750.0 55.83516005985061
10000.0 54.253313638668175
10300.0 55.39862664846663
10600.0 55.347740919252544
10900.0 54.88260340955773
11200.0 58.236641366841354
11500.0 56.914626783058594
11800.0 56.663789171323714
12200.0 57.99645948743668
12500.0 57.96987556479297
12800.0 60.505285081231136
13200.0 59.64336768446532
13600.0 58.8943292330986
14000.0 55.068695432283334
14500.0 56.329767515066266
15000.0 54.59261405762396
15500.0 52.74667990261037
16000.0 52.337786636619484
16500.0 53.415423158368554
17000.0 51.91505519527385
17500.0 52.0849780317906
18000.0 47.667214519544245
18500.0 48.52517249234805
19000.0 46.71937798788798
19500.0 48.23191846444638
