Freq "Estimated In-Room Response"
20.5078 53.54980992156818
21.9727 55.70248099881216
23.4375 58.24001836608211
24.9023 59.89073556037964
26.3672 61.74466106304696
27.832 63.661711280492725
29.2969 65.35948519095706
30.7617 67.08700447332292
32.2266 68.64879907220406
33.6914 70.1968104974073
35.1563 71.77489158607678
36.6211 73.19922521353716
38.0859 74.55201869069947
39.5508 75.62824462451363
41.0156 76.57225624834403
42.4805 77.59269356026259
43.9453 78.56745252104865
45.4102 79.25238434583841
46.875 79.92717748181896
48.3398 80.42711149153455
51.2695 81.31366236751809
52.7344 81.67006278883484
54.1992 81.98760589713554
55.6641 82.2309000953504
58.5938 82.69105114276395
60.0586 82.89113815499938
62.9883 83.25437266451571
64.4531 83.39098872961401
67.3828 83.64398458525233
68.8477 83.7404650941862
71.7773 83.98496998909486
74.707 84.24126345852798
77.6367 84.38440691617609
79.1016 84.45107645166658
82.0313 84.66075815391109
84.9609 84.85589923436531
87.8906 84.85560784437273
90.8203 84.64416131580339
95.2148 85.32402471925327
98.1445 85.07374646705826
101.074 85.03933015964158
105.469 85.26888779884224
108.398 85.3066766195468
112.793 85.50846505260434
117.188 85.5764518874925
120.117 85.8624987398632
124.512 85.72784526455162
128.906 85.44875385495043
133.301 85.48498974614922
139.16 85.4784450697006
143.555 85.47053751040454
147.949 85.44363362388931
153.809 85.52259107906437
159.668 85.61494389333333
165.527 85.4864415782785
171.387 85.26750451105544
177.246 85.13602659108807
183.105 84.95194649279377
188.965 84.80174738714462
196.289 84.942277811462
203.613 84.77906409737614
210.938 84.69250859645436
218.262 84.75896745399776
225.586 84.73737760696726
232.91 84.89244394901708
241.699 84.8976314319887
250.488 84.88593265772253
259.277 84.99794923098979
268.066 84.61711503027017
276.855 84.68978771480526
287.109 84.66139937771415
297.363 84.5483287870167
307.617 84.79648409666704
319.336 84.65981073234448
329.59 84.80714082225235
341.309 84.35575390619691
353.027 84.30224339720638
366.211 84.45746485208694
379.395 84.9003260190565
392.578 84.51271021239677
405.762 84.13939707446383
420.41 84.64491196454976
435.059 84.37063323226512
451.172 84.72772235906024
465.82 84.77319768819858
483.398 84.3985225309782
499.512 84.4570635810905
517.09 84.6936037591788
536.133 84.10736883493921
555.176 84.45862744924831
574.219 84.40868442546277
594.727 83.95355347310608
615.234 83.56362018536362
637.207 83.17624815663913
659.18 84.01831337572595
682.617 85.42399535657881
707.52 86.462075010905
732.422 86.2878319875951
757.324 85.39812361934325
785.156 84.20448868691327
811.523 82.92180780602033
840.82 82.83623956216013
870.117 82.97600774196779
900.879 82.69238563061728
933.105 82.26057264874996
965.332 82.14344765784236
1000.49 82.29494027955134
1035.64 82.03011513681996
1072.27 81.6284448776445
1108.89 81.40845187453844
1148.44 81.96751034390523
1189.45 82.43133162048396
1230.47 82.6366346475756
1274.41 82.54747981024762
1319.82 82.18614050179136
1366.7 81.74868223672426
1413.57 81.17740259933235
1463.38 80.88348483237115
1516.11 80.91439291263482
1568.85 80.66085453597096
1624.51 80.22570460163175
1681.64 80.12384648032604
1741.7 80.12547821285305
1803.22 80.50738798753933
1866.21 80.17759717915297
1932.13 79.79877556177875
1999.51 80.35623620598953
2069.82 81.40704900858005
2143.07 81.74536517531895
2219.24 81.25581530773874
2296.88 81.41476419628123
2378.91 82.59310889551202
2462.4 82.41934437470344
2548.83 82.25648884955513
2639.65 82.58360350233282
2731.93 82.62055208819505
2828.61 82.63644455794362
2928.22 82.59740123846572
3030.76 82.42260221537919
3137.7 82.3951946141938
3249.02 82.12240579461427
3363.28 82.04529273181208
3481.93 82.0635473020662
3604.98 82.20161110765302
3732.42 82.24132884521353
3864.26 82.3637924618247
4000.49 82.54957600144475
4141.11 82.8492060560505
4287.6 82.579661885682
4438.48 82.80327096762366
4595.21 82.73567963686484
4756.35 82.58918454898337
4924.8 82.48250450541836
5097.66 82.23865543280199
5277.83 82.07391339122246
5463.87 81.74258647778446
5657.23 81.57432865225793
5856.45 81.57180110577546
6062.99 81.41468441834512
6276.86 81.40506690331479
6498.05 81.78341767185053
6726.56 81.96529590681875
6963.87 82.00564582004002
7209.96 81.70607817579618
7464.84 81.39983224412323
7727.05 81.24925235320208
7999.51 81.16353891509844
8282.23 81.18710602405851
8573.73 81.16275433630638
8876.95 80.71654126407944
9188.96 80.18331683163832
9514.16 79.99634907420868
9849.61 79.94576432563933
10196.8 79.74130265460659
10555.7 79.48743216651512
10927.7 79.34975310311843
11313.0 79.25301530586206
11712.9 78.84960084518379
12126.0 78.44305673556484
12553.7 78.5085479659513
12996.1 78.55886379045495
13454.6 78.36465060221083
13929.2 78.14500431766717
14419.9 77.8818247385641
14928.2 77.80080000973867
15455.6 77.61923104564718
16000.5 76.92563765337952
16564.5 76.12381889907253
17148.9 76.88247257117631
17752.4 77.06421882852015
18379.4 76.50442976771565
19026.9 75.88160012591486
19697.8 75.67142579124076
19999.5 75.53057415784288
