Freq,Floor Bounce,Ceiling Bounce,Front Wall Bounce,Side Wall Bounce,Rear Wall Bounce,Total Early Reflection
22.4,18.515957367873355,17.91518987341773,18.131256522619125,18.166063876054167,18.22969948697802,18.195969638035663
23.0,16.88364071147207,16.348779700297698,16.53125652261913,16.575384737824137,16.68265867734955,16.607936358274358
23.6,14.550320465197572,14.148779700297709,14.24498487097678,14.315209593254437,14.439432931828108,14.34205982373247
24.0,11.25032046519756,10.982111724578218,10.95964705745557,11.045973333295407,11.208942463933411,11.091024473381125
25.0,8.75032046519756,8.58211172457824,8.50269436630613,8.593966661667523,8.766229747600235,8.640272688706759
25.8,10.815957367873338,10.682111724578235,10.573603278447237,10.684934107303022,10.86539033068992,10.725650664306826
26.5,15.350320465197555,15.248779700297703,15.102694366306125,15.204845633520094,15.414004096443094,15.265502740807008
27.2,19.150320465197538,18.982111724578218,18.887838304549305,18.9939666616675,19.181900817463728,19.040631301658934
28.0,22.150320465197538,21.848779700297698,21.844984870976774,21.91520959325443,22.07482975392925,21.968599398801118
29.0,24.583640711472057,24.048779700297686,24.201704369278687,24.283308932183147,24.406910359250233,24.30867177187939
30.0,26.68364071147205,25.815189873417708,26.201704369278687,26.23265736206885,26.290494856915146,26.25352351502194
30.7,28.51825944446024,27.248779700297703,27.915847734111978,27.91150543169978,27.894802490919105,27.916346750262974
31.5,30.18669788128709,28.382885086470665,29.43027301585657,29.391408412001866,29.24155421978334,29.364227322597273
32.5,31.68669788128709,29.318259444460224,30.758654960396697,30.680507609928995,30.4042071455075,30.635104289671418
33.5,33.05563155287264,30.053401172305158,31.958654960396714,31.80941427722253,31.419971379339458,31.764863615377166
34.5,34.322094883772294,30.75802017813747,33.07293898693085,32.869367625016864,32.33110691970465,32.82014929687894
35.5,35.49128162790991,31.29447719949202,34.05865496039671,33.75936551036041,33.101068604401334,33.748598123752586
36.5,37.06095706780242,32.23146927425411,35.4443237983606,35.10941500252598,34.31311944572012,35.10543537329686
37.5,38.03111679568478,32.639214743677954,36.2586549603967,35.89973063618767,34.97267169139438,35.89931254155813
38.7,38.89738954674077,33.009909164609766,37.00104436252009,36.57100233256763,35.53906451855501,36.60701619911826
40.0,40.03435692844526,33.6810783340146,37.98685262733663,37.530790503994226,36.38345718754162,37.59153162760494
41.2,40.80501844015244,34.119925174603466,38.68685262733662,38.20135395692601,36.98566112262132,38.275476354393916
42.5,41.70501844015244,34.859320397233475,39.544323798360594,39.031697976198316,37.77529094843898,39.12397295446881
43.7,42.2677994054399,35.33146770519521,40.086852627336626,39.59231494490332,38.28657723088371,39.667612102962536
45.0,43.005018440152455,36.13146770519519,40.872614364775885,40.33241866211593,39.02941346792163,40.42159634998784
46.2,43.434356928445254,36.63146770519519,41.33027301585656,40.802708815121505,39.523174028561115,40.87993014426718
47.5,43.99738954674078,37.4314677051952,42.001374378437234,41.50270881512151,40.22317402856112,41.53232907446001
48.7,44.49738954674076,38.191817855956785,42.60137437843723,42.10270881512152,40.91312210767752,42.12359671118462
50.0,44.96095706780241,38.95932039723347,43.18685262733662,42.721174443325154,41.54253378449208,42.69583330290759
51.5,45.56095706780242,39.89181785595677,43.88685262733664,43.46049491695733,42.352173617638186,43.40768849988979
53.0,45.99128162790993,40.719925174603475,44.45832926875555,44.05047232330561,43.00721333332537,43.97407619238743
54.5,46.555631552872626,41.652717646418,45.15832926875554,44.76916091518622,43.79487820393696,44.67217127227836
56.0,47.02209488377231,42.48107833401461,45.715189873417714,45.388870859501026,44.47265960872555,45.26224074894991
58.0,47.65563155287262,43.542777066253635,46.48685262733663,46.15821431953346,45.339935171705804,46.04038480831031
60.0,48.05182563008958,44.27186243271821,46.98685262733663,46.71749219405821,45.938470983385415,46.5662497977694
61.5,48.61825944446025,45.17186243271823,47.68685262733662,47.41749219405821,46.726842068447866,47.268800962697895
63.0,49.21825944446023,46.07186243271822,48.35832926875554,48.117492194058215,47.45177888517185,47.96523572973102
65.0,49.78364071147206,46.93435692844527,49.015189873417725,48.79675041356295,48.17213372669137,48.64114586081256
67.0,50.283640711472046,47.697389546740766,49.61518987341772,49.39675041356294,48.840449837171874,49.25020549088789
69.0,50.81595736787334,48.42746165657391,50.215189873417714,50.00644142039185,49.492396322580845,49.8631329956947
71.0,51.38364071147204,49.19128162790993,50.81518987341771,50.61611085048982,50.128625058766005,50.48771680445584
73.0,51.91595736787335,49.9220948837723,51.41518987341773,51.2259832740928,50.76491638663394,51.09964343579058
75.0,52.31595736787334,50.52209488377231,51.88685262733664,51.7259832740928,51.29116337913571,51.58999982554498
77.5,52.88211172457822,51.222094883772314,52.515189873417725,52.335833306498515,51.92221366040859,52.211738349620546
80.0,53.282111724578215,51.753401172305146,52.91518987341773,52.795835851203634,52.40611035883292,52.66097126445801
82.5,53.84877970029771,52.45340117230515,53.515189873417725,53.39583585120364,53.01120260403232,53.27067598932156
85.0,54.3487797002977,53.118259444460236,54.11518987341772,53.93583330649851,53.61120260403233,53.84658344735
87.5,54.88211172457824,53.718259444460244,54.61518987341772,54.515650386366886,54.20574593610688,54.405357690374245
90.0,55.515189873417725,54.450320465197564,55.31518987341772,55.195835851203626,54.91640728914861,55.09399757236686
92.5,56.015189873417725,55.050320465197544,55.88685262733664,55.75546660238818,55.48958418325087,55.65271180354112
95.0,56.61518987341772,55.75032046519755,56.515189873417725,56.365477690196215,56.10537871784743,56.28133042332354
97.5,57.215189873417714,56.41595736787333,57.11518987341772,57.02575357090525,56.77373199694736,56.918484259261334
100.0,57.8487797002977,57.08364071147204,57.75832926875553,57.665477690196184,57.44221431667056,57.56817769443997
103.0,58.515189873417725,57.81595736787334,58.45832926875555,58.3654776901962,58.15769892921183,58.269854981006105
106.0,59.08211172457821,58.45032046519755,59.07261436477586,58.96547769019621,58.77360963871864,58.87518869376552
109.0,59.8487797002977,59.25032046519755,59.81518987341772,59.74543238431097,59.55769892921184,59.64901837868895
112.0,60.44877970029769,59.91595736787335,60.429617336815184,60.3654776901962,60.18946227083414,60.27436596754153
115.0,61.082111724578226,60.615957367873335,61.11518987341772,61.055466602388194,60.86823086929637,60.95134933255396
118.0,61.64877970029768,61.215957367873344,61.715189873417714,61.62552385556779,61.46823086929638,61.53837333039769
122.0,62.115957367873335,61.71595736787333,62.20104436252009,62.115420135996246,61.96296809183828,62.02561024660535
125.0,62.58211172457821,62.15032046519755,62.62961733681517,62.57546575412677,62.44172971520615,62.47929786014659
128.0,62.88211172457822,62.515957367873355,62.98685262733663,62.8953732322676,62.76296809183826,62.81166908278722
132.0,63.18211172457822,62.81595736787334,63.286852627336614,63.195373232267585,63.05757611842587,63.110603244397694
136.0,63.41595736787335,63.08364071147204,63.515189873417725,63.4554666023882,63.32582528030987,63.36180931040157
140.0,63.61595736787335,63.31595736787335,63.72961733681517,63.695373232267585,63.54701827664469,63.58324226703559
145.0,63.81595736787334,63.550320465197544,63.97261436477588,63.895373232267616,63.76823086929636,63.802841932933134
150.0,64.01595736787333,63.715957367873344,64.11518987341772,64.06547769019619,63.931133232809714,63.970986248560166
155.0,64.11595736787334,63.81595736787334,64.22961733681518,64.16547769019618,64.04172971520613,64.07607364080505
160.0,64.11595736787334,63.81595736787334,64.27261436477588,64.17546575412676,64.04701827664468,64.08810161856326
165.0,64.01595736787333,63.715957367873344,64.15832926875554,64.07546575412677,63.936434705841876,63.98302830480456
170.0,63.81595736787334,63.51595736787334,63.95832926875555,63.87546575412678,63.736434705841845,63.783028304804574
175.0,63.61595736787335,63.25032046519755,63.715189873417714,63.61565038636688,63.48398104494434,63.53916410684889
180.0,63.34954128210275,62.98364071147205,63.501044362520105,63.385662745612095,63.23643470584186,63.29477577206431
185.0,63.115957367873335,62.75032046519755,63.30104436252009,63.14566104904607,63.010226400289284,63.06845261411699
190.0,62.91595736787333,62.51825944446024,63.101044362520085,62.945661049046066,62.778737330476986,62.85630683512673
195.0,62.71595736787333,62.31825944446024,62.901044362520096,62.72575357090524,62.56823086929637,62.650185963483395
200.0,62.58364071147206,62.08364071147204,62.70104436252008,62.52575357090525,62.35230040584209,62.45452508292421
206.0,62.350320465197555,61.81825944446025,62.501044362520105,62.30621068125747,62.13113323280969,62.22759773962339
212.0,62.18364071147205,61.61825944446025,62.30104436252009,62.096293156457506,61.90501429813004,62.02736800973743
218.0,61.91595736787335,61.28669788128711,62.00104436252009,61.80621068125748,61.62087395424773,61.73347182548089
224.0,61.58364071147206,60.91825944446025,61.70104436252008,61.496293156457526,61.28921843573353,61.40625690756757
230.0,61.31595736787334,60.55340117230516,61.40104436252011,61.196293156457514,60.99457129057852,61.102549113240386
236.0,61.215957367873344,60.38669788128709,61.3010443625201,61.07661694495371,60.87336491191877,60.98269850267282
240.0,61.18364071147205,60.32209488377232,61.28685262733663,61.04657570882128,60.82099498808881,60.9452425108406
250.0,61.15032046519757,60.222094883772314,61.25832926875553,60.99629315645751,60.77873733047697,60.89626633972141
258.0,61.01595736787334,60.022094883772326,61.1010443625201,60.8663986672683,60.657816145729015,60.74929547533176
265.0,60.81595736787334,59.75802017813747,60.901044362520096,60.6663986672683,60.452660879433566,60.53751092199447
272.0,60.58364071147204,59.45802017813746,60.67261436477587,60.3962931564575,60.18398104494432,60.27988753655596
280.0,60.283640711472046,59.1274616565739,60.401044362520096,60.15684067826584,59.90501429813003,59.997705616401205
290.0,60.18364071147205,58.927461656573925,60.21551881622126,59.96708144266364,59.75757611842586,59.83481744491938
300.0,60.18364071147205,58.858020178137465,60.22994518870982,59.96708144266364,59.75757611842586,59.82678476529394
307.0,60.38364071147204,59.027461656573905,60.42994518870982,60.16708144266363,59.94725888815579,60.019878284571035
315.0,60.58364071147204,59.227461656573894,60.70104436252009,60.396987042030574,60.20525724800591,60.25319918768574
325.0,60.78364071147206,59.42746165657391,60.88685262733664,60.577535806586496,60.373484491710585,60.43976283213027
335.0,60.9518256300896,59.564175022213234,61.07261436477587,60.757302107920665,60.542211511209416,60.60938527342822
345.0,61.18669788128712,59.8274616565739,61.3010443625201,60.9775358065865,60.78994435037971,60.84681867205114
355.0,61.28669788128711,59.927461656573925,61.41584773411198,61.0677800108367,60.863815461799376,60.94295884199322
365.0,61.11825944446025,59.8274616565739,61.30137437843722,60.88842319986388,60.74846747618096,60.80568342476221
375.0,61.086697881287094,59.79447719949205,61.2586549603967,60.83904678052846,60.68531531787495,60.76154147200886
387.0,61.28669788128711,60.02746165657392,61.51584773411197,61.04956876600143,60.90209820172706,60.98513735595158
400.0,61.6866978812871,60.49447719949204,61.9443237983606,61.439973624725496,61.28188364282177,61.396510493517425
412.0,61.92209488377232,60.72746165657391,62.230273015856554,61.70019817341911,61.535018700718155,61.651500110988295
425.0,61.99128162790993,60.8274616565739,62.33027301585658,61.75097180567796,61.57761586999271,61.7238735211202
437.0,61.99128162790993,60.86417502221323,62.41649800949553,61.771705814212325,61.59455076319763,61.757234856463526
450.0,61.79128162790995,60.69738954674075,62.259313855318354,61.583986201745475,61.37466265187982,61.571302325237355
462.0,61.227461656573894,60.13435692844526,61.73125652261912,60.99489017176306,60.77538873222835,61.00422025157637
475.0,61.02746165657392,59.905018440152446,61.6164980094955,60.81774728372247,60.555273190842655,60.82052317294762
487.0,61.49738954674078,60.30501844015244,62.116498009495515,61.25785743220706,60.951321313072114,61.26667645495601
500.0,61.667799405439894,60.41416432472697,62.33125652261913,61.45016519361363,61.08881399277102,61.43646075794486
515.0,61.60501844015245,60.314164324726974,62.345965052092836,61.40368182592327,60.973543612096236,61.38067539155462
530.0,61.40501844015246,60.06417346492614,62.231256522619134,61.22324641753768,60.74702378235675,61.19352277573273
545.0,61.042777066253635,59.604075344967754,61.917484640354644,60.87709373659483,60.31255207443847,60.819041345742036
560.0,60.67615501578955,59.177138549055385,61.589132276458,60.51166529162295,59.85977550650887,60.43829933257588
580.0,60.54277706625365,58.99160617073926,61.54596505209284,60.3939890194184,59.62385557950171,60.30638744595905
600.0,60.2860195762607,58.66581115352136,61.30398392009832,60.099040223224264,59.235627828906516,60.01340415052364
615.0,59.48601957626069,57.83311777106621,60.57490149797772,59.29549612966095,58.32585063961464,59.20902587291502
630.0,59.42482244023394,57.707568861515725,60.57490149797772,59.21879334088068,58.13223396138129,59.13092874115269
650.0,59.524822440233905,57.80756886151572,60.71878494835667,59.322820883089804,58.079674230311866,59.22021551917892
670.0,59.72482244023392,58.007568861515736,60.96157836452848,59.54910748102323,58.1235502926378,59.41416941279668
690.0,59.99738800131827,58.28245546201383,61.247902451787084,59.72491003507254,58.17191129169714,59.63852987095876
710.0,59.39738800131828,57.707568861515725,60.69141911963213,59.120564703841,57.38370570033102,59.02770732036744
730.0,59.57040956650151,57.86581115352136,60.87652437183587,59.23701064593472,57.34291815890286,59.16186675632078
750.0,60.43698726030668,58.7404544127062,61.73353570506279,60.024730732798744,57.94982202635704,59.97744354424384
775.0,60.81025445377601,59.140454412706205,62.13353570506278,60.353241468895405,58.10597022924121,60.32715807972268
800.0,60.84388232709567,59.16581115352135,62.16289551690711,60.31974624820606,57.87458558375998,60.31374823999714
825.0,60.41025445377602,58.66581115352136,61.720391509412636,59.85808033059179,57.20540040931803,59.83531354493415
850.0,60.310254453776025,58.54045441270621,61.57783699978128,59.68561343777829,56.83399279062105,59.674791365552636
875.0,60.48397021338563,58.60756886151573,61.749840014135245,59.77657509804884,56.75456861350558,59.78935154681348
900.0,60.38397021338562,58.38245546201382,61.63580709582821,59.63125495901589,56.40075405542434,59.63228216575192
925.0,59.98397021338563,57.800576978076705,61.17783699978128,59.15509856248704,55.730045180074015,59.14641926545387
950.0,59.98397021338563,57.520166560185785,61.07783699978128,59.06082127819714,55.42956054898619,59.02829579205711
975.0,60.343882327095685,57.686195993532536,61.44984001413523,59.36082127819712,55.553365702560896,59.332883164811264
1000.0,60.117801432371365,57.13423437127115,61.14984001413525,59.09915907525573,55.09650407252643,59.0129932246446
1030.0,59.71780143237136,56.36039503441155,60.67783699978129,58.62169752646339,54.44553533502523,58.50639853564893
1060.0,59.98397021338563,56.29749637298616,60.87783699978128,58.830286263798016,54.49484936135424,58.682971325967245
1090.0,59.91780143237138,55.879011926664376,60.791419119632124,58.73028626379802,54.23596818894718,58.54915949487052
1120.0,60.217801432371374,55.76404123259077,60.99141911963211,58.9642518463353,54.31266228348291,58.74212748871933
1150.0,60.39216199300037,55.48224905073542,61.134801731698616,59.124207659822545,54.31001112449651,58.846401930169364
1180.0,60.33272790581705,55.01929903980371,61.049840014135256,59.07383013296756,54.10930208889192,58.734664967984656
1220.0,60.9077599875538,55.20314486116074,61.59141911963212,59.673830132967566,54.58496138764633,59.26494774274752
1250.0,60.88322093998006,54.7331772829079,61.53480173169861,59.64011312506997,54.43924795574107,59.18576306962265
1280.0,60.5591057641101,53.933177282907906,61.17652437183587,59.33366090080601,54.01554371132572,58.8146984332074
1320.0,61.220070792631404,54.226649254420934,61.861578364528484,60.058398693921845,54.651808038170785,59.47393082725044
1360.0,61.57481021541882,54.15642040378613,62.24692270788432,60.50168379316945,55.00202043355024,59.835292471502385
1400.0,61.67520629644589,53.87478372953707,62.36157836452847,60.698304336192635,55.11457460648225,59.944361912784856
1450.0,61.4444382628826,53.25076333387614,62.14692270788433,60.54361990518311,54.88814457829946,59.71918162409844
1500.0,61.25076333387614,52.754171514630585,62.004651161286404,60.454633658091225,54.71108517645659,59.55699992559184
1550.0,61.359942845326515,52.624629410070014,62.14692270788433,60.650458227927274,54.87018321267355,59.692881997772545
1600.0,61.471903323058214,52.509122467981044,62.34692270788433,60.87532274377176,55.064904250444556,59.86109425632628
1650.0,61.17038207360041,52.14445518225341,62.14692270788433,60.71927110201561,54.85884464101747,59.636756432585074
1700.0,61.536488177853755,52.454167447975735,62.58980180315214,61.20275377877522,55.32090968589317,60.0650211945221
1750.0,61.55444739875344,52.48107833401461,62.66157836452847,61.28096573171162,55.397932970300744,60.12224086211606
1800.0,61.50589765408388,52.575428054548354,62.77490149797772,61.377257134471066,55.47745365705519,60.18370211400858
1850.0,61.12241694247345,52.31362502198951,62.50465116128639,61.09432277645489,55.15992711226646,59.87676594257118
1900.0,60.156420403786115,51.64428071499026,61.70465116128641,60.25530937744557,54.33013575371179,59.02543445067228
1950.0,59.84275621487464,51.64428071499026,61.54790245178707,60.01817838246157,54.082100895980375,58.80681807579478
2000.0,59.947289072901455,52.14428071499027,61.8628955169071,60.26378173793147,54.303113619404115,59.05189791345559
2060.0,60.30602936456677,52.94568738743372,62.34984001413525,60.654856977456845,54.707948668990866,59.4902967311897
2120.0,59.54137697733276,52.581078334014606,61.70791167991342,59.92238178374188,53.96169617064821,58.80131518175564
2180.0,59.6321438295103,53.18902097553696,61.994991003591096,60.11198086961865,54.125554467819754,59.02539251904473
2240.0,59.68395927232943,53.64445518225341,62.152497116613816,60.1163030870607,54.15131073265712,59.12756152253394
2300.0,59.574529173230815,53.970178443817346,62.12564285590325,59.9788136037794,53.96441098790082,59.06532632398104
2360.0,59.71642395097656,54.50594265995302,62.32759037241408,60.05959971376747,54.04857598028964,59.238564947932375
2400.0,60.16482965461529,55.352779562312676,62.857370790385716,60.4912213877743,54.432703175794884,59.7402569206114
2500.0,60.487638139876154,55.99901979870425,63.187933680314885,60.66120383682889,54.62168018349254,60.04720325344451
2580.0,60.342777066253646,56.16453877511492,63.05737079038573,60.43595260834317,54.30665508406524,59.905660761893046
2650.0,59.73868672407751,55.71003651797231,62.432076859798784,59.705110205015,53.54822526471385,59.26898679876591
2720.0,59.9311167956848,55.99174333373841,62.57524924199684,59.760364479407514,53.52115937972643,59.40741247067221
2800.0,60.625056160141014,56.694344340129646,63.16281764139127,60.25427914176812,53.95549724450417,60.002026776190746
2900.0,61.05563155287264,57.12930380179368,63.53496297448238,60.53284947178638,54.19492429673399,60.36753647199441
3000.0,61.28520475599248,57.25255521734955,63.589478882914435,60.513020091271144,54.10222826670039,60.448105529716955
3070.0,60.6852047559925,56.57758464378209,62.950350353375924,59.77402918935992,53.265690234151506,59.786033141586316
