Freq "Floor Bounce"
22.4 18.60076749445564
23.0 16.968450838054324
23.6 14.635130591779827
24.0 11.335130591779844
25.0 8.835130591779844
25.8 10.900767494455621
26.5 15.43513059177981
27.2 19.23513059177982
28.0 22.23513059177982
29.0 24.668450838054312
30.0 26.768450838054335
30.7 28.603069571042525
31.5 30.2715080078694
32.5 31.77150800786937
33.5 33.14044167945492
34.5 34.406905010354606
35.5 35.576091754492225
36.5 37.1457671943847
37.5 38.115926922267064
38.7 38.98219967332304
40.0 40.119167055027546
41.2 40.88982856673471
42.5 41.78982856673473
43.7 42.35260953202217
45.0 43.08982856673471
46.2 43.51916705502754
47.5 44.082199673323046
48.7 44.582199673323046
50.0 45.045767194384695
51.5 45.6457671943847
53.0 46.07609175449221
54.5 46.64044167945491
56.0 47.106905010354595
58.0 47.740441679454904
60.0 48.136635756671865
61.5 48.703069571042505
63.0 49.30306957104251
65.0 49.86845083805433
67.0 50.36845083805433
69.0 50.90076749445561
71.0 51.46845083805434
73.0 52.000767494455616
75.0 52.40076749445562
77.5 52.96692185116051
80.0 53.3669218511605
82.5 53.93358982687998
85.0 54.43358982687998
87.5 54.96692185116049
90.0 55.60000000000001
92.5 56.10000000000001
95.0 56.7
97.5 57.3
100.0 57.93358982687998
103.0 58.60000000000001
106.0 59.166921851160495
109.0 59.93358982687997
112.0 60.533589826879975
115.0 61.16692185116051
118.0 61.733589826879964
122.0 62.20076749445562
125.0 62.66692185116051
128.0 62.96692185116051
132.0 63.26692185116049
136.0 63.50076749445563
140.0 63.70076749445562
145.0 63.90076749445562
150.0 64.10076749445561
155.0 64.2007674944556
160.0 64.2007674944556
165.0 64.10076749445561
170.0 63.90076749445562
175.0 63.70076749445562
180.0 63.43435140868502
185.0 63.20076749445562
190.0 63.000767494455616
195.0 62.8007674944556
200.0 62.66845083805434
206.0 62.43513059177984
212.0 62.26845083805432
218.0 62.000767494455616
224.0 61.66845083805431
230.0 61.40076749445562
236.0 61.30076749445563
240.0 61.268450838054335
250.0 61.23513059177982
258.0 61.100767494455624
265.0 60.90076749445561
272.0 60.668450838054326
280.0 60.36845083805433
290.0 60.268450838054335
300.0 60.268450838054335
307.0 60.46845083805432
315.0 60.668450838054326
325.0 60.868450838054315
335.0 61.03663575667187
345.0 61.27150800786937
355.0 61.371508007869394
365.0 61.203069571042505
375.0 61.17150800786938
387.0 61.371508007869394
400.0 61.77150800786937
412.0 62.0069050103546
425.0 62.07609175449221
437.0 62.07609175449221
450.0 61.87609175449221
462.0 61.31227178315619
475.0 61.11227178315619
487.0 61.582199673323046
500.0 61.75260953202216
515.0 61.68982856673473
530.0 61.489828566734715
545.0 61.12758719283592
560.0 60.76096514237183
580.0 60.62758719283593
600.0 60.37082970284297
615.0 59.570829702842985
630.0 59.50963256681621
650.0 59.60963256681622
670.0 59.809632566816205
690.0 60.082198127900554
710.0 59.482198127900574
730.0 59.65521969308378
750.0 60.52179738688895
775.0 60.895064580358294
800.0 60.928692453677954
825.0 60.4950645803583
850.0 60.395064580358294
875.0 60.5687803399679
900.0 60.46878033996791
925.0 60.068780339967915
950.0 60.068780339967915
975.0 60.42869245367797
1000.0 60.20261155895365
1030.0 59.80261155895364
1060.0 60.068780339967915
1090.0 60.00261155895363
1120.0 60.30261155895364
1150.0 60.476972119582655
1180.0 60.41753803239935
1220.0 60.992570114136086
1250.0 60.96803106656233
1280.0 60.643915890692384
1320.0 61.30488091921366
1360.0 61.65962034200109
1400.0 61.76001642302816
1450.0 61.529248389464854
1500.0 61.335573460458406
1550.0 61.4447529719088
1600.0 61.5567134496405
1650.0 61.25519220018269
1700.0 61.62129830443604
1750.0 61.63925752533572
1800.0 61.59070778066615
1850.0 61.20722706905572
1900.0 60.2412305303684
1950.0 59.927566341456924
2000.0 60.03209919948374
2060.0 60.39083949114905
2120.0 59.62618710391504
2180.0 59.71695395609258
2240.0 59.768769398911715
2300.0 59.659339299813084
2360.0 59.801234077558846
2400.0 60.24963978119759
2500.0 60.57244826645844
2580.0 60.427587192835915
2650.0 59.823496850659794
2720.0 60.01592692226707
2800.0 60.7098662867233
2900.0 61.140441679454895
3000.0 61.37001488257478
3070.0 60.770014882574756
3150.0 60.50531806766472
3250.0 60.609064300159844
3350.0 60.28493492460849
3450.0 59.82761355743557
3550.0 59.67215664893682
3650.0 59.54511556931756
3750.0 59.51852635130014
3870.0 59.54511556931756
4000.0 59.78155349220623
4120.0 59.84511556931754
4250.0 59.87383110211924
4370.0 59.66668552790021
4500.0 59.29897445130926
4620.0 59.13331023801676
4750.0 59.0012357262664
4870.0 59.09913536951437
5000.0 59.3079926521559
5150.0 59.677890794505544
5300.0 60.41844816715097
5450.0 60.989104805610054
5600.0 61.13183881345316
5800.0 61.0039069246843
6000.0 61.0494218147403
6150.0 60.92812233674837
6300.0 60.77757950460712
6500.0 60.63776734285541
6700.0 60.36941986366729
6900.0 60.12585044351924
7100.0 60.22924838946487
7300.0 60.22361409713277
7500.0 60.23174271310296
7750.0 59.942640539023586
8000.0 59.47327272490483
8250.0 59.205191946273445
8500.0 59.138385168679406
8750.0 59.172838994487265
9000.0 58.72389526938808
9250.0 58.075526761993586
9500.0 57.52773304031629
9750.0 57.39561715933442
10000.0 57.06400119283414
10300.0 56.81101842217599
10600.0 56.89533257014982
10900.0 57.05905592381313
11200.0 56.29265755490995
11500.0 55.35872457742296
11800.0 54.81323574403133
12200.0 53.98230649956844
12500.0 53.772776744886855
12800.0 54.22457993687898
13200.0 55.11394942912605
13600.0 56.01394942912606
14000.0 55.39317487506892
14500.0 53.84053501177824
15000.0 52.452187612924064
15500.0 51.101377350408725
16000.0 50.38456243414707
16500.0 50.2087934187271
17000.0 50.21753359992249
17500.0 52.16435503550396
18000.0 52.32129832737721
18500.0 50.57417580323538
19000.0 49.43663334913201
19500.0 48.37572801847608
