Freq "Rear Wall Bounce"
22.4 18.22969948697802
23.0 16.68265867734955
23.6 14.439432931828108
24.0 11.208942463933411
25.0 8.766229747600235
25.8 10.86539033068992
26.5 15.414004096443094
27.2 19.181900817463728
28.0 22.07482975392925
29.0 24.406910359250233
30.0 26.290494856915146
30.7 27.894802490919105
31.5 29.24155421978334
32.5 30.4042071455075
33.5 31.419971379339458
34.5 32.33110691970465
35.5 33.101068604401334
36.5 34.31311944572012
37.5 34.97267169139438
38.7 35.53906451855501
40.0 36.38345718754162
41.2 36.98566112262132
42.5 37.77529094843898
43.7 38.28657723088371
45.0 39.02941346792163
46.2 39.523174028561115
47.5 40.22317402856112
48.7 40.91312210767752
50.0 41.54253378449208
51.5 42.352173617638186
53.0 43.00721333332537
54.5 43.79487820393696
56.0 44.47265960872555
58.0 45.339935171705804
60.0 45.938470983385415
61.5 46.726842068447866
63.0 47.45177888517185
65.0 48.17213372669137
67.0 48.840449837171874
69.0 49.492396322580845
71.0 50.128625058766005
73.0 50.76491638663394
75.0 51.29116337913571
77.5 51.92221366040859
80.0 52.40611035883292
82.5 53.01120260403232
85.0 53.61120260403233
87.5 54.20574593610688
90.0 54.91640728914861
92.5 55.48958418325087
95.0 56.10537871784743
97.5 56.77373199694736
100.0 57.44221431667056
103.0 58.15769892921183
106.0 58.77360963871864
109.0 59.55769892921184
112.0 60.18946227083414
115.0 60.86823086929637
118.0 61.46823086929638
122.0 61.96296809183828
125.0 62.44172971520615
128.0 62.76296809183826
132.0 63.05757611842587
136.0 63.32582528030987
140.0 63.54701827664469
145.0 63.76823086929636
150.0 63.931133232809714
155.0 64.04172971520613
160.0 64.04701827664468
165.0 63.936434705841876
170.0 63.736434705841845
175.0 63.48398104494434
180.0 63.23643470584186
185.0 63.010226400289284
190.0 62.778737330476986
195.0 62.56823086929637
200.0 62.35230040584209
206.0 62.13113323280969
212.0 61.90501429813004
218.0 61.62087395424773
224.0 61.28921843573353
230.0 60.99457129057852
236.0 60.87336491191877
240.0 60.82099498808881
250.0 60.77873733047697
258.0 60.657816145729015
265.0 60.452660879433566
272.0 60.18398104494432
280.0 59.90501429813003
290.0 59.75757611842586
300.0 59.75757611842586
307.0 59.94725888815579
315.0 60.20525724800591
325.0 60.373484491710585
335.0 60.542211511209416
345.0 60.78994435037971
355.0 60.863815461799376
365.0 60.74846747618096
375.0 60.68531531787495
387.0 60.90209820172706
400.0 61.28188364282177
412.0 61.535018700718155
425.0 61.57761586999271
437.0 61.59455076319763
450.0 61.37466265187982
462.0 60.77538873222835
475.0 60.555273190842655
487.0 60.951321313072114
500.0 61.08881399277102
515.0 60.973543612096236
530.0 60.74702378235675
545.0 60.31255207443847
560.0 59.85977550650887
580.0 59.62385557950171
600.0 59.235627828906516
615.0 58.32585063961464
630.0 58.13223396138129
650.0 58.079674230311866
670.0 58.1235502926378
690.0 58.17191129169714
710.0 57.38370570033102
730.0 57.34291815890286
750.0 57.94982202635704
775.0 58.10597022924121
800.0 57.87458558375998
825.0 57.20540040931803
850.0 56.83399279062105
875.0 56.75456861350558
900.0 56.40075405542434
925.0 55.730045180074015
950.0 55.42956054898619
975.0 55.553365702560896
1000.0 55.09650407252643
1030.0 54.44553533502523
1060.0 54.49484936135424
1090.0 54.23596818894718
1120.0 54.31266228348291
1150.0 54.31001112449651
1180.0 54.10930208889192
1220.0 54.58496138764633
1250.0 54.43924795574107
1280.0 54.01554371132572
1320.0 54.651808038170785
1360.0 55.00202043355024
1400.0 55.11457460648225
1450.0 54.88814457829946
1500.0 54.71108517645659
1550.0 54.87018321267355
1600.0 55.064904250444556
1650.0 54.85884464101747
1700.0 55.32090968589317
1750.0 55.397932970300744
1800.0 55.47745365705519
1850.0 55.15992711226646
1900.0 54.33013575371179
1950.0 54.082100895980375
2000.0 54.303113619404115
2060.0 54.707948668990866
2120.0 53.96169617064821
2180.0 54.125554467819754
2240.0 54.15131073265712
2300.0 53.96441098790082
2360.0 54.04857598028964
2400.0 54.432703175794884
2500.0 54.62168018349254
2580.0 54.30665508406524
2650.0 53.54822526471385
2720.0 53.52115937972643
2800.0 53.95549724450417
2900.0 54.19492429673399
3000.0 54.10222826670039
3070.0 53.265690234151506
3150.0 52.69261400401221
3250.0 52.46710215604341
3350.0 51.837809838900185
3450.0 51.01178711929485
3550.0 50.531033785217346
3650.0 50.04063527187067
3750.0 49.66464082898351
3870.0 49.33149539221327
4000.0 49.218294293659554
4120.0 48.928982170560985
4250.0 48.59699368312148
4370.0 48.06197233163553
4500.0 47.358718720083175
4620.0 46.808163287309995
4750.0 46.3160637041253
4870.0 46.021252385938425
5000.0 45.85787738237494
5150.0 45.80355312832157
5300.0 46.10253598877051
5450.0 46.233038315475355
5600.0 45.92846157999186
5800.0 45.42610488413432
6000.0 45.06607850447004
6150.0 44.615874686586
6300.0 44.14002769631006
6500.0 43.72574203072479
6700.0 43.22602235121046
6900.0 42.779767844713945
7100.0 42.734408998332626
7300.0 42.66047794385973
7500.0 42.602717336272164
7750.0 42.257323621893065
8000.0 41.787547333652896
8250.0 41.54969588546159
8500.0 41.52147476661439
8750.0 41.68362312885766
9000.0 41.32047020120355
9250.0 40.78859995960907
9500.0 40.34773330111791
9750.0 40.353555226216386
10000.0 40.166521338803605
10300.0 40.061820934294104
10600.0 40.28180188792645
10900.0 40.598978762996595
11200.0 39.88316943589531
11500.0 39.06298050612308
11800.0 38.64733538953875
12200.0 37.85349644087039
12500.0 37.75911303171985
12800.0 38.22181236120075
13200.0 39.10532814909352
13600.0 40.013638333676425
14000.0 39.35595993769182
14500.0 37.684152177313635
15000.0 36.14056326867539
15500.0 34.72085541870065
16000.0 33.71045046826025
16500.0 33.28154798818589
17000.0 32.98166892190788
17500.0 34.60845843907644
18000.0 34.358929595003545
18500.0 32.20589068077659
19000.0 30.60346261062152
19500.0 29.07590168792582
