Freq "Listening Window"
27.832 60.273340732861044
29.2969 64.57879732740736
30.7617 67.14928923435244
32.2266 70.29845195004253
33.6914 72.61827387663232
35.1562 74.58227056116816
36.6211 76.37952761697994
38.0859 79.08247830368883
39.5508 80.71659483903977
41.0156 82.53814346045137
42.4805 84.15618422730417
43.9453 85.77917361674088
45.4102 87.25882190273948
46.875 88.78277619672286
48.3398 90.14542416536129
51.2695 92.05490243719436
52.7344 92.96283683136612
54.1992 93.7102909124884
55.6641 94.26901282024913
58.5938 95.01091155406803
60.0586 95.28571842426122
62.9883 95.65083689059128
64.4531 95.79454745911127
67.3828 96.05755902225222
68.8477 96.11562498061801
71.7773 96.22587498008177
74.707 96.3086321976879
77.6367 96.40578477788353
79.1016 96.42396841566918
82.0312 96.46557748399371
84.9609 96.53548572428673
87.8906 96.56258504084136
90.8203 96.65490095432928
95.2148 96.7502477584203
98.1445 96.77317117784136
101.074 96.83729390856283
105.469 96.91149401284883
108.398 96.83100874712115
112.793 96.78993604292718
117.188 96.8372541841706
120.117 96.91595041625636
124.512 96.945755322371
128.906 97.00469456657412
133.301 97.10803763513648
139.16 96.84475375335082
143.555 96.75655902931734
147.949 96.83944508610895
153.809 96.75441753193408
159.668 96.4546902224345
165.527 96.33057180110947
171.387 96.82179052626103
177.246 96.61741624680387
183.105 96.77712764028598
188.965 96.66783542263714
196.289 96.6972735688212
203.613 96.62324560417181
210.938 96.91081353626751
218.262 96.77496476747122
225.586 96.55527702952564
232.91 96.56181124225242
241.699 96.6528703494104
250.488 96.60756920017741
259.277 97.03588413228455
268.066 97.0694641944567
276.855 96.73006749851075
287.109 96.77852181130564
297.363 97.39158387109768
307.617 96.8023018609816
319.336 96.60248908444443
329.59 96.6469897290848
341.309 96.9511126248299
353.027 97.22762434047607
366.211 97.02783353759534
379.395 97.0163866914513
392.578 96.65738869451624
405.762 97.07000775154877
420.41 97.2905987561151
435.059 97.8571176360315
451.172 97.71433880739859
465.82 98.08586105623645
483.398 98.46230697217844
499.512 98.2870356517334
517.09 97.81761007214773
536.133 97.59567240352492
555.176 97.60296210005876
574.219 97.63380484788627
594.727 97.35141513412746
615.234 97.41783345416663
637.207 97.37122300560927
659.18 96.42178827512956
682.617 96.09124492946677
707.52 96.53171027326766
732.422 94.98029360148527
757.324 96.1759386345968
785.156 96.12269534869597
811.523 95.43652075876172
840.82 96.2869840270351
870.117 96.79589137129267
900.879 97.0017180447582
933.105 97.44410496291457
965.332 97.31650999449252
1000.49 97.17955164002856
1035.64 97.24543721601525
1072.27 97.47232448174898
1108.89 97.1746688314146
1148.44 97.28696217408901
1189.45 96.93916921689333
1230.47 96.29684104007079
1274.41 96.43653829915169
1319.82 96.44259017857428
1366.7 96.30975581029465
1413.57 97.08864331574398
1463.38 96.8454779735807
1516.11 96.48593386513448
1568.85 96.76736455187698
1624.51 97.08694829582522
1681.64 97.05692939042937
1741.7 96.48099834108001
1803.22 96.7525828154191
1866.21 97.2933710383963
1932.13 97.11694355874744
1999.51 96.65163537997708
2069.82 97.19469917565846
2143.07 97.53263840775115
2219.24 96.64927991058481
2296.88 97.10869732877849
2378.91 97.96482545706755
2462.4 97.58622551097005
2548.83 97.3235138557771
2639.65 97.92848746675227
2731.93 97.87569321017831
2828.61 97.73725281651235
2928.22 97.73320380487522
3030.76 98.00739852128501
3137.7 97.79411402733558
3249.02 98.17151884590349
3363.28 97.98183688043513
3481.93 98.64798444288749
3604.98 98.24215956033872
3732.42 98.80671255611357
3864.26 98.29936721065255
4000.49 98.67905023611505
4141.11 98.27525191817361
4287.6 98.32177401921987
4438.48 98.18892655797369
4595.21 98.11490864367309
4756.35 98.26826670850406
4924.8 97.93487583538739
5097.66 98.02166885424711
5277.83 97.76919278313726
5463.87 97.86265283579691
5657.23 97.96081626022826
5856.45 97.7976314198282
6062.99 97.90547101523376
6276.86 97.79476705377729
6498.05 97.84668887493402
6726.56 98.06215254774321
6963.87 98.00434566547503
7209.96 98.04703111733214
7464.84 98.09575511350143
7727.05 97.96052174687749
7999.51 97.95256487614589
8282.23 98.00287457654211
8573.73 98.13910948017727
8876.95 98.28689932465024
9188.96 98.33939783627758
9514.16 98.44014101796054
9849.61 98.8316853880979
10196.8 99.1184465119243
10555.7 99.01426925687
10927.7 98.72668779386612
11313.0 98.62682924948449
11712.9 98.82317148728673
12126.0 98.96483262679037
12553.7 99.00405690975595
12996.1 99.33320023795793
13454.6 99.44899448304422
13929.2 99.96754415491407
14419.9 100.04698332313598
14928.2 100.02647431284171
15455.6 99.6737167718334
16000.5 99.05605904670713
16564.5 98.4835752983373
17148.9 97.80448013619133
17752.4 96.79711768945732
18379.4 96.1078782436586
19026.9 95.47881874737476
19697.8 94.04996706920517
19999.5 93.41640143449018
