Freq "On Axis"
27.832 60.35980000000001
29.2969 64.60229999999999
30.7617 67.18800000000002
32.2266 70.3279
33.6914 72.6462
35.1562 74.6174
36.6211 76.3654
38.0859 79.088
39.5508 80.72469999999998
41.0156 82.53910000000002
42.4805 84.153
43.9453 85.77020000000002
45.4102 87.2468
46.875 88.7673
48.3398 90.1317
51.2695 92.0312
52.7344 92.9385
54.1992 93.6882
55.6641 94.24769999999998
58.5938 94.9872
60.0586 95.2622
62.9883 95.6267
64.4531 95.77079999999998
67.3828 96.0341
68.8477 96.0913
71.7773 96.2007
74.707 96.2833
77.6367 96.381
79.1016 96.3981
82.0312 96.438
84.9609 96.5088
87.8906 96.5363
90.8203 96.6294
95.2148 96.7284
98.1445 96.7525
101.074 96.8187
105.469 96.8954
108.398 96.81309999999999
112.793 96.7727
117.188 96.8228
120.117 96.9025
124.512 96.9331
128.906 96.9979
133.301 97.1045
139.16 96.8329
143.555 96.7534
147.949 96.8414
153.809 96.7517
159.668 96.4575
165.527 96.35130000000001
171.387 96.8367
177.246 96.6301
183.105 96.7973
188.965 96.6925
196.289 96.7306
203.613 96.6704
210.938 96.9581
218.262 96.8027
225.586 96.5977
232.91 96.6216
241.699 96.7141
250.488 96.6856
259.277 97.1098
268.066 97.12990000000002
276.855 96.8235
287.109 96.8457
297.363 97.4855
307.617 96.87529999999998
319.336 96.69489999999999
329.59 96.7543
341.309 97.0765
353.027 97.3704
366.211 97.1303
379.395 97.11690000000002
392.578 96.75470000000001
405.762 97.24090000000001
420.41 97.51059999999998
435.059 98.0429
451.172 97.9006
465.82 98.275
483.398 98.6361
499.512 98.398
517.09 97.9367
536.133 97.7465
555.176 97.7338
574.219 97.7706
594.727 97.386
615.234 97.619
637.207 97.4995
659.18 96.5411
682.617 96.3371
707.52 96.7587
732.422 95.1292
757.324 96.6408
785.156 96.5108
811.523 95.91409999999999
840.82 96.8337
870.117 97.07660000000001
900.879 97.2853
933.105 97.7214
965.332 97.5389
1000.49 97.49610000000001
1035.64 97.54000000000002
1072.27 97.7533
1108.89 97.5887
1148.44 97.7015
1189.45 97.3116
1230.47 96.5831
1274.41 96.9491
1319.82 97.0315
1366.7 96.76339999999999
1413.57 97.7163
1463.38 97.4625
1516.11 96.9863
1568.85 97.4519
1624.51 97.8268
1681.64 97.7707
1741.7 97.0706
1803.22 97.4649
1866.21 98.1455
1932.13 98.07919999999999
1999.51 97.7557
2069.82 98.3631
2143.07 98.72060000000002
2219.24 97.51490000000001
2296.88 98.3045
2378.91 99.1275
2462.4 98.6101
2548.83 98.48169999999999
2639.65 99.0014
2731.93 98.9387
2828.61 98.7243
2928.22 98.7529
3030.76 98.9727
3137.7 98.7641
3249.02 98.9965
3363.28 98.7909
3481.93 99.8024
3604.98 99.4228
3732.42 100.047
3864.26 99.3869
4000.49 99.7652
4141.11 99.3732
4287.6 99.48499999999999
4438.48 99.27859999999998
4595.21 99.109
4756.35 99.5112
4924.8 99.0027
5097.66 99.15189999999998
5277.83 98.9437
5463.87 98.8269
5657.23 99.1167
5856.45 98.9898
6062.99 99.3493
6276.86 99.3759
6498.05 99.4673
6726.56 99.65450000000001
6963.87 99.5761
7209.96 99.5391
7464.84 99.5679
7727.05 99.531
7999.51 99.5214
8282.23 99.5989
8573.73 99.7405
8876.95 99.93030000000002
9188.96 99.6989
9514.16 99.508
9849.61 100.01400000000001
10196.8 100.358
10555.7 100.186
10927.7 99.621
11313.0 98.93879999999999
11712.9 99.0893
12126.0 99.7446
12553.7 99.9719
12996.1 100.369
13454.6 100.311
13929.2 101.213
14419.9 101.954
14928.2 102.16300000000001
15455.6 101.894
16000.5 101.679
16564.5 101.687
17148.9 101.53
17752.4 100.738
18379.4 100.316
19026.9 99.49799999999999
19697.8 97.8004
19999.5 97.11439999999999
