Freq,Floor Bounce,Ceiling Bounce,Front Wall Bounce,Side Wall Bounce,Rear Wall Bounce,Total Early Reflection
20.5078,59.08726056993437,58.82177271397116,59.048534734909495,60.030020192645665,66.99787511443968,62.24918861868731
21.9727,62.40120741722258,61.56874474420103,62.27785514848087,62.47997199343915,69.12073356357331,64.71299503664575
23.4375,65.78076656258413,64.5300450704416,65.17916513945652,65.76690099883452,71.28731120627346,67.34668773035399
24.9023,68.91910366793813,67.22720335500252,67.97024926903524,68.74202737989754,73.5069776418426,69.93459493853561
26.3672,74.0797083501743,72.18171515981786,73.03426236222806,73.61114862467055,76.9366660721414,74.30015802016648
27.832,76.52882315340965,74.3895869223144,75.34143759214147,75.92622597450797,78.87541099208391,76.49292029112769
29.2969,79.07172838973683,76.8198069692618,77.84867383507898,78.35454498408254,80.75567583804548,78.77648812528376
30.7617,80.83724247482678,78.5260992540248,79.59763393001633,80.04431836546463,82.06398428402385,80.37826255362573
32.2266,82.15945830062311,79.82581663974044,80.91322965797062,81.32688327807439,83.0933341835692,81.60457775636569
33.6914,83.04809078159646,80.6460315891722,81.77182881075706,82.16558577588124,83.7344069291201,82.40099989169993
35.1562,83.71188133586837,81.27005256319497,82.4260339464458,82.78094182172224,84.12440146921146,82.9756745686682
36.6211,84.0099741194551,81.48765964139287,82.69095260016563,83.02372065180299,84.2254843546474,83.19578266815806
38.0859,84.29394183417334,81.73783637629295,82.96615079328231,83.28769767750957,84.38365231199658,83.43818094597732
39.5508,84.59058373957619,82.00327007649378,83.25436671259635,83.55114367583018,84.51416395047242,83.68187101135277
41.0156,84.87797851976704,82.2607829649176,83.53603133153119,83.81054026976254,84.65825473249255,83.92438557866167
42.4805,85.13603035570767,82.50095047849584,83.79628686318313,84.04332962570555,84.77094853897025,84.14145282674957
43.9453,85.36238050554493,82.70896358891254,84.02398887716801,84.24318499690699,84.8628743027043,84.32960982483947
45.4102,85.35614011602404,82.65048723020868,83.99551250540674,84.20811400418089,84.78620410113925,84.29052927899271
46.875,85.65982113821367,82.93466927688839,84.29626303851047,84.50006548892972,85.028246215898,84.57493358060115
48.3398,85.88856649858296,83.17084819203468,84.53168642981142,84.72887626798267,85.2146490215894,84.7966049869827
51.2695,86.50560212101401,83.76613661469811,85.15277941945577,85.30401519917572,85.62538495596293,85.35849509523301
52.7344,86.76395211380832,83.99394911484022,85.40201184672352,85.54338890722853,85.8236368238039,85.59439872015204
54.1992,87.05155385338254,84.26999287103651,85.69188565091527,85.81837631961803,86.04536588522492,85.86452964841992
55.6641,87.3476217414465,84.55145519382147,85.98939005165248,86.09708921365414,86.26386333149185,86.13934411836347
58.5938,87.91183598140883,85.08914492775864,86.55609878537983,86.62819760178515,86.6855726034429,86.66481287305153
60.0586,88.23230787118197,85.37808775119507,86.87211041735108,86.92171568775528,86.91219892419163,86.95595954935676
62.9883,88.74641855731404,85.8533957794241,87.39519496836762,87.38837637366346,87.21560571054455,87.416038756226
64.4531,88.9268390225142,86.07667996002748,87.60459338548766,87.57347432022762,87.30917182569036,87.59276394483133
67.3828,89.50689620433073,86.67141680521483,88.17790995217976,88.16846045962905,87.9502995979169,88.1880185818866
68.8477,89.73067756000722,86.84850993360318,88.38198880739807,88.37342631789603,88.16828668143799,88.39646592700831
71.7773,90.09538668257032,87.16491141800319,88.7381536006265,88.70918684987484,88.47493638459252,88.73598925621776
74.707,90.40987261157943,87.42487960766168,89.03238445718797,89.00515304324463,88.75482515358344,89.0286673775026
77.6367,90.68095294230828,87.67653416426351,89.30725558332635,89.25430295119274,88.95083460108955,89.27945300952767
79.1016,90.78565452322732,87.75956595887597,89.40766608012795,89.34709874805151,89.03388397790901,89.37392132081618
82.0312,90.94306606548193,87.83627129415201,89.54662567652746,89.46563437471751,89.13818611221028,89.49901931491615
84.9609,90.99392129993161,87.75864627866483,89.5736062223196,89.47791795706912,89.20202154897709,89.52247961554112
87.8906,91.40960043397754,88.12784415874012,90.0170538299217,89.84846543529208,89.49117772527076,89.90545963029005
90.8203,91.7004929445532,88.41933346153886,90.32088665632855,90.10474798124126,89.61472642853148,90.16230814839153
95.2148,91.67926884931684,88.27128607129045,90.26599304905044,90.00648942074227,89.48548471310428,90.08312803161324
98.1445,91.64851563228443,88.13941448421183,90.22487297644862,89.90393335143905,89.2771998028238,89.99231918846
101.074,91.66221848123155,88.0558399055371,90.23713889320851,89.85259712836964,89.02542402219339,89.9362676852302
105.469,91.60018678204523,87.98374561062579,90.18912742551677,89.80637787699037,88.96899205864797,89.87995495943814
108.398,91.76654269776243,88.16612223862286,90.34355285076872,89.97539420535601,89.18687345247129,90.05474667864381
112.793,91.52141935083101,87.66979776214795,90.01040033011066,89.61806554802494,88.9383219868646,89.73646971817755
117.188,91.27923025899916,87.16604173123595,89.7732750456597,89.21924137875924,88.36312443994132,89.37900811382099
120.117,91.72906895570135,87.70627680385928,90.31905698277724,89.66293808484599,88.46905938292092,89.80749685651429
124.512,92.00986991967241,87.8017576096885,90.52735727254243,89.8767660084107,88.80234111390207,90.04443563839558
128.906,92.0109686993573,87.68645896481343,90.531743959808,89.74790254674159,88.20812373790788,89.92261550620417
133.301,91.88802562914331,87.67780438086203,90.45155989486919,89.68382320658293,87.85197152499684,89.8041841316102
139.16,91.84526715253914,87.52508907605484,90.40173475984643,89.6364386604843,87.84795293307685,89.75052974348897
143.555,91.85191326047975,87.4303731896258,90.4486560088743,89.63815978830402,87.93801256029217,89.76447797328238
147.949,92.44200122682003,87.92101959432917,91.1139651170602,90.16159832459931,88.15134492446568,90.30025998573043
153.809,93.0514561677084,88.33854870161888,91.61005792957786,90.7488845998798,88.3553415830571,90.80835322104251
159.668,92.79246513415707,88.04329482745139,91.29935813390944,90.62599319404751,88.68649519674204,90.631272184757
165.527,92.49554373592802,87.53297477794759,91.2214902990445,90.41561076423532,88.49119023047821,90.39399583464707
171.387,92.69214008280544,87.89345277063559,91.43929893700971,90.71667897198054,89.44978363816053,90.73919260355424
177.246,92.55878285051757,87.79371062421093,91.32030008520296,90.60174481597029,89.21348636846722,90.60127131562466
183.105,92.318544671769,87.6067429098537,91.21730054722543,90.39302544257706,89.09769539066494,90.42377138563955
188.965,92.89667172153932,88.07332917048434,91.77162148284383,90.80970906906457,89.27223456723205,90.8951121188091
196.289,92.35835933306022,87.60619738516995,91.23385885313819,90.36148703753739,88.64220154626727,90.36976973842094
203.613,92.30339157663826,87.49827260187465,91.3227887746771,90.24773020518258,88.60947487179507,90.33622072962412
210.938,92.53150747297595,87.29476989035031,91.5169946755009,90.60442855289061,88.22647545383374,90.4608504758191
218.262,92.10032104622785,87.07521039166807,91.23035203680173,90.33276604065688,88.8794603662934,90.26254790552969
225.586,91.91115039713016,86.37117495987086,90.89525515404026,89.86577811403845,88.64494205094276,89.92720520128123
232.91,92.26784725518206,86.8531258063851,91.3764152161845,90.18486780223311,87.90095342115555,90.17314138657791
241.699,91.62780160223667,85.67266166669869,90.56189502554697,89.39681393229408,86.84205671135953,89.36077479729852
250.488,92.11869805523118,87.0925969729557,91.75904228547124,90.44446609789738,87.15077176270665,90.22577180588625
259.277,92.18497724091299,87.02339499277205,92.00293473810679,90.81064142634786,87.88681895609152,90.46390218390657
268.066,92.91469570825666,87.04837088288114,92.28470340691253,91.17656497877717,89.22307062115931,91.00569267168775
276.855,92.75863412418643,86.50670341913128,91.91151411947286,90.95366124241406,88.06751022800555,90.62514738872842
287.109,91.84057996354498,86.7535658297269,91.5385466949429,90.2910088397631,87.8253387381916,90.08755919256528
297.363,92.77407671517442,85.44818390156243,92.18491582834608,91.23141380763543,87.81244226116523,90.66748737926137
307.617,92.31094008882124,83.66844457971942,91.05029284981826,90.47845071554384,88.80442897746782,90.07291758940441
319.336,91.30162941625342,83.78470640929446,90.49321254515942,90.057787006901,86.52901032896771,89.21358432645019
329.59,91.05459884508895,82.84805707842155,90.3237751997262,89.36585039773965,87.96659560730487,89.06893412809318
341.309,92.9315712055941,79.57029957486526,92.09761502112315,89.59123308954035,89.42460361827796,90.38354128575354
353.027,92.49015890136592,81.54372496463323,91.74147548877262,90.09998903849264,86.16146602221953,89.86477613943013
366.211,92.868782357488,79.94494004286095,91.17643936756234,89.88719325149894,86.34335436346993,89.77811627870402
379.395,91.88518752462471,82.52285941379242,91.23321528380967,89.8742368577211,84.71429071664967,89.36336561501794
392.578,92.84127082890035,79.14303116390387,91.40992017045302,90.12698591538712,86.33789586677841,89.86707011288372
405.762,90.78765159406869,86.1148760678943,90.12898202627859,88.87029954485926,84.35649388371186,88.67043920535782
420.41,89.9592505079945,85.82131731089162,89.44919579358772,88.43090049146156,84.11752474303368,88.07326178549336
435.059,90.03464053828623,85.29933884644987,89.60119910894751,88.73337990477847,83.95883786176474,88.13569311836876
451.172,89.63889870884682,83.18802531985499,89.00906274730646,87.37971746805326,84.86647172072288,87.4479216107133
465.82,90.85468525596895,84.52065513508947,90.3620629178241,87.75643070657027,82.60266255426313,88.28176228197047
483.398,90.69348140159387,84.28757282990487,90.12739857534547,88.3032636919243,82.30159213175854,88.21875850718794
499.512,89.94302640142733,83.23380544624311,89.38617685467526,87.07282357059741,83.75697410884823,87.5018516841554
517.09,89.9056241196909,84.39098476679392,89.77402188736612,87.10048971848761,81.21122016418433,87.55530084144429
536.133,90.62398373033203,83.49631645236325,90.61561216051523,88.23339690276349,82.44898377608415,88.28921106003446
555.176,89.6825716824237,82.2785408033214,89.26985799134663,86.59681491250608,81.94245131001195,87.08745650627402
574.219,90.30374207483244,83.6243413118085,90.10002646612205,86.91550175530479,81.83167330494923,87.73802635972517
594.727,90.75982039875781,84.51331978855521,90.47207677732608,87.07407340278371,80.09955649141745,88.062955811456
615.234,90.9152155737405,83.49276201027054,90.30582987159953,86.73800617840548,80.41307853937153,87.94190903329428
637.207,89.80147915282507,84.95355075263059,89.12335029413305,86.87626734178856,80.11588248102782,87.28387540663026
659.18,90.5549858720158,83.78732696199326,89.94697393917112,87.24576724303873,81.35856277360908,87.82538316457547
682.617,91.36027581163283,85.8354588593815,90.67834658961824,86.72900312444902,83.04114506939653,88.56423256742323
707.52,91.71164477549932,86.21187523404522,91.01700325503576,87.13053699565889,81.21923087082646,88.82393074498935
732.422,90.55410496121493,86.25629530948356,90.25712737295522,87.38509034397903,79.84048658577896,88.14705239899668
757.324,90.82506291345268,86.23594402528681,90.34401387820462,87.34838102031158,79.91890947279491,88.26487962672365
785.156,90.08922556428757,87.01348374881952,89.71388596435992,87.05897885024083,81.66427167710374,87.94416262044285
811.523,90.34451014083619,88.05233929379929,90.03712694268222,85.84616367676576,81.96667758304902,88.15747785967226
840.82,90.51739842435346,87.23359319429929,90.22291718637732,86.16846462496561,79.61954129359192,88.08013639325385
870.117,90.22585290546424,87.47110324490602,90.43648656669842,86.5333575374154,79.16436233086823,88.1295957113405
900.879,90.15796194827166,87.14382579575779,89.93672056884682,86.05467306931705,79.08641408042868,87.8172944894217
933.105,89.48169730223619,86.7785733933482,89.80479068874394,86.15436011714586,78.28317303947321,87.48138736447584
965.332,89.23880820377435,87.1682733199617,89.58781641184876,85.99628539210813,78.03537505550165,87.37359910923841
1000.49,89.07062927010445,86.18247513079156,89.6230133462304,85.60247060839409,77.9242609630982,87.10064637971226
1035.64,88.8830427666849,86.23253008645646,89.52852548986804,85.05958536780598,78.38930453551096,86.95474519636268
1072.27,88.76303085427169,86.5562593914055,89.25861813557259,84.78059843213306,77.07602565553965,86.81128053728192
1108.89,88.00339050309005,86.05889477807011,89.16072833286857,84.4964029181044,76.88808330547693,86.41418138823308
1148.44,87.93007102487461,85.3986170523787,89.02420555036763,84.6261808092731,76.74307511387777,86.24005584538473
1189.45,87.79315186602287,84.70940425437894,88.59708368438199,83.98819370386035,76.26628767844373,85.83007175006144
1230.47,87.21925970126385,84.38226779806631,88.35407385326486,83.9779424677499,76.27758157160355,85.51046873501666
1274.41,87.89822003112921,85.81368401509378,88.76415138776441,85.07984285051369,76.99003453494304,86.27810643938203
1319.82,89.79961161485923,87.64769828992854,90.40396887313607,86.30229213830998,77.81994904437808,87.95396223825888
1366.7,90.24664726421312,88.50716775663108,91.15163412815065,86.53302361488667,78.22039789928031,88.55843959255743
1413.57,90.21020529417497,88.70873955536656,90.69961725457513,86.54693769818513,78.27041329931666,88.4334196740946
1463.38,90.06379655465066,88.03282146642256,90.53253963596948,86.26070188400637,78.10301105957072,88.15358003065889
1516.11,89.40446523884972,86.93101373523089,89.79516134878934,86.07001782414441,76.91782405120554,87.43953947129405
1568.85,88.9087808636334,86.73274454625393,89.5863497995774,86.02645041278564,77.53273915954168,87.1857490987938
1624.51,89.65692924130977,86.9422388813401,89.72135858643763,86.2688382586024,76.99644256337803,87.52827610696696
1681.64,89.53006694731519,86.69628277331864,89.56672078676723,86.20258472859025,76.931204301786,87.38189767385974
1741.7,88.52903844916183,85.29270900879695,89.1088433928986,86.19531386106854,76.28073672629797,86.67331018021248
1803.22,87.44291570317824,84.77177415816845,88.79721983590024,86.05462459565473,75.30722408539721,86.12829621939828
1866.21,87.71421770278542,84.68749652887452,88.89397357438801,85.69819197464332,75.39508776513127,86.16209249535741
1932.13,87.41167361354584,83.46042423968932,88.84499498019697,85.59687866592085,76.14958106336942,85.89583688761608
1999.51,85.45449100805091,82.26607651675643,88.42510184653204,85.74239352514515,74.56350803563267,85.10340619805807
2069.82,83.80745039877426,82.78180122255226,88.39890407577647,85.73389871005276,75.29434100490191,84.8571794339825
2143.07,85.05787770351246,82.57167211023071,88.87077037926393,85.82031269542519,74.83013603315788,85.27547182965635
2219.24,84.59792257489475,81.13135052242001,89.33987864057838,86.33160264324952,76.00231418446518,85.43208511542248
2296.88,83.05807605699046,80.26812710446328,89.34358106630121,86.40624404072791,75.96595281367996,85.17181795769325
2378.91,84.05488741127547,80.69533414147926,89.83057013482535,86.88750470950656,76.04183625889,85.71022094473439
2462.4,83.90298201005179,80.00019036413126,90.15568236457412,86.7913338499911,76.02701813719302,85.79755354054457
2548.83,82.99805285614549,80.96123569205768,89.99462120379086,86.64148219209982,75.62357975030757,85.61328830362541
2639.65,83.26962327335859,82.12429066158617,90.17415049612522,86.69271187331132,75.40809511743359,85.83878689845677
2731.93,82.37659446121759,82.23839544037978,89.95163858679739,86.5780274199977,75.39455347297987,85.60771070936651
2828.61,82.18626738640937,83.23175309377325,90.04716615312333,86.91858020885846,75.68737948082341,85.83366913485128
2928.22,82.73599291140874,84.11438619508611,90.41064196137125,87.2825912198935,75.95061514785642,86.27173883984423
3030.76,82.19217083893948,84.89997366359576,90.41259350948722,87.46840354936388,76.43921580041845,86.38821043119569
3137.7,81.47315523730153,85.8543439026361,90.30328714031477,87.71629318991826,76.64130528223876,86.50286764768961
3249.02,82.06265702016408,86.43422042215325,90.38214072939189,87.34671368495012,76.05972960494867,86.58191058210038
3363.28,83.21223660892288,86.4174724133866,90.14554208585484,86.63070166857167,75.24123484275269,86.38615989155437
3481.93,83.77420082401444,87.15508849199898,90.33102982434511,86.6981748647844,75.04279365104856,86.69604680678701
3604.98,85.06056129708027,86.81892428410819,90.32321246403683,86.72565978915513,74.91759878925798,86.7764084088069
3732.42,85.57663254163961,87.43397092072598,90.63279886905697,86.97651716305235,74.50949608606562,87.15765029571331
3864.26,86.85192978910656,86.74483266457268,90.32074928234245,86.80511755984155,74.287190019114,87.05805170097483
4000.49,87.02251455157405,86.40164439238349,90.24797962371782,86.96698176893695,74.1244363632285,87.02856816846328
4141.11,87.89204534247996,85.69402386130638,89.88696124686638,86.46504183164838,73.39896013770141,86.85880248131504
4287.6,87.74291442036827,85.21364578864285,89.59350333369532,85.88596904423574,72.69918649191766,86.52037271531304
4438.48,87.37352528719356,84.88876632410637,88.999026629509,85.44119263644036,72.74518031761754,86.0583048862668
4595.21,86.82580545770489,83.99167082383924,88.69770949588208,84.69419188655485,71.73021138825558,85.52115595569637
4756.35,86.16838806384,84.79892511000443,88.7680806275393,84.30109710159958,72.66974335004545,85.45678704770343
4924.8,86.61541260901085,85.08516542203638,88.83608598845063,84.12552633783001,72.45433838805589,85.61640814154399
5097.66,86.47764418279812,85.08120261609136,88.93498250825328,83.78689627696393,71.18948146909688,85.56645592656632
5277.83,86.24045661862402,85.13672431218771,89.13094938589022,84.36883121962721,71.47367720886618,85.68963882239605
5463.87,86.06851024775129,85.51909792874474,88.97782056794219,84.55342347815242,71.2843411986319,85.68169775694429
5657.23,86.19690019831053,85.09106709054214,88.7361961782649,84.90232161100037,71.8012550334996,85.59032361840688
5856.45,86.40461655638099,85.13261146938181,88.98781600010378,85.0183431105836,71.841761118159,85.77023650291918
6062.99,86.6831053581782,85.60891691610452,89.24517756732949,85.46619131673023,72.47518332237348,86.1064914293335
6276.86,87.64272004988888,85.131749578461,89.59781848050513,85.97423294097955,71.8409389486555,86.49272578372714
6498.05,87.87037284039461,85.71226401554308,89.73328572496779,86.58650378296969,72.48694201153937,86.81028152747271
6726.56,87.81159490392113,85.33577357432377,89.78853251654103,86.46689227291033,72.51233658625848,86.73834558558731
6963.87,87.33844845000506,84.93498570413065,89.48063228443132,85.43912852638158,72.10727533087847,86.2464130409334
7209.96,87.28027178411797,84.57854586984031,89.60043715119578,84.0938270913306,71.66573172975224,86.03151246742105
7464.84,88.20564001153137,84.40520507138999,89.50621725341696,84.3792187089036,71.78263609523943,86.27164283240225
7727.05,88.13374632869153,84.99343873438268,89.85587557462067,85.66064552926422,70.46729779248174,86.65228078339815
7999.51,87.93821982375805,85.42887033563345,90.42756595674358,86.50339808328232,69.69801423958559,87.04307774521207
8282.23,88.55621148315798,85.58508643373843,90.73679242595202,86.43923883503176,70.38867570315017,87.34849251335477
8573.73,88.02397426225767,85.84490417899408,91.0590772904716,85.24804269142273,70.3086307364797,87.22684830665273
8876.95,87.91705756491784,85.76931230016855,90.93009066070704,84.168260845748,69.41625815819931,86.9987417405549
9188.96,87.836857064586,85.72565455091791,90.88452632960248,83.8618827313931,68.55482777141438,86.91580063203253
9514.16,87.92153776139713,85.85625420538982,91.02179374464149,83.83213210479171,67.08028238902828,87.01884804940435
9849.61,87.78667707171094,85.92613657978227,91.03669124243832,83.52997867154771,65.81572399849834,86.97395431303804
