Freq "Floor Bounce"
20.5078 58.42385905478284
21.9727 61.737805902071045
23.4375 65.1173650474326
24.9023 68.2557021527866
26.3672 73.41630683502277
27.832 75.86542163825811
29.2969 78.4083268745853
30.7617 80.17384095967525
32.2266 81.49605678547158
33.6914 82.38468926644492
35.1562 83.04847982071684
36.6211 83.34657260430356
38.0859 83.6305403190218
39.5508 83.92718222442466
41.0156 84.2145770046155
42.4805 84.47262884055614
43.9453 84.6989789903934
45.4102 84.6927386008725
46.875 84.99641962306214
48.3398 85.22516498343143
51.2695 85.84220060586247
52.7344 86.10055059865678
54.1992 86.38815233823101
55.6641 86.68422022629497
58.5938 87.2484344662573
60.0586 87.56890635603044
62.9883 88.08301704216251
64.4531 88.26343750736267
67.3828 88.8434946891792
68.8477 89.06727604485569
71.7773 89.43198516741879
74.707 89.7464710964279
77.6367 90.01755142715675
79.1016 90.12225300807579
82.0312 90.2796645503304
84.9609 90.33051978478008
87.8906 90.74619891882601
90.8203 91.03709142940167
95.2148 91.0158673341653
98.1445 90.9851141171329
101.074 90.99881696608001
105.469 90.9367852668937
108.398 91.1031411826109
112.793 90.85801783567948
117.188 90.61582874384763
120.117 91.06566744054982
124.512 91.34646840452088
128.906 91.34756718420577
133.301 91.22462411399178
139.16 91.1818656373876
143.555 91.18851174532821
147.949 91.77859971166849
153.809 92.38805465255686
159.668 92.12906361900554
165.527 91.83214222077649
171.387 92.0287385676539
177.246 91.89538133536604
183.105 91.65514315661747
188.965 92.23327020638779
196.289 91.69495781790869
203.613 91.63999006148673
210.938 91.86810595782441
218.262 91.43691953107631
225.586 91.24774888197862
232.91 91.60444574003053
241.699 90.96440008708514
250.488 91.45529654007964
259.277 91.52157572576145
268.066 92.25129419310512
276.855 92.0952326090349
287.109 91.17717844839345
297.363 92.11067520002288
307.617 91.6475385736697
319.336 90.63822790110189
329.59 90.39119732993741
341.309 92.26816969044256
353.027 91.82675738621438
366.211 92.20538084233647
379.395 91.22178600947318
392.578 92.17786931374881
405.762 90.12425007891716
420.41 89.29584899284296
435.059 89.37123902313469
451.172 88.97549719369529
465.82 90.19128374081741
483.398 90.03007988644234
499.512 89.2796248862758
517.09 89.24222260453936
536.133 89.9605822151805
555.176 89.01917016727216
574.219 89.64034055968091
594.727 90.09641888360628
615.234 90.25181405858896
637.207 89.13807763767353
659.18 89.89158435686427
682.617 90.6968742964813
707.52 91.04824326034779
732.422 89.8907034460634
757.324 90.16166139830115
785.156 89.42582404913604
811.523 89.68110862568466
840.82 89.85399690920192
870.117 89.5624513903127
900.879 89.49456043312013
933.105 88.81829578708465
965.332 88.57540668862282
1000.49 88.40722775495291
1035.64 88.21964125153336
1072.27 88.09962933912016
1108.89 87.33998898793851
1148.44 87.26666950972307
1189.45 87.12975035087133
1230.47 86.55585818611232
1274.41 87.23481851597768
1319.82 89.1362100997077
1366.7 89.58324574906159
1413.57 89.54680377902343
1463.38 89.40039503949913
1516.11 88.74106372369819
1568.85 88.24537934848186
1624.51 88.99352772615823
1681.64 88.86666543216366
1741.7 87.8656369340103
1803.22 86.77951418802671
1866.21 87.05081618763388
1932.13 86.74827209839431
1999.51 84.79108949289937
2069.82 83.14404888362273
2143.07 84.39447618836093
2219.24 83.93452105974322
2296.88 82.39467454183892
2378.91 83.39148589612394
2462.4 83.23958049490025
2548.83 82.33465134099396
2639.65 82.60622175820706
2731.93 81.71319294606606
2828.61 81.52286587125784
2928.22 82.07259139625721
3030.76 81.52876932378794
3137.7 80.80975372214999
3249.02 81.39925550501255
3363.28 82.54883509377134
3481.93 83.11079930886291
3604.98 84.39715978192874
3732.42 84.91323102648808
3864.26 86.18852827395503
4000.49 86.35911303642251
4141.11 87.22864382732843
4287.6 87.07951290521673
4438.48 86.71012377204202
4595.21 86.16240394255335
4756.35 85.50498654868846
4924.8 85.95201109385931
5097.66 85.81424266764658
5277.83 85.57705510347249
5463.87 85.40510873259976
5657.23 85.533498683159
5856.45 85.74121504122945
6062.99 86.01970384302666
6276.86 86.97931853473735
6498.05 87.20697132524307
6726.56 87.1481933887696
6963.87 86.67504693485353
7209.96 86.61687026896644
7464.84 87.54223849637984
7727.05 87.47034481354
7999.51 87.27481830860651
8282.23 87.89280996800645
8573.73 87.36057274710613
8876.95 87.2536560497663
9188.96 87.17345554943446
9514.16 87.2581362462456
9849.61 87.1232755565594
10196.8 86.84324189467205
10555.7 86.65628213413362
10927.7 86.67176512393854
11313.0 86.70502918163118
11712.9 86.91800498989707
12126.0 86.59421667294838
12553.7 86.33736790825076
12996.1 86.2400595430077
13454.6 86.09550283387597
13929.2 85.7684055444821
14419.9 85.43970943775336
14928.2 85.26178639290237
15455.6 85.056956675062
16000.5 84.63325571916066
16564.5 83.90407328037938
17148.9 82.68666121194705
17752.4 81.22642314874795
18379.4 79.55812506063276
19026.9 78.23035225780247
19697.8 77.10480129137292
19999.5 76.59947536480915
