Freq "On Axis"
22.4 54.0
23.0 54.3
23.6 54.7
24.0 55.0
25.0 55.39999999999999
25.8 55.7
26.5 56.10000000000001
27.2 56.39999999999999
28.0 56.8
29.0 57.10000000000001
30.0 57.39999999999999
30.7 57.8
31.5 58.10000000000001
32.5 58.5
33.5 58.8
34.5 59.10000000000001
35.5 59.39999999999999
36.5 59.7
37.5 60.0
38.7 60.3
40.0 60.60000000000001
41.2 60.8
42.5 61.10000000000001
43.7 61.3
45.0 61.5
46.2 61.60000000000001
47.5 61.60000000000001
48.7 61.7
50.0 61.8
51.5 61.8
53.0 61.89999999999999
54.5 61.999999999999986
56.0 62.10000000000001
58.0 62.2
60.0 62.39999999999999
61.5 62.5
63.0 62.7
65.0 62.89999999999999
67.0 63.10000000000001
69.0 63.3
71.0 63.5
73.0 63.8
75.0 64.0
77.5 64.3
80.0 64.6
82.5 64.9
85.0 65.2
87.5 65.3
90.0 65.50000000000001
92.5 65.4
95.0 65.3
97.5 65.2
100.0 65.2
103.0 65.1
106.0 65.0
109.0 64.9
112.0 64.9
115.0 64.8
118.0 64.7
122.0 64.7
125.0 64.7
128.0 64.7
132.0 64.7
136.0 64.9
140.0 65.1
145.0 65.2
150.0 65.4
155.0 65.59999999999998
160.0 65.8
165.0 66.0
170.0 66.2
175.0 66.4
180.0 66.4
185.0 66.4
190.0 66.3
195.0 66.3
200.0 66.4
206.0 66.4
212.0 66.5
218.0 66.60000000000001
224.0 66.60000000000001
230.0 66.60000000000001
236.0 66.60000000000001
240.0 66.60000000000001
250.0 66.60000000000001
258.0 66.60000000000001
265.0 66.60000000000001
272.0 66.5
280.0 66.4
290.0 66.4
300.0 66.4
307.0 66.4
315.0 66.4
325.0 66.4
335.0 66.3
345.0 66.4
355.0 66.3
365.0 66.2
375.0 66.1
387.0 66.1
400.0 66.2
412.0 66.2
425.0 66.3
437.0 66.4
450.0 66.60000000000001
462.0 66.90000000000002
475.0 67.2
487.0 67.2
500.0 67.1
515.0 67.1
530.0 67.1
545.0 66.99999999999999
560.0 67.1
580.0 67.1
600.0 67.1
615.0 67.1
630.0 66.99999999999999
650.0 66.99999999999999
670.0 66.99999999999999
690.0 66.99999999999999
710.0 67.2
730.0 67.4
750.0 67.6
775.0 67.8
800.0 68.09999999999998
825.0 68.39999999999999
850.0 68.6
875.0 68.9
900.0 69.0
925.0 69.10000000000001
950.0 69.2
975.0 69.40000000000002
1000.0 69.7
1030.0 69.9
1060.0 70.0
1090.0 70.2
1120.0 70.3
1150.0 70.4
1180.0 70.59999999999998
1220.0 70.8
1250.0 70.89999999999999
1280.0 71.0
1320.0 71.1
1360.0 71.2
1400.0 71.2
1450.0 71.1
1500.0 71.0
1550.0 70.89999999999999
1600.0 70.89999999999999
1650.0 71.1
1700.0 71.5
1750.0 71.90000000000002
1800.0 71.90000000000002
1850.0 71.60000000000001
1900.0 71.0
1950.0 70.50000000000001
2000.0 70.1
2060.0 69.3
2120.0 68.8
2180.0 69.0
2240.0 69.40000000000002
2300.0 69.6
2360.0 69.7
2400.0 69.6
2500.0 69.40000000000002
2580.0 69.10000000000001
2650.0 68.8
2720.0 69.0
2800.0 68.9
2900.0 68.39999999999999
3000.0 68.6
3070.0 69.6
3150.0 70.50000000000001
3250.0 71.1
3350.0 71.60000000000001
3450.0 71.7
3550.0 71.3
3650.0 70.59999999999998
3750.0 69.8
3870.0 69.10000000000001
4000.0 68.3
4120.0 67.6
4250.0 67.1
4370.0 66.7
4500.0 66.8
4620.0 67.4
4750.0 67.9
4870.0 68.7
5000.0 68.8
5150.0 68.7
5300.0 69.10000000000001
5450.0 69.2
5600.0 69.40000000000002
5800.0 68.7
6000.0 68.3
6150.0 67.4
6300.0 66.99999999999999
6500.0 67.1
6700.0 66.99999999999999
6900.0 67.3
7100.0 67.8
7300.0 66.99999999999999
7500.0 66.8
7750.0 65.8
8000.0 64.7
8250.0 64.7
8500.0 65.3
8750.0 66.4
9000.0 66.99999999999999
9250.0 67.4
9500.0 66.99999999999999
9750.0 66.60000000000001
10000.0 65.59999999999998
10300.0 66.0
10600.0 66.3
10900.0 67.4
11200.0 68.2
11500.0 68.00000000000001
11800.0 67.3
12200.0 65.8
12500.0 65.7
12800.0 66.0
13200.0 66.0
13600.0 66.2
14000.0 66.3
14500.0 65.59999999999998
15000.0 64.49999999999999
15500.0 63.5
16000.0 62.39999999999999
16500.0 60.39999999999999
17000.0 59.0
17500.0 59.0
18000.0 60.7
18500.0 60.8
19000.0 59.0
19500.0 57.10000000000001
