Freq "Front Wall Bounce"
20.5078 62.042138178089544
21.9727 63.22792388659656
23.4375 65.50448237952878
24.9023 67.34289315617016
26.3672 68.98931579407346
27.832 70.46377183946498
29.2969 72.15316453196961
30.7617 73.80867515065474
32.2266 75.28558203819824
33.6914 76.30101545112899
35.1562 77.6397464916713
36.6211 78.94465142205536
38.0859 80.1223408169728
39.5508 81.27504255591218
41.0156 82.28217664014923
42.4805 83.32102183219968
43.9453 83.68441116394408
45.4102 84.38773073365257
46.875 85.06067758104268
48.3398 85.60391345945227
51.2695 86.2596973262719
52.7344 86.63365318473669
54.1992 86.82904139112479
55.6641 86.98328968272003
58.5938 87.20596002890522
60.0586 87.26855829415051
62.9883 87.38490507070787
64.4531 87.43949376722647
67.3828 87.5019683292002
68.8477 87.52908746272045
71.7773 87.60538111562556
74.707 87.74004484832449
77.6367 87.84753425653496
79.1016 87.55955568044743
82.0312 87.60217151170477
84.9609 87.67168926484743
87.8906 87.8344989809159
90.8203 87.95157163305412
95.2148 88.07207845396391
98.1445 88.17705929173516
101.074 88.2029608042625
105.469 88.31019424438608
108.398 88.47145266332878
112.793 88.7320833625361
117.188 88.85383836704585
120.117 88.95313724411359
124.512 89.04280544747044
128.906 89.06841442999315
133.301 89.1007672649236
139.16 89.15756545133021
143.555 89.19145534615821
147.949 89.22528925766079
153.809 89.28391446077205
159.668 89.48017199896196
165.527 89.57569190261628
171.387 89.5045424985376
177.246 89.4281281249919
183.105 89.29975191561532
188.965 89.39092145775327
196.289 89.56636086949315
203.613 89.53040309149247
210.938 89.52028064891391
218.262 89.41519006213731
225.586 89.4716379926683
232.91 89.57237746781993
241.699 89.49715880068968
250.488 89.40504282717603
259.277 89.52749364127763
268.066 89.15852017675545
276.855 89.16027205815742
287.109 89.12518851915911
297.363 89.20726427026544
307.617 89.3011160258803
319.336 88.83750911569388
329.59 89.04252049166703
341.309 88.58196628124993
353.027 88.60228144753894
366.211 88.41041636911257
379.395 89.02243054161055
392.578 88.57056185798066
405.762 88.48813261896586
420.41 88.71845335864603
435.059 88.51723310729372
451.172 88.83478148426684
465.82 88.81024949088456
483.398 88.6445404391476
499.512 88.99676438880988
517.09 89.3532175526109
536.133 88.95674996184248
555.176 89.45452793779357
574.219 89.4094377166344
594.727 88.8987382594883
615.234 89.45316146205141
637.207 89.15458443485944
659.18 90.0405663606664
682.617 89.70609658632121
707.52 89.50436496504204
732.422 89.44266512526617
757.324 89.59949089299559
785.156 89.58254096934054
811.523 89.5639487725006
840.82 89.53659292762019
870.117 88.90724670133125
900.879 88.5136333766657
933.105 87.8149731420647
965.332 86.44149448822914
1000.49 85.07202794251393
1035.64 83.82018742051433
1072.27 82.8273013741438
1108.89 83.34937438062069
1148.44 84.75118648192807
1189.45 86.81760546274904
1230.47 88.19142728059609
1274.41 87.85796033754488
1319.82 87.58419195579135
1366.7 86.74724038997502
1413.57 86.79062551004996
1463.38 86.87530544939358
1516.11 88.16886125113695
1568.85 88.09665068994357
1624.51 87.14420929954727
1681.64 86.34890823105277
1741.7 86.02066049270067
1803.22 86.15516595706248
1866.21 86.54526457706774
1932.13 85.76211256954018
1999.51 84.87213067664294
2069.82 84.36844567186189
2143.07 85.4809409525051
2219.24 85.97012113535564
2296.88 84.66494885845103
2378.91 83.06668112181832
2462.4 82.91858192131355
2548.83 84.40160225301182
2639.65 84.33132849807059
2731.93 83.40129773234355
2828.61 83.31024723258747
2928.22 83.99109866078858
3030.76 84.48365562228315
3137.7 85.3303559620196
3249.02 85.91879495544109
3363.28 86.22501280728656
3481.93 86.76580645251718
3604.98 88.27869156845182
3732.42 89.0329092694223
3864.26 88.2328830956797
4000.49 88.2482268555591
4141.11 87.25853317991994
4287.6 87.13094864701665
4438.48 86.15174225527231
4595.21 87.3527117205369
4756.35 86.70046162008236
4924.8 87.43629848298633
5097.66 87.76647363358596
5277.83 87.78401858737178
5463.87 86.812085061186
5657.23 87.68307308425446
5856.45 87.40957450537178
6062.99 87.82075068187584
6276.86 87.78831632835954
6498.05 87.27976291595319
6726.56 87.4916254891971
6963.87 87.00980814711498
7209.96 87.64001790556206
7464.84 87.10961930324235
7727.05 88.05186291165559
7999.51 88.11322432207172
8282.23 88.63009327907413
8573.73 88.68237602440345
8876.95 88.88057996397855
9188.96 89.34393145058179
9514.16 89.16260918332367
9849.61 89.19538860728096
10196.8 89.09379404921219
10555.7 88.63543602860352
10927.7 88.50297973191265
11313.0 88.5706689547917
11712.9 88.78712155893231
12126.0 88.871114405221
12553.7 88.87538257219511
12996.1 88.81608122466591
13454.6 88.58593487609389
13929.2 88.34354622648169
14419.9 88.33409787150065
14928.2 88.36538256962012
15455.6 88.29233654406904
16000.5 88.17733094449115
16564.5 87.82829547126721
17148.9 87.3598470168195
17752.4 86.96040140500659
18379.4 86.50579900258566
19026.9 86.1500892837147
19697.8 86.19156650534391
19999.5 86.35161136611757
