Freq "Front Wall Bounce"
22.4 47.25806370223957
23.0 47.98824160057244
23.6 48.73507063649761
24.0 49.406019745733644
25.0 49.69800033346486
25.8 49.53643709467924
26.5 49.078342295526554
27.2 48.60857250921187
28.0 48.34377620579973
29.0 48.49617452630396
30.0 48.779273198517316
30.7 49.39629589288647
31.5 50.40295815858529
32.5 51.70847197320033
33.5 53.031932216943616
34.5 54.40192509388088
35.5 55.72598726484226
36.5 57.00986076595787
37.5 58.28734018101959
38.7 59.48512881547485
40.0 60.8456285270439
41.2 62.22368557728849
42.5 63.34936391601785
43.7 64.58841917895121
45.0 65.71490741438716
46.2 66.76987707077214
47.5 67.93983474341525
48.7 69.03983474341526
50.0 70.0957567275036
51.5 70.99575672750359
53.0 71.82541600382784
54.5 72.6529141109534
56.0 73.48152276340389
58.0 74.3957567275036
60.0 75.32344267082084
61.5 76.22344267082083
63.0 77.12344267082084
65.0 78.22344267082083
67.0 79.32344267082082
69.0 80.33786795256542
71.0 81.33786795256542
73.0 82.12344267082084
75.0 82.73786795256542
77.5 83.66592420546438
80.0 84.53786795256542
82.5 85.23786795256542
85.0 85.60962927175711
87.5 85.80962927175713
90.0 86.30962927175712
92.5 87.0244369344983
95.0 87.78185484624598
97.5 88.38185484624597
100.0 89.15390165111387
103.0 89.69675734905027
106.0 90.09675734905028
109.0 90.29675734905028
112.0 90.4967573490503
115.0 90.59675734905026
118.0 90.65453994874564
122.0 90.69675734905027
125.0 90.76953631388011
128.0 90.66953631388012
132.0 90.5695363138801
136.0 90.46953631388011
140.0 90.31456231687282
145.0 90.11456231687283
150.0 90.0880719701221
155.0 90.0880719701221
160.0 89.98807197012208
165.0 89.9036532647729
170.0 90.0036532647729
175.0 90.03394604852798
180.0 90.17770241397947
185.0 90.27770241397944
190.0 90.35219157704284
195.0 90.37770241397946
200.0 90.42404617978563
206.0 90.35219157704284
212.0 90.18284417870568
218.0 89.9548973711782
224.0 89.79880691121325
230.0 89.67399963324006
236.0 89.64599566907644
240.0 89.52145723709005
250.0 89.52145723709005
258.0 89.49734266957223
265.0 89.49734266957223
272.0 89.44564069821017
280.0 89.34564069821018
290.0 89.22220774194857
300.0 89.12220774194857
307.0 89.01622340818992
315.0 88.98849125697483
325.0 89.04858119401379
335.0 88.96581851482539
345.0 88.67644868792804
355.0 88.22167138811236
365.0 87.97235174488146
375.0 88.0236075194205
387.0 87.85111704346542
400.0 87.48201684812956
412.0 87.26178528066355
425.0 87.28019684134905
437.0 87.54192276512671
450.0 87.89473175770247
462.0 88.27546939229195
475.0 88.67546939229194
487.0 88.9570377364472
500.0 89.08201684812956
515.0 89.17644868792803
530.0 89.27364694400843
545.0 89.21125698940172
560.0 89.1164507110944
580.0 88.71027410904698
600.0 88.09444756404548
615.0 87.70929930598751
630.0 87.467567586999
650.0 87.35224547868249
670.0 87.3811906551672
690.0 87.406148773527
710.0 87.27364694400843
730.0 87.07908810975125
750.0 86.8032845541279
775.0 86.49332407414893
800.0 86.31155188014473
825.0 86.2484008998672
850.0 86.44889747927175
875.0 86.68631276410427
900.0 87.00034301849232
925.0 87.31802207099356
950.0 87.571566629417
975.0 87.80211979242993
1000.0 88.04529977382148
1030.0 88.19674210766628
1060.0 88.0946602273312
1090.0 87.80760446979987
1120.0 87.39609543336294
1150.0 86.93375985943585
1180.0 86.49727992304457
1220.0 86.2996386379197
1250.0 86.33743170726109
1280.0 86.73296806253647
1320.0 87.30211979242993
1360.0 87.4685294001368
1400.0 87.42998849705212
1450.0 87.37268782704157
1500.0 87.2757179019032
1550.0 86.97835110511684
1600.0 86.33773906540488
1650.0 85.80516807739927
1700.0 85.96744927572306
1750.0 86.4792010804036
1800.0 87.09709597688327
1850.0 87.65447104865007
1900.0 87.76051111753065
1950.0 87.43983474341526
2000.0 86.8309807770977
2060.0 86.42377982727281
2120.0 86.65908141401633
2180.0 87.18010912530173
2240.0 87.2145963541971
2300.0 86.6847915725905
2360.0 86.09245804126391
2400.0 86.07296037311703
2500.0 86.33278220511582
2580.0 86.55750485008146
2650.0 86.5740339254761
2720.0 86.69142021083442
2800.0 86.83003588672783
2900.0 86.60596825215869
3000.0 86.36949791043926
3070.0 86.1847238235297
3150.0 85.99093623389396
3250.0 85.75183552117811
3350.0 85.60484673439929
3450.0 85.75270316526111
3550.0 85.70020061744891
3650.0 85.25702551467316
3750.0 84.90695022793628
3870.0 85.08193006951844
4000.0 85.112783346141
4120.0 84.87393013171557
4250.0 84.721389434814
4370.0 84.76923698323243
4500.0 84.50440086332061
4620.0 84.37032299117713
4750.0 84.27636667633125
4870.0 84.1201210688849
5000.0 84.05686296849014
5150.0 83.90620630177548
5300.0 83.59925578821803
5450.0 83.25256402549597
5600.0 83.29330993041894
5800.0 83.32941934702
6000.0 82.96059296787517
6150.0 82.77291487044249
6300.0 82.44176534827392
6500.0 81.99760570796005
6700.0 82.16516606688376
6900.0 81.98998954525486
7100.0 81.26892999195057
7300.0 81.02111980048537
7500.0 81.38175744606305
7750.0 81.17987559708067
8000.0 81.19831652982067
8250.0 81.073575395291
8500.0 80.63926101837137
8750.0 80.40529146238704
9000.0 80.39002095879037
9250.0 80.52352631235216
9500.0 80.02690151573289
9750.0 80.01343148398522
10000.0 80.10499319419579
10300.0 79.59090894031706
10600.0 79.57859787289867
10900.0 80.11620670172282
11200.0 79.32870859497324
11500.0 78.1428820414909
11800.0 76.95898041612071
12200.0 76.84354692174982
12500.0 78.02519792348586
12800.0 78.21792235170518
13200.0 78.2454787850349
13600.0 77.23121930506811
14000.0 77.1775133373188
14500.0 75.76415624302099
15000.0 73.9214783427054
15500.0 73.94364113423083
16000.0 74.48657895117485
16500.0 74.7304906487766
17000.0 73.97170507868212
17500.0 72.91107783078486
18000.0 71.40487880238793
18500.0 70.10919659162278
19000.0 68.93412550807965
19500.0 65.93787309230235
