Freq "Side Wall Bounce"
22.4 47.94798138351028
23.0 48.85651772482281
23.6 49.775184306124785
24.0 50.54431860065911
25.0 50.959044632088805
25.8 50.921810637883866
26.5 50.73185594750932
27.2 50.57979428549818
28.0 50.73216152543027
29.0 51.05636030107651
30.0 51.388167892097854
30.7 51.80174890773311
31.5 52.39694153887196
32.5 53.123403525371984
33.5 53.8946599010314
34.5 54.7330495428419
35.5 55.620991074533364
36.5 56.59151731672385
37.5 57.62743916867798
38.7 58.73340988105831
40.0 59.92831276239902
41.2 61.25399583335876
42.5 62.36391262695106
43.7 63.61840311399645
45.0 64.71195282059237
46.2 65.8249749788059
47.5 67.0205258184934
48.7 68.17728793825209
50.0 69.25428735768357
51.5 70.1518358264827
53.0 71.02974364363807
54.5 71.84899143760543
56.0 72.66952158254125
58.0 73.62831992226866
60.0 74.60759361263554
61.5 75.46763407167957
63.0 76.3862816290553
65.0 77.52831992226866
67.0 78.60710965405983
69.0 79.6862816290553
71.0 80.6862816290553
73.0 81.44573031979427
75.0 82.10710965405983
77.5 83.02690744981409
80.0 83.8862816290553
82.5 84.54802148283368
85.0 84.92831992226866
87.5 85.01030375183036
90.0 85.49042994762738
92.5 86.13199092193067
95.0 86.81395990515395
97.5 87.37505440365284
100.0 88.05720166029789
103.0 88.59958801030275
106.0 88.94348669133899
109.0 89.14348669133898
112.0 89.343486691339
115.0 89.44348669133899
118.0 89.44348669133899
122.0 89.46654439251331
125.0 89.48795321349745
128.0 89.36654439251335
132.0 89.23108556659768
136.0 89.03800908373653
140.0 88.78361111856542
145.0 88.54947982439369
150.0 88.39601596468343
155.0 88.26276007601203
160.0 88.0401077667204
165.0 87.84595289760638
170.0 87.80617524977005
175.0 87.71855274276157
180.0 87.688350627333
185.0 87.72532924796026
190.0 87.75315156450615
195.0 87.71110715891665
200.0 87.68282646330144
206.0 87.55061699969684
212.0 87.28394185947313
218.0 86.95202933677945
224.0 86.72493826482533
230.0 86.52829036134612
236.0 86.29725519660138
240.0 86.10220332619006
250.0 85.92246938912758
258.0 85.75388525468699
265.0 85.60534117769951
272.0 85.45203796697574
280.0 85.26202847852205
290.0 85.02035188206271
300.0 84.74497106221953
307.0 84.50430795801037
315.0 84.37011531239237
325.0 84.27829642220784
335.0 84.06624353941619
345.0 83.67320175228737
355.0 83.0102819946631
365.0 82.6105237037754
375.0 82.43794751463996
387.0 82.08279034611411
400.0 81.56156921673369
412.0 81.07770000848222
425.0 80.88942761862805
437.0 80.91994220948646
450.0 81.03963661079229
462.0 81.33103094210436
475.0 81.7861571817529
487.0 82.47837257168321
500.0 83.36304458385102
515.0 84.35517384039461
530.0 85.16247157927593
545.0 85.8243400413811
560.0 86.29617082781817
580.0 86.42408448685343
600.0 86.32108100054508
615.0 86.2111140278588
630.0 86.15756320691492
650.0 85.98850298743282
670.0 85.62837678181597
690.0 84.95493212685948
710.0 83.98532471812241
730.0 82.69629037049602
750.0 81.37697490386635
775.0 80.33614052877466
800.0 79.70734476048203
825.0 79.58857489830302
850.0 79.97375548690673
875.0 80.53031877641799
900.0 81.07415161818427
925.0 81.61556944831369
950.0 82.1923472626307
975.0 83.04550944315639
1000.0 84.1577658435531
1030.0 85.17886542548767
1060.0 85.67154921276023
1090.0 85.43908232574393
1120.0 84.42999438834899
1150.0 82.95352223912558
1180.0 81.47839997816095
1220.0 80.53942059649727
1250.0 80.5248630904828
1280.0 81.38460881207945
1320.0 82.47265128764806
1360.0 83.19232420320976
1400.0 83.41469858118045
1450.0 83.39012417386992
1500.0 83.28327874083757
1550.0 82.93010270061755
1600.0 82.19616750081305
1650.0 81.62479525295517
1700.0 81.67273857389408
1750.0 82.06456712809634
1800.0 82.46881900613832
1850.0 82.85321121540841
1900.0 83.02883943364178
1950.0 82.70832368291205
2000.0 82.02202422652587
2060.0 81.63642165324784
2120.0 81.75963799927604
2180.0 81.76353397666587
2240.0 81.30316935513876
2300.0 80.70728223469183
2360.0 80.47880245016376
2400.0 80.53339010358549
2500.0 80.49992260423805
2580.0 80.06782666689554
2650.0 80.04278035162007
2720.0 80.6538123622388
2800.0 80.86260230077815
2900.0 80.66315542752953
3000.0 80.70061606800235
3070.0 80.75069388090215
3150.0 80.33871895724945
3250.0 79.92700130658949
3350.0 79.51620706664062
3450.0 79.5407207568901
3550.0 79.65120837719026
3650.0 79.27524649755509
3750.0 78.92573199147292
3870.0 79.2180066124268
4000.0 79.19356486798922
4120.0 78.87540380154682
4250.0 78.65373300693521
4370.0 78.67511951236341
4500.0 78.42680813403103
4620.0 77.94677499959161
4750.0 77.77881196313425
4870.0 77.61677697197763
5000.0 77.28599342006534
5150.0 76.97975635394906
5300.0 76.5317095264938
5450.0 75.91624064041592
5600.0 75.61741141651574
5800.0 75.23994614617347
6000.0 74.61773859999737
6150.0 74.32419506230879
6300.0 73.74809748708485
6500.0 73.27162580462634
6700.0 73.21694728821278
6900.0 72.39466897569395
7100.0 71.38069402586066
7300.0 71.2029952157326
7500.0 71.59424070011589
7750.0 71.4526750719178
8000.0 71.79575635247141
8250.0 71.88448274639221
8500.0 71.47079821915322
8750.0 71.13858521455968
9000.0 70.5695378467465
9250.0 70.03566786576212
9500.0 69.0913364091823
9750.0 69.09611824996183
10000.0 69.45027055254808
10300.0 68.63351500825343
10600.0 68.4613355768801
10900.0 68.92114766343859
11200.0 68.55071803539674
11500.0 68.5643644700885
11800.0 70.18406041765631
12200.0 69.1050275176548
12500.0 63.041977912675165
12800.0 62.81911581824518
13200.0 62.16298585471428
13600.0 59.02946715319611
14000.0 59.68352339015222
14500.0 60.58528582029875
15000.0 60.06730272738015
15500.0 59.965718582296276
16000.0 58.30700959685679
16500.0 56.55711973309543
17000.0 54.0994363010292
17500.0 54.670677860919156
18000.0 55.081713412737244
18500.0 55.25421711412987
19000.0 55.83033999412832
19500.0 52.29636496014403
