Freq "On Axis"
22.4 30.60000000000001
23.0 31.299999999999997
23.6 32.000000000000014
24.0 32.60000000000001
25.0 33.2
25.8 33.89999999999999
26.5 34.500000000000014
27.2 35.10000000000001
28.0 35.7
29.0 36.3
30.0 36.89999999999999
30.7 37.39999999999999
31.5 38.000000000000014
32.5 38.60000000000001
33.5 39.10000000000001
34.5 39.60000000000001
35.5 40.2
36.5 40.7
37.5 41.2
38.7 41.7
40.0 42.2
41.2 42.7
42.5 43.2
43.7 43.7
45.0 44.2
46.2 44.7
47.5 45.2
48.7 45.60000000000001
50.0 46.10000000000001
51.5 46.60000000000001
53.0 47.10000000000001
54.5 47.5
56.0 48.000000000000014
58.0 48.39999999999999
60.0 48.89999999999999
61.5 49.3
63.0 49.8
65.0 50.2
67.0 50.7
69.0 51.2
71.0 51.60000000000001
73.0 51.999999999999986
75.0 52.5
77.5 52.89999999999999
80.0 53.39999999999999
82.5 53.8
85.0 54.3
87.5 54.7
90.0 55.2
92.5 55.60000000000001
95.0 56.10000000000001
97.5 56.5
100.0 56.999999999999986
103.0 57.39999999999999
106.0 57.89999999999999
109.0 58.3
112.0 58.8
115.0 59.2
118.0 59.7
122.0 60.10000000000001
125.0 60.60000000000001
128.0 61.0
132.0 61.39999999999999
136.0 61.8
140.0 62.2
145.0 62.60000000000001
150.0 63.000000000000014
155.0 63.39999999999999
160.0 63.8
165.0 64.10000000000001
170.0 64.49999999999999
175.0 64.8
180.0 65.2
185.0 65.50000000000001
190.0 65.8
195.0 66.2
200.0 66.5
206.0 66.8
212.0 67.2
218.0 67.4
224.0 67.7
230.0 67.9
236.0 68.2
240.0 68.39999999999999
250.0 68.6
258.0 68.9
265.0 69.10000000000001
272.0 69.3
280.0 69.49999999999999
290.0 69.7
300.0 69.8
307.0 69.9
315.0 70.0
325.0 70.2
335.0 70.4
345.0 70.50000000000001
355.0 70.7
365.0 70.8
375.0 70.89999999999999
387.0 70.89999999999999
400.0 71.0
412.0 71.1
425.0 71.1
437.0 71.2
450.0 71.2
462.0 71.3
475.0 71.4
487.0 71.5
500.0 71.5
515.0 71.5
530.0 71.5
545.0 71.4
560.0 71.4
580.0 71.4
600.0 71.4
615.0 71.4
630.0 71.3
650.0 71.3
670.0 71.4
690.0 71.4
710.0 71.3
730.0 71.2
750.0 71.2
775.0 71.2
800.0 71.1
825.0 71.1
850.0 71.1
875.0 71.1
900.0 71.2
925.0 71.1
950.0 71.0
975.0 71.1
1000.0 71.2
1030.0 71.2
1060.0 71.2
1090.0 71.3
1120.0 71.0
1150.0 71.0
1180.0 71.7
1220.0 71.99999999999999
1250.0 71.90000000000002
1280.0 71.90000000000002
1320.0 72.1
1360.0 72.6
1400.0 73.2
1450.0 73.39999999999999
1500.0 73.5
1550.0 73.39999999999999
1600.0 73.39999999999999
1650.0 73.3
1700.0 73.2
1750.0 73.2
1800.0 73.09999999999998
1850.0 73.2
1900.0 73.39999999999999
1950.0 73.6
2000.0 73.39999999999999
2060.0 73.3
2120.0 73.5
2180.0 73.8
2240.0 74.2
2300.0 74.6
2360.0 74.8
2400.0 75.0
2500.0 75.0
2580.0 74.9
2650.0 74.40000000000002
2720.0 74.10000000000001
2800.0 74.49999999999999
2900.0 74.49999999999999
3000.0 74.40000000000002
3070.0 74.3
3150.0 74.2
3250.0 74.10000000000001
3350.0 74.10000000000001
3450.0 74.3
3550.0 74.2
3650.0 73.9
3750.0 73.5
3870.0 73.2
4000.0 72.9
4120.0 72.7
4250.0 72.5
4370.0 72.3
4500.0 71.99999999999999
4620.0 71.4
4750.0 71.0
4870.0 70.8
5000.0 71.0
5150.0 71.2
5300.0 71.3
5450.0 70.89999999999999
5600.0 70.3
5800.0 70.3
6000.0 70.8
6150.0 70.89999999999999
6300.0 70.3
6500.0 69.9
6700.0 69.6
6900.0 69.2
7100.0 68.3
7300.0 66.60000000000001
7500.0 63.89999999999999
7750.0 61.60000000000001
8000.0 61.89999999999999
8250.0 63.39999999999999
8500.0 64.3
8750.0 64.10000000000001
9000.0 64.10000000000001
9250.0 64.6
9500.0 64.9
9750.0 65.0
10000.0 66.3
10300.0 67.6
10600.0 68.09999999999998
10900.0 68.2
11200.0 69.3
11500.0 68.7
11800.0 69.40000000000002
12200.0 71.7
12500.0 70.7
12800.0 69.40000000000002
13200.0 68.3
13600.0 65.8
14000.0 65.4
14500.0 64.2
15000.0 64.2
15500.0 63.3
16000.0 63.5
16500.0 63.89999999999999
17000.0 64.6
17500.0 63.2
18000.0 56.89999999999999
18500.0 57.60000000000001
19000.0 61.5
19500.0 63.8
