Freq,On Axis,Listening Window,Sound Power,Early Reflections,Early Reflections DI,Sound Power DI,DI offset
22.4,17.534177215189885,16.156331767523795,12.33280517688317,13.88368712518323,42.272644642340566,43.823526590640625,40
23.0,18.234177215189845,17.09536307780394,12.96871410700507,14.653623397719912,42.44173968008403,44.12664897079887,40
23.6,19.234177215189845,18.33091451338612,13.99448841252709,15.78487280250198,42.54604171088414,44.33642610085903,40
24.0,22.034177215189857,21.304145944627123,16.747872527242606,18.65357430031719,42.650571644309935,44.55627341738452,40
25.0,24.034177215189857,23.46945058472798,18.71488553339421,20.725851408617444,42.743599176110536,44.75456505133377,40
25.8,25.734177215189845,25.34453011778561,20.459754943959496,22.56518662556755,42.77934349221806,44.884775173826114,40
26.5,27.33417721518984,26.976398569250733,21.972754794757662,24.157738749075207,42.818659820175526,45.00364377449307,40
27.2,28.63417721518985,28.386584661541093,23.277663207848946,25.55310075385131,42.83348390768978,45.10892145369215,40
28.0,29.83417721518984,29.587451176988168,24.39911301640177,26.758292957245658,42.82915821974251,45.1883381605864,40
29.0,30.934177215189862,30.665991823040486,25.41479923291587,27.859943689601806,42.80604813343868,45.25119259012462,40
30.0,32.43417721518986,32.15059277711933,26.822324549512558,29.338775983473283,42.811816793646045,45.32826822760677,40
30.7,34.83417721518984,34.45709335775288,29.08612678270711,31.684227959157965,42.77286539859492,45.37096657504577,40
31.5,36.93417721518986,36.4665283448893,31.068636894823868,33.735232415292415,42.73129592959688,45.39789145006543,40
32.5,38.734177215189845,38.13663667668743,32.69137563107623,35.4104905619119,42.72614611477553,45.445261045611204,40
33.5,40.234177215189845,39.51818292598759,34.038527107804384,36.81058273133016,42.70760019465743,45.479655818183204,40
34.5,41.53417721518986,40.7153006616293,35.21634910773054,38.02861978473433,42.68668087689497,45.49895155389876,40
35.5,42.83417721518984,41.99345995647559,36.490089774148885,39.327658548533435,42.665801407942155,45.503370182326705,40
36.5,45.234177215189845,44.33288888650185,38.82176529194231,41.67149066221276,42.66139822428909,45.511123594559535,40
37.5,47.33417721518984,46.3540249311755,40.82969384867175,43.695502555679155,42.65852237549635,45.52433108250375,40
38.7,48.93417721518986,47.967674555055,42.44591549269586,45.30736856950594,42.66030598554906,45.52175906235914,40
40.0,50.33417721518984,49.341588859616394,43.82940713117233,46.68862104530314,42.65296781431326,45.51218172844406,40
41.2,51.734177215189845,50.70072055384355,45.196658782726786,48.04533625906677,42.65538429477678,45.50406177111677,40
42.5,53.63417721518985,52.605140508158996,47.12943974222799,49.959589981130364,42.64555052702863,45.47570076593101,40
43.7,55.53417721518986,54.48373167187111,49.06423332260371,51.8658061517952,42.617925520075914,45.4194983492674,40
45.0,57.03417721518986,56.05107686161716,50.65732181007297,53.42763999458762,42.62343686702954,45.39375505154419,40
46.2,58.33417721518984,57.39936651610344,52.06668082790739,54.79723152468537,42.60213499141807,45.33268568819605,40
47.5,59.734177215189845,58.78794437482378,53.48529403329519,56.18156512142727,42.60637925339651,45.30265034152859,40
48.7,61.53417721518986,60.68314789203245,55.47547403333422,58.12864131311963,42.55450657891282,45.20767385869823,40
50.0,63.234177215189845,62.35547494165789,57.23597071959452,59.84524970264516,42.510225239012726,45.11950422206337,40
51.5,64.63417721518985,63.82922564539726,58.77548475681968,61.34082818888314,42.48839745651412,45.05374088857758,40
53.0,65.93417721518985,65.17298016736709,60.220054641885866,62.727313429555096,42.44566673781199,44.95292552548122,40
54.5,67.43417721518986,66.68422620005607,61.863652293451935,64.32145968262172,42.36276651743435,44.82057390660414,40
56.0,68.83417721518987,68.20583166047608,63.50493099689453,65.89704371514934,42.30878794532674,44.70090066358155,40
58.0,70.33417721518984,69.68398273502513,65.08131347273739,67.4177959794269,42.26618675559823,44.60266926228773,40
60.0,71.63417721518985,71.00822822105266,66.54955636706647,68.83149149346212,42.17673672759054,44.45867185398619,40
61.5,72.93417721518985,72.39756456904024,68.05494378109503,70.28737848015005,42.11018608889019,44.34262078794521,40
63.0,74.13417721518985,73.63726074519869,69.40313173140974,71.58837810890827,42.048882636290415,44.234129013788944,40
65.0,75.23417721518985,74.77674322018792,70.62881933292958,72.78165726269705,41.99508595749087,44.147923887258344,40
67.0,76.53417721518986,76.02474895131836,71.97316809025766,74.08215654190992,41.942592409408434,44.0515808610607,40
69.0,77.73417721518985,77.25377314224973,73.28085513210043,75.35289544666576,41.90087769558397,43.9729180101493,40
71.0,78.73417721518985,78.33926829030386,74.447200513662,76.47270218392971,41.86656610637415,43.892067776641866,40
73.0,79.63417721518985,79.21107371610348,75.40216859293622,77.39710481696176,41.81396889914173,43.808905123167264,40
75.0,80.43417721518985,80.03190828153059,76.27400523390477,78.2409998305335,41.790908450997094,43.75790304762582,40
77.5,81.13417721518985,80.71193960727985,77.02697725772659,78.96180081384566,41.75013879343419,43.68496234955326,40
80.0,81.63417721518985,81.20933167739528,77.59502525870832,79.50812978775093,41.70120188964435,43.614306418686965,40
82.5,82.13417721518985,81.76357373229986,78.20403618690464,80.08052658909497,41.68304714320489,43.559537545395216,40
85.0,82.73417721518985,82.30884576274408,78.80846215052311,80.66629328795574,41.642552474788346,43.50038361222097,40
87.5,83.03417721518986,82.68350648672865,79.25770207634551,81.07570326999277,41.607803216735874,43.42580441038314,40
90.0,83.33417721518985,82.97288059604533,79.6117558106731,81.39617341171578,41.57670718432955,43.361124785372226,40
92.5,83.53417721518986,83.13798560664434,79.842984750526,81.593899103913,41.54408650273133,43.295000856118335,40
95.0,83.53417721518986,83.2259355633208,80.00517380373118,81.72135785610672,41.50457770721408,43.22076175958962,40
97.5,83.73417721518985,83.43507951604373,80.27655710444417,81.9546970522817,41.48038246376203,43.15852241159956,40
100.0,84.03417721518986,83.66895801912558,80.56629165354475,82.21795792356114,41.45100009556444,43.10266636558083,40
103.0,84.13417721518985,83.82302139550215,80.76157786544563,82.38908077370357,41.433940621798584,43.06144353005652,40
106.0,84.23417721518985,83.91173782041734,80.90627324326866,82.50351355145341,41.408224268963934,43.005464577148686,40
109.0,84.43417721518985,84.15431216111436,81.16553868278815,82.75960268945532,41.39470947165904,42.98877347832621,40
112.0,84.63417721518985,84.33134822151924,81.37540728239307,82.95325453262556,41.37809368889367,42.955940939126165,40
115.0,84.73417721518985,84.43134822151924,81.46934494025739,83.0325448313184,41.39880339020084,42.96200328126186,40
118.0,84.73417721518985,84.44091072862555,81.4981907269396,83.07255479037487,41.36835593825069,42.942720001685956,40
122.0,84.83417721518985,84.5301799765646,81.58907058464135,83.15531234129116,41.37486763527343,42.94110939192325,40
125.0,84.83417721518985,84.56406655916558,81.61146248280798,83.17659798968356,41.387468569482024,42.9526040763576,40
128.0,84.73417721518985,84.48440189442063,81.5288408179565,83.09712234893682,41.38727954548381,42.95556107646412,40
132.0,84.73417721518985,84.48440189442063,81.5314659602703,83.0935311131254,41.390870781295234,42.95293593415033,40
136.0,84.73417721518985,84.51666462247267,81.55944143542224,83.12334284382482,41.39332177864786,42.95722318705043,40
140.0,84.73417721518985,84.46089098016176,81.53665406636674,83.10297313983409,41.35791784032767,42.92423691379503,40
145.0,84.63417721518985,84.43770029907874,81.51029051791862,83.0631189640068,41.37458133507194,42.92740978116012,40
150.0,84.63417721518985,84.41666462247267,81.48526439824786,83.04610927432459,41.37055534814807,42.9314002242248,40
155.0,84.63417721518985,84.38293455612074,81.46873489319121,83.01014384927632,41.37279070684443,42.91419966292953,40
160.0,84.53417721518986,84.35986159868031,81.46281866916681,83.00302204812428,41.35683955055603,42.8970429295135,40
165.0,84.53417721518986,84.37128058550417,81.48062794765494,83.00638575053235,41.36489483497182,42.89065263784923,40
170.0,84.53417721518986,84.34867345762244,81.44586729412597,82.9759228197045,41.372750637917946,42.902806163496464,40
175.0,84.53417721518986,84.31518020034363,81.40469327295867,82.93456984626633,41.380610354077305,42.910486927384966,40
180.0,84.53417721518986,84.32697340492169,81.3931221077995,82.93138865179361,41.39558475312808,42.93385129712219,40
185.0,84.63417721518985,84.36038816900157,81.40481968860021,82.94457054352735,41.41581762547422,42.955568480401354,40
190.0,84.63417721518985,84.36038816900157,81.36639730238443,82.91946948671992,41.44091868228165,42.99399086661714,40
195.0,84.63417721518985,84.40562804643994,81.35077082094716,82.91607580053956,41.489552245900384,43.05485722549278,40
200.0,84.73417721518985,84.4394623622914,81.3299876523065,82.92025597229242,41.51920638999897,43.109474709984895,40
206.0,84.73417721518985,84.50562804643995,81.35212412685678,82.95059493437772,41.55503311206223,43.15350391958317,40
212.0,84.83417721518985,84.5394623622914,81.34680294717185,82.97604046994354,41.56342189234786,43.19265941511955,40
218.0,84.83417721518985,84.5506742271934,81.32465752547441,82.97042685196081,41.58024737523259,43.22601670171899,40
224.0,84.93417721518986,84.59655512264341,81.29518166666415,82.97659994626311,41.6199551763803,43.30137345597926,40
230.0,84.93417721518986,84.60641873554262,81.26134435638086,82.96325160042251,41.64316713512011,43.34507437916176,40
236.0,84.93417721518986,84.6284776752422,81.22714328134725,82.9619627747125,41.66651490052969,43.40133439389494,40
240.0,84.93417721518986,84.61771612084647,81.17137990039376,82.9340684656434,41.68364765520306,43.44633622045271,40
250.0,84.83417721518985,84.53996760187414,81.08016072962096,82.85727787505337,41.68268972682077,43.45980687225318,40
258.0,84.73417721518985,84.48371129635171,80.98715863164095,82.7779853796588,41.70572591669291,43.49655266471076,40
265.0,84.73417721518985,84.40717370341488,80.85361674008524,82.66938532196036,41.73778838145452,43.55355696332964,40
272.0,84.63417721518985,84.30717370341489,80.71669848603243,82.56337193853356,41.743801764881326,43.59047521738246,40
280.0,84.53417721518986,84.20717370341488,80.56265831346686,82.43618294555259,41.77099075786229,43.644515389948026,40
290.0,84.43417721518985,84.09684647709122,80.41613959708573,82.31835090856214,41.77849556852908,43.68070688000549,40
300.0,84.33417721518985,84.04197146161906,80.26881264575684,82.20158083971111,41.84039062190794,43.77315881586222,40
307.0,84.23417721518985,83.95370424058216,80.11031656138724,82.0776774357767,41.87602680480545,43.84338767919492,40
315.0,84.13417721518985,83.86366554521318,79.9719572224681,81.97600406954004,41.88766147567314,43.891708322745075,40
325.0,84.13417721518985,83.83274612570986,79.85007719531572,81.87895678047313,41.95378934523673,43.98266893039414,40
335.0,84.13417721518985,83.81112590009721,79.74193343587099,81.81132222856881,41.9998036715284,44.06919246422622,40
345.0,84.13417721518985,83.84595050660091,79.68151798596682,81.78668692186584,42.05926358473508,44.164432520634094,40
355.0,84.23417721518985,83.90295859382825,79.65839874867144,81.78696403404099,42.115994559787254,44.2445598451568,40
365.0,84.33417721518985,84.01479709951253,79.66812612797588,81.83375338819192,42.18104371132061,44.34667097153665,40
375.0,84.53417721518986,84.09682398287299,79.66236336324508,81.85971331667801,42.23711066619498,44.43446061962791,40
387.0,84.63417721518985,84.22050214323923,79.68013408763802,81.91077275165091,42.30972939158832,44.540368055601206,40
400.0,84.63417721518985,84.23202495120118,79.58246488377816,81.84292984075822,42.389095110442966,44.649560067423025,40
412.0,84.73417721518985,84.2789164950604,79.5152671688333,81.80255489050072,42.476361604559685,44.763649326227096,40
425.0,84.73417721518985,84.26725172278573,79.38833372058113,81.72015163165476,42.54710009113097,44.8789180022046,40
437.0,84.63417721518985,84.14702575343158,79.14682439275957,81.5276917396371,42.61933401379447,45.00020136067201,40
450.0,84.53417721518986,84.11349102390065,78.98833583565576,81.40815856721511,42.70533245668554,45.12515518824489,40
462.0,84.43417721518985,83.99004515960793,78.75995656718771,81.23449775767591,42.75554740193202,45.230088592420216,40
475.0,84.33417721518985,83.9456892361641,78.58902296611083,81.12928594701287,42.816403289151225,45.35666627005327,40
487.0,84.23417721518985,83.82241701952404,78.33846411903127,80.9469134021297,42.875503617394344,45.48395290049277,40
500.0,84.23417721518985,83.86351767625598,78.27039066529301,80.95063482767455,42.91288284858143,45.593127010962974,40
515.0,84.33417721518985,83.94275765329917,78.2355985488254,80.98138941792165,42.96136823537752,45.707159104473774,40
530.0,84.43417721518985,84.03126332411894,78.21941771704837,81.0389491082836,42.992314215835336,45.811845607070566,40
545.0,84.43417721518985,84.05207823308568,78.13877523549992,81.03320403774151,43.01887419534417,45.91330299758576,40
560.0,84.43417721518985,84.04082601795264,78.02915206789308,81.01167254456472,43.02915347338792,46.01167395005956,40
580.0,84.33417721518985,83.96159525446373,77.85613271983361,80.9059247031,43.05567055136373,46.10546253463012,40
600.0,84.13417721518985,83.8167082267203,77.63315179716024,80.7337612921323,43.082946934587994,46.183556429560056,40
615.0,84.03417721518986,83.7056657627811,77.41444516056913,80.60080998158791,43.10485578119318,46.291220602211965,40
630.0,83.93417721518983,83.63759284478508,77.2635479741217,80.49248386237998,43.14510898240509,46.37404487066337,40
650.0,83.93417721518983,83.63759284478508,77.17472645703111,80.44311010283604,43.19448274194903,46.46286638775396,40
670.0,84.03417721518986,83.73759284478507,77.13699984725562,80.4621544388148,43.27543840597026,46.600592997529446,40
690.0,84.23417721518985,83.84961063154523,77.10575483830421,80.48894727106823,43.360663360477005,46.743855793241025,40
710.0,84.33417721518985,83.9062556944658,76.99448768140036,80.44956259728552,43.45669309718028,46.91176801306544,40
730.0,84.33417721518985,83.97520469159454,76.8776579859828,80.40593958307895,43.569265108515594,47.09754670561175,40
750.0,84.23417721518985,83.83232363845116,76.52957507468867,80.14598849756389,43.686335140887266,47.30274856376249,40
775.0,84.13417721518985,83.62615579489027,76.10092524255451,79.81817455039265,43.80798124449761,47.525230552335756,40
800.0,84.13417721518985,83.60802008859892,75.86386054545189,79.68346365377002,43.9245564348289,47.744159543147035,40
825.0,84.23417721518985,83.63920470944801,75.67627171352561,79.59594478407408,44.04325992537393,47.9629329959224,40
850.0,84.33417721518985,83.71116114358266,75.50802751905735,79.54982132463637,44.16133981894629,48.20313362452531,40
875.0,84.33417721518985,83.6305385808242,75.18830814948437,79.33304119101874,44.29749738980546,48.44223043133982,40
900.0,84.23417721518985,83.45730444490567,74.79119800784497,79.02771412244189,44.42959032246378,48.666106437060705,40
925.0,84.13417721518985,83.35430581645019,74.53077287471788,78.83084656623696,44.523459250213236,48.82353294173231,40
950.0,84.33417721518985,83.41933480097077,74.46741025115196,78.8107108012679,44.60862399970287,48.95192454981881,40
975.0,84.53417721518986,83.55175949903732,74.46691657212554,78.84984241939077,44.70191707964655,49.084842926911776,40
1000.0,84.73417721518985,83.66266655928808,74.47890624502313,78.87663276167157,44.78603379761651,49.18376031426496,40
1030.0,84.53417721518986,83.30871653826219,74.04306151601524,78.47413008936351,44.834586448898676,49.265655022246946,40
1060.0,84.33417721518985,82.96852731367977,73.64279157468248,78.11085342399528,44.85767388968449,49.325735738997295,40
1090.0,84.93417721518986,83.39105485057873,74.02121576924573,78.5384564565233,44.85259839405542,49.369839081333,40
1120.0,85.43417721518985,83.83933154180394,74.48274306601445,79.0348203339365,44.80451120786745,49.35658847578949,40
1150.0,85.63417721518985,83.91518571713786,74.54668692498848,79.14883604504996,44.7663496720879,49.36849879214938,40
1180.0,85.43417721518985,83.74183859724214,74.35205787310737,79.00660339775229,44.73523519948985,49.389780724134766,40
1220.0,85.33417721518984,83.64071511039889,74.24640539710695,78.95331601126048,44.6873990991384,49.39430971329193,40
1250.0,85.03417721518986,83.38266237318058,73.99894341986086,78.76298996950791,44.619672403672666,49.383718953319715,40
1280.0,84.63417721518985,82.97794540258458,73.6056102879844,78.40937185180411,44.56857355078047,49.372335114600176,40
1320.0,84.13417721518985,82.57433118636146,73.20821919604535,78.0392143382948,44.535116848066664,49.366111990316114,40
1360.0,84.03417721518986,82.55471792373177,73.23924343902996,78.0754521526116,44.47926577112017,49.31547448470181,40
1400.0,83.73417721518985,82.3959402984943,73.11578585127046,77.95357181512739,44.442368483366906,49.280154447223836,40
1450.0,83.53417721518986,82.25911140700413,72.97619133688671,77.813061183416,44.44605022358813,49.28292007011741,40
1500.0,83.63417721518985,82.3762832394238,73.0590455387468,77.90201019144975,44.47427304797405,49.317237700677,40
1550.0,83.83417721518987,82.58934204266725,73.25607409417749,78.11152594460354,44.47781609806371,49.33326794848976,40
1600.0,84.03417721518986,82.7983536019901,73.42449293895214,78.27967506099436,44.51867854099574,49.37386066303796,40
1650.0,84.23417721518985,82.95529280972124,73.52394921499666,78.389415124646,44.565877685075236,49.43134359472458,40
1700.0,84.33417721518985,83.04827518781045,73.56023515308259,78.42549958848542,44.622775599325024,49.48804003472786,40
1750.0,84.33417721518985,82.99457278035108,73.44673035698958,78.3313396366303,44.663233143720774,49.5478424233615,40
1800.0,84.23417721518985,82.88100958236677,73.2634020631747,78.15096150044648,44.73004808192029,49.61760751919208,40
1850.0,84.03417721518986,82.63086430461584,72.98361110766187,77.86339239631891,44.767471908296926,49.64725319695397,40
1900.0,83.83417721518987,82.40794451411932,72.72248932360505,77.5980592361555,44.809885277963815,49.685455190514276,40
1950.0,83.73417721518985,82.26342627305911,72.56320900242972,77.43386544233361,44.8295608307255,49.700217270629395,40
2000.0,83.73417721518985,82.18830709919055,72.48093766832369,77.3359738429054,44.85233325628515,49.70736943086686,40
2060.0,83.83417721518987,82.26900773303934,72.55403454628592,77.39935443867601,44.86965329436333,49.714973186753426,40
2120.0,84.13417721518985,82.49091922534544,72.78560854628412,77.62341059722002,44.86750862812542,49.70531067906131,40
2180.0,84.23417721518985,82.58281039804659,72.90497321872584,77.72427706541446,44.858533332632135,49.67783717932075,40
2240.0,84.23417721518985,82.492775827576,72.85755637455381,77.65813278095342,44.834643046622574,49.63521945302219,40
2300.0,84.23417721518985,82.39897907195385,72.81251018904226,77.60030844376617,44.79867062818768,49.58646888291159,40
2360.0,84.33417721518985,82.45218409529215,72.89720090192048,77.66073492216697,44.79144917312519,49.55498319337167,40
2400.0,84.63417721518985,82.67243198712927,73.14964642678538,77.8995952068187,44.77283678031057,49.52278556034389,40
2500.0,85.03417721518986,83.05764153262379,73.55969392313605,78.2830059479389,44.77463558468489,49.49794760948774,40
2580.0,85.23417721518985,83.3186122946333,73.8527622828567,78.56021271799057,44.75839957664273,49.465850011776595,40
2650.0,85.23417721518985,83.33586597178765,73.8519459054984,78.57296931786783,44.762896653919825,49.48392006628926,40
2720.0,84.63417721518985,82.8999599997025,73.43059223824898,78.1497346703371,44.750225329365406,49.469367761453526,40
2800.0,83.93417721518983,82.24437449734917,72.7768070535732,77.5105376352727,44.73383686207647,49.46756744377598,40
