Freq "Front Wall Bounce"
22.4 54.08726815346709
23.0 55.87819851956017
23.6 62.59214130899777
24.0 67.15788223344289
25.0 70.86198331472214
25.8 73.3205088326721
26.5 74.80076878673476
27.2 75.59304829172318
28.0 76.15575638395417
29.0 76.56826134389264
30.0 77.23462114283983
30.7 78.36636244386749
31.5 79.90217008589137
32.5 81.83013429275424
33.5 83.95118137711383
34.5 86.02549430370841
35.5 87.7402526312801
36.5 89.31357441853929
37.5 90.79182465575927
38.7 92.16201160751957
40.0 93.53605569910441
41.2 94.94071190011122
42.5 96.42242968251824
43.7 98.34785110034379
45.0 99.61917040440662
46.2 100.5352838564881
47.5 101.79095837374398
48.7 103.11917040440663
50.0 104.16009724486702
51.5 105.21871865150548
53.0 106.33376002181025
54.5 107.2643820215102
56.0 108.15444843105938
58.0 109.07216639351219
60.0 109.93216762989856
61.5 110.4461633361207
63.0 110.74015352649987
65.0 110.98225233438284
67.0 111.25104362440571
69.0 111.52032709752703
71.0 111.89212260426056
73.0 112.27658977321828
75.0 112.64675150375353
77.5 113.07525122642456
80.0 113.41739302852534
82.5 113.60229476693692
85.0 113.71739302852534
87.5 113.70229476693693
90.0 113.57331062323638
92.5 113.30229476693692
95.0 112.80229476693692
97.5 112.43175513861907
100.0 112.23175513861906
103.0 112.04675150375354
106.0 112.03175513861908
109.0 112.04675150375354
112.0 112.00489499373622
115.0 112.04675150375354
118.0 112.04675150375354
122.0 112.04675150375354
125.0 112.00489499373622
128.0 111.84675150375355
132.0 111.73175513861906
136.0 111.60229476693691
140.0 111.43175513861907
145.0 111.26035311823196
150.0 110.97525122642456
155.0 110.67525122642458
160.0 110.40489499373622
165.0 110.21998423401445
170.0 110.49366590096781
175.0 110.79366590096782
180.0 110.89366590096782
185.0 110.71998423401443
190.0 110.21998423401445
195.0 109.81998423401444
200.0 109.91998423401444
206.0 110.36528715999552
212.0 110.93924275721992
218.0 111.36779163544479
224.0 111.5136394060688
230.0 111.6136394060688
236.0 111.6600593685791
240.0 111.68539130564126
250.0 111.6136394060688
258.0 111.52940676691628
265.0 111.4392427572199
272.0 111.41363940606881
280.0 111.3392427572199
290.0 111.29817545090704
300.0 111.18336396340042
307.0 111.0136394060688
315.0 110.92940676691627
325.0 110.88539130564125
335.0 110.8136394060688
345.0 110.6600593685791
355.0 110.46005936857911
365.0 110.27602210108667
375.0 110.1351604799582
387.0 109.758217088195
400.0 109.47455785944568
412.0 109.34441901451352
425.0 109.29942293182198
437.0 109.32758020744902
450.0 109.42758020744903
462.0 109.52758020744903
475.0 109.62758020744901
487.0 109.6596855474149
500.0 109.47640057047573
515.0 109.25378373474547
530.0 109.05378373474547
545.0 108.83698126844558
560.0 108.65378373474546
580.0 108.55378373474547
600.0 108.55378373474547
615.0 108.63698126844557
630.0 108.65378373474546
650.0 108.4596855474149
670.0 108.01106138014494
690.0 108.03443179205894
710.0 108.03443179205894
730.0 108.08279645161535
750.0 108.27640057047573
775.0 108.27091054784846
800.0 108.29888657798578
825.0 108.32833223333886
850.0 108.2574120312225
875.0 108.21018325240989
900.0 108.19064436625222
925.0 108.41821823412566
950.0 108.65268458216538
975.0 108.90630283696369
1000.0 109.05268458216538
1030.0 109.0996394049785
1060.0 109.11913795500014
1090.0 108.9719469475759
1120.0 108.90630283696369
1150.0 108.86891808825736
1180.0 108.85051165087548
1220.0 108.95051165087547
1250.0 109.00619289148779
1280.0 108.74329663334434
1320.0 108.32561608974062
1360.0 108.26163889708327
1400.0 108.15296950458999
1450.0 108.20826818425878
1500.0 108.44443457389978
1550.0 108.52755576643038
1600.0 108.498806624344
1650.0 108.41735211175082
1700.0 107.83635458174011
1750.0 107.29452675118901
1800.0 107.31499132747562
1850.0 107.29829032912833
1900.0 107.19530177164516
1950.0 107.40313613273493
2000.0 107.50543924079294
2060.0 107.26391953972463
2120.0 107.19205156587775
2180.0 106.96004803973736
2240.0 106.52148155894992
2300.0 106.49690412386948
2360.0 106.86646083107608
2400.0 106.95893006257448
2500.0 107.00054105494463
2580.0 107.19955588276805
2650.0 107.62634353272597
2720.0 107.59917364584665
2800.0 106.89804995988354
2900.0 106.56113790451847
3000.0 106.9518943409883
3070.0 108.03196637148562
3150.0 108.79905846624766
3250.0 108.80534515239094
3350.0 108.5839373752105
3450.0 109.03588997978574
3550.0 109.90845706723262
3650.0 110.08954085513423
3750.0 109.88073934169209
3870.0 109.92531040484228
4000.0 110.19390761521286
4120.0 109.7474895879323
4250.0 109.06274115523661
4370.0 109.57217603891483
4500.0 110.3755843951497
4620.0 110.08329107052506
4750.0 109.58847128008519
4870.0 109.85860824307436
5000.0 109.89204372217871
5150.0 109.09390516850395
5300.0 109.58069301598907
5450.0 109.76553059338607
5600.0 110.16752299121264
5800.0 110.40763655289403
6000.0 109.99737474126798
6150.0 110.15214426393706
6300.0 109.9255051735679
6500.0 110.4492615074495
6700.0 110.53456878782744
6900.0 110.49526602241716
7100.0 110.91492441346712
7300.0 110.54930092159445
7500.0 110.82885963575386
7750.0 111.54417348716706
8000.0 110.95305566176042
8250.0 110.63193256977034
8500.0 110.14785786485868
8750.0 110.12009203868926
9000.0 110.22013405969413
9250.0 110.5591725569003
9500.0 112.53767048067219
9750.0 113.41511810024389
10000.0 112.91791761482509
10300.0 111.15593123580537
10600.0 110.95062931404115
10900.0 111.52611153978417
11200.0 110.66049321533056
11500.0 111.13525000385053
11800.0 111.14654023526425
12200.0 112.30871520973922
12500.0 118.9663110095736
12800.0 114.07513414242241
13200.0 111.79490024247443
13600.0 112.791942010591
14000.0 108.82111205616368
14500.0 112.61550131652655
15000.0 108.35736843235578
15500.0 109.72697535701984
16000.0 109.4050982608235
16500.0 109.34223583121444
17000.0 110.82823119282703
17500.0 107.29867430700878
18000.0 107.0501001713513
18500.0 104.67297215773714
19000.0 104.9487187914811
19500.0 100.84720590424241
