Freq "Floor Bounce"
20.5078 60.581334036656784
21.2402 61.20709208665684
21.9727 63.08658475767237
22.7051 66.12557835451733
23.4375 67.44950663938563
24.1699 69.17899019384724
25.6348 72.20036248782004
26.3672 73.66636606235423
27.0996 75.04225752577426
27.832 76.50598471027087
29.2969 78.90128680650899
30.0293 80.37807082077671
31.4941 82.20939197161889
32.2266 83.09356284967811
33.6914 84.66131280364282
34.4238 85.3817848857273
35.8887 86.79876022771529
37.3535 88.17416778776632
38.8184 89.49529314097846
39.5508 90.08411693806138
41.0156 91.09194082158157
42.4805 91.65826652656088
43.9453 91.75069449328754
45.4102 91.59573077227212
47.6074 91.0751086148439
49.0723 90.75239706499556
50.5371 90.44094912920099
52.7344 90.00016068326693
54.1992 89.91474911318656
56.3965 89.68458403674612
58.5938 89.68157851718166
60.0586 89.64613579172921
62.2559 89.7012044661555
64.4531 89.49886332442797
66.6504 89.4959969369108
69.5801 89.42286855796222
71.7773 89.36531676016175
73.9746 89.40250229281024
76.9043 88.93411828159084
79.834 89.03470557725655
82.7637 88.87597982740056
85.6934 88.89949323889743
88.623 88.6131177618915
91.5527 88.48131947089496
94.4824 88.36233736424094
98.1445 88.1579294232823
101.807 88.11053712321888
105.469 87.92580547429468
109.131 87.82778051018909
112.793 87.4174459309889
116.455 86.92145607995465
120.85 86.91451968523987
125.244 86.88904706335276
129.639 86.53537826731804
134.033 86.32469646051592
138.428 86.33849804987676
143.555 86.25832004544766
148.682 85.59019091342394
153.809 86.12830671544198
159.668 86.3345623791516
164.795 86.18152332143944
170.654 85.65980212019157
176.514 86.00972381392143
183.105 85.82246472356393
189.697 86.01074156685509
196.289 86.99001134013241
202.881 86.29764676302429
210.205 85.71345107596352
217.529 86.31301005238494
225.586 87.93593276555586
232.91 88.03735465278801
241.699 88.53116332118285
249.756 87.8623850614801
258.545 87.73360747315431
268.066 87.79708555033784
277.588 87.5800301449335
287.109 87.51341245398598
297.363 86.81441673595553
307.617 87.85879445757496
318.604 87.50745493287543
329.59 86.62948743781931
341.309 85.4486956983148
353.76 85.70291237516108
366.211 85.31896662751558
378.662 85.6192444636431
392.578 85.4362335082737
405.762 85.68123191392007
420.41 85.96551676595917
435.059 86.04583155681559
450.439 85.73570661699094
466.553 85.33055213807137
482.666 85.6310824260287
500.244 86.42076363004821
517.822 86.17152102001248
536.133 86.35026464135076
554.443 87.62408824874416
574.219 87.86873699880863
594.727 87.74815800142181
615.234 87.58088814775137
637.207 88.04719105329477
659.912 88.72343370692069
683.35 88.8405002461687
706.787 88.85200187916814
731.689 88.15621883283659
758.057 88.30438177196588
784.424 88.48375925836545
812.256 88.11789964906463
840.82 87.1389534280058
870.85 86.26352672592591
901.611 86.60641948187691
933.105 84.96823671837647
966.064 85.08985905872294
999.756 84.35429039287799
1034.91 84.32007297281379
1071.53 82.97885596802925
1109.62 83.92496311079698
1148.44 82.13825651396832
1189.45 82.28724620575377
1231.2 81.7220373810145
1274.41 82.05758906810489
1319.82 82.09494828187323
1365.97 82.77328718770619
1414.31 82.81981521348958
1464.11 83.33385557375567
1515.38 82.67174375071613
1568.85 82.20108929282026
1624.51 82.24418289829346
1681.64 82.52313038711156
1740.97 83.07552932501409
1802.49 81.96305374854154
1866.21 81.72889680089813
1932.13 82.29245411368264
2000.24 82.7663783224423
2070.56 81.45262402383747
2143.8 82.82112367322328
2219.24 81.54291044457312
2297.61 82.0320332144899
2378.17 81.87640095246641
2462.4 81.44549366777692
2548.83 81.35567715761543
2638.92 81.58840487982235
2731.93 81.7346909930642
2828.61 81.44437104707553
2928.22 82.22731207653177
3031.49 82.10073088689461
3138.43 81.94196218363662
3249.02 81.95897763193926
3363.28 82.08243803431604
3481.93 82.0015079284859
3604.98 82.13300856044201
3732.42 82.68950113777284
3863.53 83.22716291458906
3999.76 83.27205312870612
4141.11 83.53338956208792
4286.87 84.47347012624485
4438.48 84.63738151487448
4594.48 84.81743386684403
4757.08 85.22403644536502
4924.8 85.52018558384364
5098.39 85.6212603413115
5277.83 86.13963860174694
5463.87 86.58840077226974
5656.49 86.89494837919372
5856.45 87.22454491683426
6062.99 87.511819934534
6276.86 88.03198385147057
6498.05 88.12371194540584
6727.29 88.34237889907234
6964.6 88.14799394691704
7209.96 88.27003383554423
7464.11 88.15157331893805
7727.78 88.32842988819712
8000.24 88.074084342525
8282.23 87.78093552897776
8574.46 87.52557504229019
8876.22 87.2501861838398
9189.7 86.93412477106938
9513.43 86.48424228455663
9848.88 86.02358166066979
10196.8 85.75271829345581
10556.4 85.289120617558
10928.5 85.29927325458617
11313.7 86.20798649004716
11712.9 87.33664874105192
12126.0 88.1689324402218
12553.7 88.32450104991247
12996.1 88.09250997805943
13454.6 88.03073762418892
13928.5 87.86550059741027
14419.9 87.06357120214658
14928.2 85.89349704727502
15454.8 84.81620414637129
15999.8 83.54468846605836
16564.5 83.99523169312047
17148.2 83.09169455792869
17753.2 82.84469502972347
18379.4 83.07269350183243
19027.6 81.72783948554275
19698.5 78.90017370250813
19999.5 77.29686100343253
