Freq "On Axis"
22.4 44.208860759493675
23.0 45.60886075949365
23.6 47.00886075949366
24.0 48.80886075949364
25.0 50.30886075949364
25.8 51.60886075949365
26.5 52.80886075949364
27.2 54.40886075949366
28.0 55.90886075949366
29.0 57.208860759493675
30.0 58.50886075949366
30.7 60.00886075949366
31.5 61.30886075949364
32.5 62.50886075949366
33.5 63.90886075949366
34.5 65.20886075949365
35.5 66.30886075949364
36.5 67.60886075949365
37.5 68.70886075949367
38.7 69.80886075949367
40.0 70.80886075949365
41.2 71.80886075949365
42.5 72.70886075949365
43.7 73.50886075949366
45.0 74.30886075949365
46.2 75.10886075949365
47.5 75.80886075949365
48.7 76.50886075949366
50.0 77.20886075949366
51.5 77.80886075949365
53.0 78.40886075949366
54.5 79.00886075949366
56.0 79.60886075949365
58.0 80.20886075949365
60.0 80.70886075949366
61.5 81.30886075949364
63.0 81.90886075949366
65.0 82.40886075949366
67.0 82.90886075949366
69.0 83.40886075949366
71.0 83.90886075949366
73.0 84.40886075949366
75.0 84.80886075949367
77.5 85.10886075949365
80.0 85.40886075949366
82.5 85.80886075949365
85.0 86.10886075949365
87.5 86.30886075949364
90.0 86.60886075949365
92.5 86.80886075949365
95.0 86.90886075949366
97.5 87.00886075949366
100.0 87.10886075949365
103.0 87.20886075949366
106.0 87.20886075949366
109.0 87.20886075949366
112.0 87.20886075949366
115.0 87.20886075949366
118.0 87.20886075949366
122.0 87.10886075949365
125.0 87.10886075949365
128.0 87.00886075949366
132.0 87.00886075949366
136.0 87.00886075949366
140.0 87.10886075949365
145.0 87.20886075949366
150.0 87.30886075949367
155.0 87.30886075949367
160.0 87.40886075949366
165.0 87.40886075949366
170.0 87.40886075949366
175.0 87.30886075949367
180.0 87.20886075949366
185.0 87.10886075949365
190.0 87.00886075949366
195.0 86.80886075949365
200.0 86.60886075949365
206.0 86.40886075949366
212.0 86.30886075949364
218.0 86.20886075949367
224.0 86.00886075949366
230.0 86.00886075949366
236.0 85.90886075949366
240.0 85.90886075949366
250.0 85.80886075949365
258.0 85.90886075949366
265.0 85.90886075949366
272.0 86.00886075949366
280.0 86.00886075949366
290.0 86.10886075949365
300.0 86.30886075949364
307.0 86.40886075949366
315.0 86.50886075949366
325.0 86.60886075949365
335.0 86.80886075949365
345.0 86.90886075949366
355.0 86.90886075949366
365.0 87.00886075949366
375.0 87.00886075949366
387.0 87.00886075949366
400.0 86.90886075949366
412.0 86.80886075949365
425.0 86.60886075949365
437.0 86.50886075949366
450.0 86.20886075949367
462.0 86.00886075949366
475.0 85.70886075949366
487.0 85.40886075949366
500.0 85.00886075949366
515.0 84.70886075949366
530.0 84.40886075949366
545.0 84.20886075949366
560.0 84.00886075949366
580.0 83.90886075949366
600.0 83.80886075949364
615.0 83.80886075949364
630.0 83.90886075949366
650.0 84.00886075949366
670.0 84.10886075949365
690.0 84.30886075949365
710.0 84.40886075949366
730.0 84.60886075949365
750.0 84.80886075949367
775.0 85.10886075949365
800.0 85.30886075949365
825.0 85.50886075949366
850.0 85.70886075949366
875.0 85.80886075949365
900.0 85.90886075949366
925.0 85.90886075949366
950.0 85.90886075949366
975.0 85.90886075949366
1000.0 85.90886075949366
1030.0 85.80886075949365
1060.0 85.90886075949366
1090.0 85.90886075949366
1120.0 86.10886075949365
1150.0 86.20886075949367
1180.0 86.40886075949366
1220.0 86.50886075949366
1250.0 86.50886075949366
1280.0 86.60886075949365
1320.0 86.50886075949366
1360.0 86.40886075949366
1400.0 86.30886075949364
1450.0 86.10886075949365
1500.0 85.90886075949366
1550.0 85.60886075949365
1600.0 85.40886075949366
1650.0 85.00886075949366
1700.0 84.70886075949366
1750.0 84.50886075949366
1800.0 84.20886075949366
1850.0 83.90886075949366
1900.0 83.60886075949365
1950.0 83.40886075949366
2000.0 83.20886075949366
2060.0 83.00886075949366
2120.0 82.80886075949365
2180.0 82.30886075949367
2240.0 82.00886075949366
2300.0 82.00886075949366
2360.0 82.40886075949366
2400.0 83.00886075949366
2500.0 83.50886075949366
2580.0 83.70886075949367
2650.0 83.80886075949364
2720.0 83.80886075949364
2800.0 83.80886075949364
2900.0 83.90886075949366
3000.0 84.00886075949366
3070.0 84.20886075949366
3150.0 84.30886075949365
3250.0 84.40886075949366
3350.0 84.30886075949365
3450.0 84.40886075949366
3550.0 84.50886075949366
3650.0 84.60886075949365
3750.0 84.60886075949365
3870.0 84.40886075949366
4000.0 84.10886075949365
4120.0 83.90886075949366
4250.0 83.80886075949364
4370.0 83.80886075949364
4500.0 84.00886075949366
4620.0 84.30886075949365
4750.0 84.70886075949366
4870.0 85.00886075949366
5000.0 85.30886075949365
5150.0 85.50886075949366
5300.0 85.70886075949366
5450.0 85.80886075949365
5600.0 85.80886075949365
5800.0 85.90886075949366
6000.0 85.90886075949366
6150.0 85.90886075949366
6300.0 85.90886075949366
6500.0 85.80886075949365
6700.0 85.70886075949366
6900.0 85.70886075949366
7100.0 85.60886075949365
7300.0 85.60886075949365
7500.0 85.50886075949366
7750.0 85.40886075949366
8000.0 85.40886075949366
8250.0 85.30886075949365
8500.0 85.20886075949365
8750.0 85.20886075949365
9000.0 85.10886075949365
9250.0 85.10886075949365
9500.0 85.10886075949365
9750.0 85.20886075949365
10000.0 85.40886075949366
10300.0 85.70886075949366
10600.0 86.00886075949366
10900.0 86.30886075949364
11200.0 86.40886075949366
11500.0 86.30886075949364
11800.0 86.00886075949366
12200.0 85.80886075949365
12500.0 85.40886075949366
12800.0 85.00886075949366
13200.0 84.60886075949365
13600.0 84.10886075949365
14000.0 83.80886075949364
14500.0 83.50886075949366
15000.0 83.20886075949366
15500.0 83.00886075949366
16000.0 83.00886075949366
16500.0 82.90886075949366
17000.0 82.90886075949366
17500.0 83.20886075949366
18000.0 83.60886075949365
18500.0 83.90886075949366
19000.0 84.20886075949366
19500.0 84.10886075949365
