Freq "Sound Power"
22.4 41.52342803255509
23.0 42.937446124825996
23.6 44.306871390016525
24.0 46.04827295284143
25.0 47.593550475808215
25.8 48.913116066127046
26.5 50.14116682591309
27.2 51.741594108169934
28.0 53.20495430888174
29.0 54.48435510800455
30.0 55.774078721116766
30.7 57.265302256600066
31.5 58.57476253186216
32.5 59.77476253186215
33.5 61.16990726102502
34.5 62.45675947553174
35.5 63.60516486057473
36.5 64.83733096611222
37.5 65.97145598766863
38.7 67.0384168384022
40.0 68.0605298536176
41.2 69.0094876442367
42.5 69.89610936128727
43.7 70.74072994918616
45.0 71.53031270604038
46.2 72.29601463599799
47.5 73.0173100185678
48.7 73.71351211526535
50.0 74.37765973011713
51.5 75.02592445336715
53.0 75.61774780593181
54.5 76.19231835608845
56.0 76.74412493272129
58.0 77.30209223710317
60.0 77.86102819659794
61.5 78.42488938801112
63.0 78.97711456567944
65.0 79.47976710358232
67.0 79.97278328353026
69.0 80.46112567923913
71.0 80.9421984409981
73.0 81.41670643361552
75.0 81.82436885807199
77.5 82.15947372525973
80.0 82.45819622109953
82.5 82.75291720616065
85.0 83.03725282083523
87.5 83.28662694023777
90.0 83.49442720576484
92.5 83.66001311825964
95.0 83.7676911649272
97.5 83.86806940332488
100.0 83.94116821004465
103.0 83.99264995994712
106.0 83.98006301352653
109.0 83.9878793926964
112.0 83.95597205424083
115.0 83.90123284355714
118.0 83.81965653176279
122.0 83.73764330259435
125.0 83.64733661667924
128.0 83.55935145120351
132.0 83.49225397316076
136.0 83.48282752436984
140.0 83.49491921045296
145.0 83.51602788653743
150.0 83.56100514975405
155.0 83.58460503237097
160.0 83.58719572356578
165.0 83.54932714223165
170.0 83.45872731093235
175.0 83.36109742533876
180.0 83.19621057788022
185.0 83.02562909679054
190.0 82.79529578014903
195.0 82.54750892773545
200.0 82.31140668543866
206.0 82.02712090346863
212.0 81.82335981390439
218.0 81.59442502905641
224.0 81.41370690921525
230.0 81.2243800974253
236.0 81.09497405141387
240.0 80.96321408191865
250.0 80.84585668288956
258.0 80.77383368529934
265.0 80.7009018670955
272.0 80.68274473426186
280.0 80.66031430780717
290.0 80.67560959340473
300.0 80.7049135658817
307.0 80.75560758441502
315.0 80.7823123263003
325.0 80.81744090575432
335.0 80.86389916499186
345.0 80.88726561389399
355.0 80.89024558405988
365.0 80.87568841948313
375.0 80.85548490776348
387.0 80.81935468648233
400.0 80.74533704942549
412.0 80.65997901040132
425.0 80.56651684747358
437.0 80.4480731273501
450.0 80.29564898937409
462.0 80.10855418201726
475.0 79.88557100761308
487.0 79.61021282627924
500.0 79.27801709889081
515.0 78.90147252656139
530.0 78.51292609390437
545.0 78.08017799414321
560.0 77.65230112938566
580.0 77.24519761496377
600.0 76.82710687625546
615.0 76.45151055986162
630.0 76.14121100071559
650.0 75.84197714185157
670.0 75.59102176389061
690.0 75.39424101674716
710.0 75.24225389001721
730.0 75.20694837788182
750.0 75.23036377500642
775.0 75.40664791603477
800.0 75.65637418432813
825.0 75.99521582475235
850.0 76.34300736714316
875.0 76.602290915045
900.0 76.72250727062114
925.0 76.65628460246766
950.0 76.39621933082316
975.0 75.99828844056857
1000.0 75.50561217254274
1030.0 75.0199484120392
1060.0 74.60697825675587
1090.0 74.3589601334068
1120.0 74.2898322877828
1150.0 74.46148363289467
1180.0 74.83730440619571
1220.0 75.45380487234864
1250.0 76.2077383159515
1280.0 76.71700032323245
1320.0 76.50126122304026
1360.0 75.69997286900961
1400.0 74.87323951972782
1450.0 74.32085903528521
1500.0 74.14387510911219
1550.0 74.16740215450939
1600.0 74.19049445230581
1650.0 73.98584227000929
1700.0 73.47272348812318
1750.0 72.68186645349483
1800.0 72.08638898863455
1850.0 72.2274415322713
1900.0 72.70432302904537
1950.0 72.54357911663823
2000.0 71.9726002978738
2060.0 71.36331995256246
2120.0 70.7968039552524
2180.0 70.49065162844367
2240.0 70.5792270303648
2300.0 70.73072826572799
2360.0 70.74049908017037
2400.0 70.74396417644782
2500.0 70.90088361008134
2580.0 71.00457797507585
2650.0 71.00694399036996
2720.0 71.08315125651653
2800.0 71.22010599299664
2900.0 71.20609967117376
3000.0 71.34266456795778
3070.0 71.64147790745263
3150.0 71.63866920175805
3250.0 71.36542639291515
3350.0 71.32285801595194
3450.0 71.48027401915222
3550.0 71.64417159289908
3650.0 71.88511029062464
3750.0 71.98330065268277
3870.0 72.01957437151422
4000.0 72.0200213747548
4120.0 71.89166940822848
4250.0 71.95919421285416
4370.0 71.70422457936046
4500.0 71.45521000708939
4620.0 71.92017684132678
4750.0 72.31055592847076
4870.0 72.91927646463382
5000.0 73.47380616829282
5150.0 73.69832007363297
5300.0 73.76780926417283
5450.0 73.7937921491686
5600.0 73.52124916087658
5800.0 73.6995599581383
6000.0 73.83669078424798
6150.0 74.19350978060088
6300.0 74.74111817581144
6500.0 74.7338680350893
6700.0 74.20450100654084
6900.0 74.38206084669565
7100.0 74.84932112522948
7300.0 74.45513729174671
7500.0 73.9712877019793
7750.0 74.01964739651008
8000.0 73.84715645683688
8250.0 73.94383879096216
8500.0 74.60145064847927
8750.0 74.79927495520685
9000.0 74.11165100982663
9250.0 73.52607798106672
9500.0 73.87168205101007
9750.0 73.49157858381423
10000.0 73.47285055654346
10300.0 74.05455249605212
10600.0 74.40715836798394
10900.0 74.52326827487384
11200.0 74.75090127298266
11500.0 74.7217199622561
11800.0 74.980315382829
12200.0 74.53825806620414
12500.0 74.63401416907075
12800.0 74.09374447424283
13200.0 73.89651835300013
13600.0 73.17703079928361
14000.0 73.0492943246729
14500.0 72.81224041643404
15000.0 72.8014788193776
15500.0 72.3314608476721
16000.0 71.09504176212097
16500.0 72.6792123330614
17000.0 72.11802691267668
17500.0 69.32554829468782
18000.0 69.35438792416618
18500.0 69.78774589791873
19000.0 69.73103162708655
19500.0 69.04587717818644
