Freq "Rear Wall Bounce"
22.4 -6.926506692941231
23.0 -5.087951141871017
23.6 -3.104273761096536
24.0 -2.216469403200776
25.0 -1.0754188881895317
25.8 0.3845340582963246
26.5 2.1075532652739497
27.2 1.6593643161589142
28.0 1.863835584253465
29.0 2.6118024510193294
30.0 4.32968161733406
30.7 6.08353509307058
31.5 8.148164599098507
32.5 10.380544265820092
33.5 11.797113224456481
34.5 12.647113738287388
35.5 12.756210380970018
36.5 12.239538992577465
37.5 12.640528658738603
38.7 13.895831763735814
40.0 16.113283901515857
41.2 18.010780494518244
42.5 19.835232769055253
43.7 21.732264556847937
45.0 24.478008100792934
46.2 28.699687997166833
47.5 32.15343262467282
48.7 32.910707076518335
50.0 34.414847989512324
51.5 35.865364011088516
53.0 36.056876586666775
54.5 33.5359553835719
56.0 33.80443787486597
58.0 34.84016642616557
60.0 37.06229464343268
61.5 40.56627778146826
63.0 43.275623738617284
65.0 45.41072779480457
67.0 46.84622102523305
69.0 48.59590592348589
71.0 50.495976660455696
73.0 51.97901802551256
75.0 53.44276487280597
77.5 54.873065710557356
80.0 56.29592014715709
82.5 57.396099024800705
85.0 58.53479590262303
87.5 59.71969808936795
90.0 60.84913479711406
92.5 61.812868960491315
95.0 62.83249837735012
97.5 63.995367381612525
100.0 64.71973834303145
103.0 65.58270652060337
106.0 66.28819079008264
109.0 67.10267246512383
112.0 67.90394865199484
115.0 68.68449325193089
118.0 69.45037650484163
122.0 70.23944461503642
125.0 71.0440715907537
128.0 71.66059598716946
132.0 72.30293807511212
136.0 72.76921533881254
140.0 73.04924480736871
145.0 73.23208750233132
150.0 73.26094531321522
155.0 73.17978081539712
160.0 73.12261739034537
165.0 72.9548972553047
170.0 72.78802346302119
175.0 72.59221872273484
180.0 72.49776802420227
185.0 72.55012280242457
190.0 72.56305464627144
195.0 72.5399211274706
200.0 72.21765954968582
206.0 72.01929358861857
212.0 72.34841307299696
218.0 72.47546547440815
224.0 72.4149489021403
230.0 72.657199856253
236.0 72.8913528849591
240.0 72.9999639127708
250.0 72.99357170549085
258.0 73.19046380611715
265.0 73.56409781474352
272.0 73.99872188037399
280.0 74.38215059878924
290.0 74.70611288515109
300.0 74.7901426435243
307.0 74.64634353921076
315.0 74.01519768693053
325.0 73.13576225895578
335.0 72.47445517744214
345.0 72.32429498967716
355.0 72.2452719811734
365.0 71.99532826151012
375.0 71.59513287350111
387.0 71.10316512293909
400.0 70.1936050627336
412.0 69.62004323399216
425.0 69.39531151753502
437.0 69.19672663054355
450.0 68.85393421228213
462.0 68.91924513407061
475.0 69.35670510379926
487.0 69.41317049968391
500.0 69.19802573186026
515.0 68.79268796265954
530.0 67.89251196752244
545.0 67.02118425826181
560.0 66.70151496900812
580.0 66.4632535295473
600.0 66.08395087367894
615.0 66.356758738033
630.0 66.95825769554841
650.0 66.85820338099758
670.0 66.06610878036336
690.0 66.24384073306724
710.0 66.28427046577539
730.0 65.20610983350733
750.0 64.32659791186556
775.0 64.60664017861181
800.0 65.62236732297829
825.0 65.62458552806578
850.0 65.84751048235545
875.0 66.52551843170478
900.0 65.9316292961198
925.0 64.63763269802764
950.0 63.863259971974486
975.0 63.713422659885666
1000.0 62.8237293566667
1030.0 63.45349479925292
1060.0 64.71337382881605
1090.0 64.18834213770577
1120.0 62.78046884337134
1150.0 61.711757768284414
1180.0 61.753217462781905
1220.0 63.21258429995804
1250.0 63.17837168211604
1280.0 62.958075663138956
1320.0 61.726633084379955
1360.0 61.997483562166664
1400.0 63.505089373758324
1450.0 63.465341988723665
1500.0 62.90035560989534
1550.0 62.6328409325953
1600.0 61.601213917526934
1650.0 62.85723698922193
1700.0 62.81897424798815
1750.0 61.9026055381772
1800.0 62.44338971114158
1850.0 63.20845640186256
1900.0 63.159254981294524
1950.0 63.3014217088667
2000.0 64.3453469564041
2060.0 64.59758945433437
2120.0 63.78627978103073
2180.0 65.49978042454006
2240.0 66.88376810635907
2300.0 65.51150852042382
2360.0 65.91203651734965
2400.0 66.38042512225955
2500.0 65.8030705427923
2580.0 64.92157294228348
2650.0 64.82207328646629
2720.0 65.03490610883189
2800.0 63.96948442273296
2900.0 63.14062211114094
3000.0 63.45314997073747
3070.0 62.213441385655315
3150.0 61.729438010099116
3250.0 62.43795277739652
3350.0 61.681328115067274
3450.0 61.62906261513477
3550.0 61.84650577188806
3650.0 61.385261623827816
3750.0 60.37155986926611
3870.0 59.82748668753142
4000.0 57.8781932741944
4120.0 59.06688002572237
4250.0 59.65904106133188
4370.0 60.27663081871728
4500.0 59.34042268948018
4620.0 61.46257419710781
4750.0 60.084743922727526
4870.0 60.60164183920645
5000.0 60.77099476708139
5150.0 59.20072775547095
5300.0 58.43895999822952
5450.0 59.89995536331028
5600.0 60.096860329069045
5800.0 61.30154235050935
6000.0 62.48802510942973
6150.0 60.22550504973833
6300.0 60.78176571592482
6500.0 60.194675562062784
6700.0 59.53119227264442
6900.0 60.08714012041284
7100.0 57.887114615864434
7300.0 58.650254109252856
7500.0 57.66533382121007
7750.0 59.87862529464532
8000.0 60.27834934458387
8250.0 60.030061644184
8500.0 60.552860660365184
8750.0 60.218136273299265
9000.0 58.93300975365416
9250.0 57.47391810721906
9500.0 57.651391619131886
9750.0 58.6835459441978
10000.0 59.47383138217435
10300.0 60.910664905048336
10600.0 60.80235770232004
10900.0 58.421515190245756
11200.0 57.999018696354796
11500.0 57.21061173093861
11800.0 57.693359961978075
12200.0 57.77253099443804
12500.0 55.930716452446816
12800.0 54.012727622527464
13200.0 55.30813806327008
13600.0 54.260807505507685
14000.0 56.08165950119776
14500.0 58.108780186336716
15000.0 57.311376060443806
15500.0 56.40832377748313
16000.0 54.74925591979324
16500.0 52.686050067293976
17000.0 52.18368065338247
17500.0 51.968718360199674
18000.0 51.98346607744425
18500.0 53.547534514334316
19000.0 51.96397365017465
19500.0 50.49511974094948
