Freq "Side Wall Bounce"
22.4 -8.943078675524816
23.0 -6.615882406706021
23.6 -4.192516512750359
24.0 -1.8130552039827421
25.0 0.24767695350277563
25.8 2.1591419982106856
26.5 3.6942613868888543
27.2 2.168892721291087
28.0 1.2650580219621474
29.0 0.4604453255087151
30.0 0.3504566361382899
30.7 3.422304555496652
31.5 6.68491995963231
32.5 10.581999078666769
33.5 12.664498570049972
34.5 13.52244854172821
35.5 13.946416265846239
36.5 14.285217977160755
37.5 14.811819088308454
38.7 15.4039296786558
40.0 16.749405590800393
41.2 17.91322566327196
42.5 19.60364801961171
43.7 21.584791320272984
45.0 24.805758415927755
46.2 30.366197793138298
47.5 33.5986327855654
48.7 33.436117762338654
50.0 34.710960128292015
51.5 36.281665455690586
53.0 37.45837581928876
54.5 37.66483646486344
56.0 38.528089898051405
58.0 39.06895995629088
60.0 40.98664903010322
61.5 44.154297602651184
63.0 46.463923384065424
65.0 48.21293220980223
67.0 50.096095975626724
69.0 51.692271774606354
71.0 53.192335680178644
73.0 54.91495449019746
75.0 56.577846252152824
77.5 58.19319306109671
80.0 59.649931607958706
82.5 60.9825756194447
85.0 62.43149678271536
87.5 63.8219204712659
90.0 65.12457628009071
92.5 66.1863606964899
95.0 67.52716250485936
97.5 69.0308287057778
100.0 70.02299836313813
103.0 71.03578875859138
106.0 71.85509814013881
109.0 72.68271291005681
112.0 73.45970573251851
115.0 74.13725704434319
118.0 74.79285514438187
122.0 75.5220138557881
125.0 76.25969577964743
128.0 76.88202907802918
132.0 77.42446936146345
136.0 77.90227017129936
140.0 78.28418758905332
145.0 78.40691155538184
150.0 78.59187933934412
155.0 78.509097646702
160.0 78.38418758905331
165.0 78.28418758905332
170.0 78.25173061676618
175.0 78.06910851874457
180.0 77.95173061676618
185.0 77.91431737681276
190.0 77.86910851874457
195.0 77.85173061676616
200.0 77.77940338926877
206.0 77.93688464551715
212.0 78.14454127010612
218.0 78.26910851874456
224.0 78.24454127010611
230.0 78.3018373182169
236.0 78.37745503330476
240.0 78.33725704434319
250.0 78.43725704434318
258.0 78.59285514438187
265.0 78.84657925221913
272.0 78.98060007782728
280.0 78.9515363135507
290.0 78.96385203250445
300.0 78.86385203250445
307.0 78.72851997340489
315.0 78.40087529089871
325.0 78.05509814013882
335.0 77.74454127010611
345.0 77.58418758905331
355.0 77.46910851874456
365.0 77.254321934659
375.0 76.97050952978634
387.0 76.78204584418486
400.0 76.78748430179783
412.0 76.77436390364755
425.0 76.77436390364755
437.0 76.75778973918217
450.0 76.75778973918217
462.0 76.88463808338923
475.0 76.98748430179782
487.0 77.02745355433875
500.0 77.0510103309239
515.0 76.88463808338923
530.0 76.37460295806011
545.0 75.96420507912312
560.0 75.8351007645395
580.0 75.81373807212783
600.0 75.97853377720853
615.0 76.31420062979392
630.0 76.59997789777645
650.0 76.47501532576567
670.0 76.12147870644375
690.0 76.04264277929437
710.0 75.45825509018962
730.0 74.61212749231673
750.0 74.64344477805373
775.0 74.9636386326925
800.0 75.31940697193487
825.0 75.7051526016778
850.0 75.99868214170431
875.0 75.9289408080266
900.0 75.53998667435285
925.0 75.05413565097157
950.0 74.50129361167743
975.0 74.47893368639711
1000.0 74.40171562149686
1030.0 75.03900749510119
1060.0 74.92031779989873
1090.0 74.36707349370243
1120.0 73.87944264220761
1150.0 73.78418833808168
1180.0 74.32896771569594
1220.0 74.5273286327623
1250.0 74.66484926819211
1280.0 73.92557367978887
1320.0 73.70606673141457
1360.0 74.62080598206478
1400.0 74.52740474588342
1450.0 74.52735308513482
1500.0 74.06437724164702
1550.0 73.8633082595983
1600.0 74.67439662117972
1650.0 74.79445153523965
1700.0 74.40472607510944
1750.0 73.98273983785471
1800.0 74.41053100995151
1850.0 74.53368746259892
1900.0 74.78545282205062
1950.0 75.63730457506179
2000.0 75.97454361115201
2060.0 75.09931750688435
2120.0 75.50370205416925
2180.0 75.9765866392338
2240.0 75.86957835342842
2300.0 75.62557512973186
2360.0 76.28554922663483
2400.0 75.76631182854359
2500.0 75.61401321053309
2580.0 75.32337181627574
2650.0 74.60933754249429
2720.0 74.9236740563946
2800.0 73.45327920983863
2900.0 73.42704557943432
3000.0 72.62396550268062
3070.0 72.52038657608387
3150.0 72.94646738483075
3250.0 73.02257020353957
3350.0 72.81677538522845
3450.0 72.64441475953438
3550.0 73.28050092360456
3650.0 72.39476986042067
3750.0 71.52496589378903
3870.0 71.73632097945737
4000.0 71.20353351740859
4120.0 72.86905499756594
4250.0 72.49602100523295
4370.0 72.08964654886769
4500.0 71.7222620075361
4620.0 71.78343993852798
4750.0 71.14900466372077
4870.0 71.6506083311782
5000.0 71.44661392500421
5150.0 70.98410867290657
5300.0 71.53707210329036
5450.0 73.34341191906537
5600.0 73.38216739039001
5800.0 73.63309785725593
6000.0 72.43773630366303
6150.0 72.01319511105422
6300.0 73.32301961427147
6500.0 72.057321037283
6700.0 71.91362774266815
6900.0 71.609584003968
7100.0 73.26350968850335
7300.0 73.12640386685212
7500.0 73.0368111630136
7750.0 73.25896584700412
8000.0 73.31970727679601
8250.0 74.14401506418545
8500.0 73.55820291721864
8750.0 72.6325744788409
9000.0 72.1950006013631
9250.0 72.01654777378772
9500.0 71.63711930126473
9750.0 71.32717949616622
10000.0 72.45499906101371
10300.0 73.71924598183922
10600.0 74.10214479451686
10900.0 73.5431251875829
11200.0 73.37247071780585
11500.0 73.8820886729961
11800.0 74.77512975710762
12200.0 74.82129443594977
12500.0 74.0071360136551
12800.0 73.16216749761854
13200.0 71.1013822021104
13600.0 71.3837062953277
14000.0 71.09667817730869
14500.0 72.7973078051493
15000.0 73.42312290678117
15500.0 72.82034187085239
16000.0 70.51627616125842
16500.0 69.40320966292461
17000.0 69.16855216541418
17500.0 69.71667148898018
18000.0 70.20766174643185
18500.0 69.88978663190093
19000.0 68.57913149720586
19500.0 66.3682213438436
