Freq "Sound Power"
20.5078 39.439612999999994
21.9727 40.961612999999986
23.4375 42.34961299999999
24.9023 43.521613999999985
26.3672 44.896613999999985
27.832 46.21861299999999
29.2969 47.493613999999994
30.7617 48.742611
32.2266 49.97361399999998
33.6914 51.15861099999999
35.1562 52.265614
36.6211 53.15661200000001
38.0859 54.22761200000001
39.5508 55.287609
41.0156 56.321613
42.4805 57.32960899999999
43.9453 58.311610999999985
45.4102 59.269611
46.875 60.04861100000001
48.3398 60.96061300000001
51.2695 62.700610999999995
52.7344 63.517612
54.1992 64.277611
55.6641 65.00560799999998
58.5938 66.207611
60.0586 66.77861
62.9883 67.729607
64.4531 68.116608
67.3828 68.71560699999999
68.8477 68.997612
71.7773 69.48461200000001
74.707 69.865608
77.6367 70.12661
79.1016 70.239609
82.0312 70.414612
84.9609 70.536606
87.8906 70.61161
90.8203 70.660606
95.2148 70.700607
98.1445 70.705612
101.074 70.694611
105.469 70.64061
108.398 70.59060699999999
112.793 70.503609
117.188 70.44361099999999
120.117 70.425606
124.512 70.41160600000002
128.906 70.40061200000001
133.301 70.36261
139.16 70.239609
143.555 70.156609
147.949 70.094612
153.809 70.049606
159.668 70.008606
165.527 69.913612
171.387 69.721611
177.246 69.49661299999998
183.105 69.374611
188.965 69.350609
196.289 69.261612
203.613 69.103607
210.938 69.03961200000002
218.262 68.957611
225.586 68.790611
232.91 68.69060499999999
241.699 68.586609
250.488 68.44760900000001
259.277 68.43161
268.066 68.535606
276.855 68.65361
287.109 68.624611
297.363 68.436607
400.0 67.14076854845445
412.0 67.10975985772346
425.0 67.08733474233473
437.0 67.07480792695989
450.0 67.06727863831452
462.0 67.06332613545233
475.0 67.05959787844742
487.0 67.05473138847145
500.0 67.04651832615163
515.0 67.03276077285939
530.0 67.01471733323471
545.0 66.99449053945214
560.0 66.97455102207257
580.0 66.95337235049175
600.0 66.94312805208227
615.0 66.94354752403285
630.0 66.95006957814265
650.0 66.96354074201054
670.0 66.97418799114932
690.0 66.97205758734326
710.0 66.94784331536728
730.0 66.89511594646392
750.0 66.81253579672934
775.0 66.67027835267164
800.0 66.49918122348511
825.0 66.31889519923313
850.0 66.14873919635222
875.0 65.9997919596454
900.0 65.8729404547409
925.0 65.75923572322289
950.0 65.64502886279769
975.0 65.51878032466003
1000.0 65.37641993712178
1030.0 65.19116075636944
1060.0 65.00974903848844
1090.0 64.85416252875012
1120.0 64.73505612342778
1150.0 64.64594115271424
1180.0 64.56957904557405
1220.0 64.45999769951656
1250.0 64.364253016447
1280.0 64.26130153968792
1320.0 64.12296988009292
1360.0 63.98066439064772
1400.0 63.81118179244173
1450.0 63.52692479467606
1500.0 63.17000216445852
1550.0 62.79574733566372
1600.0 62.45134989379598
1650.0 62.12963668849328
1700.0 61.790467351140634
1750.0 61.40927901271691
1800.0 60.9990167171497
1850.0 60.59944824700344
1900.0 60.268324917554835
1950.0 60.09110261701635
2000.0 60.16849183004304
2060.0 60.64516989911844
2120.0 61.400215289423144
2180.0 62.201610362821214
2240.0 62.877558977803716
2300.0 63.350526185855074
2360.0 63.62617592799586
2430.0 63.76589293683048
2500.0 63.78246407719742
2580.0 63.737800410983866
2650.0 63.65606222091165
2720.0 63.436032259078985
2800.0 63.05543332235112
2900.0 62.80487441557828
3000.0 62.52150417160725
3070.0 62.21917282545833
3150.0 62.07104054663708
3250.0 61.81365820893555
3350.0 61.1866769817037
3450.0 60.63798973689836
3550.0 60.07597382007822
3650.0 61.225827847212386
3750.0 63.77247212280929
3870.0 65.71174715785199
4000.0 66.32246828088158
4120.0 66.19958844334899
4250.0 66.1673516795231
4370.0 65.95120866846555
4500.0 65.76003105093136
4620.0 65.44630474434258
4750.0 65.36961849792566
4870.0 65.27724891729757
5000.0 65.37282079204743
5150.0 65.34343645805866
5300.0 65.1551540608058
5450.0 64.78544848682816
5600.0 64.14205629016223
5800.0 63.52260535758313
6000.0 63.58993645441734
6150.0 63.80154416671516
6300.0 63.775553904077285
6500.0 63.76286669031886
6700.0 63.848804552698894
6900.0 63.827332542131515
7100.0 63.46006432851949
7300.0 63.3215347020591
7500.0 63.43266511119417
7750.0 63.2610962028223
8000.0 63.177065511139645
8250.0 62.893487256482246
8500.0 62.37740344940613
8750.0 62.59824635438605
9000.0 63.174112326017465
9250.0 63.04093299712932
9500.0 62.56531497099496
9750.0 62.700162943699596
10000.0 62.81133013068832
10300.0 62.238741712767606
10600.0 62.25355369218859
10900.0 62.08645851851182
11200.0 61.4778050906491
11500.0 60.97094063204251
11800.0 61.47319662879208
12200.0 61.416061370082204
12500.0 61.186945644304615
12800.0 61.52990879452024
13200.0 61.13226033157012
13600.0 60.74683184137602
14000.0 60.67541244857243
14500.0 60.07787964755025
15000.0 60.185262512805494
15500.0 59.95664662711016
16000.0 60.03932820020714
16500.0 59.656679087383466
17000.0 59.436744629228244
17500.0 58.722722894819626
18000.0 58.35071425221692
18500.0 57.968576775277114
19000.0 57.45894002314495
19500.0 57.11593941701308
