Freq,Floor Bounce,Ceiling Bounce,Front Wall Bounce,Side Wall Bounce,Rear Wall Bounce,Total Early Reflection
22.4,-4.931592766737154,-6.563147983545619,0.8629374023254996,-0.5262685129097946,-0.25866875778835663,-1.4390485081884918
23.0,-4.371647347127137,-6.5894415576787395,2.9472768681113877,1.2805114240417055,1.4616369679189205,0.25223034730232996
23.6,-3.447868787792075,-6.27352141698249,5.998061319348309,2.8724491699945105,3.9061509400323615,2.5829869335282893
24.0,0.13366192909059293,-2.076480701052006,8.87859853932899,6.109077025908064,7.123156995368944,5.708666880937912
25.0,3.265831550191237,2.0664907024856944,10.856552812959123,9.32684962801288,9.925403414315312,8.363828855654972
25.8,5.944894795783782,6.122918500098237,12.745881698198176,12.310821235440827,12.96029920060657,11.04765180955566
26.5,8.144272052242357,10.892847319144138,15.169323267725773,15.67624575713792,16.973077051247955,14.42307356477447
27.2,12.291309154891806,15.085994367452557,20.897573377587307,19.89768966821994,20.87708743262563,18.945520770589738
28.0,16.422639189018113,18.159628601611345,25.947530433432192,23.303169172805198,23.754723563332632,22.80583745807577
29.0,20.35241626533407,21.10440635091119,31.167181137912777,26.61488438995336,26.650330392710586,26.931665459962076
30.0,24.15792320273995,23.03452189666173,32.1781462569641,27.79415587446225,26.680239229574212,28.03488142524536
30.7,25.474476229360462,22.625436582291215,30.112756613185965,28.01845781260114,26.929502708418156,27.305946976141726
31.5,26.52942105200661,22.732633260295486,30.602984391943195,29.602336347654372,29.117197664861706,28.469347139979376
32.5,27.028352652872897,23.236506498291064,32.17831686679652,32.1755248656619,32.55798101725257,30.658727576569632
33.5,29.674879492021304,27.0602484739034,33.522254182025264,33.81436564153408,33.989451513968774,32.354706838944466
34.5,32.26773589555397,31.170511304105972,34.42970821957083,35.257851343348094,35.0826534710945,33.925878129049366
35.5,34.53497327771147,35.50864658578267,34.96149373825095,36.45434456924583,36.14210508423655,35.57852431322134
36.5,37.79775512594988,39.072378749100054,37.18071810761738,38.24747686760868,37.682791236454094,38.04395544739246
37.5,40.352191070002974,40.84694489936781,40.819492243098765,40.46806038273404,39.72069123979453,40.460255391173334
38.7,42.90221671324876,42.70210547789351,47.88230854877993,44.823015992640634,44.29222039193671,44.96304871093973
40.0,46.884690856328476,47.517078815623776,51.01996609596698,49.29652377543225,48.23303876268362,48.84629404433791
41.2,51.17513382782899,52.11863125990344,52.60196120383846,51.75725834042335,51.05668845671791,51.78069452953811
42.5,50.82797289929199,52.013582283631806,50.430081190376185,49.65474329015028,48.985208811182545,50.50704267955537
43.7,49.05710636995353,50.933790761218845,52.167891826645516,50.03200042993505,48.8915437723317,50.39351894539648
45.0,49.29368907107981,51.14878720473199,54.138497387221136,51.236216988796016,50.20923215968084,51.53792912372985
46.2,53.29090626692651,54.05962860161135,55.16869212842538,53.93680096129684,53.44942430528671,54.03327418296861
47.5,55.53192175431808,56.08719572403204,55.48954912021922,55.87873991014372,55.87019486770127,55.77744982061115
48.7,56.79101152501924,57.220788555038936,58.892023420249146,57.77980381675475,57.513840860571875,57.699219435327834
50.0,58.40080275515443,58.66478985285708,64.82244161777557,59.187705904124144,59.80715059642948,60.96830748232891
51.5,62.399297969094434,62.020142634772,65.42234395207568,62.61517750031227,61.99751857881485,63.106973014371746
53.0,65.95476643905731,65.12711636840902,66.4798704014884,65.49860723119257,64.3180040634508,65.53686913658511
54.5,68.02523469314153,67.68439947891939,68.7219119220015,67.63288471460865,66.33400027303855,67.74688063812576
56.0,70.11143766372467,69.94846198201013,70.85575699164797,69.72183201680606,68.45690966808111,69.88639899810816
58.0,72.68719572403205,72.54535792058127,73.23977675323822,72.04087544476079,70.92279844457613,72.35462730173748
60.0,74.87967373135538,74.78050569019668,75.27805920399678,74.13562975874017,73.15441067025914,74.50640327338789
61.5,77.05311597248644,76.81618008604435,77.30441799826465,76.27864033799412,75.44742820021325,76.62829665564607
63.0,79.02086878062923,78.94846198201013,79.21873511190167,78.31557045600738,77.50916290624671,78.64571816899912
65.0,80.84846198201014,80.91148881273783,81.04770338573773,80.23185005870401,79.43494709847072,80.53458715772773
67.0,82.21305285725829,82.31148881273784,82.65913516405719,81.81984117485969,81.04122319081266,82.04304326658186
69.0,83.44610754572604,83.44610754572604,83.83090309748688,83.13752087865663,82.38906863992564,83.27607115705815
71.0,84.38347965413844,84.41148881273786,84.76175662618901,84.12923325419622,83.60639696593411,84.2751115701938
73.0,85.04610754572603,85.11073318773646,85.38915338123313,84.8659834843512,84.65858660075011,85.02101369680678
75.0,85.67816856646336,85.81073318773646,85.97415481567081,85.50469736298572,85.50587335461611,85.69850875912762
77.5,86.21073318773647,86.37662780156349,86.42988243631407,86.0444088872736,86.20371180288181,86.25524057154848
80.0,86.64380546913914,86.8766278015635,86.82922247970302,86.5434984876327,86.84091529060436,86.74874767962328
82.5,86.94380546913915,87.24303797468352,87.08617737002133,86.94303797468352,87.31047457414738,87.10793245148854
85.0,87.14380546913914,87.44303797468352,87.28617737002135,87.16322303009942,87.64471427358342,87.34027632549471
87.5,87.24380546913913,87.509959825844,87.48682872888081,87.32368395246942,87.82596599529928,87.48271794706842
90.0,87.37738938336854,87.64303797468354,87.61470072860244,87.46415041233887,88.00686336887127,87.62666996487484
92.5,87.51148881273785,87.70995982584402,87.6868287288808,87.50377859966588,88.16166310902896,87.72146305244942
95.0,87.61073318773646,87.84380546913914,87.78682872888082,87.54349848763269,88.23555568149004,87.81093535571038
97.5,87.74380546913915,87.9766278015635,87.95812111712236,87.66368140776432,88.23513615060845,87.92011386033526
100.0,87.84380546913914,88.04380546913914,88.07184513142882,87.72459851482874,88.02838406525173,87.94458326325686
103.0,87.87738938336855,88.07662780156349,88.10046246604166,87.80562675209303,87.7672721023339,87.92767212680373
106.0,87.87816856646334,88.07816856646336,88.14303797468352,87.80698862287848,87.53082268794957,87.8928181014906
109.0,87.91148881273784,88.01148881273785,88.14369583537778,87.7315353307831,87.20352363610176,87.81239450839749
112.0,88.01148881273785,88.11148881273785,88.17184513142881,87.6733334795959,86.96512975215167,87.80869462642555
115.0,87.91148881273784,87.94610754572604,88.07184513142882,87.57189631939382,86.67141245258091,87.66305897084631
118.0,87.84610754572604,87.84610754572604,88.07184513142882,87.55224408648759,86.54511773193961,87.60416289551591
122.0,87.67816856646334,87.77816856646335,88.00046246604167,87.5124354451502,86.5506865037335,87.53174610376338
125.0,87.61148881273785,87.74380546913915,87.97184513142881,87.4522440864876,86.60231708963101,87.50073295578821
128.0,87.54380546913913,87.61148881273785,87.90046246604167,87.4305569163873,86.75983212560097,87.46527050449019
132.0,87.51148881273785,87.61148881273785,87.84303797468353,87.34902254459094,86.8965634124936,87.45367633658148
136.0,87.44610754572604,87.51148881273785,87.81470072860243,87.32829838496896,86.95550054172956,87.42011521303708
140.0,87.47967373135538,87.51148881273785,87.82988243631407,87.28977474709822,86.95213284687398,87.42211025230404
145.0,87.48347965413842,87.44610754572604,87.85812111712237,87.19337854144689,86.83372852749407,87.37615586548718
150.0,87.5175314849879,87.44380546913914,87.98682872888081,87.11651986754016,86.64850343639482,87.36525927156525
155.0,87.48347965413842,87.3169175869117,87.95812111712236,87.04108811964836,86.30951896071265,87.25536497135413
160.0,87.5499429850381,87.28586827940326,87.94533274162045,87.00525256705424,85.96508419175704,87.19979033529104
165.0,87.58880516906821,87.2553097578397,88.07479311330259,87.08249116094365,85.95877759665248,87.2469427698396
170.0,87.61912972917573,87.28880516906823,88.17479311330258,87.14656758494888,85.84803666265202,87.28078902319915
175.0,87.65530975783972,87.41912972917572,88.23052727360393,87.24656758494888,86.00462201279673,87.37054570600824
180.0,87.68586827940327,87.48586827940326,88.21701051360724,87.27661163742498,86.43615573169429,87.45862061378303
185.0,87.65530975783972,87.3553097578397,88.24533274162046,87.29991816088481,86.76292863914223,87.4910835869206
190.0,87.62523764800657,87.2553097578397,88.31828920110809,87.24260371086734,86.85345856955702,87.48777473741616
195.0,87.56220502971104,87.0553097578397,88.29169754833146,86.98999120970413,86.7611625433961,87.36756376796015
200.0,87.43286654141825,86.83286654141824,88.28978947843706,86.76973298895065,86.42261873235447,87.2008948226134
206.0,87.40400311705534,86.65267054149972,88.42152275615368,86.61506349913724,85.80081589645035,87.0704501241365
212.0,87.54201242599278,86.69202156619194,88.42152275615368,86.4793528716986,84.88424902076305,86.95906686028168
218.0,87.5805657476838,86.72523610258408,88.49169754833146,86.53911625888304,83.93316329684068,86.89841908844143
224.0,87.54201242599278,86.69202156619194,88.46302220869795,86.5793528716986,83.56474977285471,86.84626912210315
230.0,87.4138676775265,86.49202156619194,88.39304431485424,86.49386337154802,83.57729697766544,86.74278850671264
236.0,87.3138676775265,86.33192344623355,88.28228073190344,86.19790610680971,83.45272983244347,86.58950232866565
240.0,87.25267054149973,86.20498665032116,88.25218386774179,86.08406264312285,83.21064132264057,86.49835004707666
250.0,87.3138676775265,86.21945427200505,88.29555761536479,86.14076550042908,83.11357738980846,86.53003494803299
258.0,87.4756101551491,86.50498665032117,88.4182892011081,86.45756168982483,83.15697334740669,86.72162408577908
265.0,87.6756101551491,86.76483536157248,88.5594172588335,86.80815287079731,83.2208880083531,86.93283748594601
272.0,87.70400311705534,86.82523610258407,88.63052727360395,86.99359553123742,83.42797271644326,87.02601239376911
280.0,87.80400311705534,86.92523610258407,88.73052727360394,87.17057398960647,83.8936394617869,87.17447976135163
290.0,87.71386767752651,86.76483536157248,88.77412473131527,87.11633538882182,84.04602699294571,87.1403246371745
300.0,87.49202156619192,86.31945427200505,88.70339109291548,86.88406264312285,83.76721591681492,86.91568974884136
307.0,87.29825766776732,86.068302513972,88.60339109291549,86.79054968206529,83.40683242103921,86.74483857805681
315.0,87.0381025550418,85.66830251397202,88.40339109291547,86.5905496820653,83.0812642491312,86.48593787235482
325.0,86.81181831465143,85.35286653025108,88.34793296841973,86.32767605807275,82.71719009903332,86.27932635185222
335.0,86.62686131635947,85.08080531753892,88.26302220869796,86.19773589833075,82.3175276248199,86.1057603567009
345.0,86.5433791040818,84.76906249825042,88.36302220869796,86.29773589833077,81.75500041121182,86.04903470699298
355.0,86.58562071131368,84.62402288019032,88.46302220869795,86.48601912408203,81.45127680997477,86.09049778656808
365.0,86.7433791040818,84.90210061125862,88.58978947843707,86.78342541783529,81.55087608511933,86.28198705455374
375.0,86.48562071131366,84.66906249825043,88.48978947843706,86.86633475200348,81.41965995864577,86.16827862059472
387.0,86.12465006001771,83.99402620969572,88.26302220869796,86.4925441809642,81.13817826190028,85.81329041713487
400.0,85.82402288019031,83.36761791156249,88.13670387565135,86.23165948803339,80.48357525343042,85.52006159944965
412.0,85.547777470189,82.80626302253954,88.11286423307392,86.11132685261131,79.82948196923014,85.31918820850726
425.0,85.53192661007003,82.4399378221204,88.28228073190344,86.21957716325046,79.62826810513401,85.35723520248574
437.0,85.87941885507496,82.64027391899894,88.48228073190343,86.5371429423614,80.00230228343632,85.62651512717679
450.0,85.93192661007005,82.74027391899894,88.48228073190343,86.58491157472598,80.43405972847226,85.68421516753835
462.0,85.63192661007004,82.37706844383167,88.32152275615368,86.41006481623079,80.67080557101802,85.49566004448259
475.0,85.34031109435097,81.8698422398396,88.22152275615368,86.2578191003984,80.85387670904241,85.32492776276533
487.0,85.15155118219285,81.4090119932927,88.29555761536479,86.11763732815055,80.89205133193727,85.24529713636774
500.0,85.21605006712761,80.98001559321382,88.48744107712021,85.8099552370841,80.31410787505159,85.19075705634334
515.0,84.96976006385258,80.26241078729926,88.57819845464171,85.58258757853761,79.53146082117495,85.03100919066655
530.0,84.35707279382939,78.83806254499572,88.31759583412918,84.878491230886,78.57707047550078,84.49519162939954
545.0,83.94335859672948,78.25078355000873,87.97746976674246,84.26570449413943,77.63730411531199,84.03994981383677
560.0,83.65707279382941,78.0773794766709,87.81759583412918,83.8355102890571,77.09232135406779,83.78180275369554
580.0,83.5551258827549,77.76802583853281,87.89390010856538,83.57946112963923,76.3305558352627,83.7041703034829
600.0,83.41961735786033,77.07441532496318,87.99390010856538,83.5929460082914,75.94195602395683,83.68777789786029
615.0,82.8934780599643,75.6788420261636,87.91943854515925,83.2911349728003,75.43672760656268,83.4216764515378
630.0,82.13883486247475,73.92832597225801,87.69682170942899,82.82160731479225,74.25363227147623,82.98802575862057
650.0,81.83697244098254,72.64478903056457,87.85409935482848,82.98700446353409,72.9872720480054,83.0101810682381
670.0,81.82605370104154,71.71795352098947,88.15409935482847,83.57734941804067,73.48085805599383,83.30839895382731
690.0,81.12547778637526,71.296568933073,88.0577165102789,83.02330597465932,72.86617851160621,83.02074299393082
710.0,79.8780652901385,72.68008644393977,87.59934127430822,81.3487326011602,70.3738216227507,82.24500498365654
730.0,79.39516543667808,74.30179815505608,87.33004340547237,79.75379138369597,66.79889654971234,81.7837790063754
750.0,79.23850829020445,75.68667346313846,87.55367062605366,79.88350384171098,68.97309151932036,82.01691054564408
775.0,79.96808056263743,76.04777747018899,87.83273313018034,80.1538845653052,72.2536701028045,82.39072228156358
800.0,79.96280731764263,74.7676147005285,87.76397025711934,79.63587554323264,73.51496283324605,82.25890959179581
825.0,79.77069774874148,74.1351971343816,87.60994110621621,79.11360013732042,73.4245860292914,82.04699736750598
850.0,79.37562451247274,73.5032789665786,87.35367062605364,79.48220793248332,71.84165763626767,81.79990970732193
875.0,77.93375582689124,71.05639338117922,86.62043998209485,79.49609279958955,70.59287164299228,81.03561954793781
900.0,76.05872075638904,65.49716655754168,86.1022700126865,78.83711150499887,72.15371403107432,80.36964409666525
925.0,75.75535621964629,65.98255721705893,86.11498492225944,78.47354422134102,72.53464947874946,80.32355558157346
950.0,74.78282296352451,69.31314785083555,86.13004340547236,79.3014703531962,73.1105007715534,80.44880735777507
975.0,73.20478013080489,70.69599334256131,85.71498492225942,79.11839777920007,73.8518410925507,80.09772043766866
1000.0,72.84224127366683,69.17684932245187,85.62444434547359,78.82575604612845,73.37739452488644,79.91859045296812
1030.0,73.78341914028564,73.54444727775844,85.73273313018035,79.5713215649941,73.78859638268975,80.29697635234369
1060.0,73.5171087474077,72.99226079682244,85.87137020802237,80.46948594694386,73.92346708485381,80.53061475751662
1090.0,72.44086686820485,72.7781241214659,85.84386068397745,80.9112733148397,74.95855392654873,80.60863021062868
1120.0,72.71973980334207,73.01669986898465,86.14647396459198,81.49620498313969,76.26522574127206,81.03082531902744
1150.0,73.34645155666634,74.27985610028615,86.37061818213255,82.26117973870514,77.09733235250609,81.47082851138471
1180.0,73.00919219475188,73.56922831838513,86.11064906002535,82.44476640555719,76.99947582518918,81.31500334115478
1220.0,72.35088160839972,72.43129658091483,85.72451076299085,82.8899757680994,77.8432505949898,81.23013757115477
1250.0,71.3124911003006,72.09290048132266,85.846473964592,82.5877247445819,77.7796321153015,81.1755648150352
1280.0,67.48436083440538,70.50909695424626,86.11943854515926,82.60951823847476,78.18713447959782,81.2988181237688
1320.0,70.53307386067478,70.74076611246026,86.57329635953,83.36181870374948,78.66216000919805,81.86278764298784
1360.0,72.9933777875177,71.84731041587816,86.59159603283281,83.29357952502235,78.79041506012031,81.93458016203833
1400.0,71.71650788351916,68.61411426297741,86.59774514287624,81.71797574514241,76.88846791810161,81.31194174158136
1450.0,71.32082386906059,69.13085868499842,86.7342859273597,80.44798780799157,75.26193443327672,81.05604120605152
1500.0,71.93617001023087,69.26978749464,86.594354360379,79.2894402201401,73.06485972443289,80.68723310120446
1550.0,73.26881392250424,68.94772637191845,86.23066649807183,78.76219726052962,72.70432336182208,80.35620261828323
1600.0,72.77065908603812,67.9247663912199,86.24267737966203,79.05354212232402,70.61679300998148,80.31858924012367
1650.0,72.08269118397239,66.31292147505155,85.9957225568489,78.97186579536024,68.56584641918222,80.03680106465566
1700.0,71.07996686486491,64.88030014906023,86.02444434547361,79.21568341981988,68.4517179246125,80.05808530698906
1750.0,71.1277483077306,62.636227965077396,86.30742563441031,80.21108055708743,70.5659265287426,80.48038938962904
1800.0,72.33769582685399,64.07316259335333,86.26883435857073,81.10945820455309,71.2058887775587,80.6857216981682
1850.0,73.23719582329123,65.75968765751952,85.90914203395548,81.31282647873681,71.5363773328199,80.52496843219001
1900.0,72.44662146918066,65.42827014127509,85.84246090650551,81.43897590103204,72.42164678178891,80.5055605767802
1950.0,71.70649147696504,65.17988114828238,86.05372763770983,81.95921475587902,72.67526834432753,80.76782453371717
2000.0,72.97605332915023,62.003179468759285,86.62200208683515,81.9965656312977,70.96064628789995,81.15063349789772
2060.0,73.42400056192629,58.12829407583898,87.15893488278383,82.14554684652603,70.70930613595296,81.57264650843733
2120.0,72.64862475123736,60.93362312711825,86.8074256344103,81.22931684832035,70.51910643765791,81.0929439553701
2180.0,71.75841955270155,64.04134480493572,86.61634090397614,80.79336626931011,69.82214346958172,80.83488482254104
2240.0,71.88106340771654,65.45218291685462,86.71634090397615,80.25879157269172,69.53455693527796,80.81744805126161
2300.0,72.1330051888868,65.1306372115257,86.7957225568489,79.81833573602272,69.06972573337562,80.80435071906172
2360.0,72.55971619295472,64.65064830539744,86.68508893535773,79.78605718447925,68.02059732248806,80.70858781778054
2400.0,72.00073860353142,63.1433585967295,86.8145029093607,79.92169533366847,68.27874581650397,80.81409178480187
2500.0,71.33397630797717,62.49878207790722,87.18911565826915,80.90844319769168,69.20877007612732,81.27408001963018
2580.0,71.7534210798524,65.31920190129964,87.34934081164721,81.04325890806088,69.13200947934553,81.44192178031771
2650.0,70.4126622798855,66.80253442374143,87.7022700126865,81.81663704714994,70.31805081081446,81.86184360709007
2720.0,69.33970766011669,65.50435722916004,87.80227001268649,82.21491473113471,70.85849702348503,82.00703427776146
2800.0,68.61274025341363,65.42200786988467,87.6820384452205,81.88676862881022,70.50685098905628,81.83447729103489
2900.0,68.4478717189482,67.2303058222978,87.60497698808663,82.20154866826567,71.20426034972458,81.86160983460947
3000.0,65.71153393592445,65.09823017486622,87.53273313018035,81.98643935246963,71.27965606645056,81.73173095353951
3070.0,66.08176167332898,64.8489267654145,87.15367062605365,81.46562555258133,70.22329260542071,81.31629792360131
3150.0,65.79813815129897,65.20594937007446,87.16673324937723,82.15192602378522,70.58049354047546,81.48282223052544
3250.0,65.07572413006145,64.33804353322513,87.05130512239987,81.982286930916,70.24861689043838,81.34501968724602
3350.0,65.35298405175524,64.60943420485445,87.02353715836374,81.8546537309352,70.88119282463869,81.30818376515569
