Freq,Floor Bounce,Ceiling Bounce,Front Wall Bounce,Side Wall Bounce,Rear Wall Bounce,Total Early Reflection
22.4,-5.374630741420674,-7.006185958229139,0.41989942764197963,-0.9693064875933146,-0.7017067324718766,-1.8820864828720119
23.0,-4.814685321810657,-7.0324795323622595,2.5042388934278677,0.8374734493581855,1.0185989932354005,-0.19080762738119006
23.6,-3.890906762475595,-6.71655939166601,5.555023344664789,2.4294111953109905,3.4631129653488415,2.1399489588447693
24.0,-0.3093760455929271,-2.519518675735526,8.43556056464547,5.666039051224544,6.680119020685424,5.265628906254392
25.0,2.822793575507717,1.6234527278021744,10.413514838275603,8.88381165332936,9.482365439631792,7.9207908809714525
25.8,5.501856821100262,5.679880525414717,12.302843723514655,11.867783260757307,12.51726122592305,10.60461383487214
26.5,7.701234077558837,10.449809344460618,14.726285293042253,15.2332077824544,16.530039076564435,13.98003559009095
27.2,11.848271180208286,14.642956392769037,20.454535402903787,19.45465169353642,20.43404945794211,18.502482795906218
28.0,15.979601214334593,17.716590626927825,25.504492458748672,22.860131198121678,23.311685588649112,22.36279948339225
29.0,19.90937829065055,20.66136837622767,30.724143163229257,26.17184641526984,26.207292418027066,26.488627485278556
30.0,23.71488522805643,22.59148392197821,31.735108282280578,27.35111789977873,26.237201254890692,27.59184345056184
30.7,25.031438254676942,22.182398607607695,29.669718638502445,27.57541983791762,26.486464733734636,26.862909001458206
31.5,26.08638307732309,22.289595285611966,30.159946417259675,29.159298372970852,28.674159690178186,28.026309165295856
32.5,26.585314678189377,22.793468523607544,31.735278892113,31.73248689097838,32.11494304256905,30.215689601886112
33.5,29.231841517337784,26.61721049921988,33.079216207341744,33.37132766685056,33.546413539285254,31.911668864260946
34.5,31.82469792087045,30.727473329422452,33.98667024488731,34.81481336866457,34.63961549641098,33.482840154365846
35.5,34.09193530302795,35.06560861109915,34.51845576356743,36.01130659456231,35.69906710955303,35.13548633853782
36.5,37.35471715126636,38.629340774416534,36.73768013293386,37.80443889292516,37.23975326177057,37.60091747270894
37.5,39.90915309531945,40.40390692468429,40.376454268415245,40.02502240805052,39.27765326511101,40.017217416489814
38.7,42.45917873856524,42.25906750320999,47.43927057409641,44.379978017957114,43.84918241725319,44.52001073625621
40.0,46.441652881644956,47.074040840940256,50.57692812128346,48.85348580074873,47.7900007880001,48.40325606965439
41.2,50.732095853145466,51.67559328521992,52.15892322915494,51.31422036573983,50.61365048203439,51.33765655485459
42.5,50.38493492460847,51.570544308948286,49.987043215692665,49.21170531546676,48.542170836499025,50.06400470487185
43.7,48.61406839527001,50.490752786535325,51.724853851961996,49.58896245525153,48.44850579764818,49.95048097071296
45.0,48.85065109639629,50.70574923004847,53.695459412537616,50.793179014112496,49.76619418499732,51.09489114904633
46.2,52.84786829224299,53.61659062692783,54.72565415374186,53.49376298661332,53.00638633060319,53.59023620828509
47.5,55.08888377963456,55.64415774934852,55.0465111455357,55.4357019354602,55.42715689301775,55.33441184592763
48.7,56.34797355033572,56.777750580355416,58.448985445565626,57.33676584207123,57.070802885888355,57.256181460644314
50.0,57.95776478047091,58.22175187817356,64.37940364309205,58.744667929440624,59.36411262174596,60.52526950764539
51.5,61.956259994410914,61.57710466008848,64.97930597739216,62.17213952562875,61.55448060413133,62.663935039688226
53.0,65.51172846437379,64.6840783937255,66.03683242680488,65.05556925650905,63.87496608876728,65.09383116190159
54.5,67.58219671845801,67.24136150423587,68.27887394731798,67.18984673992513,65.89096229835503,67.30384266344224
56.0,69.66839968904115,69.50542400732661,70.41271901696445,69.27879404212254,68.01387169339759,69.44336102342464
58.0,72.24415774934853,72.10231994589775,72.7967387785547,71.59783747007727,70.47976046989261,71.91158932705396
60.0,74.43663575667186,74.33746771551316,74.83502122931326,73.69259178405665,72.71137269557562,74.06336529870437
61.5,76.61007799780292,76.37314211136083,76.86138002358113,75.8356023633106,75.00439022552973,76.18525868096255
63.0,78.57783080594571,78.50542400732661,78.77569713721815,77.87253248132386,77.0661249315632,78.2026801943156
65.0,80.40542400732662,80.46845083805431,80.60466541105421,79.78881208402049,78.9919091237872,80.09154918304421
67.0,81.77001488257477,81.86845083805431,82.21609718937367,81.37680320017617,80.59818521612914,81.60000529189834
69.0,83.00306957104252,83.00306957104252,83.38786512280336,82.69448290397311,81.94603066524212,82.83303318237463
71.0,83.94044167945492,83.96845083805434,84.31871865150549,83.6861952795127,83.16335899125059,83.83207359551028
73.0,84.60306957104251,84.66769521305294,84.94611540654961,84.42294550966768,84.21554862606659,84.57797572212326
75.0,85.23513059177984,85.36769521305294,85.5311168409873,85.0616593883022,85.0628353799326,85.2554707844441
77.5,85.76769521305295,85.93358982687997,85.98684446163055,85.60137091259008,85.76067382819829,85.81220259686496
80.0,86.20076749445562,86.43358982687998,86.3861845050195,86.10046051294918,86.39787731592084,86.30570970493976
82.5,86.50076749445563,86.8,86.64313939533781,86.5,86.86743659946386,86.66489447680502
85.0,86.70076749445562,87.0,86.84313939533783,86.7201850554159,87.2016762988999,86.8972383508112
87.5,86.80076749445561,87.06692185116049,87.04379075419729,86.8806459777859,87.38292802061576,87.0396799723849
90.0,86.93435140868502,87.20000000000002,87.17166275391892,87.02111243765535,87.56382539418775,87.18363199019132
92.5,87.06845083805433,87.2669218511605,87.24379075419728,87.06074062498236,87.71862513434544,87.2784250777659
95.0,87.16769521305294,87.40076749445562,87.3437907541973,87.10046051294917,87.79251770680652,87.36789738102686
97.5,87.30076749445563,87.53358982687998,87.51508314243884,87.2206434330808,87.79209817592493,87.47707588565174
100.0,87.40076749445562,87.60076749445562,87.6288071567453,87.28156054014522,87.58534609056821,87.50154528857334
103.0,87.43435140868503,87.63358982687997,87.65742449135814,87.36258877740951,87.32423412765039,87.48463415212021
106.0,87.43513059177982,87.63513059177984,87.7,87.36395064819496,87.08778471326605,87.44978012680708
109.0,87.46845083805432,87.56845083805433,87.70065786069426,87.28849735609958,86.76048566141824,87.36935653371397
112.0,87.56845083805433,87.66845083805433,87.72880715674529,87.23029550491238,86.52209177746815,87.36565665174203
115.0,87.46845083805432,87.50306957104252,87.6288071567453,87.1288583447103,86.22837447789739,87.22002099616279
118.0,87.40306957104252,87.40306957104252,87.6288071567453,87.10920611180407,86.10207975725609,87.16112492083239
122.0,87.23513059177982,87.33513059177983,87.55742449135815,87.06939747046668,86.10764852904998,87.08870812907986
125.0,87.16845083805433,87.30076749445563,87.52880715674529,87.00920611180408,86.1592791149475,87.05769498110469
128.0,87.10076749445561,87.16845083805433,87.45742449135815,86.98751894170378,86.31679415091745,87.02223252980667
132.0,87.06845083805433,87.16845083805433,87.4,86.90598456990742,86.45352543781009,87.01063836189796
136.0,87.00306957104252,87.06845083805433,87.37166275391891,86.88526041028544,86.51246256704604,86.97707723835356
140.0,87.03663575667186,87.06845083805433,87.38684446163055,86.8467367724147,86.50909487219046,86.97907227762052
145.0,87.0404416794549,87.00306957104252,87.41508314243885,86.75034056676337,86.39069055281055,86.93311789080366
150.0,87.07449351030438,87.00076749445562,87.54379075419729,86.67348189285664,86.2054654617113,86.92222129688173
155.0,87.0404416794549,86.87387961222818,87.51508314243884,86.59805014496484,85.86648098602913,86.8123269966706
160.0,87.10690501035458,86.84283030471974,87.50229476693693,86.56221459237072,85.52204621707352,86.75675236060752
165.0,87.14576719438469,86.81227178315618,87.63175513861907,86.63945318626013,85.51573962196896,86.80390479515609
170.0,87.1760917544922,86.8457671943847,87.73175513861906,86.70352961026536,85.4049986879685,86.83775104851563
175.0,87.2122717831562,86.9760917544922,87.7874892989204,86.80352961026536,85.56158403811321,86.92750773132472
180.0,87.24283030471975,87.04283030471974,87.77397253892372,86.83357366274146,85.99311775701076,87.0155826390995
185.0,87.2122717831562,86.91227178315619,87.80229476693694,86.8568801862013,86.31989066445871,87.04804561223708
190.0,87.18219967332305,86.81227178315618,87.87525122642457,86.79956573618382,86.4104205948735,87.04473676273264
195.0,87.11916705502752,86.61227178315617,87.84865957364794,86.54695323502061,86.31812456871258,86.92452579327663
200.0,86.98982856673473,86.38982856673472,87.84675150375354,86.32669501426713,85.97958075767094,86.75785684792989
206.0,86.96096514237182,86.2096325668162,87.97848478147016,86.17202552445372,85.35777792176683,86.62741214945298
212.0,87.09897445130926,86.24898359150842,87.97848478147016,86.03631489701507,84.44121104607953,86.51602888559816
218.0,87.13752777300029,86.28219812790056,88.04865957364794,86.09607828419952,83.49012532215716,86.45538111375791
224.0,87.09897445130926,86.24898359150842,88.01998423401443,86.13631489701508,83.12171179817119,86.40323114741963
230.0,86.97082970284298,86.04898359150842,87.95000634017072,86.0508253968645,83.13425900298192,86.29975053202912
236.0,86.87082970284298,85.88888547155003,87.83924275721992,85.75486813212619,83.00969185775995,86.14646435398213
240.0,86.8096325668162,85.76194867563764,87.80914589305827,85.64102466843933,82.76760334795705,86.05531207239314
250.0,86.87082970284298,85.77641629732153,87.85251964068127,85.69772752574556,82.67053941512494,86.08699697334947
258.0,87.03257218046558,86.06194867563765,87.97525122642458,86.01452371514131,82.71393537272317,86.27858611109556
265.0,87.23257218046558,86.32179738688896,88.11637928414999,86.3651148961138,82.77785003366958,86.48979951126249
272.0,87.26096514237182,86.38219812790055,88.18748929892043,86.5505575565539,82.98493474175974,86.58297441908559
280.0,87.36096514237182,86.48219812790055,88.28748929892042,86.72753601492295,83.45060148710338,86.73144178666811
290.0,87.27082970284299,86.32179738688896,88.33108675663175,86.6732974141383,83.60298901826219,86.69728666249098
300.0,87.0489835915084,85.87641629732153,88.26035311823196,86.44102466843933,83.3241779421314,86.47265177415784
307.0,86.8552196930838,85.62526453928848,88.16035311823197,86.34751170738177,82.96379444635569,86.3018006033733
315.0,86.59506458035828,85.2252645392885,87.96035311823195,86.14751170738178,82.63822627444767,86.0428998976713
325.0,86.36878033996791,84.90982855556756,87.9048949937362,85.88463808338923,82.2741521243498,85.8362883771687
335.0,86.18382334167595,84.6377673428554,87.81998423401444,85.75469792364723,81.87448965013638,85.66272238201738
345.0,86.10034112939827,84.3260245235669,87.91998423401444,85.85469792364725,81.3119624365283,85.60599673230946
355.0,86.14258273663016,84.1809849055068,88.01998423401443,86.04298114939851,81.00823883529125,85.64745981188456
365.0,86.30034112939828,84.4590626365751,88.14675150375355,86.34038744315177,81.10783811043581,85.83894907987022
375.0,86.04258273663014,84.2260245235669,88.04675150375354,86.42329677731996,80.97662198396225,85.7252406459112
387.0,85.6816120853342,83.5509882350122,87.81998423401444,86.04950620628068,80.69514028721676,85.37025244245135
400.0,85.38098490550679,82.92457993687897,87.69366590096783,85.78862151334987,80.0405372787469,85.07702362476613
412.0,85.10473949550548,82.36322504785602,87.6698262583904,85.6682888779278,79.38644399454662,84.87615023382374
425.0,85.08888863538651,81.99689984743688,87.83924275721992,85.77653918856694,79.18523013045049,84.91419722780222
437.0,85.43638088039144,82.19723594431542,88.03924275721991,86.09410496767788,79.5592643087528,85.18347715249327
450.0,85.48888863538653,82.29723594431542,88.03924275721991,86.14187360004246,79.99102175378874,85.24117719285483
462.0,85.18888863538652,81.93403046914815,87.87848478147016,85.96702684154727,80.2277675963345,85.05262206979907
475.0,84.89727311966745,81.42680426515608,87.77848478147015,85.81478112571487,80.41083873435889,84.8818897880818
487.0,84.70851320750933,80.96597401860917,87.85251964068127,85.67459935346703,80.44901335725375,84.80225916168422
500.0,84.77301209244409,80.5369776185303,88.04440310243669,85.36691726240058,79.87106990036807,84.74771908165982
515.0,84.52672208916906,79.81937281261574,88.13516047995819,85.13954960385409,79.08842284649143,84.58797121598303
530.0,83.91403481914587,78.3950245703122,87.87455785944566,84.43545325620248,78.13403250081726,84.05215365471602
545.0,83.50032062204596,77.80774557532521,87.53443179205894,83.82266651945591,77.19426614062847,83.59691183915325
560.0,83.2140348191459,77.63434150198738,87.37455785944566,83.39247231437358,76.64928337938427,83.33876477901202
580.0,83.11208790807137,77.32498786384929,87.45086213388186,83.13642315495571,75.88751786057918,83.26113232879938
600.0,82.97657938317681,76.63137735027966,87.55086213388186,83.14990803360789,75.49891804927331,83.24473992317677
615.0,82.45044008528077,75.23580405148007,87.47640057047573,82.84809699811677,74.99368963187916,82.97863847685429
630.0,81.69579688779123,73.48528799757449,87.25378373474547,82.37856934010873,73.81059429679271,82.54498778393705
650.0,81.39393446629902,72.20175105588105,87.41106138014496,82.54396648885057,72.54423407332187,82.56714309355458
670.0,81.38301572635802,71.27491554630595,87.71106138014495,83.13431144335715,73.03782008131031,82.86536097914379
690.0,80.68243981169174,70.85353095838948,87.61467853559537,82.5802679999758,72.42314053692269,82.5777050192473
710.0,79.43502731545497,72.23704846925625,87.1563032996247,80.90569462647667,69.93078364806718,81.80196700897302
730.0,78.95212746199456,73.85876018037256,86.88700543078885,79.31075340901245,66.35585857502882,81.34074103169188
750.0,78.79547031552093,75.24363548845494,87.11063265137014,79.44046586702746,68.53005354463684,81.57387257096056
775.0,79.5250425879539,75.60473949550547,87.38969515549682,79.71084659062168,71.81063212812099,81.94768430688006
800.0,79.51976934295911,74.32457672584498,87.32093228243582,79.19283756854912,73.07192485856253,81.8158716171123
825.0,79.32765977405796,73.69215915969808,87.16690313153269,78.6705621626369,72.98154805460788,81.60395939282246
850.0,78.93258653778922,73.06024099189509,86.91063265137012,79.0391699577998,71.39861966158415,81.35687173263841
875.0,77.49071785220772,70.6133554064957,86.17740200741133,79.05305482490603,70.14983366830876,80.5925815732543
900.0,75.61568278170552,65.05412858285816,85.65923203800298,78.39407353031535,71.7106760563908,79.92660612198173
925.0,75.31231824496277,65.5395192423754,85.67194694757592,78.0305062466575,72.09161150406594,79.88051760688994
950.0,74.33978498884099,68.87010987615203,85.68700543078884,78.85843237851267,72.66746279686988,80.00576938309155
975.0,72.76174215612137,70.25295536787779,85.2719469475759,78.67535980451655,73.40880311786718,79.65468246298514
1000.0,72.39920329898331,68.73381134776835,85.18140637079007,78.38271807144493,72.93435655020292,79.4755524782846
1030.0,73.34038116560212,73.10140930307492,85.28969515549683,79.12828359031057,73.34555840800623,79.85393837766017
1060.0,73.07407077272418,72.54922282213892,85.42833223333885,80.02644797226034,73.48042911017029,80.0875767828331
1090.0,71.99782889352133,72.33508614678237,85.40082270929393,80.46823534015618,74.51551595186521,80.16559223594516
1120.0,72.27670182865855,72.57366189430113,85.70343598990846,81.05316700845617,75.82218776658854,80.58778734434392
1150.0,72.90341358198282,73.83681812560263,85.92758020744903,81.81814176402162,76.65429437782257,81.02779053670119
1180.0,72.56615422006836,73.12619034370161,85.66761108534183,82.00172843087367,76.55643785050566,80.87196536647126
1220.0,71.9078436337162,71.98825860623131,85.28147278830733,82.44693779341588,77.40021262030628,80.78709959647125
1250.0,70.86945312561708,71.64986250663914,85.40343598990847,82.14468676989839,77.33659414061798,80.73252684035168
1280.0,67.04132285972186,70.06605897956274,85.67640057047574,82.16648026379124,77.7440965049143,80.85578014908528
1320.0,70.09003588599126,70.29772813777674,86.13025838484648,82.91878072906596,78.21912203451453,81.41974966830432
1360.0,72.55033981283418,71.40427244119464,86.14855805814929,82.85054155033883,78.34737708543679,81.49154218735481
1400.0,71.27346990883564,68.17107628829389,86.15470716819272,81.27493777045889,76.44542994341809,80.86890376689784
1450.0,70.87778589437707,68.6878207103149,86.29124795267619,80.00494983330805,74.8188964585932,80.613003231368
1500.0,71.49313203554735,68.82674951995648,86.15131638569548,78.84640224545657,72.62182174974937,80.24419512652094
1550.0,72.82577594782072,68.50468839723493,85.7876285233883,78.3191592858461,72.26128538713856,79.91316464359971
1600.0,72.3276211113546,67.48172841653638,85.7996394049785,78.6105041476405,70.17375503529796,79.87555126544015
1650.0,71.63965320928887,65.86988350036803,85.55268458216538,78.52882782067672,68.1228084444987,79.59376308997214
1700.0,70.6369288901814,64.43726217437671,85.58140637079009,78.77264544513636,68.00867994992898,79.61504733230554
1750.0,70.68471033304708,62.193189990393876,85.86438765972679,79.76804258240391,70.12288855405907,80.03735141494552
1800.0,71.89465785217047,63.63012461866981,85.82579638388721,80.66642022986957,70.76285080287518,80.24268372348467
1850.0,72.79415784860771,65.316649682836,85.46610405927196,80.86978850405329,71.09333935813638,80.08193045750649
1900.0,72.00358349449714,64.98523216659157,85.39942293182199,80.99593792634852,71.97860880710539,80.06252260209668
1950.0,71.26345350228152,64.73684317359886,85.6106896630263,81.5161767811955,72.23223036964401,80.32478655903365
2000.0,72.53301535446671,61.560141494075765,86.17896411215163,81.55352765661418,70.51760831321643,80.7075955232142
2060.0,72.98096258724277,57.68525610115546,86.7158969081003,81.70250887184251,70.26626816126944,81.12960853375381
2120.0,72.20558677655384,60.49058515243473,86.36438765972677,80.78627887363683,70.07606846297439,80.64990598068658
2180.0,71.31538157801803,63.5983068302522,86.17330292929262,80.35032829462659,69.3791054948982,80.39184684785752
2240.0,71.43802543303302,65.0091449421711,86.27330292929263,79.8157535980082,69.09151896059444,80.37441007657809
2300.0,71.68996721420328,64.68759923684217,86.35268458216538,79.3752977613392,68.6266877586921,80.3613127443782
2360.0,72.1166782182712,64.20761033071392,86.2420509606742,79.34301920979573,67.57755934780454,80.26554984309702
2400.0,71.5577006288479,62.70032062204598,86.37146493467718,79.47865735898495,67.83570784182045,80.37105381011835
2500.0,70.89093833329365,62.0557441032237,86.74607768358563,80.46540522300816,68.7657321014438,80.83104204494666
2580.0,71.31038310516888,64.87616392661612,86.90630283696369,80.60022093337736,68.688971504662,80.9988838056342
2650.0,69.96962430520198,66.35949644905791,87.25923203800298,81.37359907246642,69.87501283613094,81.41880563240655
2720.0,68.89666968543317,65.06131925447652,87.35923203800297,81.77187675645119,70.41545904880151,81.56399630307794
2800.0,68.16970227873011,64.97896989520115,87.23900047053698,81.4437306541267,70.06381301437276,81.39143931635137
2900.0,68.00483374426469,66.78726784761427,87.16193901340311,81.75851069358215,70.76122237504106,81.41857185992595
3000.0,65.26849596124093,64.6551922001827,87.08969515549683,81.54340137778611,70.83661809176704,81.28869297885599
3070.0,65.63872369864546,64.40588879073098,86.71063265137013,81.02258757789781,69.78025463073719,80.87325994891779
3150.0,65.35510017661545,64.76291139539094,86.72369527469371,81.7088880491017,70.13745556579194,81.03978425584192
3250.0,64.63268615537793,63.89500555854161,86.60826714771635,81.53924895623248,69.80557891575486,80.9019817125625
3350.0,64.90994607707172,64.16639623017093,86.58049918368022,81.41161575625168,70.43815484995517,80.86514579047217
