Freq "Floor Bounce"
22.4 -4.931592766737154
23.0 -4.371647347127137
23.6 -3.447868787792075
24.0 0.13366192909059293
25.0 3.265831550191237
25.8 5.944894795783782
26.5 8.144272052242357
27.2 12.291309154891806
28.0 16.422639189018113
29.0 20.35241626533407
30.0 24.15792320273995
30.7 25.474476229360462
31.5 26.52942105200661
32.5 27.028352652872897
33.5 29.674879492021304
34.5 32.26773589555397
35.5 34.53497327771147
36.5 37.79775512594988
37.5 40.352191070002974
38.7 42.90221671324876
40.0 46.884690856328476
41.2 51.17513382782899
42.5 50.82797289929199
43.7 49.05710636995353
45.0 49.29368907107981
46.2 53.29090626692651
47.5 55.53192175431808
48.7 56.79101152501924
50.0 58.40080275515443
51.5 62.399297969094434
53.0 65.95476643905731
54.5 68.02523469314153
56.0 70.11143766372467
58.0 72.68719572403205
60.0 74.87967373135538
61.5 77.05311597248644
63.0 79.02086878062923
65.0 80.84846198201014
67.0 82.21305285725829
69.0 83.44610754572604
71.0 84.38347965413844
73.0 85.04610754572603
75.0 85.67816856646336
77.5 86.21073318773647
80.0 86.64380546913914
82.5 86.94380546913915
85.0 87.14380546913914
87.5 87.24380546913913
90.0 87.37738938336854
92.5 87.51148881273785
95.0 87.61073318773646
97.5 87.74380546913915
100.0 87.84380546913914
103.0 87.87738938336855
106.0 87.87816856646334
109.0 87.91148881273784
112.0 88.01148881273785
115.0 87.91148881273784
118.0 87.84610754572604
122.0 87.67816856646334
125.0 87.61148881273785
128.0 87.54380546913913
132.0 87.51148881273785
136.0 87.44610754572604
140.0 87.47967373135538
145.0 87.48347965413842
150.0 87.5175314849879
155.0 87.48347965413842
160.0 87.5499429850381
165.0 87.58880516906821
170.0 87.61912972917573
175.0 87.65530975783972
180.0 87.68586827940327
185.0 87.65530975783972
190.0 87.62523764800657
195.0 87.56220502971104
200.0 87.43286654141825
206.0 87.40400311705534
212.0 87.54201242599278
218.0 87.5805657476838
224.0 87.54201242599278
230.0 87.4138676775265
236.0 87.3138676775265
240.0 87.25267054149973
250.0 87.3138676775265
258.0 87.4756101551491
265.0 87.6756101551491
272.0 87.70400311705534
280.0 87.80400311705534
290.0 87.71386767752651
300.0 87.49202156619192
307.0 87.29825766776732
315.0 87.0381025550418
325.0 86.81181831465143
335.0 86.62686131635947
345.0 86.5433791040818
355.0 86.58562071131368
365.0 86.7433791040818
375.0 86.48562071131366
387.0 86.12465006001771
400.0 85.82402288019031
412.0 85.547777470189
425.0 85.53192661007003
437.0 85.87941885507496
450.0 85.93192661007005
462.0 85.63192661007004
475.0 85.34031109435097
487.0 85.15155118219285
500.0 85.21605006712761
515.0 84.96976006385258
530.0 84.35707279382939
545.0 83.94335859672948
560.0 83.65707279382941
580.0 83.5551258827549
600.0 83.41961735786033
615.0 82.8934780599643
630.0 82.13883486247475
650.0 81.83697244098254
670.0 81.82605370104154
690.0 81.12547778637526
710.0 79.8780652901385
730.0 79.39516543667808
750.0 79.23850829020445
775.0 79.96808056263743
800.0 79.96280731764263
825.0 79.77069774874148
850.0 79.37562451247274
875.0 77.93375582689124
900.0 76.05872075638904
925.0 75.75535621964629
950.0 74.78282296352451
975.0 73.20478013080489
1000.0 72.84224127366683
1030.0 73.78341914028564
1060.0 73.5171087474077
1090.0 72.44086686820485
1120.0 72.71973980334207
1150.0 73.34645155666634
1180.0 73.00919219475188
1220.0 72.35088160839972
1250.0 71.3124911003006
1280.0 67.48436083440538
1320.0 70.53307386067478
1360.0 72.9933777875177
1400.0 71.71650788351916
1450.0 71.32082386906059
1500.0 71.93617001023087
1550.0 73.26881392250424
1600.0 72.77065908603812
1650.0 72.08269118397239
1700.0 71.07996686486491
1750.0 71.1277483077306
1800.0 72.33769582685399
1850.0 73.23719582329123
1900.0 72.44662146918066
1950.0 71.70649147696504
2000.0 72.97605332915023
2060.0 73.42400056192629
2120.0 72.64862475123736
2180.0 71.75841955270155
2240.0 71.88106340771654
2300.0 72.1330051888868
2360.0 72.55971619295472
2400.0 72.00073860353142
2500.0 71.33397630797717
2580.0 71.7534210798524
2650.0 70.4126622798855
2720.0 69.33970766011669
2800.0 68.61274025341363
2900.0 68.4478717189482
3000.0 65.71153393592445
3070.0 66.08176167332898
3150.0 65.79813815129897
3250.0 65.07572413006145
3350.0 65.35298405175524
3450.0 64.05271404462665
3550.0 66.2371314472426
3650.0 67.72866279276752
3750.0 67.68155263973667
3870.0 67.6490933741115
4000.0 66.68817797394962
4120.0 64.78650013623319
4250.0 63.179575930877164
4370.0 63.52403404725395
4500.0 63.25232685257747
4620.0 64.26483850152324
4750.0 66.09281421344093
4870.0 64.88384813355184
5000.0 66.27611268952548
5150.0 67.06966417153139
5300.0 68.51369527891788
5450.0 68.36673184197498
5600.0 65.33390038943932
5800.0 64.62861968770925
6000.0 63.62003958921865
6150.0 63.851548129624305
6300.0 64.26341331206025
6500.0 64.42787371309835
6700.0 64.00592577283182
6900.0 62.254499601869455
7100.0 59.98568569361559
7300.0 59.69028552417829
7500.0 59.921295431724545
7750.0 61.2208876990167
8000.0 61.983704794255246
8250.0 63.79587553003792
8500.0 66.90183474883939
8750.0 65.81264175676118
9000.0 63.47711704738852
9250.0 64.3658062966676
9500.0 64.88768043649627
9750.0 63.12086878062921
10000.0 60.05140731320127
10300.0 62.386186235777856
10600.0 64.74128798830439
10900.0 64.37116631176634
11200.0 64.29445521052948
11500.0 66.0695451287069
11800.0 65.20143064001341
12200.0 64.44332615852151
12500.0 61.96483396492293
12800.0 62.93413821068059
13200.0 61.46309445738781
13600.0 61.711069041245864
14000.0 63.026224264978666
14500.0 63.880627663578466
15000.0 63.189122591350284
15500.0 63.4729493862411
16000.0 61.069411531391424
16500.0 63.57417265157234
17000.0 61.663259580846486
17500.0 62.179048424519934
18000.0 60.693424072966124
18500.0 58.75270966993314
19000.0 57.2502441583308
19500.0 56.6940280385041
