Freq "Side Wall Bounce"
22.4 14.857109722773572
23.0 16.383980063099443
23.6 17.999337087151332
24.0 21.406078720850928
25.0 24.63522738308805
25.8 27.894537350717627
26.5 30.079384202614648
27.2 27.74250994028182
28.0 26.72521056441323
29.0 26.159510695964286
30.0 26.17302120313491
30.7 28.520584915063296
31.5 30.662475368136114
32.5 32.72127468041387
33.5 35.479004792583794
34.5 38.528273415471716
35.5 41.77106619851915
36.5 43.78048637450624
37.5 45.23639248334467
38.7 46.65984860201041
40.0 48.3339151066948
41.2 50.16333179599209
42.5 51.73026191300994
43.7 53.20929008891912
45.0 55.45649852555049
46.2 57.19372261618918
47.5 58.493722616189174
48.7 59.77261241168338
50.0 61.233346641076025
51.5 62.51242862770468
53.0 63.692795331815006
54.5 64.97261241168337
56.0 66.41242862770467
58.0 67.65233525758408
60.0 68.61242862770467
61.5 69.23289252371657
63.0 69.61475219694212
65.0 70.09835852621306
67.0 70.48135801053829
69.0 70.79973185190808
71.0 71.08135801053828
73.0 71.1666348027073
75.0 71.19285377994663
77.5 71.19285377994663
80.0 71.35720541743954
82.5 71.45464462403162
85.0 71.55464462403162
87.5 71.73732030210508
90.0 71.91437628566618
92.5 72.38779563902676
95.0 72.70343879363509
97.5 72.80572556147567
100.0 72.6606739401169
103.0 72.22955207392685
106.0 71.9290559922799
109.0 71.80339173711778
112.0 72.12905599227989
115.0 72.69884691300133
118.0 73.3373203021051
122.0 73.30203655282142
125.0 72.42179248996348
128.0 71.95388638692333
132.0 71.88434996254946
136.0 71.58922429226156
140.0 71.35288680987651
145.0 71.20161468921236
150.0 71.32860739136068
155.0 71.77619311218018
160.0 72.3270200308604
165.0 72.4436053276597
170.0 71.84820108714567
175.0 70.77430040548698
180.0 70.32306095057353
185.0 70.81661430068979
190.0 71.12062024261982
195.0 70.78328932872816
200.0 69.9207783430818
206.0 69.10429086101898
212.0 68.76777084963611
218.0 69.53559164599206
224.0 70.05511239503693
230.0 70.42254333620886
236.0 70.52254333620886
240.0 70.14537976801276
250.0 69.83141966440242
258.0 69.99432725456376
265.0 70.05511239503693
272.0 70.06504919633022
280.0 69.78718534492293
290.0 69.50802781278739
300.0 69.10460119489622
307.0 68.54170321643781
315.0 69.22067775335299
325.0 69.11014798502381
335.0 68.99983547917448
345.0 68.47876932997025
355.0 67.65548802960535
365.0 67.05383846223134
375.0 66.72151747364835
387.0 65.833047240876
400.0 64.49266508176642
412.0 64.43934272339919
425.0 64.03399516622315
437.0 63.38763866654823
450.0 64.30268405945145
462.0 63.56237960597582
475.0 63.006819532811264
487.0 63.11427601931655
500.0 62.45420491923261
515.0 61.50942308230387
530.0 62.100114584705324
545.0 61.69959309800862
560.0 60.326823216656024
580.0 59.158947819366205
600.0 58.21603227609128
615.0 58.27466025676762
630.0 59.13416898759829
650.0 58.40218275072955
670.0 55.36749518586967
690.0 53.284786072259976
710.0 56.068958455398985
730.0 61.43987220028558
750.0 64.79481534569591
775.0 64.66825665950739
800.0 64.54940741295903
825.0 64.56983312163216
850.0 63.596208977699746
875.0 63.99071286119455
900.0 64.97105575672035
925.0 65.19502208024072
950.0 66.44002413564405
975.0 66.997652912286
1000.0 67.98829460497643
1030.0 68.99497612616976
1060.0 68.81923509574577
1090.0 67.88288848789259
1120.0 67.12865594610409
1150.0 66.44930646932244
1180.0 65.91699933358335
1220.0 66.342741605525
1250.0 66.74151320616215
1280.0 66.73424453382341
1320.0 66.45638477658042
1360.0 67.08087851460745
1400.0 67.09107911886157
1450.0 67.52420411045846
1500.0 67.60208083365673
1550.0 67.53800221476715
1600.0 67.3827501645015
1650.0 67.12559359471487
1700.0 67.39475547485162
1750.0 67.5110778923021
1800.0 67.29100042167303
1850.0 67.24415846051215
1900.0 66.2363764280289
1950.0 64.8800719717353
2000.0 63.751958466722755
2060.0 63.152694500710425
2120.0 63.25185066684496
2180.0 63.829654496366615
2240.0 64.56359008074787
2300.0 64.81815546904971
2360.0 64.776015416327
2400.0 66.31101587710467
2500.0 67.73116285539044
2580.0 68.67308345064836
2650.0 69.76774226119969
2720.0 69.70242480899053
2800.0 69.25710136042063
2900.0 69.37267370146608
3000.0 69.37174294105219
3070.0 68.35928932025159
3150.0 66.88947425815383
3250.0 65.7601755551701
3350.0 65.19429194286337
3450.0 65.46134535072987
3550.0 66.80101520135241
3650.0 68.52608198246261
3750.0 70.10312064913552
3870.0 70.38395909307461
4000.0 69.25008809321756
4120.0 68.32810364689632
4250.0 67.27222439893195
4370.0 65.97065771720276
4500.0 64.99268884426056
4620.0 65.44192406695294
4750.0 66.50534511081659
4870.0 67.07202794536465
5000.0 68.45850649048278
5150.0 68.20292872084565
5300.0 66.09366822978609
5450.0 62.5835906743539
5600.0 63.66005827921654
5800.0 67.40468122666039
6000.0 68.7848530595834
6150.0 69.44147892255363
6300.0 70.34061701285798
6500.0 68.82245679633554
6700.0 63.81741857686947
6900.0 63.274865294925874
7100.0 67.39904480412423
7300.0 68.92884940884127
7500.0 68.00769439894711
7750.0 64.6576409114428
8000.0 63.825171095525874
8250.0 67.01434719435363
8500.0 67.71479599200927
8750.0 62.506906211645656
9000.0 61.70176745997483
9250.0 65.93968634236494
9500.0 66.97149950741252
9750.0 63.930375396541166
10000.0 63.010305842059836
10300.0 60.834858697804435
10600.0 60.3064363367789
10900.0 65.32651743404841
11200.0 66.36071243091232
11500.0 60.89196790236532
11800.0 63.949977090057445
12200.0 62.05691790135735
12500.0 58.70858669825583
12800.0 63.24225531159914
13200.0 61.43163624314005
13600.0 57.62987486098652
14000.0 60.27226909008128
14500.0 60.13266281290615
15000.0 62.14717410888707
15500.0 59.62513311772405
16000.0 64.54034684635488
16500.0 56.99033196345897
17000.0 56.39188855325456
17500.0 57.31239874044266
18000.0 58.86803645594644
18500.0 57.890506582570566
19000.0 54.79389570124344
19500.0 48.73557644401134
