Freq "On Axis"
20.5078 72.47714850746269
23.4375 77.5565485074627
26.3672 79.9709485074627
29.2969 81.55154850746268
32.2266 82.06154850746269
35.1562 82.7975485074627
38.0859 83.22554850746269
41.0156 84.07894850746267
43.9453 84.75294850746269
46.875 85.3462485074627
49.8047 85.95864850746268
52.7344 86.60424850746269
55.6641 87.1267485074627
58.5938 87.56814850746268
61.5234 87.88624850746267
64.4531 88.09304850746268
67.3828 88.22894850746269
70.3125 88.42514850746271
73.2422 88.6185485074627
76.1719 88.78884850746267
79.1016 88.98684850746268
82.0312 89.03024850746269
84.9609 89.05794850746268
87.8906 89.02514850746269
90.8203 88.73354850746269
93.75 88.95144850746269
96.6797 88.80734850746269
102.539 88.53454850746267
105.469 88.47584850746269
108.398 88.6524485074627
111.328 88.73114850746269
117.188 88.52324850746268
120.117 88.56374850746269
125.977 88.46864850746269
128.906 88.32274850746269
134.766 88.12544850746269
137.695 87.94704850746268
143.555 87.6671485074627
149.414 87.29724850746268
155.273 87.49764850746267
158.203 87.71464850746268
164.062 87.97054850746268
169.922 88.01794850746269
175.781 87.83514850746269
181.641 87.25244850746269
190.43 87.20674850746269
196.289 87.87154850746269
202.148 89.06964850746269
210.938 88.12014850746269
216.797 87.8767485074627
225.586 88.4555485074627
234.375 88.4336485074627
240.234 88.42204850746269
249.023 88.1287485074627
257.812 88.94254850746269
266.602 89.39014850746268
278.32 88.47454850746267
287.109 89.09374850746268
295.898 88.58274850746268
307.617 89.43944850746269
319.336 88.6935485074627
331.055 88.85634850746268
342.773 88.94094850746269
354.492 89.23864850746268
366.211 89.00784850746268
377.93 89.2860485074627
392.578 88.13774850746269
407.227 88.64354850746268
421.875 89.5565485074627
436.523 87.94864850746269
451.172 88.58574850746268
465.82 89.45384850746268
483.398 88.60544850746268
500.977 88.36324850746269
518.555 88.50364850746267
536.133 88.86844850746269
553.711 88.96914850746269
574.219 89.36944850746269
594.727 89.03884850746269
615.234 88.79244850746268
638.672 89.80084850746269
659.18 88.7331485074627
682.617 89.47654850746268
706.055 88.66664850746268
732.422 88.5308485074627
758.789 88.46714850746268
785.156 89.12344850746268
811.523 88.24544850746268
840.82 89.61394850746267
870.117 89.05714850746268
902.344 88.8956485074627
931.641 89.91754850746268
966.797 88.78224850746268
999.023 89.14774850746271
1034.18 89.88514850746269
1072.27 87.60524850746269
1110.35 87.39254850746269
1148.44 88.32634850746267
1189.45 89.19634850746269
1230.47 90.27604850746269
1274.41 89.22724850746269
1318.36 88.90944850746268
1365.23 88.21964850746271
1415.04 86.52004850746269
1464.84 87.61474850746269
1514.65 85.96694850746267
1570.31 86.98944850746268
1623.05 86.65824850746269
1681.64 85.81914850746269
1740.23 86.17064850746267
1801.76 86.76864850746269
1866.21 86.76494850746269
1930.66 85.8718485074627
2000.98 86.28064850746269
2071.29 87.55184850746268
2144.53 87.15794850746269
2217.77 87.04324850746268
2296.88 87.0788485074627
2378.91 88.37494850746269
2460.94 88.04344850746268
2548.83 88.73964850746269
2639.65 88.84394850746268
2733.4 88.5552485074627
2827.15 89.01024850746269
2926.76 88.5285485074627
3032.23 87.7786485074627
3137.7 88.02064850746268
3249.02 87.61894850746269
3363.28 87.1858485074627
3483.4 86.88014850746269
3606.45 86.72074850746269
3732.42 86.27004850746268
3864.26 86.54624850746269
3999.02 87.01924850746269
4139.65 86.87944850746268
4286.13 87.65294850746268
4438.48 87.90964850746269
4593.75 88.03564850746268
4757.81 88.14294850746269
4924.8 88.3643485074627
5097.66 88.12354850746267
5279.3 87.30224850746269
5463.87 87.2423485074627
5657.23 86.76654850746267
5856.45 87.31334850746269
6061.52 87.51624850746269
6275.39 87.1421485074627
6498.05 86.76334850746268
6726.56 86.34134850746268
6963.87 86.04564850746269
7209.96 85.80894850746269
7464.84 85.77414850746268
7728.52 85.7513485074627
8000.98 86.07754850746268
8282.23 86.86954850746268
8575.2 87.1715485074627
8876.95 87.18434850746269
9190.43 87.15694850746267
9512.7 87.3031485074627
9849.61 87.32184850746269
10195.3 87.49374850746268
10555.7 87.84844850746269
10927.7 88.1645485074627
11314.5 87.99254850746269
11712.9 87.7650485074627
12126.0 87.76994850746269
12553.7 87.92454850746269
12996.1 87.88244850746268
13453.1 87.80944850746269
13927.7 87.79274850746269
14419.9 87.78544850746269
14929.7 87.82044850746267
15454.1 88.15314850746269
15999.0 88.0137485074627
16564.5 87.67264850746268
17147.5 87.59604850746268
17753.9 87.48424850746268
18377.9 86.95624850746269
19028.3 85.94724850746267
19699.2 85.48654850746267
19998.0 84.9418485074627
