Freq "Sound Power DI"
22.4 40.89937822790259
23.0 40.92932648527673
23.6 41.01000037771371
24.0 41.03998434457395
25.0 41.101870678466724
25.8 41.16608535728278
26.5 41.24797159325814
27.2 41.32914074132492
28.0 41.44808586157001
29.0 41.610385461940695
30.0 41.773903812589595
30.7 41.957002570148205
31.5 42.1847130375599
32.5 42.30794417782809
33.5 42.351567568102894
34.5 42.29868145650761
35.5 42.148195901636825
36.5 41.96703573018088
37.5 41.83951647731777
38.7 41.69944499134647
40.0 41.61907389486717
41.2 41.57126405220727
42.5 41.510924934350314
43.7 41.51897782003934
45.0 41.523541093160006
46.2 41.54393874675803
47.5 41.540664978465486
48.7 41.57944937086398
50.0 41.640270310791976
51.5 41.68373517404682
53.0 41.77008149912879
54.5 41.8461900901419
56.0 41.991637931057255
58.0 42.100980061053306
60.0 42.26568272956426
61.5 42.39996761451877
63.0 42.41435949686014
65.0 42.329554103802636
67.0 42.130979206569904
69.0 42.01435174505711
71.0 41.94074798297508
73.0 41.90729222028057
75.0 41.88844177054803
77.5 41.972753008764315
80.0 42.03308937404094
82.5 42.13646434667503
85.0 42.2388803037981
87.5 42.350240091665455
90.0 42.4188676295809
92.5 42.38604399277264
95.0 42.265504679185426
97.5 42.14828708857311
100.0 42.07980475652748
103.0 42.038873087343205
106.0 42.072339662698525
109.0 42.13549014807619
112.0 42.2226733468365
115.0 42.31955560658692
118.0 42.37120966177899
122.0 42.40083094184541
125.0 42.36567684823281
128.0 42.285897032875596
132.0 42.2688751668708
136.0 42.27312377886935
140.0 42.33682298210938
145.0 42.41977117043167
150.0 42.47287750947157
155.0 42.50576819517917
160.0 42.49917041335968
165.0 42.50079113329275
170.0 42.56822116401261
175.0 42.64488966275701
180.0 42.734586021971054
185.0 42.84180032551596
190.0 42.952794863077116
195.0 43.074655207474805
200.0 43.142784164151024
206.0 43.25127167859483
212.0 43.345145608103806
218.0 43.40423339585688
224.0 43.54522250293236
230.0 43.66992878561726
236.0 43.80380408033986
240.0 43.83957556279259
250.0 43.85430366488468
258.0 43.92621453180057
265.0 43.98355979522002
272.0 43.97910632877148
280.0 43.916023408282285
290.0 43.835162419828634
300.0 43.752518992021265
307.0 43.688010443105114
315.0 43.62279205033991
325.0 43.54660845558978
335.0 43.5411297859101
345.0 43.59738491363551
355.0 43.7262643437968
365.0 43.83871718037268
375.0 43.95597841490654
387.0 44.155774341101306
400.0 44.28365037953685
412.0 44.419096596608
425.0 44.59871742866696
437.0 44.70686873592173
450.0 44.767442655582514
462.0 44.884418124864155
475.0 45.00501735829498
487.0 45.072592163522984
500.0 45.07510983816802
515.0 44.8855918028857
530.0 44.55467836148469
545.0 44.23387489493642
560.0 44.019006228475476
580.0 44.174933107315766
600.0 44.51299984806474
615.0 44.88807290338052
630.0 45.22534044917397
650.0 45.50704982189599
670.0 45.795181135033744
690.0 46.12719219687233
710.0 46.45653771559665
730.0 46.68416547834627
750.0 46.80995246506059
775.0 46.67971154965137
800.0 46.2791989371444
825.0 45.86584332001209
850.0 45.783351004467875
875.0 46.18133422299459
900.0 46.770608539974404
925.0 47.292808030312344
950.0 47.715857223522136
975.0 48.043800687360616
1000.0 48.14490031422844
1030.0 48.0996475750177
1060.0 48.041562779407315
1090.0 48.06068899863051
1120.0 48.175676454647174
1150.0 48.17652087379403
1180.0 47.994650755292014
1220.0 47.880035382959676
1250.0 47.706500573969606
1280.0 47.439409866724176
1320.0 47.24779240368585
1360.0 47.18963864240871
1400.0 47.14952567226821
1450.0 47.14730422866538
1500.0 47.350876945562874
1550.0 47.76375325432849
1600.0 48.22282889641663
1650.0 48.46712443896148
1700.0 48.3379476950485
1750.0 48.46388908614732
1800.0 48.563119546384144
1850.0 48.18430734766477
1900.0 47.64659733192144
1950.0 47.433794830691156
2000.0 47.49917270395342
2060.0 47.75481165284688
2120.0 47.784161074401624
2180.0 47.613321964638644
2240.0 47.88642695293157
2300.0 48.36065631759095
2360.0 47.9464856285784
2400.0 48.01587691601081
2500.0 48.51022432148521
2580.0 48.28949780027283
2650.0 47.99701064013297
2720.0 48.23776529882754
2800.0 47.77298531874668
2900.0 48.06830760932675
3000.0 48.94681843031789
3070.0 48.619952545580645
3150.0 49.130544827319596
3250.0 49.231893025823936
3350.0 48.975470407137365
3450.0 49.4477983422282
3550.0 48.565830726119614
3650.0 49.06221668809255
3750.0 48.442322520385474
3870.0 48.16509031020787
4000.0 47.90729608860825
4120.0 47.94492374026274
4250.0 47.608143266069135
4370.0 48.14399457740393
4500.0 48.11897384999192
4620.0 48.64910195514085
4750.0 48.6873487137063
4870.0 49.03122316910286
5000.0 48.82917392684578
5150.0 48.994361109308
5300.0 48.97384402078522
5450.0 48.50810218975754
5600.0 48.39757462843731
5800.0 48.47144058996189
6000.0 47.89364984447056
6150.0 47.88386870154852
6300.0 48.47423652827662
6500.0 49.09155799475428
6700.0 49.277713011566235
6900.0 48.98137709572502
7100.0 48.65700291634043
7300.0 48.40375963882806
7500.0 48.82217576122852
7750.0 49.50033743331274
8000.0 49.87065590334835
8250.0 49.668051477832435
8500.0 49.164752392043724
8750.0 48.74619210004818
9000.0 48.877178622511224
9250.0 49.33082328439417
9500.0 49.672414874783954
9750.0 49.487046980870105
10000.0 49.01654180580138
10300.0 48.79560200082669
10600.0 49.208009151261194
10900.0 49.62330379827911
11200.0 49.65312876777615
11500.0 49.361051847902814
11800.0 49.320876662457295
12200.0 49.529160022925424
12500.0 49.96276533292301
12800.0 49.365545497173315
13200.0 49.32547605615751
13600.0 50.215398386411664
14000.0 49.87154065957394
14500.0 49.01319595117015
15000.0 49.40705491375577
15500.0 49.77739924696334
16000.0 49.550411478330616
16500.0 49.753671078596184
17000.0 50.41928136677684
17500.0 49.905580847590954
18000.0 50.20594940477669
18500.0 50.56341288058863
19000.0 49.523711810821254
19500.0 51.06156460433681
