Freq "Sound Power DI"
22.4 40.89937822790259
23.0 40.929326485276704
23.6 41.01000037771374
24.0 41.039984344573924
25.0 41.101870678466724
25.8 41.16608535728275
26.5 41.24797159325814
27.2 41.32914074132492
28.0 41.44808586156998
29.0 41.610385461940666
30.0 41.773903812589566
30.7 41.957002570148234
31.5 42.1847130375599
32.5 42.30794417782809
33.5 42.351567568102894
34.5 42.29868145650764
35.5 42.14819590163685
36.5 41.96703573018091
37.5 41.83951647731779
38.7 41.69944499134645
40.0 41.61907389486717
41.2 41.57126405220728
42.5 41.51092493435033
43.7 41.518977820039325
45.0 41.52354109315999
46.2 41.54393874675803
47.5 41.54066497846547
48.7 41.579449370864
50.0 41.64027031079199
51.5 41.68373517404682
53.0 41.770081499128764
54.5 41.8461900901419
56.0 41.99163793105727
58.0 42.100980061053306
60.0 42.265682729564276
61.5 42.39996761451876
63.0 42.41435949686016
65.0 42.32955410380261
67.0 42.130979206569904
69.0 42.01435174505711
71.0 41.94074798297511
73.0 41.90729222028057
75.0 41.888441770548
77.5 41.972753008764315
80.0 42.03308937404094
82.5 42.13646434667504
85.0 42.2388803037981
87.5 42.35024009166547
90.0 42.41886762958093
92.5 42.38604399277264
95.0 42.265504679185426
97.5 42.148287088573085
100.0 42.07980475652748
103.0 42.03887308734318
106.0 42.07233966269854
109.0 42.13549014807619
112.0 42.22267334683653
115.0 42.319555606586945
118.0 42.37120966177899
122.0 42.40083094184541
125.0 42.36567684823281
128.0 42.285897032875624
132.0 42.2688751668708
136.0 42.27312377886933
140.0 42.33682298210941
145.0 42.4197711704317
150.0 42.47287750947159
155.0 42.50576819517917
160.0 42.49917041335968
165.0 42.50079113329272
170.0 42.56822116401261
175.0 42.64488966275698
180.0 42.734586021971054
185.0 42.84180032551596
190.0 42.95279486307713
195.0 43.07465520747482
200.0 43.14278416415105
206.0 43.25127167859486
212.0 43.34514560810382
218.0 43.40423339585688
224.0 43.545222502932376
230.0 43.66992878561729
236.0 43.80380408033986
240.0 43.83957556279259
250.0 43.854303664884696
258.0 43.92621453180057
265.0 43.98355979522002
272.0 43.97910632877145
280.0 43.916023408282285
290.0 43.83516241982865
300.0 43.75251899202128
307.0 43.688010443105114
315.0 43.62279205033991
325.0 43.54660845558976
335.0 43.541129785910115
345.0 43.59738491363552
355.0 43.7262643437968
365.0 43.838717180372655
375.0 43.95597841490654
387.0 44.155774341101306
400.0 44.28365037953688
412.0 44.419096596608014
425.0 44.59871742866699
437.0 44.70686873592173
450.0 44.767442655582514
462.0 44.88441812486417
475.0 45.00501735829498
487.0 45.07259216352297
500.0 45.07510983816803
515.0 44.88559180288573
530.0 44.55467836148466
545.0 44.23387489493642
560.0 44.01900622847546
580.0 44.174933107315766
600.0 44.51299984806475
615.0 44.88807290338055
630.0 45.22534044917394
650.0 45.507049821895976
670.0 45.795181135033744
690.0 46.1271921968723
710.0 46.45653771559665
730.0 46.68416547834627
750.0 46.80995246506059
775.0 46.67971154965137
800.0 46.2791989371444
825.0 45.865843320012104
850.0 45.783351004467875
875.0 46.18133422299462
900.0 46.77060853997443
925.0 47.292808030312315
950.0 47.715857223522136
975.0 48.0438006873606
1000.0 48.14490031422844
1030.0 48.0996475750177
1060.0 48.0415627794073
1090.0 48.06068899863051
1120.0 48.17567645464719
1150.0 48.17652087379403
1180.0 47.99465075529203
1220.0 47.88003538295965
1250.0 47.70650057396959
1280.0 47.43940986672415
1320.0 47.247792403685835
1360.0 47.18963864240871
1400.0 47.1495256722682
1450.0 47.14730422866538
1500.0 47.35087694556289
1550.0 47.763753254328506
1600.0 48.222828896416615
1650.0 48.46712443896149
1700.0 48.3379476950485
1750.0 48.46388908614732
1800.0 48.563119546384115
1850.0 48.18430734766477
1900.0 47.64659733192141
1950.0 47.43379483069114
2000.0 47.49917270395339
2060.0 47.75481165284688
2120.0 47.784161074401595
2180.0 47.61332196463863
2240.0 47.886426952931586
2300.0 48.360656317590966
2360.0 47.94648562857837
2400.0 48.01587691601084
2500.0 48.51022432148521
2580.0 48.28949780027283
2650.0 47.99701064013297
2720.0 48.237765298827526
2800.0 47.77298531874666
2900.0 48.06830760932675
3000.0 48.94681843031786
3070.0 48.619952545580674
3150.0 49.13054482731957
3250.0 49.23189302582392
3350.0 48.97547040713738
3450.0 49.44779834222821
3550.0 48.565830726119586
3650.0 49.06221668809252
3750.0 48.44232252038549
3870.0 48.16509031020786
4000.0 47.90729608860826
4120.0 47.94492374026275
4250.0 47.608143266069135
4370.0 48.14399457740393
4500.0 48.1189738499919
4620.0 48.649101955140864
4750.0 48.687348713706314
4870.0 49.03122316910286
5000.0 48.829173926845755
5150.0 48.994361109308
5300.0 48.973844020785236
5450.0 48.50810218975755
5600.0 48.397574628437326
5800.0 48.471440589961915
6000.0 47.893649844470545
6150.0 47.88386870154852
6300.0 48.47423652827662
6500.0 49.09155799475427
6700.0 49.277713011566235
6900.0 48.98137709572502
7100.0 48.65700291634043
7300.0 48.40375963882806
7500.0 48.822175761228536
7750.0 49.50033743331271
8000.0 49.87065590334835
8250.0 49.66805147783242
8500.0 49.164752392043695
8750.0 48.74619210004818
9000.0 48.877178622511224
9250.0 49.33082328439414
9500.0 49.672414874783954
9750.0 49.487046980870105
10000.0 49.01654180580138
10300.0 48.79560200082669
10600.0 49.20800915126121
10900.0 49.62330379827911
11200.0 49.653128767776124
11500.0 49.361051847902814
11800.0 49.320876662457295
12200.0 49.52916002292544
12500.0 49.962765332923
12800.0 49.36554549717333
13200.0 49.32547605615751
13600.0 50.215398386411664
14000.0 49.87154065957395
14500.0 49.01319595117015
15000.0 49.40705491375577
15500.0 49.777399246963355
16000.0 49.55041147833063
16500.0 49.753671078596184
17000.0 50.41928136677686
17500.0 49.905580847590954
18000.0 50.205949404776675
18500.0 50.56341288058863
19000.0 49.523711810821226
19500.0 51.06156460433681
