Freq "Side Wall Bounce"
22.4 38.99069986649152
23.0 39.99821584001345
23.6 41.034022826575004
24.0 41.815293650469606
25.0 42.63358097021898
25.8 43.490672664987606
26.5 44.38574668490603
27.2 45.16380294983802
28.0 45.726643991811976
29.0 46.148108785806805
30.0 46.589552321605105
30.7 47.56139175548227
31.5 48.64395911282852
32.5 49.875288263583975
33.5 50.34932178249043
34.5 50.48038253747294
35.5 50.470770684391105
36.5 50.02591034280186
37.5 49.862962137932406
38.7 49.8659479457145
40.0 50.01042362649331
41.2 50.28390025495815
42.5 50.61102245527538
43.7 50.974655480999154
45.0 51.36510603226355
46.2 51.49088521016511
47.5 51.69926184481394
48.7 51.27385197480343
50.0 51.43774448794182
51.5 51.14557602458459
53.0 51.18958905401612
54.5 51.341011362779035
56.0 51.3838977838223
58.0 51.28480880250897
60.0 51.36165938830219
61.5 51.50092097707209
63.0 51.76168078673286
65.0 52.021112437655354
67.0 52.28249620606595
69.0 52.4829272451832
71.0 52.541199831244846
73.0 52.68156054014522
75.0 52.62201851881729
77.5 52.36027588070905
80.0 52.060740624982365
82.5 52.00139211624761
85.0 52.10139211624762
87.5 52.240732991061286
90.0 52.3206434330808
92.5 52.38158184074407
95.0 52.3009209770721
97.5 52.26119474234182
100.0 52.201842002960085
103.0 52.12111243765535
106.0 52.060740624982365
109.0 51.96213480580068
112.0 52.00139211624761
115.0 52.04260029820792
118.0 51.96213480580068
122.0 51.72110176237117
125.0 51.74073299106127
128.0 51.64073299106128
132.0 51.50046051294918
136.0 51.46303236952158
140.0 51.461194742341824
145.0 51.50230232064049
150.0 51.68291647562297
155.0 51.68249620606594
160.0 51.68064597778592
165.0 51.56165938830221
170.0 51.56119474234182
175.0 51.68109801862507
180.0 51.760730046664285
185.0 51.940732991061275
190.0 51.86165938830221
195.0 51.942122737353564
200.0 52.04260029820792
206.0 51.92064343308078
212.0 51.94119983124485
218.0 52.082948054372814
224.0 52.004165031273395
230.0 52.02342518384304
236.0 52.00323352897967
240.0 52.00561038485787
250.0 51.92435187452491
258.0 51.724330782668794
265.0 51.58717399212585
272.0 51.46627313852469
280.0 51.50325521722889
290.0 51.585260410285436
300.0 51.74536802508073
307.0 51.66958689317095
315.0 51.39406233463168
325.0 50.99741485671118
335.0 50.67300668749787
345.0 50.48937136577421
355.0 50.432766416778556
365.0 50.55740017519263
375.0 50.85280010352218
387.0 50.8372570443432
400.0 50.804446099585924
412.0 50.88712649812211
425.0 51.08930933739307
437.0 51.15613274588383
450.0 51.50544457362428
462.0 51.64844319523754
475.0 51.532235247925165
487.0 51.36385427729652
500.0 51.333688469305805
515.0 51.23760555277554
530.0 50.83276376892369
545.0 50.43507690974166
560.0 50.07192391638754
580.0 50.28626919012563
600.0 50.72645674228868
615.0 50.57855762059429
630.0 50.735488942034145
650.0 50.779799889619646
670.0 50.442841466152906
690.0 50.490784463576695
710.0 50.31687265538449
730.0 49.95926081314814
750.0 49.951923522660785
775.0 50.459916591782125
800.0 50.792112158126564
825.0 51.19190950699505
850.0 52.15334002686347
875.0 52.80543516102774
900.0 52.315225215273806
925.0 52.09210727377532
950.0 51.285649076239956
975.0 49.64667234414308
1000.0 49.04609176540519
1030.0 49.437330962444086
1060.0 49.83066759659463
1090.0 49.30755247608651
1120.0 48.94726329973957
1150.0 48.556941172645416
1180.0 48.767678709819045
1220.0 49.40381710675465
1250.0 49.42930897769465
1280.0 48.51843119657686
1320.0 48.87266164621595
1360.0 49.74226059512892
1400.0 49.57547598909772
1450.0 48.55168670379377
1500.0 48.17557994901741
1550.0 46.9306071159404
1600.0 47.9210497325191
1650.0 49.79127933050058
1700.0 50.02090608224447
1750.0 47.699261844813925
1800.0 47.037686809227914
1850.0 48.11180302736377
1900.0 48.53630889958148
1950.0 48.81572413275588
2000.0 49.2118284914168
2060.0 48.63150055891227
2120.0 49.91346342875452
2180.0 50.15723546909853
2240.0 48.72491631472774
2300.0 48.33859894021318
2360.0 48.49619281679937
2400.0 49.05555268182113
2500.0 49.24498433530416
2580.0 48.8826868771255
2650.0 48.37404627530068
2720.0 48.70038810078011
2800.0 47.563747918780614
2900.0 47.94797824961379
3000.0 47.985600781293805
3070.0 47.46244973873038
3150.0 47.03495531429133
3250.0 46.89654110818713
3350.0 46.773190032017844
3450.0 47.90222942064977
3550.0 46.24402558713543
3650.0 47.038942738254796
3750.0 46.59343808509126
3870.0 46.99068076976537
4000.0 47.00229193454822
4120.0 47.414707086131266
4250.0 46.87464759159261
4370.0 47.7394447401852
4500.0 47.42851494353135
4620.0 47.987997216170875
4750.0 47.74208111160615
4870.0 47.543734907123444
5000.0 47.04344477805375
5150.0 47.36460112266828
5300.0 46.6540442021116
5450.0 46.99087097576254
5600.0 46.45491815873954
5800.0 46.16368777545079
6000.0 46.51978336500675
6150.0 45.53363355457697
6300.0 46.162735161553464
6500.0 46.09203894214081
6700.0 45.59019008546415
6900.0 45.27568543529163
7100.0 45.64544093575372
7300.0 45.81191813233476
7500.0 46.114464297078136
7750.0 46.355038532779155
8000.0 46.18551147944451
8250.0 45.03939726500247
8500.0 44.43634951517287
8750.0 44.664326856262086
9000.0 44.28159472718108
9250.0 43.68470048437822
9500.0 44.095783243384766
9750.0 44.134472197117255
10000.0 44.29567630540608
10300.0 43.97950605923972
10600.0 43.77895052606903
10900.0 43.312274261762944
11200.0 43.40080077683603
11500.0 43.21568112988293
11800.0 43.137498190216284
12200.0 43.43826629217245
12500.0 43.89778988662297
12800.0 44.196556498687706
13200.0 44.130399676482135
13600.0 43.98051529822886
14000.0 43.981307287450925
14500.0 44.13704274512822
15000.0 44.21385268756102
15500.0 44.184504716861575
16000.0 44.02403777770228
16500.0 44.02338069487828
17000.0 44.28808347931295
17500.0 44.47217988349316
18000.0 44.47299050705825
18500.0 44.77328595459169
19000.0 44.7747221078989
19500.0 45.13517164263242
