Freq,Floor Bounce,Ceiling Bounce,Front Wall Bounce,Side Wall Bounce,Rear Wall Bounce,Total Early Reflection
20.5078,70.69330366612186,69.54574041219513,70.29812485968642,70.08492244022472,69.54897778027843,70.05689776604052
21.9727,72.41894414307944,70.97892360279461,71.91325329550565,71.61171018948619,70.8264934693442,71.59009968877628
23.4375,73.28319777539306,71.69799251173316,72.72394642816064,72.39071678662405,71.49392889177058,72.36797595233494
24.9023,74.26565570791522,72.71019480329814,73.73179212548506,73.3867232195962,72.4580791138118,73.36080525518817
26.3672,75.22303420285883,73.80860136056248,74.73608948945389,74.41290142940812,73.55181107683694,74.38901546890483
27.832,76.23685989789183,74.89913245081814,75.7959988892527,75.4297329933884,74.42356513888302,75.40397028357208
29.2969,76.84895130643115,75.38251994414341,76.33598762679696,75.99758607877993,75.09509419685293,75.97836167077861
30.7617,77.53771025184884,76.08067668010858,77.03414426107608,76.69395079665375,75.80357980791172,76.67555169847842
32.2266,78.19436457584439,76.7841447188897,77.70918595077832,77.37940592388526,76.52818902846322,77.36132899919764
33.6914,78.82814513624365,77.37637304297061,78.32501037130993,77.99315691319329,77.19032459873387,77.98465581807363
35.1562,79.431258501669,77.94237774018211,78.92160286845296,78.56214266233604,77.68612784548677,78.55534704700192
36.6211,80.13085657320545,78.62987604892125,79.62388899691294,79.2385606401898,78.29181333917023,79.23353760974615
38.0859,80.57808609086788,79.08685550637314,80.07942912604693,79.67915573478358,78.6919952201298,79.67542111477303
39.5508,81.296186817299,79.746371724342,80.76986691911982,80.3703395610958,79.38864760166058,80.36845040190711
41.0156,81.89076576921678,80.29241784642723,81.35818350055503,80.93953216477672,79.91296940600989,80.93702660190064
42.4805,82.2091289482715,80.65336359109398,81.69117219117012,81.27038999260891,80.19973982312713,81.26351926137556
43.9453,82.39543389486161,80.82227883522836,81.86370339677099,81.44081125147147,80.39233008243458,81.44157405448229
45.4102,82.45209707296824,80.88904179385084,81.92010721730327,81.53068343408528,80.60156267464635,81.53086749250483
46.875,82.79642787933201,81.2299008569131,82.25982124813201,81.88894705402744,81.04653565829989,81.89278618298258
48.3398,83.16241842560086,81.5484559582444,82.61345493051921,82.22688299470376,81.39251746816811,82.23907322705094
51.2695,83.7376183679309,82.19978594456238,83.2610157731522,82.79016713817477,81.73343008865692,82.80335829205505
52.7344,83.99827462589585,82.47254279084915,83.53906503688549,83.02687799724474,81.77622154077653,83.0318984145596
54.1992,84.22484223342593,82.69803239265775,83.74539106921483,83.26717327050335,82.09444060289654,83.27034144864857
55.6641,84.21641681844697,82.70742411888334,83.71581589545389,83.3117040190869,82.40999746610073,83.32188777112768
58.5938,84.50796811323053,82.96295121171305,83.99681314319909,83.56332188430034,82.66121643477416,83.59040129816009
60.0586,84.61466355538559,83.06416868541142,84.10377637862186,83.67739988572849,82.78799838653383,83.70092586387963
62.9883,84.78526648250005,83.23629362192392,84.2907055511428,83.8417452547494,82.95064817346216,83.87284914973755
64.4531,84.81457358229389,83.228182561125,84.29821444043255,83.85780516240764,83.01540200874008,83.8940551950773
67.3828,84.81128082108268,83.19083920059362,84.28610255207089,83.84040691378107,83.06154531488383,83.88833789450176
68.8477,84.81170267834429,83.16700270078883,84.28592945573163,83.81930512084075,83.01516155854313,83.87253503026868
71.7773,84.98570245631086,83.31029081587425,84.4576661975694,83.97641637778193,83.19489739247447,84.0384389199343
74.707,85.0993981919246,83.44813161672676,84.58974565452415,84.08300474834446,83.26798397491689,84.15223051753061
77.6367,85.16529860264747,83.51285765901494,84.67359948587416,84.11172574373744,83.20577024583328,84.19395911279005
79.1016,85.15476892394679,83.45186979329463,84.64864906354953,84.07109015364972,83.10885504083616,84.15201063233
82.0312,85.13349678427585,83.45625925416124,84.63981496389823,84.0631015337526,83.08751104414584,84.14050194209221
84.9609,85.03562778875573,83.49067277061695,84.60429042650809,84.02962098652785,83.11108380613368,84.11119791897985
87.8906,84.86000073006707,83.18591378870369,84.36531496419894,83.79913587872875,83.1650784947749,83.926172350655
90.8203,85.32338204667006,83.44014598789806,84.80272857547943,84.06917036270073,82.90796736110588,84.19701410699335
95.2148,84.67046448457788,82.90942409256212,84.16538209564064,83.53917003035272,82.7810442742597,83.67387173738608
98.1445,84.7461616701709,82.97061455946803,84.26408744527933,83.56743834041563,82.65693429181059,83.7111930494563
101.074,84.52316732468815,82.7483558113215,84.0387324649445,83.3635427013629,82.55411640341458,83.51055074579386
105.469,84.98670026059209,82.98757522625509,84.48156626688352,83.62158231129747,82.61443413744689,83.82976673610179
108.398,85.30365141846124,83.26942205913485,84.84163575408759,83.87386469380397,82.53703029906782,84.08130859602245
112.793,85.36668471599414,83.51513138882837,84.9606695912248,84.03294593154754,82.46000769783183,84.18770760565339
117.188,85.26935346227317,83.27214327571193,84.76083745808941,83.90190508482294,82.47750388765105,84.05060271531335
120.117,84.9985967959955,83.14466891768274,84.53991881745449,83.81839892067318,82.5038243680842,83.89427419951163
124.512,84.44551687809822,82.47681725452667,84.01034050825115,83.12256002114871,82.6949944069078,83.41721200192913
128.906,84.98684356885374,82.8490235136309,84.50913475190916,83.44932105018627,82.43445318854951,83.75426263074117
133.301,85.08904604538422,82.9542323717437,84.62102705368972,83.58653687353862,82.44517689164907,83.85245432297245
139.16,85.0717828438957,82.9894107802903,84.60756795519072,83.60083484147506,82.49212417614943,83.85992514266988
143.555,84.70831277114144,82.68119758606173,84.27768440327137,83.31436996925149,82.66275736563053,83.6096740627664
147.949,84.23468428336113,82.06439347314964,83.75167483763613,82.69828377531248,82.71595007580977,83.16494722152454
153.809,84.19442219400753,81.22161362191508,83.6522053827966,81.71009528609358,82.17742720923665,82.74334834521895
159.668,84.79315137172281,81.93318981766606,84.36726204352206,82.40873572678368,81.53281500019511,83.21142038003066
165.527,85.11322418071332,82.38467375285734,84.75360019365654,82.81561202969962,81.52586010372625,83.54056118702731
171.387,85.29149252585168,82.60691441224397,84.93952564694848,82.9589859346323,81.31068001178653,83.67421228125917
177.246,85.2666114836034,82.47752828053268,84.86501082265147,82.96019756639488,80.94026758953218,83.58539377792948
183.105,85.12401629373412,82.0742204535546,84.65739519918006,82.65322964183234,80.87308930966242,83.36591879025833
188.965,85.3461229816607,82.1411284846157,84.88891341362921,82.77097429097466,80.44550846307357,83.48112963795693
196.289,86.06196619054944,82.80023072208935,85.63189537651243,83.57548602291031,80.0809395656495,84.11558175783017
203.613,86.20299084641006,83.37100852604928,85.9587287400598,84.01621466306402,80.1052156462935,84.41977606773975
210.938,86.4028186697935,83.6725328758352,86.2283524153166,84.46538859119951,79.43436065033161,84.64410019753137
218.262,85.57331117004287,83.39715196214863,85.31203658935858,84.13132168445678,79.63091115168156,84.04841778193986
225.586,85.69594816908513,82.99985159734408,85.48990234120247,83.81172689200213,80.58243990645335,84.08097954310196
232.91,86.54721436655919,83.52115899256935,86.39989823586654,84.39991990926035,80.41336311947582,84.76669589908516
241.699,86.51812902690489,83.59161903604081,86.33816814625484,84.68278309508015,79.64134443793893,84.75255286378199
250.488,86.42437589959279,83.55077686661708,86.17443614666676,84.57435121232605,80.55569208421394,84.7136663258997
259.277,87.23190972319912,83.9556232155391,86.90763738618494,84.84367415448162,80.59945528674193,85.28351498570777
268.066,86.8332203285386,84.09452681088369,86.55997614158912,84.71138518387889,79.76492091719236,85.00385470978003
276.855,86.26348815254899,83.66241304490956,86.12394135760526,84.42366876761227,80.13690960726402,84.60950113362941
287.109,86.0398675344966,83.50554348280147,86.06226385610324,84.2487843508544,80.08245917828998,84.46446241128666
297.363,86.3027142775718,83.61251732937018,86.36034213109585,84.36819063378124,80.41276493175361,84.69092856310559
307.617,87.43728371355758,83.79964468810073,87.34712435261821,85.15693457327687,79.14818385102382,85.43344532684594
319.336,87.0809948809806,83.21883670567863,86.87980871220967,84.8714193388389,79.51525772242236,85.06344821755526
329.59,87.73232121085641,83.65070694946294,87.72897686138677,85.86294192749821,79.33663933333072,85.7734922630186
341.309,86.57449330409514,83.30472897704072,86.70858699426233,85.26608901944705,79.77789046499153,84.96465925238182
353.027,86.35385410891982,83.06427531601088,86.52934173013941,84.70799972795747,79.48704040591039,84.67945236413897
366.211,85.88275291164562,83.43271012501714,86.37006309083071,84.83264129119682,79.737064681395,84.59347051053331
379.395,87.3151877603347,83.48511740512811,87.45214199049661,84.75626491284216,78.43309836882717,85.28114055180586
392.578,87.25019876187184,82.91351764771369,87.44746387450229,85.77112970269809,79.06825782340209,85.41689629731081
405.762,86.75792174737724,82.81237045538332,87.05294667489588,85.57138879100039,79.86453367706207,85.13234225072237
420.41,86.92119093867066,82.32694173894868,87.09663670028132,84.61997510937876,79.4163770247688,84.92111427577841
435.059,86.2040518211829,82.78994921108072,86.87415332527843,84.7548626674309,78.85133633531436,84.68308676783269
451.172,86.87130825341586,83.04607014208742,87.26149403285476,84.72109235809519,78.51807761838262,85.01920632168294
465.82,87.11282859583513,81.48305512494548,86.51958637623225,84.14075851325265,79.0313123556539,84.60373295167369
483.398,85.91349331767789,81.10677709862844,86.22783048868884,82.64259596288916,77.32083744801946,83.71642734544216
499.512,84.09729805494445,80.98119130809772,84.85761710198462,81.46346826332893,75.10375296878671,82.35889106195854
517.09,85.47554963378295,80.98430974829662,84.94108988632762,81.03774722430147,75.65488085228027,82.80573026302802
536.133,87.34935306375382,82.24580026524235,87.59380462175045,83.32902573650045,77.39195125966134,84.92924972329567
555.176,87.43173410355621,82.90553345022789,88.1794618306377,84.00228975549838,77.4815057022791,85.34963977658292
574.219,87.24538433183524,82.31880483246354,87.94122673683606,84.03979907023354,77.3176616651217,85.13425654833911
594.727,86.84618319042966,83.05775785781962,87.42000041552163,83.09943918824916,76.7495440294766,84.74064561440582
615.234,87.55364909004408,82.82440191903058,87.92622522979175,83.24907598955646,76.67917619884378,85.15644497872816
637.207,86.36353704126702,82.69496376376665,87.76040196622098,83.43893262990449,76.2976252824883,84.71095215216539
659.18,86.70984307576094,82.5142051206264,87.48655191053727,83.06922748334877,76.69660386972782,84.64572657950751
682.617,87.27760425874322,82.78451230773925,87.52664649570376,83.05639084837013,75.7599803691698,84.85648644957728
707.52,86.25810146358845,82.62116108320085,86.40239700603513,82.19890277067438,74.82494869900214,83.93887390097129
732.422,86.3918578855254,82.56361883074923,86.29742536887457,81.4968905516036,74.32058468678588,83.84056811003198
757.324,86.36963732139807,81.99581790019748,86.30267372903502,81.0232114232011,72.00252304152104,83.65891768416304
785.156,86.42202621185545,82.29596869762196,85.42386730155002,80.22655662114684,71.974743661856,83.33713991576593
811.523,85.43150747329938,83.44046893695223,85.71134807837834,80.79992207496278,72.8866102676086,83.35359944985065
840.82,86.57013314551067,83.00852162056458,85.62120194747519,80.64869702730928,72.99104051812887,83.63518000040223
870.117,86.11491717055911,82.25501491499134,85.17883022581276,80.91927069216366,71.53967486526753,83.19816291322542
900.879,85.94477297435814,84.03139594163369,84.25220535182078,80.43861166352342,72.43540147837658,83.18248167995625
933.105,85.76429114837133,82.37033443258971,84.44196179980666,79.64072178602922,71.4370695084714,82.71261829511005
965.332,85.20280974830855,81.68913706053783,84.63066954897512,79.69402426294307,71.77157274137147,82.44310658570767
1000.49,84.3325446847902,81.0100043842483,84.27904403321949,78.76097816055582,69.2690557805662,81.7542420722034
1035.64,84.27450350229229,82.0483236237323,84.76504851523572,79.28587960782416,69.81846028503908,82.15818995405598
1072.27,84.27446538346243,82.40074502019078,84.60766973122873,78.76365166739042,68.99777951398468,82.11367895024301
1108.89,84.54012266296371,81.81992439732474,84.85610367313097,79.09405923601162,68.17910495970759,82.20199736624893
1148.44,84.6584024957834,81.68163188087676,85.68324537730749,79.26710369060073,69.57268962250637,82.56829981774949
1189.45,84.87471184654527,80.48334756569989,86.7275364632512,79.9837228942356,69.87197770356309,83.00618726003763
1230.47,85.14594015143385,80.5934026597535,87.4342569228995,81.40655719435294,70.82480273727069,83.60179437385304
1274.41,85.69045207529473,79.93540963469208,88.04369003100177,82.32850061743764,73.16936780963617,84.1439451443679
1319.82,85.27747321696876,78.89314777459708,88.38795404608818,83.46114948321687,73.46330373600719,84.30908441467628
1366.7,84.63284313695333,80.626736292849,88.48245159650035,83.76614365857176,73.99157263275414,84.39111058222804
1413.57,83.62389928701685,80.63760410726461,87.69766719444453,83.70537724210955,74.17535961509203,83.78601140208565
1463.38,82.88265495479183,81.49070123913036,88.02014423529512,83.48450161784072,72.39829062304113,83.8363424009024
1516.11,81.63181660919886,82.32026749073299,87.01018787307044,82.55947656488752,72.23799786736207,83.07757658050332
1568.85,79.56929419506636,81.56428341242469,85.94970923775455,81.62971035614382,70.64588300403102,81.95668373182366
1624.51,78.84906672397967,80.7330999270383,85.59378228780419,81.16456326952138,70.2985060350751,81.45589683704884
1681.64,77.63444110381018,80.67323721407254,85.83310814152438,81.89530312091713,70.30281479099656,81.60351660221568
1741.7,76.98323284554063,81.28358769972196,86.11257823879475,82.23479282188347,70.03399882750544,81.87660069535642
1803.22,76.95146652023284,81.6696524811471,85.93190065941462,82.58708879987985,70.49730802025789,81.9368054221791
1866.21,78.16475152175245,81.93687406383162,85.63185741793355,82.3668220584056,71.24231011775065,81.89354377063734
1932.13,78.50578513537052,82.05033144147004,85.3377213669641,82.0975363565532,71.34422922010114,81.753624968579
1999.51,80.88379111442138,82.72782184786396,85.48235209139438,82.13774539539313,71.24012775886891,82.25438589981434
2069.82,82.58630688545756,82.30656465450758,86.61273643993556,82.49694481784087,70.73349668968504,83.00791930348772
2143.07,83.4859368820821,82.19554070189496,87.24278512169967,83.08397132507294,70.97881944405103,83.55983607806144
2219.24,83.85508847567965,82.55613567897926,86.96683777609694,83.19928687553718,71.0776280846715,83.58762007357998
2296.88,84.133883089193,82.72484507401218,85.80555957125613,82.39757122817389,71.48967780654152,83.07402326394764
2378.91,85.43620855481983,83.23779492324917,85.6850164884156,81.89289962014118,71.32055499863765,83.41961870846133
2462.4,85.9368538204126,83.58962581649331,87.29106383611806,83.19630194262054,71.63084888261473,84.40952484708342
2548.83,85.25308237047,84.61595509069235,88.27400524443726,84.747676283979,72.56927383106655,85.08708394405261
2639.65,85.40316389565285,84.30273018641617,87.33720589093954,84.49628334157637,72.93178487399035,84.65145844433223
2731.93,85.74992935855275,83.84442229966535,85.75084673516102,83.80413433892316,73.28948488895534,83.99857510773373
2828.61,85.13931212205598,82.8161909142739,85.0471910975358,84.31973562154623,72.89142428068956,83.53075635698302
2928.22,84.55673458834276,83.92141422619034,84.59512407750039,85.1184583348733,72.99341453114288,83.67431355053563
3030.76,84.21043879097027,84.51274794119647,84.67336512945485,85.13316549110463,72.66855700296415,83.7445648641758
3137.7,84.14999565819444,84.43961977786051,84.56759468895939,84.73075555163484,72.63737668758948,83.57856551912816
3249.02,84.68445266304576,84.06497745389154,83.07507527296542,83.90984716544244,71.91470820633907,83.06903269856389
3363.28,85.08937924660384,85.09064195743593,82.71064649155853,83.32660677346708,71.2626405147451,83.26684092602314
3481.93,85.67723928301584,85.71146481597387,83.24025918684086,83.5801641733452,71.52459074774066,83.7848304461818
3604.98,86.79443176072851,85.86470445288293,83.80909733399561,84.08284231789051,72.59867570039019,84.40442069503442
3732.42,87.02173961802362,85.47900241540874,85.47246960098443,84.56730499122493,73.44874840300825,84.82227482489903
3864.26,87.36757768355625,85.74763113459534,86.10393001998406,84.17985229976472,72.02670435425372,85.0693537343947
4000.49,87.33264604609019,85.7968256424592,86.06081683037557,83.43486317278534,71.30591214431033,84.93810443268325
4141.11,86.78188445830256,85.80548221052588,86.8236275191446,83.64677455381147,71.03771431457987,85.0046015401005
4287.6,87.63132465905738,85.83959507773015,87.07580485852912,84.32990232727947,70.99185614710998,85.45769072089033
4438.48,87.42620688817792,85.67773484041595,87.05842342713213,84.40489597988277,72.1700915658139,85.37237854648579
4595.21,86.97527710732516,85.38591529171121,86.86387989036663,84.38087202528926,71.66656074581593,85.10161149314156
4756.35,86.13046114664931,85.44216266742957,86.97988353668741,84.54298693326187,72.15835710503895,84.94242989909208
4924.8,85.79054564822997,84.23253925384144,87.50565296468574,84.40823878854268,71.61110560876207,84.76506609563455
5097.66,86.24382213585604,83.8051752279878,86.47613931472435,84.46952932818837,71.35538957676225,84.46857998463541
5277.83,85.40649604115245,82.83900955662435,86.08285352230347,83.61288521226632,71.48487641842547,83.76262979708834
5463.87,85.62172074893782,82.33334575788442,86.0224407074933,84.22433832358263,71.0545117683738,83.8505353937071
5657.23,85.90382354516476,82.26112558785653,85.52100930583286,83.54058549383461,71.03787354492916,83.628240378328
5856.45,86.89559403339564,82.15745669863963,85.28263881275208,83.33361263577928,68.52866277115362,83.85141010889585
6062.99,86.74824908156367,82.33246339636382,85.56226988201419,83.31583490918314,68.24926206644308,83.89256822042108
6276.86,86.37276344691995,82.37197388548822,85.41511089464025,83.24682024870089,68.44146516944937,83.70170015015846
6498.05,85.57966336119176,81.43269279128718,85.57595818532147,83.0378193210867,69.10980163940629,83.30801217728558
6726.56,86.17728528162857,80.85740357623094,86.17804173484701,83.64729646068504,68.90792191797945,83.76817656448337
6963.87,86.18096776363996,80.31299596176024,85.59869891958607,83.25052089721726,68.78073804585021,83.44162423510467
7209.96,86.32198135715677,80.0950923150098,86.26575931930975,83.03094683682158,67.74873858302031,83.65897858209703
7464.84,85.80956685628769,80.21828820675344,86.45527687589637,82.57244847256158,67.95497285717474,83.48442597954902
7727.05,85.94844304466963,80.53064589790459,86.1641010134902,82.49479879632614,66.49782823750374,83.43181177653824
7999.51,85.85370025960161,80.40076670215939,86.37261941260857,82.32513579619003,65.11876695011445,83.4337679066513
8282.23,86.09093937994366,80.39330430632866,85.98658557386031,81.76299985346819,63.82814166110134,83.28532941482585
8573.73,85.71569976669862,80.73564184751037,86.33740076379996,81.59322558810062,61.8271654546341,83.29377319450552
8876.95,85.65570753316436,80.91926869804146,86.33108197302815,80.73250986695305,61.72829718027802,83.18415643310048
9188.96,85.63656960005753,79.13159251266654,86.54080539363042,81.45498158094219,67.32467299363046,83.19781688564356
9514.16,85.90776613559838,77.8559774534334,85.934665489926,81.32138319927526,66.02232827152778,82.93365095669404
