Freq "Floor Bounce"
20.5078 70.69330366612186
21.9727 72.41894414307944
23.4375 73.28319777539306
24.9023 74.26565570791522
26.3672 75.22303420285883
27.832 76.23685989789183
29.2969 76.84895130643115
30.7617 77.53771025184884
32.2266 78.19436457584439
33.6914 78.82814513624365
35.1562 79.431258501669
36.6211 80.13085657320545
38.0859 80.57808609086788
39.5508 81.296186817299
41.0156 81.89076576921678
42.4805 82.2091289482715
43.9453 82.39543389486161
45.4102 82.45209707296824
46.875 82.79642787933201
48.3398 83.16241842560086
51.2695 83.7376183679309
52.7344 83.99827462589585
54.1992 84.22484223342593
55.6641 84.21641681844697
58.5938 84.50796811323053
60.0586 84.61466355538559
62.9883 84.78526648250005
64.4531 84.81457358229389
67.3828 84.81128082108268
68.8477 84.81170267834429
71.7773 84.98570245631086
74.707 85.0993981919246
77.6367 85.16529860264747
79.1016 85.15476892394679
82.0312 85.13349678427585
84.9609 85.03562778875573
87.8906 84.86000073006707
90.8203 85.32338204667006
95.2148 84.67046448457788
98.1445 84.7461616701709
101.074 84.52316732468815
105.469 84.98670026059209
108.398 85.30365141846124
112.793 85.36668471599414
117.188 85.26935346227317
120.117 84.9985967959955
124.512 84.44551687809822
128.906 84.98684356885374
133.301 85.08904604538422
139.16 85.0717828438957
143.555 84.70831277114144
147.949 84.23468428336113
153.809 84.19442219400753
159.668 84.79315137172281
165.527 85.11322418071332
171.387 85.29149252585168
177.246 85.2666114836034
183.105 85.12401629373412
188.965 85.3461229816607
196.289 86.06196619054944
203.613 86.20299084641006
210.938 86.4028186697935
218.262 85.57331117004287
225.586 85.69594816908513
232.91 86.54721436655919
241.699 86.51812902690489
250.488 86.42437589959279
259.277 87.23190972319912
268.066 86.8332203285386
276.855 86.26348815254899
287.109 86.0398675344966
297.363 86.3027142775718
307.617 87.43728371355758
319.336 87.0809948809806
329.59 87.73232121085641
341.309 86.57449330409514
353.027 86.35385410891982
366.211 85.88275291164562
379.395 87.3151877603347
392.578 87.25019876187184
405.762 86.75792174737724
420.41 86.92119093867066
435.059 86.2040518211829
451.172 86.87130825341586
465.82 87.11282859583513
483.398 85.91349331767789
499.512 84.09729805494445
517.09 85.47554963378295
536.133 87.34935306375382
555.176 87.43173410355621
574.219 87.24538433183524
594.727 86.84618319042966
615.234 87.55364909004408
637.207 86.36353704126702
659.18 86.70984307576094
682.617 87.27760425874322
707.52 86.25810146358845
732.422 86.3918578855254
757.324 86.36963732139807
785.156 86.42202621185545
811.523 85.43150747329938
840.82 86.57013314551067
870.117 86.11491717055911
900.879 85.94477297435814
933.105 85.76429114837133
965.332 85.20280974830855
1000.49 84.3325446847902
1035.64 84.27450350229229
1072.27 84.27446538346243
1108.89 84.54012266296371
1148.44 84.6584024957834
1189.45 84.87471184654527
1230.47 85.14594015143385
1274.41 85.69045207529473
1319.82 85.27747321696876
1366.7 84.63284313695333
1413.57 83.62389928701685
1463.38 82.88265495479183
1516.11 81.63181660919886
1568.85 79.56929419506636
1624.51 78.84906672397967
1681.64 77.63444110381018
1741.7 76.98323284554063
1803.22 76.95146652023284
1866.21 78.16475152175245
1932.13 78.50578513537052
1999.51 80.88379111442138
2069.82 82.58630688545756
2143.07 83.4859368820821
2219.24 83.85508847567965
2296.88 84.133883089193
2378.91 85.43620855481983
2462.4 85.9368538204126
2548.83 85.25308237047
2639.65 85.40316389565285
2731.93 85.74992935855275
2828.61 85.13931212205598
2928.22 84.55673458834276
3030.76 84.21043879097027
3137.7 84.14999565819444
3249.02 84.68445266304576
3363.28 85.08937924660384
3481.93 85.67723928301584
3604.98 86.79443176072851
3732.42 87.02173961802362
3864.26 87.36757768355625
4000.49 87.33264604609019
4141.11 86.78188445830256
4287.6 87.63132465905738
4438.48 87.42620688817792
4595.21 86.97527710732516
4756.35 86.13046114664931
4924.8 85.79054564822997
5097.66 86.24382213585604
5277.83 85.40649604115245
5463.87 85.62172074893782
5657.23 85.90382354516476
5856.45 86.89559403339564
6062.99 86.74824908156367
6276.86 86.37276344691995
6498.05 85.57966336119176
6726.56 86.17728528162857
6963.87 86.18096776363996
7209.96 86.32198135715677
7464.84 85.80956685628769
7727.05 85.94844304466963
7999.51 85.85370025960161
8282.23 86.09093937994366
8573.73 85.71569976669862
8876.95 85.65570753316436
9188.96 85.63656960005753
9514.16 85.90776613559838
9849.61 85.81236490119979
10196.8 85.98757587232322
10555.7 85.8488401630273
10927.7 85.6109588418349
11313.0 85.8208816731606
11712.9 86.1710990003107
12126.0 85.95524465226198
12553.7 86.60020566531095
12996.1 88.02136860731594
13454.6 87.60145449908617
13929.2 86.25188263900421
14419.9 82.0628274657009
14928.2 78.6752627396699
15455.6 68.34610201052797
16000.5 67.7046211472822
16564.5 70.85713859662265
17148.9 72.86947705680697
17752.4 72.8072148049963
18379.4 75.61067355097826
19026.9 75.52752524574304
19697.8 77.760436269136
19999.5 77.84590565855851
