Freq "Side Wall Bounce"
20.5078 69.45834668264895
21.9727 70.98513443191042
23.4375 71.76414102904829
24.9023 72.76014746202044
26.3672 73.78632567183236
27.832 74.80315723581263
29.2969 75.37101032120417
30.7617 76.06737503907799
32.2266 76.7528301663095
33.6914 77.36658115561752
35.1562 77.93556690476028
36.6211 78.61198488261404
38.0859 79.05257997720781
39.5508 79.74376380352004
41.0156 80.31295640720096
42.4805 80.64381423503315
43.9453 80.81423549389571
45.4102 80.90410767650951
46.875 81.26237129645168
48.3398 81.60030723712799
51.2695 82.163591380599
52.7344 82.40030223966897
54.1992 82.64059751292758
55.6641 82.68512826151114
58.5938 82.93674612672457
60.0586 83.05082412815273
62.9883 83.21516949717363
64.4531 83.23122940483188
67.3828 83.2138311562053
68.8477 83.19272936326499
71.7773 83.34984062020617
74.707 83.4564289907687
77.6367 83.48514998616167
79.1016 83.44451439607396
82.0312 83.43652577617684
84.9609 83.40304522895208
87.8906 83.17256012115298
90.8203 83.44259460512497
95.2148 82.91259427277696
98.1445 82.94086258283987
101.074 82.73696694378714
105.469 82.99500655372171
108.398 83.2472889362282
112.793 83.40637017397178
117.188 83.27532932724718
120.117 83.19182316309741
124.512 82.49598426357295
128.906 82.8227452926105
133.301 82.95996111596286
139.16 82.9742590838993
143.555 82.68779421167572
147.949 82.07170801773671
153.809 81.08351952851781
159.668 81.78215996920791
165.527 82.18903627212386
171.387 82.33241017705653
177.246 82.33362180881912
183.105 82.02665388425658
188.965 82.1443985333989
196.289 82.94891026533455
203.613 83.38963890548825
210.938 83.83881283362375
218.262 83.50474592688101
225.586 83.18515113442636
232.91 83.77334415168458
241.699 84.05620733750439
250.488 83.94777545475029
259.277 84.21709839690585
268.066 84.08480942630312
276.855 83.7970930100365
287.109 83.62220859327863
297.363 83.74161487620547
307.617 84.5303588157011
319.336 84.24484358126314
329.59 85.23636616992245
341.309 84.63951326187129
353.027 84.0814239703817
366.211 84.20606553362106
379.395 84.12968915526639
392.578 85.14455394512233
405.762 84.94481303342462
420.41 83.99339935180299
435.059 84.12828690985513
451.172 84.09451660051943
465.82 83.51418275567688
483.398 82.0160202053134
499.512 80.83689250575317
517.09 80.4111714667257
536.133 82.70244997892469
555.176 83.37571399792262
574.219 83.41322331265778
594.727 82.4728634306734
615.234 82.6225002319807
637.207 82.81235687232872
659.18 82.442651725773
682.617 82.42981509079436
707.52 81.57232701309862
732.422 80.87031479402783
757.324 80.39663566562534
785.156 79.59998086357108
811.523 80.17334631738701
840.82 80.02212126973352
870.117 80.2926949345879
900.879 79.81203590594765
933.105 79.01414602845345
965.332 79.06744850536731
1000.49 78.13440240298006
1035.64 78.65930385024839
1072.27 78.13707590981466
1108.89 78.46748347843585
1148.44 78.64052793302497
1189.45 79.35714713665983
1230.47 80.77998143677718
1274.41 81.70192485986188
1319.82 82.8345737256411
1366.7 83.139567900996
1413.57 83.07880148453378
1463.38 82.85792586026496
1516.11 81.93290080731175
1568.85 81.00313459856805
1624.51 80.53798751194562
1681.64 81.26872736334137
1741.7 81.60821706430771
1803.22 81.96051304230409
1866.21 81.74024630082984
1932.13 81.47096059897744
1999.51 81.51116963781736
2069.82 81.8703690602651
2143.07 82.45739556749717
2219.24 82.57271111796142
2296.88 81.77099547059812
2378.91 81.26632386256541
2462.4 82.56972618504477
2548.83 84.12110052640324
2639.65 83.86970758400061
2731.93 83.1775585813474
2828.61 83.69315986397046
2928.22 84.49188257729753
3030.76 84.50658973352887
3137.7 84.10417979405908
3249.02 83.28327140786668
3363.28 82.70003101589131
3481.93 82.95358841576943
3604.98 83.45626656031475
3732.42 83.94072923364917
3864.26 83.55327654218895
4000.49 82.80828741520958
4141.11 83.0201987962357
4287.6 83.7033265697037
4438.48 83.778320222307
4595.21 83.7542962677135
4756.35 83.91641117568611
4924.8 83.78166303096691
5097.66 83.84295357061261
5277.83 82.98630945469056
5463.87 83.59776256600686
5657.23 82.91400973625885
5856.45 82.70703687820351
6062.99 82.68925915160737
6276.86 82.62024449112512
6498.05 82.41124356351094
6726.56 83.02072070310928
6963.87 82.62394513964149
7209.96 82.40437107924582
7464.84 81.94587271498581
7727.05 81.86822303875037
7999.51 81.69856003861426
8282.23 81.13642409589242
8573.73 80.96664983052486
8876.95 80.10593410937729
9188.96 80.82840582336642
9514.16 80.6948074416995
9849.61 80.15099511290097
10196.8 79.99897559200853
10555.7 79.8097841674006
10927.7 79.59310794739287
11313.0 80.05121995087684
11712.9 80.58746948910523
12126.0 78.78246385688503
12553.7 77.71848998598495
12996.1 77.89730713567856
13454.6 74.03251278020315
13929.2 75.66520901233
14419.9 74.03388221124828
14928.2 72.44164940628811
15455.6 68.99365976361709
16000.5 66.41317576394846
16564.5 67.02394562805843
17148.9 68.22877180026262
17752.4 72.194480511593
18379.4 69.10592774163804
19026.9 72.74352611214745
19697.8 75.54587233944953
19999.5 75.90561096359046
