Freq "Estimated In-Room Response"
20.5078 53.55286571879141
21.9727 56.246992300312726
23.4375 57.872580516133624
24.9023 59.76488801036588
26.3672 61.91723421216851
27.832 63.39654249848269
29.2969 65.09709217732588
30.7617 66.89363154613888
32.2266 68.50359417848144
33.6914 70.20548595935712
35.1562 71.88212776437304
36.6211 73.31585193758592
38.0859 74.84434665872448
39.5508 76.24962256969938
41.0156 78.14034892107902
42.4805 78.5841077837652
43.9453 79.41714439968007
45.4102 80.2486641779749
46.875 80.7379329012189
48.3398 81.12549006549469
51.2695 81.63737941297666
52.7344 81.8133717423181
54.1992 81.89468093730758
55.6641 81.96970290060275
58.5938 82.0546041266273
60.0586 82.12363764089841
62.9883 82.28475822786129
64.4531 82.36052080912087
67.3828 82.43912958352014
68.8477 82.5069535936397
71.7773 82.6708113867234
74.707 82.91171577987373
77.6367 83.07754655929203
79.1016 83.12798204164524
82.0312 83.31713361529648
84.9609 83.49061844443564
87.8906 83.66232409028652
90.8203 84.00061804330815
95.2148 84.09236263009056
98.1445 84.31626882127013
101.074 84.39133428567152
105.469 84.69324797024099
108.398 84.88933635177379
112.793 85.04333266411338
117.188 85.24948484423159
120.117 85.39023342663423
124.512 85.44468139880624
128.906 85.55251886527013
133.301 85.65396627685716
139.16 85.75387133555307
143.555 85.81194884195844
147.949 85.89094561434953
153.809 85.94873876522007
159.668 86.07098743453857
165.527 86.12520887123104
171.387 86.16373899384618
177.246 86.11500093384228
183.105 86.04484877312703
188.965 86.04751765126656
196.289 86.00266359655917
203.613 85.88690780957553
210.938 85.82486011280717
218.262 85.68712144532287
225.586 85.69926795455015
232.91 85.6391925855582
241.699 85.35001292039122
250.488 85.45255164240054
259.277 85.3899556871092
268.066 85.15674752304706
276.855 85.1163607645188
287.109 84.93930630881475
297.363 85.11021849140027
307.617 84.83058155657822
319.336 84.72641014466213
329.59 84.46703739508006
341.309 84.25065058500412
353.027 84.1462809384473
366.211 84.29435574379272
379.395 84.47085996971066
392.578 84.20129198811252
405.762 84.05948153418234
420.41 83.84955942918698
435.059 83.84997134600388
451.172 84.17140865011353
465.82 84.061914341941
483.398 83.74844530715268
499.512 83.97813398465128
517.09 84.08995166909013
536.133 84.06409840314838
555.176 84.09376740325818
574.219 84.26106614776255
594.727 83.57976698045648
615.234 83.3494745768935
637.207 83.57516856118882
659.18 83.07054961946092
682.617 83.62620208939136
707.52 84.20601792462709
732.422 83.72896220423159
757.324 83.68490539692854
785.156 83.68299182240399
811.523 83.62870051142103
840.82 83.56999446387375
870.117 83.34638441180708
900.879 83.51443430521034
933.105 83.15633112544496
965.332 82.91983502657648
1000.49 83.28123730898649
1035.64 83.19252602781587
1072.27 82.96690714870115
1108.89 82.62737636545451
1148.44 82.60575887887353
1189.45 82.26347566682367
1230.47 82.6196929612655
1274.41 82.98297691802395
1319.82 83.5387842210947
1366.7 84.01884894435176
1413.57 84.0665360996803
1463.38 83.28322924477557
1516.11 82.41662160396048
1568.85 81.91038196541618
1624.51 82.09115277494733
1681.64 82.9968201142558
1741.7 83.0704379079228
1803.22 82.90719755069138
1866.21 82.52262900797325
1932.13 82.02594379120936
1999.51 82.02083558798849
2069.82 82.03236756670495
2143.07 81.98885451740789
2219.24 81.4568749737429
2296.88 81.67212714582891
2378.91 81.98375087585445
2462.4 82.83846475251586
2548.83 83.0186520953583
2639.65 82.613192271607
2731.93 82.06846741519028
2828.61 82.32516129606918
2928.22 82.9056855279321
3030.76 82.73896947686622
3137.7 82.50640283582291
3249.02 82.39166423442045
3363.28 82.39540362933101
3481.93 82.65478989024753
3604.98 82.67465336347898
3732.42 83.013995419163
3864.26 82.64437208517887
4000.49 82.76812213797247
4141.11 83.24839347910944
4287.6 83.46463937412683
4438.48 83.51346418748771
4595.21 83.2055937708907
4756.35 83.36210929061458
4924.8 83.69083736004832
5097.66 83.22122947400403
5277.83 82.94471792155608
5463.87 82.88775477489297
5657.23 83.21391504482469
5856.45 83.32447036685191
6062.99 83.68899707107661
6276.86 83.67744813435789
6498.05 83.51934419832553
6726.56 83.27884309866056
6963.87 83.33927168735012
7209.96 83.46657268776181
7464.84 83.04077144926269
7727.05 83.02521519967182
7999.51 82.65864000236331
8282.23 82.90884601067947
8573.73 82.72627044343014
8876.95 82.85856287266091
9188.96 82.86643863252202
9514.16 82.69712464223528
9849.61 82.51718498082325
10196.8 82.35472996442687
10555.7 82.46906455216437
10927.7 82.19329681211167
11313.0 82.26266216147212
11712.9 81.96505969490863
12126.0 81.85956779999701
12553.7 81.77383381093574
12996.1 81.44578755918792
13454.6 80.8486797768315
13929.2 79.62937057729108
14419.9 78.45642222220432
14928.2 77.27101828323258
15455.6 75.64821574798007
16000.5 75.2984076354911
16564.5 75.68090839946362
17148.9 74.88436465208429
17752.4 73.50569673313224
18379.4 72.63153556944437
19026.9 72.87323308432543
19697.8 73.27017735217588
19999.5 73.3983276826013
