Freq "Sound Power"
20.5078 55.37293650025815
21.9727 56.95482412368277
23.4375 59.97678270431889
24.9023 65.44784556581617
26.3672 70.02996114031122
27.832 75.55523269946347
29.2969 79.53421323872386
30.7617 83.08710273266857
32.2266 85.65383636265562
33.6914 88.45457399754632
35.1562 90.54231989284038
36.6211 92.56078175217388
38.0859 93.96096720934705
39.5508 95.04706741694714
41.0156 95.75016362285892
42.4805 95.99255461861267
43.9453 96.38528617563287
45.4102 96.5023927960657
46.875 96.44793007822418
48.3398 96.41363519161924
51.2695 96.1785878316414
52.7344 96.12660045305955
54.1992 96.0658350977163
55.6641 96.03606760447231
58.5938 95.97126258691823
60.0586 95.9464375293287
62.9883 95.96866893698827
64.4531 95.929370202274
67.3828 95.85776203582245
68.8477 95.84782136402505
71.7773 95.97337591255044
74.707 96.0126963609083
77.6367 96.04285170985777
79.1016 96.03455692032836
82.0312 95.99977193475506
84.9609 96.0231449176136
87.8906 96.02317358670012
90.8203 96.09017887886155
95.2148 95.95776363086254
98.1445 96.00347904942647
101.074 95.97097335979926
105.469 96.04678100148823
108.398 96.16500296578782
112.793 96.12863237141728
117.188 96.10392788401728
120.117 96.11527751586314
124.512 96.02421365648006
128.906 96.00819348623311
133.301 96.03717877925591
139.16 95.9332059894519
143.555 95.86132937645688
147.949 95.79229420468016
153.809 95.73841723094695
159.668 95.76047699536338
165.527 95.79877123362172
171.387 95.74167546583558
177.246 95.51664259146146
183.105 95.45825079005529
188.965 95.53207298405074
196.289 95.56863926719521
203.613 95.3094832608524
210.938 95.2606522158372
218.262 95.17484447909082
225.586 95.1796458488089
232.91 95.15733245519355
241.699 94.95104257577158
250.488 94.9550645684859
259.277 95.06333266664444
268.066 94.77084582243594
276.855 94.6033683689446
287.109 94.52921051389228
297.363 94.50062621899677
307.617 94.53672595965135
319.336 94.1838893132928
329.59 94.10682123020882
341.309 93.92060230668794
353.027 93.53817648782878
366.211 93.27313888094582
379.395 93.36478173237877
392.578 93.59561358094545
405.762 93.50983687878167
420.41 93.28900723472569
435.059 93.33549185446996
451.172 93.55919309323714
465.82 93.40031783909437
483.398 93.13977804327199
499.512 92.94675241716138
517.09 93.50861037915676
536.133 92.72042499268225
555.176 92.73110994528308
574.219 93.01170154154255
594.727 92.91698367721078
615.234 92.61532449742064
637.207 92.76104660059447
659.18 92.4446760818518
682.617 92.19396331032382
707.52 92.44639830735454
732.422 92.06905085259403
757.324 92.02488301208463
785.156 91.99502039088043
811.523 91.9918637063749
840.82 91.66186296161415
870.117 92.30581375091714
900.879 92.18535882026542
933.105 92.41313195357574
965.332 92.03100555817944
1000.49 92.24026648389476
1035.64 91.86564234432758
1072.27 91.58955301514094
1108.89 91.36219625628829
1148.44 90.94808858142255
1189.45 90.90431789887401
1230.47 90.78731959198191
1274.41 90.89271093188029
1319.82 91.03630685840416
1366.7 91.29101614457569
1413.57 91.07777766663459
1463.38 90.51327959605548
1516.11 90.38218042302637
1568.85 89.95537024942188
1624.51 89.77566260324535
1681.64 89.96721204282487
1741.7 90.23424741875178
1803.22 90.00749363645218
1866.21 89.51524549654151
1932.13 88.86662780653056
1999.51 89.09135746415386
2069.82 89.29521841806759
2143.07 89.18755701728176
2219.24 88.63891716891229
2296.88 87.9964543025994
2378.91 87.69089172841933
2462.4 88.23563416638221
2548.83 88.43976675864671
2639.65 88.03893937987934
2731.93 87.16141412277804
2828.61 87.33939844352129
2928.22 87.92393788225276
3030.76 87.96814431667131
3137.7 88.04768047112663
3249.02 87.9289526268484
3363.28 88.05483692717223
3481.93 88.3617185186482
3604.98 88.81815534992408
3732.42 89.27009758719703
3864.26 89.35591512169951
4000.49 89.00705550162803
4141.11 89.02306037956798
4287.6 88.77625030750006
4438.48 88.70599166463234
4595.21 88.2327163066591
4756.35 88.4944757142385
4924.8 88.5056311869417
5097.66 88.04498700242529
5277.83 87.894173837216
5463.87 88.24368061868348
5657.23 88.00829893178968
5856.45 87.92827943143924
6062.99 88.13491765712502
6276.86 87.91494624114026
6498.05 87.99618165162326
6726.56 88.29242076275615
6963.87 87.9051772451366
7209.96 88.19437407709752
7464.84 88.0462426128178
7727.05 87.93071833795968
7999.51 87.93762983021425
8282.23 87.64334632347557
8573.73 87.80077384596773
8876.95 87.67228406047998
9188.96 87.91097581149263
9514.16 87.96666419605134
9849.61 88.05813650754114
10196.8 88.31165604292804
10555.7 88.37137527911956
10927.7 88.36478670825583
11313.0 88.33208113747693
11712.9 88.26989899123112
12126.0 88.1200295777415
12553.7 87.97371801767594
12996.1 87.98367177401666
13454.6 87.97976413173718
13929.2 87.98154055256744
14419.9 87.96902865427002
14928.2 87.81347032422836
15455.6 87.56329085116843
16000.5 87.26057750730615
16564.5 86.81625269772285
17148.9 86.34794110349942
17752.4 85.50259087964339
18379.4 84.64787635337399
19026.9 84.15525568877875
19697.8 83.89109775924858
19999.5 83.86689642970428
