Freq "Floor Bounce"
20.5078 62.58684757169502
21.9727 63.73447228037155
23.4375 65.09781172151881
24.9023 65.90831952604168
26.3672 66.71780204777708
27.832 67.64099955879608
29.2969 68.47992472673413
30.7617 69.22381198636856
32.2266 69.94076967816083
33.6914 70.6380285517924
35.1563 71.36356127684324
36.6211 71.94763424064303
38.0859 72.5652109975831
39.5508 73.12756483732154
41.0156 73.6995972877089
42.4805 74.16970661929469
43.9453 74.67914577027328
45.4102 75.20004791516277
46.875 75.73570431248136
48.3398 76.02837816949243
51.2695 76.70250137737844
52.7344 77.04616126471504
54.1992 77.3323225688601
55.6641 77.60089885527314
58.5938 78.11222712687045
60.0586 78.32599866980756
62.9883 78.70654793815795
64.4531 78.82171660252858
67.3828 79.03405035876987
68.8477 79.1978502187098
71.7773 79.4708746607693
74.707 79.65496290014075
77.6367 79.70152495087221
79.1016 79.78315809978844
82.0313 79.91298901827787
84.9609 80.02212403389761
87.8906 79.88593568752691
90.8203 79.6179519948285
95.2148 80.28483457611954
98.1445 79.97166641684056
101.074 79.98013023312998
105.469 79.93616522401318
108.398 80.10465762121424
112.793 80.28571523738476
117.188 80.2377900127464
120.117 80.40842185820973
124.512 80.46203731266483
128.906 80.39670437981007
133.301 80.27517146563174
139.16 80.03487140501973
143.555 80.05319720407851
147.949 80.02388936491839
153.809 80.1858991929964
159.668 80.49887256098738
165.527 80.37961867997225
171.387 80.33619885720185
177.246 80.25458555613655
183.105 80.08390923165622
188.965 80.15033705203201
196.289 80.37345170441047
203.613 80.37682389264502
210.938 80.44773790837768
218.262 80.42290811680104
225.586 80.46879832561619
232.91 80.70361217228741
241.699 80.85504772135361
250.488 81.11233922885633
259.277 81.21210530976404
268.066 80.80648101757275
276.855 80.71643421805591
287.109 80.59274063364047
297.363 80.71502317419258
307.617 81.19243450121415
319.336 81.29157679460867
329.59 81.5307476804936
341.309 80.76561746920159
353.027 80.71049328271003
366.211 80.93264472344457
379.395 81.41398742073775
392.578 82.13271905363528
405.762 82.13556220907238
420.41 82.40763516713044
435.059 81.698374558569
451.172 82.05184128122808
465.82 82.04406748315887
483.398 80.287512960853
499.512 81.79413713774649
517.09 82.68698517430248
536.133 82.83359441858471
555.176 83.55438480705195
574.219 84.14700414886283
594.727 84.15403184093164
615.234 84.80869842644961
637.207 84.65755202882595
659.18 85.15885991657868
682.617 84.6956929371939
707.52 84.6009746031241
732.422 84.28462949495814
757.324 83.77296966942762
785.156 83.97056586584057
811.523 83.65064473078631
840.82 83.6211020838311
870.117 83.629488284927
900.879 83.7654536080857
933.105 83.96413508274854
965.332 84.09139871931043
1000.49 84.02552945934457
1035.64 84.1320163499521
1072.27 83.71754624740815
1108.89 83.55685342843749
1148.44 83.03386304531541
1189.45 82.88739803906073
1230.47 82.72157103414948
1274.41 82.28005938627894
1319.82 82.46783110360904
1366.7 82.16537033734367
1413.57 81.41381962725957
1463.38 81.10351879757167
1516.11 80.8318572681932
1568.85 80.8730335540895
1624.51 81.23248632396027
1681.64 80.92407742173243
1741.7 79.81944939108811
1803.22 79.06335135434347
1866.21 78.72713439662503
1932.13 78.27721151012851
1999.51 77.6476967339198
2069.82 76.7447508267809
2143.07 76.44191231316016
2219.24 77.20049677108024
2296.88 74.75047178775283
2378.91 75.36081808197693
2462.4 75.44791949273254
2548.83 74.94061800675279
2639.65 74.42124675958226
2731.93 74.05711892785324
2828.61 74.01241205270163
2928.22 73.54320409922805
3030.76 73.84149567226113
3137.7 74.4492398134578
3249.02 75.38509860051154
3363.28 76.33869587024866
3481.93 77.10789334074937
3604.98 77.81589923673947
3732.42 78.45403811356611
3864.26 78.61149148028517
4000.49 78.80583010253073
4141.11 79.57190925740746
4287.6 80.46673400858208
4438.48 80.123957077147
4595.21 80.88150855805571
4756.35 80.88306936063373
4924.8 80.73728660044317
5097.66 81.02855870909391
5277.83 80.69212282261044
5463.87 80.37492810305514
5657.23 80.00203752928071
5856.45 79.34142214092883
6062.99 79.5616670709021
6276.86 79.1295022152235
6498.05 78.88153649693074
6726.56 78.77196246066579
6963.87 78.98361580335903
7209.96 78.35333277271458
7464.84 78.28234098749708
7727.05 78.1754436622332
7999.51 77.9387424138924
8282.23 78.03414428237177
8573.73 78.19978755813821
8876.95 78.31811908037459
9188.96 78.18921828632764
9514.16 78.04496381442301
9849.61 78.00670901928281
10196.8 77.86435752875761
10555.7 77.82716464269994
10927.7 77.83257722185571
11313.0 77.7277949544654
11712.9 77.39788010593871
12126.0 77.078073454811
12553.7 76.8322487324053
12996.1 76.57730106903743
13454.6 76.31322765682016
13929.2 75.99378753021067
14419.9 75.46517833750063
14928.2 74.54599272792541
15455.6 73.52851114314943
16000.5 72.90721026615506
16564.5 72.06423352529565
17148.9 71.02514042642007
17752.4 70.32071149231787
18379.4 69.34214702105349
19026.9 68.10268715026623
19697.8 66.95993371976174
19999.5 66.42488483613995
