Freq "Total Early Reflection"
20.5078 62.21151274586575
21.9727 63.36983994812471
23.4375 64.72236690243447
24.9023 65.54775586776682
26.3672 66.35243359800067
27.832 67.27714179384115
29.2969 68.09596348926256
30.7617 68.84566164548133
32.2266 69.58168916051739
33.6914 70.27510090732325
35.1563 70.99375143390115
36.6211 71.57442185655738
38.0859 72.20873520544642
39.5508 72.76583118070697
41.0156 73.37088403033464
42.4805 73.77576140480335
43.9453 74.29858662701483
45.4102 74.79483776355728
46.875 75.29796733415843
48.3398 75.62443106655265
51.2695 76.31665165899663
52.7344 76.6631637818878
54.1992 76.950362675077
55.6641 77.23160143103428
58.5938 77.72045729303059
60.0586 77.93416880436145
62.9883 78.30818226461754
64.4531 78.4229305676106
67.3828 78.63319171766135
68.8477 78.78648177592233
71.7773 79.0371291738347
74.707 79.25315049515346
77.6367 79.31121780378392
79.1016 79.3730114727896
82.0313 79.47386526607191
84.9609 79.56662175473866
87.8906 79.48786217227756
90.8203 79.30939148173108
95.2148 79.78802759278551
98.1445 79.50654372900202
101.074 79.51926952801335
105.469 79.49407966466573
108.398 79.6383076795732
112.793 79.79260619627948
117.188 79.74481612521016
120.117 79.90043447347351
124.512 79.94108874867067
128.906 79.84859477634562
133.301 79.68118000496233
139.16 79.50037236469542
143.555 79.50627931932712
147.949 79.40788196092554
153.809 79.53402482333811
159.668 79.79721361014383
165.527 79.73300707306062
171.387 79.66876186920656
177.246 79.57971301473312
183.105 79.37692898372936
188.965 79.41754407510692
196.289 79.64882266810326
203.613 79.55380246377904
210.938 79.57485990508373
218.262 79.58684984966474
225.586 79.63408155377194
232.91 79.77322633671683
241.699 79.76293800143286
250.488 79.89553014190615
259.277 80.08103983160505
268.066 79.67480330506002
276.855 79.70599628490793
287.109 79.62746405864591
297.363 79.61919182377774
307.617 80.0080598249556
319.336 80.07232090650133
329.59 80.25581186153873
341.309 79.61582286348892
353.027 79.54564971722249
366.211 79.67297380803176
379.395 80.05323349664799
392.578 80.41642513921083
405.762 80.4712534138806
420.41 80.83587262496962
435.059 80.25433347827806
451.172 80.50376681379065
465.82 80.5468460838599
483.398 79.27414111903188
499.512 80.48697498289356
517.09 81.34015411460567
536.133 81.34537838886574
555.176 81.87541686218393
574.219 82.30108760501793
594.727 82.3232100983784
615.234 82.79545267847027
637.207 82.8064858504131
659.18 83.04492448967288
682.617 82.73968648963348
707.52 82.63232659331076
732.422 82.28684365316174
757.324 81.9710680301841
785.156 81.95233776869597
811.523 81.72897039668926
840.82 81.76301690074617
870.117 81.81074484652025
900.879 81.77870544154321
933.105 82.26187835939602
965.332 82.1967310366327
1000.49 82.17745225437822
1035.64 81.83611695247878
1072.27 81.44665718850993
1108.89 80.95386741698462
1148.44 80.7999016911532
1189.45 80.52671575452582
1230.47 80.65473535082121
1274.41 80.46304064124372
1319.82 80.17578308862149
1366.7 79.85087471970921
1413.57 79.54427090149922
1463.38 79.1005373026836
1516.11 79.22684955785557
1568.85 79.58712418062156
1624.51 79.3948372181773
1681.64 78.73477297015938
1741.7 78.97610299170016
1803.22 78.83508045354382
1866.21 78.79088558700316
1932.13 78.04399951939128
1999.51 77.86105500993207
2069.82 78.10094149866909
2143.07 77.59472194138432
2219.24 77.18036903251777
2296.88 77.65314126040208
2378.91 78.03487844343182
2462.4 77.7823513571229
2548.83 77.6401073460868
2639.65 78.15124192878841
2731.93 78.38482843162781
2828.61 78.57024339167488
2928.22 78.8176449610955
3030.76 78.83684711917003
3137.7 79.09138178722596
3249.02 79.09972358700784
3363.28 79.21639903794093
3481.93 79.36344505418288
3604.98 79.6646441735514
3732.42 79.63552128018968
3864.26 79.80089953838198
4000.49 79.19867359727269
4141.11 79.2368667003834
4287.6 79.25190339052848
4438.48 79.2216003460169
4595.21 79.45053670718792
4756.35 79.66221728748096
4924.8 79.73720473784265
5097.66 79.7511400911454
5277.83 79.45084322927549
5463.87 79.10265590338042
5657.23 78.74108943319872
5856.45 78.33962153569232
6062.99 78.19050863121021
6276.86 77.90258453810183
6498.05 77.64470346928127
6726.56 77.3661384621242
6963.87 76.90002812095216
7209.96 76.39646322769177
7464.84 76.32779067148786
7727.05 76.33299355490546
7999.51 76.42159134455702
8282.23 76.61072609229315
8573.73 76.66830953360144
8876.95 76.54797052734354
9188.96 76.33503806294023
9514.16 76.1898051754569
9849.61 76.18788459574273
10196.8 76.19951873967817
10555.7 76.18906667620121
10927.7 76.07810327650553
11313.0 75.77565679365802
11712.9 75.28063167114198
12126.0 74.95176992539076
12553.7 74.90740140619428
12996.1 74.79161788612676
13454.6 74.6452767747053
13929.2 74.5073062176232
14419.9 74.17691666298306
14928.2 73.7138162334622
15455.6 73.13885089247744
16000.5 72.52253922928679
16564.5 71.9071979659248
17148.9 71.35547116281505
17752.4 70.73285543240686
18379.4 69.70138415645953
19026.9 68.54333817307166
19697.8 67.77919215876416
19999.5 67.46358104158823
