Freq,Floor Bounce,Ceiling Bounce,Front Wall Bounce,Side Wall Bounce,Rear Wall Bounce,Total Early Reflection
20.5078,38.74181309093056,37.51385892514402,37.20100096376417,37.46571456000133,51.33277496825632,45.04804705999159
21.9727,45.61506484171035,43.46569148469068,44.99336118101421,43.83565970683169,52.39645924866572,47.60488922898911
23.4375,47.16274717948458,45.039106519028095,46.42573004554431,45.37643937338474,53.73715650908859,49.01758449406033
24.9023,48.04356033086786,45.812691482165135,47.293749874884625,46.1030910527186,54.958587534372484,50.08158541917156
26.3672,50.56375717295832,48.55487192863977,50.00239147571786,48.88138748293757,56.24608162391432,51.95467879554273
27.832,52.96418687175209,50.480472222122856,52.35851698907537,51.00969892527924,57.326724462394665,53.61060709214449
29.2969,53.7590680668482,51.79315440841994,53.17639032117107,52.20073486383201,58.755053721601726,54.809555350463185
30.7617,54.516738283578505,53.09667362001041,54.06550429436372,53.30458181067097,59.97232758646011,55.90980067821313
32.2266,57.27015801317138,56.0519454540367,56.87027639871154,56.402284509328965,61.62516740210329,58.21287593880497
33.6914,58.655922599202555,57.61718307547626,58.29958680921861,57.90873431197913,62.945610641992005,59.614999722231445
35.1562,60.410236722382834,59.36589677580484,60.00492844829871,59.657805508951,64.46247476678963,61.25983190177955
36.6211,62.12903724952069,61.288751681905055,61.773510498818084,61.588328492284646,65.99065825250861,62.96515968560523
38.0859,63.64233973640373,62.92453693933528,63.305526563307026,63.210516636415164,67.38459953626443,64.46698829895867
39.5508,65.17488538945132,64.68879505905481,64.90028957966294,64.9193190764903,68.83148076116429,66.03606784790792
41.0156,67.11920844334732,66.79771459968616,66.90312332874807,67.0113910421506,70.7446426696486,68.02525355546484
42.4805,68.65264662526982,68.24975512322045,68.3941690692839,68.53975837504281,71.87069083686274,69.39053372305997
43.9453,70.08986143414602,69.80568428542503,69.8453724079658,70.07725054722603,73.23445839177056,70.83936576236147
45.4102,71.86379530257659,71.58730517058365,71.63195559665395,71.85424205684949,74.68139481035647,72.50638122441241
46.875,73.55952211719824,73.28786093805105,73.34512615050483,73.55207392219049,76.11071747586287,74.12006592735749
48.3398,75.12835892454945,74.85902424065584,74.92308315937275,75.12300633326723,77.5136416314637,75.63941354481841
51.2695,78.09644232559963,77.90801080707091,77.90781456356721,78.17002505164639,80.3131318554123,78.58714927188586
52.7344,79.43639824553246,79.25833860252013,79.24937316937488,79.52599925954617,81.53445423899991,79.8971409608625
54.1992,80.6193061265899,80.45734165389317,80.43233673583909,80.72895889915536,82.62410951356705,81.05958357803223
55.6641,81.55396063659302,81.37094594999904,81.36120211447502,81.65805123414464,83.43074340271056,81.95217494051505
58.5938,82.84375862678975,82.6800855002417,82.6613211789675,82.97290906454654,84.51362926107085,83.19480748583221
60.0586,83.1656634974597,83.00557424752692,82.98424496008217,83.30005870004925,84.75292219927266,83.49630563922786
62.9883,83.37463572392613,83.21728419878794,83.1944960561214,83.51764928861164,84.78601066478397,83.661380608007
64.4531,83.33407668633699,83.17758783650756,83.15361186839631,83.4826304667684,84.67391427317982,83.6035728103548
67.3828,83.17791779217086,83.03533354579415,83.00551388816704,83.33453266720133,84.371056702549,83.41593679793482
68.8477,83.12586396178061,82.98650777011501,82.95535910419598,83.28390705285788,84.24544400279242,83.34689120124008
71.7773,83.07229972297449,82.93769103549305,82.90576837441554,83.22547395502488,84.04862349610367,83.25917251777541
74.707,83.0654072573822,82.94970206792311,82.9084486762548,83.22582830169961,83.93676761900964,83.23409114190854
77.6367,83.04178740190449,82.93118704649883,82.88587714065746,83.21487138748324,83.84893777755707,83.19915309632411
79.1016,83.04615194035357,82.93920487375097,82.89330873337738,83.22284688498259,83.80755767990694,83.19492267813227
82.0312,83.09028103694321,82.99361636951123,82.94394764821571,83.2758181307555,83.77634655314174,83.22677158325601
84.9609,83.17488714151627,83.05728320179337,83.03110429752961,83.3359527797695,83.69229859007059,83.2651681322328
87.8906,83.18819443366854,83.11065445209685,83.0491411795009,83.39483853903057,83.81468744214867,83.3205316567902
90.8203,83.27463596420114,83.22989217883061,83.14349200864953,83.50728275405385,83.89080705469634,83.41771646580058
95.2148,83.43538039341966,83.45093867530983,83.35333157850361,83.66887577269287,83.88862054454658,83.56384730500123
98.1445,83.56499952795214,83.6138957997974,83.50189738852974,83.78687149655418,83.93435864066473,83.68331018576883
101.074,83.74782936936424,83.82239955619319,83.72147488641873,83.95872850749744,83.95695335653605,83.84264359765315
105.469,83.78693187339947,83.97461084335053,83.74023064090822,84.08943234360815,84.21352578378581,83.9646217870855
108.398,84.12708935902967,84.23279257910045,84.03539128591594,84.37220958997356,84.46115862860792,84.2485133445782
112.793,84.49432200415127,84.49764547618723,84.38896690865407,84.66131891429553,84.61883860793745,84.53330754850678
117.188,84.60637188563523,84.6176147303947,84.53005520073718,84.78045373342665,84.73161161988493,84.65416558425399
120.117,84.76539619285617,84.74938265794015,84.67343137337102,84.92193025825325,84.81144151748414,84.78509097956575
124.512,85.06457014827603,84.97524276763833,84.95902101783567,85.11784391657648,84.81772714667885,84.98809087913968
128.906,85.20062181672749,85.09010233968151,85.11037499318438,85.23777329855434,84.83998292495043,85.09797814717196
133.301,85.15258092741547,85.06493557884859,85.06798157417155,85.23694340287032,84.91364956259157,85.08854349408547
139.16,85.1168379372137,85.0483668054563,85.00702973153581,85.26022611806735,85.05945402131762,85.09928435775463
143.555,85.29575424696837,85.11510936742337,85.15436192440986,85.3339241497246,85.05472664380989,85.19209123504059
147.949,85.49898154178327,85.24330781939757,85.36749120742816,85.43643459945359,84.95854010238082,85.30510176527484
153.809,85.53116809557778,85.20346850896247,85.40635700786224,85.42470736713167,84.80109790897896,85.28092559216898
159.668,85.487378349483,85.08481224257542,85.33405566957221,85.40730760494186,84.87866179445116,85.24420808790393
165.527,85.63152424233742,85.20259642981755,85.4471760451294,85.52233052066256,85.01536874747573,85.36954031983994
171.387,85.51083161501691,85.05810762544972,85.35808694626753,85.33045809876118,84.80751008945225,85.22011047751931
177.246,85.38164770510518,84.97097288334271,85.19438197228976,85.24608773675635,84.77297604216784,85.11852533822828
183.105,85.61321719458623,84.8900029837805,85.37608275451069,85.24352991306591,84.65461571631154,85.1689376886887
188.965,85.52044060971379,84.99211188777676,85.39338162842921,85.22614942905098,84.43311356225419,85.12954251117786
196.289,85.52848123102221,84.98637041606426,85.37580479672859,85.16582890939027,84.35737224033716,85.10133029424439
203.613,85.50907341592185,84.8542711140248,85.36170478264775,85.07600495312126,84.17541567661421,85.01988171387505
210.938,85.49960843367113,84.7109493012558,85.31419684087977,85.00036648680579,83.89803822937543,84.91981991636484
218.262,85.20364565788061,84.49721026821693,85.05917385189464,84.78624657724963,83.73405841708667,84.6862533264718
225.586,85.07356000382671,84.23558329805691,84.92297063406703,84.64229459901003,83.75801819054317,84.55237783142032
232.91,85.22791197046841,84.30873073727238,85.04930767240074,84.6431015689417,83.49265006673534,84.58659900226992
241.699,85.23329736226813,83.96368112548416,84.9365124727422,84.38122112252057,83.20828218347165,84.40272275727988
250.488,85.55206563800635,83.75132608764594,85.15278588181702,84.36114942117965,82.65412241967086,84.41247337831098
259.277,85.10467585868612,83.61440281130538,84.81605414682653,84.17321725705189,82.51974100481331,84.13953705075272
268.066,85.10153989779195,83.15511304298552,84.66522770774715,83.9178460907079,82.17699984306817,83.92633978444765
276.855,84.88019731807667,83.36505901767416,84.63647294955166,83.95089858619014,82.1344941331226,83.89988200604195
287.109,84.2308215418557,83.26865229250109,84.13574750289935,83.96554064657448,82.23105573994233,83.6273720123114
297.363,84.28192328034083,83.55612135142732,84.41239188214307,83.59167351536385,81.89353326644948,83.63359380608496
307.617,84.14760997612751,83.36702424404801,84.12533799802661,83.59152456164102,81.73381061441272,83.47620662666236
319.336,84.15639391731624,82.6068924218691,83.88101057594862,82.86138725249002,81.53078905334131,83.10725316037264
329.59,84.15952378241487,82.27034331602566,83.91932337129987,82.60796753727263,81.39465703299675,82.99286661739742
341.309,84.93665087122507,82.94885104968805,84.70699893414715,82.88468444505521,81.29478896905762,83.55439305705474
353.027,84.8253269283452,82.85662367601388,84.7101803774125,83.36863299919985,80.98516481258407,83.5613553653172
366.211,84.86873277407302,82.88963757284924,84.73520338946813,83.46486790687518,80.54777599033343,83.55783457619634
379.395,84.88971765888074,83.3403944531251,84.77180957917525,83.68095788157525,80.71900638169018,83.71266068399726
392.578,84.28365292618125,82.62090014053764,84.08074736554813,83.10935497092132,80.59525227849683,83.1226065195661
405.762,84.21781998418268,82.70526135647458,84.23853486533062,82.78455667810331,80.3610182079424,83.07261267048779
420.41,84.12714453257531,82.76350742900006,84.1734270777954,83.2433861587239,79.64618103253983,83.06308570577313
435.059,83.94311729558778,82.16189210096029,83.82822835512731,82.65562105022906,79.69629628202637,82.7018393414852
451.172,84.61744943635863,82.20367826066415,84.51476015083436,83.34110213663229,79.16491167063099,83.16723991167522
465.82,83.9838763289842,82.07568935796513,84.01546360445083,83.21213112121816,79.2602382953175,82.82155291786331
483.398,83.52134018155786,82.20266839332866,83.82308501781695,82.91603132496247,79.28057193034438,82.61327973248902
499.512,84.17650511271432,82.02280684691645,84.04314964515756,82.57410527281252,79.18654420403968,82.73434507097448
517.09,83.83688323810163,81.95331593527486,83.88757352596713,82.68298668089697,79.39667118326632,82.62927284012397
536.133,84.19388589939749,80.29518525721546,84.40696552771084,82.62838018498954,78.49679344938357,82.55012032567784
555.176,84.38938971826492,80.54594660955706,84.74849016921705,83.37439884439472,78.51304939898723,82.90069534915087
574.219,84.68039005006631,81.1877053655538,84.66120850341001,83.20126265155572,79.10058254192518,83.04501428144553
594.727,84.48082970194336,81.51892071239469,84.87943460876252,83.41036272353773,79.14074309899495,83.14450846540952
615.234,85.26382667241535,81.92864022870127,85.4520794183591,84.39813875916865,79.79940387251564,83.85123765273903
637.207,86.27232613362183,81.6985473867141,85.96466629009575,84.32745414308285,80.61787376508131,84.32251349218011
659.18,85.33030499739137,81.74581884860089,85.51865684268843,83.49487578633646,79.52576350599014,83.65600614374003
682.617,85.6145205856694,81.24358612542379,85.6141050543317,83.30652695177322,79.04728776132728,83.64036204084199
707.52,85.21903462301167,81.40922307460723,85.09040779274117,82.60305956647142,78.50115511357568,83.20855942101058
732.422,85.01395384554125,82.44860323103578,85.4294086144489,83.12555126858253,78.7368713702237,83.51106331221878
757.324,86.47168700448721,83.68705133912586,86.75706142759623,84.00939539131221,79.97439897825487,84.77865309818135
785.156,86.037244027993,84.26167158775712,86.62888388960015,83.72261629523031,79.47715609634982,84.6322600092232
811.523,86.2210520859314,83.8493670054091,86.73920099881936,83.75610652587872,79.88049863653193,84.67831130920905
840.82,85.83384092332027,84.60723925142223,86.82358644502371,83.39282629037233,79.05222916557027,84.63024517464349
870.117,85.0259836209546,83.25413602506951,86.79332775149518,83.53538454801524,78.8329317982974,84.18205056992412
900.879,85.63716334000559,83.44322433707508,86.95658335773068,83.81818742449786,78.68117878010524,84.46557362345307
933.105,84.97818305658271,83.21294255524599,86.7374329880905,83.29441806455885,78.45250709007895,84.08079332620514
965.332,84.84163048230596,82.54392513227478,86.57566160867097,83.11631630892337,77.69431396203522,83.81231719785343
1000.49,84.60074189051137,82.53957268419943,86.23874705233085,82.74439610971953,77.67026497244862,83.56070997851374
1035.64,83.90091571597749,82.15170966758649,85.73671962944046,82.07204115955211,76.49954664413359,82.96726639123389
1072.27,83.34935337479271,81.29381382505667,85.08951191075454,81.75204925428295,76.6642039376674,82.40469779405207
1108.89,83.29308668970668,82.30719125493779,84.45962463170012,81.31047714456123,76.41009247364038,82.26222125230127
1148.44,82.6349555930644,81.83796729143099,83.78094362183566,80.07171288578449,74.53135940039873,81.49226390928449
1189.45,82.25429225026201,79.40270344199126,83.3711988298732,80.2894173625048,74.10837932801381,80.82908710130849
1230.47,82.61933112767223,79.81426951503234,83.93168559647398,80.88895675616446,74.81190133020694,81.32810612050847
1274.41,82.70886902686705,79.35531018932788,84.20016909017752,80.45161649052983,74.80702180014951,81.31643223305232
1319.82,82.79187871753565,79.27685313179927,84.26871870023517,80.1019826697999,75.25052241085325,81.32227563948918
1366.7,82.82580687820924,79.00422318080045,84.35550924315065,79.84690906918563,76.1530030779589,81.3454821793705
1413.57,83.02233647322537,79.10108480130913,84.76225851998962,80.87912480252227,75.57507225954986,81.7013110749262
1463.38,83.01702387674077,79.86562575657337,84.00165011684774,80.28488312419765,74.13437999121632,81.34327034721849
1516.11,81.62659377268795,77.6584757641828,82.67248521207166,79.0418804704285,72.31801299834854,79.87705668833304
1568.85,80.38220458135191,77.16058472572439,82.15662853922449,78.28228747318944,72.43386591818492,79.14197972370401
1624.51,79.5066731018591,77.17325481639597,83.11721805160572,79.01343977455724,72.28936839179637,79.47458712164824
1681.64,80.89177592948812,76.4092330018925,84.59193679882557,80.51743800385466,73.33254709818269,80.70850636051092
1741.7,80.24480623744422,76.30387506588393,85.16256500905851,80.83013102725504,72.80117850410345,80.91249817135083
1803.22,80.90859976781685,78.44870673818745,84.55693730825938,80.29222216257875,73.47082498741216,80.84925878416855
1866.21,79.35446790962317,76.28369178790805,83.93532477809417,78.96953994417659,72.53883161553453,79.75874500127664
1932.13,78.62363786084151,74.6662109425203,84.1928069426866,79.03954240533831,71.90919425968094,79.64159848365982
1999.51,77.30904322906734,78.42717696887274,84.28859800058954,80.21085504359056,72.31459092834784,80.11904194259078
2069.82,79.21361974557092,76.22520601151764,85.42410828645131,80.25292816803291,72.87618516375225,80.78763283457859
2143.07,78.10036965372434,74.05231676951762,84.44166547301218,80.8722707744199,72.03257912395931,80.0542444590525
2219.24,78.97107984675955,74.65952080340085,82.98636665946007,79.85511321664522,72.45062497986756,79.25668302676453
2296.88,76.33449962522589,72.78616396293198,82.72402911208921,79.34713445030275,72.40832224946635,78.484206018563
2378.91,78.83589969733431,77.79771229810142,83.1664721826391,79.98610975095045,71.37168626829656,79.61354002930712
2462.4,78.70752759511252,71.77374210227647,84.46567252157915,81.08426980658386,72.17138520625863,80.1179827076828
2548.83,77.74198841341854,73.3847090608095,84.002885276881,81.04403626741018,71.62391022331155,79.77103704015208
2639.65,77.31805218527838,74.97643180386608,82.96582740597377,80.01791465481372,71.01404714335541,78.99146448790034
2731.93,77.68714455973856,76.47372647752918,82.83683417947329,79.8323682185201,70.47355981100937,79.05951299199258
2828.61,78.36769423517663,77.40827102765313,83.19792876169574,80.21440762318686,70.60572358821041,79.53389207182131
2928.22,78.86214583101757,78.07935456598263,83.67296279568073,80.74796896153838,70.54552814456042,80.03728748663781
3030.76,78.28802123877092,78.34098555431625,83.76478555976382,80.94548748506837,70.79993191491805,80.08567970160378
3137.7,78.27153209311724,79.20999147274561,83.34349155859368,80.83944893207503,70.68497446021196,79.99578010327403
3249.02,79.69514657890197,79.99274426440707,82.96241267560403,80.19204247362588,69.99122705617323,80.04632640598926
3363.28,80.03803094617908,79.98464929880696,83.06219892276884,79.91091191380094,68.9267988021093,80.07501261847388
3481.93,80.74289002902033,79.86254957307376,83.17129445266451,80.01284487057802,68.98864064716177,80.26379943549543
3604.98,80.95081077074134,80.01950862215378,83.32658133023355,80.39069886549599,69.3938019399748,80.47776368589915
3732.42,80.30283834136672,80.23821053425605,84.05011799251425,80.44689828142089,68.9240840374088,80.68637221064621
3864.26,81.64459844605001,80.98039433476161,83.45602866401724,79.53666832208906,68.28364095815371,80.7158345913938
4000.49,81.96050338555456,80.74586543499986,83.99051537056735,79.27646962143781,68.13274330310442,80.91731363561337
4141.11,83.11274904656804,80.62839662355195,84.80978310255118,79.55279180504164,68.83108985526458,81.58889467258732
4287.6,83.02226367581005,80.64432117464406,84.38665575199862,79.92912366250361,69.80214151171955,81.455435719853
4438.48,82.61803608506844,79.48099587096767,84.27198397721749,80.69773809824862,70.1345243999332,81.2491438020445
4595.21,83.3380123380391,80.26474754407265,84.48472730668517,80.80678550628706,70.32773138297954,81.66731119081305
4756.35,83.83568205648935,80.29547263829492,85.19426756137706,81.06116434073827,68.88354850370993,82.12191955881922
4924.8,83.90783327971165,79.91731027591027,85.21913083073862,81.4706043677334,69.01585841074498,82.17428282429456
5097.66,84.38077430197743,79.92579454399154,85.46862561839906,80.56665871494111,68.51844176389228,82.28307133574835
5277.83,84.12078906843558,80.06967113707779,85.91031728284217,81.28071658254969,67.1435743857812,82.50097613665447
5463.87,84.31407193797001,79.865445050518,86.08648604042777,81.13732366942399,67.67117831225316,82.59535210071326
5657.23,85.53735502301599,80.560580036011,86.14843373666342,80.3985342537527,67.23133881601704,83.00379005401554
5856.45,86.03148223026598,80.47721282323003,85.4439183247748,79.13132531882026,67.1126355875548,82.78705269081085
6062.99,85.32711344815658,80.73774862776783,86.14085856808067,79.64808867202318,66.20411704135226,82.86502205283146
6276.86,84.44640746793382,81.52123864249083,86.37569357634847,79.19773609119076,65.72076191691669,82.74745938173714
6498.05,83.37488874307913,81.62300289038912,86.68134439493686,79.91963163893293,65.01019303950468,82.69462904261303
6726.56,83.14607832566644,80.66869352959817,86.60750088332732,79.58925278704389,65.59396528495516,82.43274837331917
6963.87,84.05674094368801,80.28827956602375,86.65185718731088,79.36246323756845,65.22955384472696,82.6179305184621
7209.96,84.3808298489471,80.01941319146466,86.95068617004266,80.06467199928244,66.27195963511362,82.90446395647167
7464.84,84.24831520050589,80.23365589737266,86.64562166281202,79.49064208121867,65.11415234570961,82.67449426754254
7727.05,83.06545616633072,80.11987021903285,87.3233368549039,79.72007792691662,65.10296325020107,82.75208185416945
7999.51,82.6556872129985,80.02082109559069,86.9671573249948,78.99879094780981,64.93470857266784,82.37913630384168
8282.23,83.32436354041083,79.18573507824061,86.93408636921211,79.40109552537719,65.39147054144455,82.46557436808683
8573.73,84.10687886984687,78.97620642046537,86.85919483458413,79.5486767655206,64.98334946074704,82.62415120380778
8876.95,83.7303011029526,79.17107373433662,86.6267170685139,79.62478116107745,64.96408372074463,82.42271227539815
9188.96,83.66491444554036,79.17634398141239,86.4452301977046,79.48776741973857,65.12470979774332,82.29669440140138
9514.16,84.05846713175383,79.01488411738495,86.34010632304744,79.41674668392973,65.24951594941497,82.33309887764156
