Freq,Floor Bounce,Ceiling Bounce,Front Wall Bounce,Side Wall Bounce,Rear Wall Bounce,Total Early Reflection
20.5078,38.934275212142694,37.70632104635615,37.393463084976304,37.65817668121346,51.52523708946845,45.24050918120372
21.9727,45.80752696292248,43.65815360590281,45.18582330222634,44.02812182804382,52.58892136987785,47.79735135020124
23.4375,47.355209300696714,45.231568640240226,46.618192166756444,45.56890149459687,53.92961863030072,49.21004661527246
24.9023,48.23602245207999,46.005153603377266,47.486211996096756,46.29555317393073,55.151049655584615,50.27404754038369
26.3672,50.75621929417045,48.7473340498519,50.19485359692999,49.0738496041497,56.43854374512645,52.147140916754864
27.832,53.15664899296422,50.67293434333499,52.5509791102875,51.20216104649137,57.519186583606796,53.80306921335662
29.2969,53.95153018806033,51.98561652963207,53.3688524423832,52.39319698504414,58.94751584281386,55.002017471675316
30.7617,54.709200404790636,53.28913574122254,54.25796641557585,53.4970439318831,60.16478970767224,56.10226279942526
32.2266,57.46262013438351,56.24440757524883,57.06273851992367,56.594746630541096,61.81762952331542,58.4053380600171
33.6914,58.848384720414685,57.80964519668839,58.49204893043074,58.10119643319126,63.138072763204136,59.807461843443576
35.1562,60.602698843594965,59.55835889701697,60.197390569510844,59.85026763016313,64.65493688800176,61.45229402299168
36.6211,62.32149937073282,61.481213803117186,61.965972620030215,61.78079061349678,66.18312037372074,63.15762180681736
38.0859,63.83480185761586,63.116999060547414,63.49798868451916,63.402978757627295,67.57706165747656,64.6594504201708
39.5508,65.36734751066345,64.88125718026694,65.09275170087507,65.11178119770243,69.02394288237642,66.22852996912005
41.0156,67.31167056455945,66.99017672089829,67.0955854499602,67.20385316336274,70.93710479086073,68.21771567667697
42.4805,68.84510874648196,68.44221724443258,68.58663119049604,68.73222049625494,72.06315295807487,69.5829958442721
43.9453,70.28232355535815,69.99814640663716,70.03783452917793,70.26971266843816,73.42692051298269,71.0318278835736
45.4102,72.05625742378872,71.77976729179578,71.82441771786608,72.04670417806162,74.8738569315686,72.69884334562454
46.875,73.75198423841037,73.48032305926318,73.53758827171696,73.74453604340262,76.303179597075,74.31252804856962
48.3398,75.32082104576158,75.05148636186797,75.11554528058488,75.31546845447936,77.70610375267583,75.83187566603054
51.2695,78.28890444681176,78.10047292828304,78.10027668477935,78.36248717285852,80.50559397662443,78.779611393098
52.7344,79.62886036674459,79.45080072373226,79.44183529058701,79.7184613807583,81.72691636021204,80.08960308207463
54.1992,80.81176824780204,80.6498037751053,80.62479885705122,80.92142102036749,82.81657163477918,81.25204569924436
55.6641,81.74642275780515,81.56340807121117,81.55366423568715,81.85051335535677,83.62320552392269,82.14463706172718
58.5938,83.03622074800188,82.87254762145383,82.85378330017963,83.16537118575867,84.70609138228298,83.38726960704435
60.0586,83.35812561867183,83.19803636873905,83.1767070812943,83.49252082126138,84.94538432048479,83.68876776043999
62.9883,83.56709784513826,83.40974632000007,83.38695817733353,83.71011140982377,84.9784727859961,83.85384272921912
64.4531,83.52653880754912,83.37004995771969,83.34607398960844,83.67509258798053,84.86637639439195,83.79603493156694
67.3828,83.37037991338299,83.22779566700628,83.19797600937918,83.52699478841346,84.56351882376113,83.60839891914695
68.8477,83.31832608299274,83.17896989132714,83.14782122540811,83.47636917407002,84.43790612400456,83.53935332245221
71.7773,83.26476184418662,83.13015315670518,83.09823049562767,83.41793607623701,84.2410856173158,83.45163463898754
74.707,83.25786937859434,83.14216418913524,83.10091079746694,83.41829042291174,84.12922974022177,83.42655326312067
77.6367,83.23424952311662,83.12364916771097,83.07833926186959,83.40733350869537,84.0413998987692,83.39161521753624
79.1016,83.2386140615657,83.1316669949631,83.08577085458951,83.41530900619472,84.00001980111907,83.3873847993444
82.0312,83.28274315815534,83.18607849072336,83.13640976942784,83.46828025196763,83.96880867435387,83.41923370446814
84.9609,83.3673492627284,83.2497453230055,83.22356641874174,83.52841490098163,83.88476071128272,83.45763025344493
87.8906,83.38065655488067,83.30311657330898,83.24160330071302,83.5873006602427,84.0071495633608,83.51299377800233
90.8203,83.46709808541327,83.42235430004274,83.33595412986166,83.69974487526598,84.08326917590847,83.61017858701271
95.2148,83.6278425146318,83.64340079652196,83.54579369971574,83.861337893905,84.08108266575871,83.75630942621336
98.1445,83.75746164916427,83.80635792100954,83.69435950974187,83.97933361776632,84.12682076187686,83.87577230698096
101.074,83.94029149057637,84.01486167740532,83.91393700763086,84.15119062870957,84.14941547774818,84.03510571886528
105.469,83.9793939946116,84.16707296456266,83.93269276212035,84.28189446482028,84.40598790499794,84.15708390829764
108.398,84.3195514802418,84.42525470031258,84.22785340712807,84.5646717111857,84.65362074982005,84.44097546579033
112.793,84.6867841253634,84.69010759739936,84.5814290298662,84.85378103550767,84.81130072914958,84.72576966971891
117.188,84.79883400684736,84.81007685160684,84.72251732194931,84.97291585463879,84.92407374109706,84.84662770546612
120.117,84.9578583140683,84.94184477915228,84.86589349458315,85.11439237946539,85.00390363869627,84.97755310077788
124.512,85.25703226948816,85.16770488885047,85.1514831390478,85.3103060377886,85.01018926789098,85.18055300035181
128.906,85.39308393793962,85.28256446089364,85.30283711439651,85.43023541976648,85.03244504616256,85.29044026838409
133.301,85.3450430486276,85.25739770006072,85.26044369538369,85.42940552408245,85.1061116838037,85.2810056152976
139.16,85.30930005842583,85.24082892666843,85.19949185274794,85.45268823927948,85.25191614252975,85.29174647896676
143.555,85.4882163681805,85.3075714886355,85.34682404562199,85.52638627093673,85.24718876502202,85.38455335625272
147.949,85.6914436629954,85.4357699406097,85.55995332864029,85.62889672066572,85.15100222359295,85.49756388648697
153.809,85.72363021678991,85.3959306301746,85.59881912907437,85.6171694883438,84.99356003019109,85.47338771338111
159.668,85.67984047069513,85.27727436378755,85.52651779078434,85.599769726154,85.07112391566329,85.43667020911606
165.527,85.82398636354955,85.39505855102968,85.63963816634153,85.7147926418747,85.20783086868786,85.56200244105207
171.387,85.70329373622904,85.25056974666185,85.55054906747966,85.52292021997332,84.99997221066438,85.41257259873144
177.246,85.57410982631731,85.16343500455484,85.38684409350189,85.43854985796848,84.96543816337997,85.31098745944041
183.105,85.80567931579836,85.08246510499264,85.56854487572282,85.43599203427804,84.84707783752367,85.36139980990083
188.965,85.71290273092592,85.18457400898889,85.58584374964134,85.41861155026311,84.62557568346632,85.32200463238999
196.289,85.72094335223434,85.17883253727639,85.56826691794072,85.3582910306024,84.54983436154929,85.29379241545652
203.613,85.70153553713398,85.04673323523693,85.55416690385988,85.26846707433339,84.36787779782634,85.21234383508718
210.938,85.69207055488326,84.90341142246793,85.5066589620919,85.19282860801792,84.09050035058756,85.11228203757697
218.262,85.39610777909274,84.68967238942906,85.25163597310677,84.97870869846176,83.9265205382988,84.87871544768393
225.586,85.26602212503884,84.42804541926904,85.11543275527916,84.83475672022216,83.9504803117553,84.74483995263245
232.91,85.42037409168054,84.50119285848452,85.24176979361287,84.83556369015383,83.68511218794747,84.77906112348205
241.699,85.42575948348026,84.15614324669629,85.12897459395433,84.5736832437327,83.40074430468378,84.595184878492
250.488,85.74452775921849,83.94378820885807,85.34524800302916,84.55361154239178,82.84658454088299,84.60493549952311
259.277,85.29713797989825,83.80686493251751,85.00851626803866,84.36567937826402,82.71220312602544,84.33199917196485
268.066,85.29400201900408,83.34757516419765,84.85768982895928,84.11030821192003,82.3694619642803,84.11880190565978
276.855,85.0726594392888,83.55752113888629,84.82893507076379,84.14336070740227,82.32695625433473,84.09234412725408
287.109,84.42328366306783,83.46111441371322,84.32820962411148,84.15800276778661,82.42351786115447,83.81983413352353
297.363,84.47438540155296,83.74858347263945,84.6048540033552,83.78413563657598,82.08599538766161,83.82605592729709
307.617,84.34007209733964,83.55948636526014,84.31780011923874,83.78398668285315,81.92627273562485,83.66866874787449
319.336,84.34885603852837,82.79935454308124,84.07347269716075,83.05384937370215,81.72325117455344,83.29971528158477
329.59,84.351985903627,82.46280543723779,84.111785492512,82.80042965848476,81.58711915420888,83.18532873860956
341.309,85.1291129924372,83.14131317090018,84.89946105535928,83.07714656626734,81.48725109026975,83.74685517826687
353.027,85.01778904955734,83.04908579722601,84.90264249862463,83.56109512041198,81.1776269337962,83.75381748652933
366.211,85.06119489528515,83.08209969406137,84.92766551068026,83.65733002808732,80.74023811154557,83.75029669740847
379.395,85.08217978009287,83.53285657433723,84.96427170038739,83.87342000278738,80.91146850290231,83.90512280520939
392.578,84.47611504739338,82.81336226174977,84.27320948676027,83.30181709213345,80.78771439970896,83.31506864077824
405.762,84.41028210539481,82.89772347768671,84.43099698654275,82.97701879931545,80.55348032915452,83.26507479169992
420.41,84.31960665378745,82.95596955021219,84.36588919900753,83.43584827993602,79.83864315375196,83.25554782698526
435.059,84.13557941679991,82.35435422217242,84.02069047633944,82.84808317144119,79.8887584032385,82.89430146269733
451.172,84.80991155757076,82.39614038187628,84.7072222720465,83.53356425784442,79.35737379184312,83.35970203288736
465.82,84.17633845019633,82.26815147917726,84.20792572566296,83.4045932424303,79.45270041652964,83.01401503907545
483.398,83.71380230276999,82.3951305145408,84.01554713902908,83.1084934461746,79.47303405155651,82.80574185370115
499.512,84.36896723392645,82.21526896812858,84.23561176636969,82.76656739402465,79.37900632525181,82.92680719218662
517.09,84.02934535931377,82.14577805648699,84.08003564717926,82.8754488021091,79.58913330447845,82.8217349613361
536.133,84.38634802060962,80.4876473784276,84.59942764892297,82.82084230620167,78.6892555705957,82.74258244688997
555.176,84.58185183947705,80.7384087307692,84.94095229042918,83.56686096560685,78.70551152019937,83.093157470363
574.219,84.87285217127844,81.38016748676593,84.85367062462214,83.39372477276785,79.29304466313731,83.23747640265766
594.727,84.6732918231555,81.71138283360682,85.07189672997465,83.60282484474986,79.33320522020708,83.33697058662165
615.234,85.45628879362748,82.1211023499134,85.64454153957124,84.59060088038078,79.99186599372777,84.04369977395116
637.207,86.46478825483396,81.89100950792623,86.15712841130788,84.51991626429498,80.81033588629344,84.51497561339224
659.18,85.5227671186035,81.93828096981302,85.71111896390056,83.6873379075486,79.71822562720227,83.84846826495216
682.617,85.80698270688153,81.43604824663592,85.80656717554383,83.49898907298535,79.23974988253941,83.83282416205412
707.52,85.4114967442238,81.60168519581936,85.2828699139533,82.79552168768355,78.69361723478781,83.40102154222271
732.422,85.20641596675338,82.6410653522479,85.62187073566103,83.31801338979466,78.92933349143583,83.70352543343091
757.324,86.66414912569934,83.87951346033799,86.94952354880836,84.20185751252434,80.166861099467,84.97111521939348
785.156,86.22970614920513,84.45413370896925,86.82134601081228,83.91507841644244,79.66961821756195,84.82472213043533
811.523,86.41351420714354,84.04182912662124,86.93166312003149,83.94856864709085,80.07296075774406,84.87077343042118
840.82,86.0263030445324,84.79970137263436,87.01604856623584,83.58528841158446,79.2446912867824,84.82270729585562
870.117,85.21844574216674,83.44659814628164,86.98578987270731,83.72784666922738,79.02539391950953,84.37451269113625
900.879,85.82962546121772,83.63568645828721,87.14904547894281,84.01064954571,78.87364090131737,84.6580357446652
933.105,85.17064517779484,83.40540467645812,86.92989510930263,83.48688018577099,78.64496921129108,84.27325544741727
965.332,85.03409260351809,82.73638725348691,86.7681237298831,83.3087784301355,77.88677608324736,84.00477931906556
1000.49,84.7932040117235,82.73203480541156,86.43120917354298,82.93685823093166,77.86272709366075,83.75317209972587
1035.64,84.09337783718962,82.34417178879862,85.92918175065259,82.26450328076425,76.69200876534572,83.15972851244602
1072.27,83.54181549600484,81.4862759462688,85.28197403196667,81.94451137549508,76.85666605887953,82.5971599152642
1108.89,83.48554881091881,82.49965337614992,84.65208675291225,81.50293926577336,76.6025545948525,82.4546833735134
1148.44,82.82741771427654,82.03042941264312,83.97340574304779,80.26417500699662,74.72382152161086,81.68472603049662
1189.45,82.44675437147414,79.5951655632034,83.56366095108532,80.48187948371694,74.30084144922594,81.02154922252062
1230.47,82.81179324888436,80.00673163624447,84.12414771768611,81.08141887737659,75.00436345141907,81.5205682417206
1274.41,82.90133114807918,79.54777231054001,84.39263121138966,80.64407861174196,74.99948392136164,81.50889435426446
1319.82,82.98434083874778,79.4693152530114,84.4611808214473,80.29444479101203,75.44298453206538,81.51473776070131
1366.7,83.01826899942137,79.19668530201258,84.54797136436278,80.03937119039776,76.34546519917103,81.53794430058264
1413.57,83.2147985944375,79.29354692252126,84.95472064120175,81.0715869237344,75.76753438076199,81.89377319613833
1463.38,83.2094859979529,80.0580878777855,84.19411223805987,80.47734524540978,74.32684211242845,81.53573246843062
1516.11,81.81905589390009,77.85093788539493,82.8649473332838,79.23434259164063,72.51047511956067,80.06951880954517
1568.85,80.57466670256404,77.35304684693652,82.34909066043662,78.47474959440157,72.62632803939705,79.33444184491614
1624.51,79.69913522307124,77.3657169376081,83.30968017281785,79.20590189576937,72.4818305130085,79.66704924286037
1681.64,81.08423805070025,76.60169512310463,84.7843989200377,80.7099001250668,73.52500921939482,80.90096848172305
1741.7,80.43726835865635,76.49633718709606,85.35502713027064,81.02259314846717,72.99364062531558,81.10496029256296
1803.22,81.10106188902898,78.64116885939958,84.74939942947151,80.48468428379088,73.66328710862429,81.04172090538069
1866.21,79.5469300308353,76.47615390912019,84.1277868993063,79.16200206538872,72.73129373674666,79.95120712248877
1932.13,78.81609998205364,74.85867306373243,84.38526906389873,79.23200452655044,72.10165638089308,79.83406060487195
1999.51,77.50150535027947,78.61963909008487,84.48106012180168,80.40331716480269,72.50705304955997,80.31150406380291
2069.82,79.40608186678305,76.41766813272977,85.61657040766345,80.44539028924504,73.06864728496438,80.98009495579072
2143.07,78.29283177493647,74.24477889072975,84.63412759422431,81.06473289563203,72.22504124517144,80.24670658026463
2219.24,79.16354196797168,74.85198292461298,83.1788287806722,80.04757533785735,72.64308710107969,79.44914514797667
2296.88,76.52696174643802,72.97862608414411,82.91649123330134,79.53959657151488,72.60078437067848,78.67666813977513
2378.91,79.02836181854644,77.99017441931355,83.35893430385123,80.17857187216258,71.56414838950869,79.80600215051925
2462.4,78.89998971632465,71.9662042234886,84.65813464279128,81.27673192779599,72.36384732747076,80.31044482889493
2548.83,77.93445053463067,73.57717118202163,84.19534739809313,81.23649838862231,71.81637234452369,79.96349916136421
2639.65,77.5105143064905,75.16889392507821,83.1582895271859,80.21037677602585,71.20650926456754,79.18392660911248
2731.93,77.87960668095069,76.66618859874131,83.02929630068542,80.02483033973223,70.6660219322215,79.25197511320471
2828.61,78.56015635638876,77.60073314886526,83.39039088290787,80.40686974439899,70.79818570942254,79.72635419303344
2928.22,79.0546079522297,78.27181668719476,83.86542491689286,80.94043108275051,70.73799026577255,80.22974960784994
3030.76,78.48048335998305,78.53344767552838,83.95724768097595,81.1379496062805,70.99239403613018,80.27814182281591
3137.7,78.46399421432938,79.40245359395774,83.53595367980581,81.03191105328716,70.87743658142409,80.18824222448616
3249.02,79.8876087001141,80.1852063856192,83.15487479681616,80.384504594838,70.18368917738536,80.2387885272014
3363.28,80.23049306739121,80.17711142001909,83.25466104398097,80.10337403501308,69.11926092332143,80.26747473968601
3481.93,80.93535215023246,80.0550116942859,83.36375657387664,80.20530699179015,69.1811027683739,80.45626155670756
3604.98,81.14327289195347,80.21197074336591,83.51904345144568,80.58316098670812,69.58626406118692,80.67022580711128
3732.42,80.49530046257885,80.43067265546819,84.24258011372638,80.63936040263302,69.11654615862093,80.87883433185834
3864.26,81.83706056726214,81.17285645597374,83.64849078522937,79.72913044330119,68.47610307936584,80.90829671260593
4000.49,82.15296550676669,80.93832755621199,84.18297749177948,79.46893174264994,68.32520542431655,81.1097757568255
4141.11,83.30521116778017,80.82085874476408,85.00224522376331,79.74525392625377,69.02355197647671,81.78135679379945
4287.6,83.21472579702218,80.8367832958562,84.57911787321075,80.12158578371574,69.99460363293169,81.64789784106513
4438.48,82.81049820628057,79.6734579921798,84.46444609842962,80.89020021946075,70.32698652114533,81.44160592325663
4595.21,83.53047445925124,80.45720966528478,84.6771894278973,80.99924762749919,70.52019350419167,81.85977331202518
4756.35,84.02814417770148,80.48793475950706,85.38672968258919,81.2536264619504,69.07601062492206,82.31438168003135
4924.8,84.10029540092378,80.1097723971224,85.41159295195075,81.66306648894553,69.20832053195711,82.3667449455067
5097.66,84.57323642318956,80.11825666520367,85.66108773961119,80.75912083615324,68.71090388510441,82.47553345696048
5277.83,84.31325118964772,80.26213325828992,86.1027794040543,81.47317870376182,67.33603650699334,82.6934382578666
5463.87,84.50653405918214,80.05790717173014,86.2789481616399,81.32978579063612,67.86364043346529,82.78781422192539
5657.23,85.72981714422812,80.75304215722313,86.34089585787555,80.59099637496483,67.42380093722917,83.19625217522767
5856.45,86.22394435147811,80.66967494444216,85.63638044598693,79.32378744003239,67.30509770876694,82.97951481202298
6062.99,85.51957556936871,80.93021074897996,86.3333206892928,79.84055079323531,66.3965791625644,83.0574841740436
6276.86,84.63886958914595,81.71370076370296,86.5681556975606,79.3901982124029,65.91322403812882,82.93992150294928
6498.05,83.56735086429126,81.81546501160125,86.87380651614899,80.11209376014506,65.20265516071682,82.88709116382516
6726.56,83.33854044687857,80.8611556508103,86.79996300453945,79.78171490825602,65.78642740616729,82.6252104945313
6963.87,84.24920306490014,80.48074168723588,86.84431930852301,79.55492535878058,65.4220159659391,82.81039263967423
7209.96,84.57329197015923,80.2118753126768,87.14314829125479,80.25713412049457,66.46442175632575,83.0969260776838
7464.84,84.44077732171802,80.42611801858479,86.83808378402415,79.6831042024308,65.30661446692174,82.86695638875467
7727.05,83.25791828754285,80.31233234024498,87.51579897611603,79.91254004812875,65.2954253714132,82.94454397538158
7999.51,82.84814933421063,80.21328321680282,87.15961944620693,79.19125306902194,65.12717069387998,82.5715984250538
8282.23,83.51682566162296,79.37819719945274,87.12654849042424,79.59355764658932,65.58393266265668,82.65803648929896
8573.73,84.299340991059,79.1686685416775,87.05165695579626,79.74113888673273,65.17581158195917,82.81661332501992
8876.95,83.92276322416473,79.36353585554875,86.81917918972603,79.81724328228958,65.15654584195676,82.61517439661029
9188.96,83.85737656675249,79.36880610262452,86.63769231891673,79.6802295409507,65.31717191895545,82.48915652261351
9514.16,84.25092925296596,79.20734623859708,86.53256844425957,79.60920880514186,65.4419780706271,82.52556099885369
