Freq "Rear Wall Bounce"
20.5078 51.33277496825632
21.9727 52.39645924866572
23.4375 53.73715650908859
24.9023 54.958587534372484
26.3672 56.24608162391432
27.832 57.326724462394665
29.2969 58.755053721601726
30.7617 59.97232758646011
32.2266 61.62516740210329
33.6914 62.945610641992005
35.1562 64.46247476678963
36.6211 65.99065825250861
38.0859 67.38459953626443
39.5508 68.83148076116429
41.0156 70.7446426696486
42.4805 71.87069083686274
43.9453 73.23445839177056
45.4102 74.68139481035647
46.875 76.11071747586287
48.3398 77.5136416314637
51.2695 80.3131318554123
52.7344 81.53445423899991
54.1992 82.62410951356705
55.6641 83.43074340271056
58.5938 84.51362926107085
60.0586 84.75292219927266
62.9883 84.78601066478397
64.4531 84.67391427317982
67.3828 84.371056702549
68.8477 84.24544400279242
71.7773 84.04862349610367
74.707 83.93676761900964
77.6367 83.84893777755707
79.1016 83.80755767990694
82.0312 83.77634655314174
84.9609 83.69229859007059
87.8906 83.81468744214867
90.8203 83.89080705469634
95.2148 83.88862054454658
98.1445 83.93435864066473
101.074 83.95695335653605
105.469 84.21352578378581
108.398 84.46115862860792
112.793 84.61883860793745
117.188 84.73161161988493
120.117 84.81144151748414
124.512 84.81772714667885
128.906 84.83998292495043
133.301 84.91364956259157
139.16 85.05945402131762
143.555 85.05472664380989
147.949 84.95854010238082
153.809 84.80109790897896
159.668 84.87866179445116
165.527 85.01536874747573
171.387 84.80751008945225
177.246 84.77297604216784
183.105 84.65461571631154
188.965 84.43311356225419
196.289 84.35737224033716
203.613 84.17541567661421
210.938 83.89803822937543
218.262 83.73405841708667
225.586 83.75801819054317
232.91 83.49265006673534
241.699 83.20828218347165
250.488 82.65412241967086
259.277 82.51974100481331
268.066 82.17699984306817
276.855 82.1344941331226
287.109 82.23105573994233
297.363 81.89353326644948
307.617 81.73381061441272
319.336 81.53078905334131
329.59 81.39465703299675
341.309 81.29478896905762
353.027 80.98516481258407
366.211 80.54777599033343
379.395 80.71900638169018
392.578 80.59525227849683
405.762 80.3610182079424
420.41 79.64618103253983
435.059 79.69629628202637
451.172 79.16491167063099
465.82 79.2602382953175
483.398 79.28057193034438
499.512 79.18654420403968
517.09 79.39667118326632
536.133 78.49679344938357
555.176 78.51304939898723
574.219 79.10058254192518
594.727 79.14074309899495
615.234 79.79940387251564
637.207 80.61787376508131
659.18 79.52576350599014
682.617 79.04728776132728
707.52 78.50115511357568
732.422 78.7368713702237
757.324 79.97439897825487
785.156 79.47715609634982
811.523 79.88049863653193
840.82 79.05222916557027
870.117 78.8329317982974
900.879 78.68117878010524
933.105 78.45250709007895
965.332 77.69431396203522
1000.49 77.67026497244862
1035.64 76.49954664413359
1072.27 76.6642039376674
1108.89 76.41009247364038
1148.44 74.53135940039873
1189.45 74.10837932801381
1230.47 74.81190133020694
1274.41 74.80702180014951
1319.82 75.25052241085325
1366.7 76.1530030779589
1413.57 75.57507225954986
1463.38 74.13437999121632
1516.11 72.31801299834854
1568.85 72.43386591818492
1624.51 72.28936839179637
1681.64 73.33254709818269
1741.7 72.80117850410345
1803.22 73.47082498741216
1866.21 72.53883161553453
1932.13 71.90919425968094
1999.51 72.31459092834784
2069.82 72.87618516375225
2143.07 72.03257912395931
2219.24 72.45062497986756
2296.88 72.40832224946635
2378.91 71.37168626829656
2462.4 72.17138520625863
2548.83 71.62391022331155
2639.65 71.01404714335541
2731.93 70.47355981100937
2828.61 70.60572358821041
2928.22 70.54552814456042
3030.76 70.79993191491805
3137.7 70.68497446021196
3249.02 69.99122705617323
3363.28 68.9267988021093
3481.93 68.98864064716177
3604.98 69.3938019399748
3732.42 68.9240840374088
3864.26 68.28364095815371
4000.49 68.13274330310442
4141.11 68.83108985526458
4287.6 69.80214151171955
4438.48 70.1345243999332
4595.21 70.32773138297954
4756.35 68.88354850370993
4924.8 69.01585841074498
5097.66 68.51844176389228
5277.83 67.1435743857812
5463.87 67.67117831225316
5657.23 67.23133881601704
5856.45 67.1126355875548
6062.99 66.20411704135226
6276.86 65.72076191691669
6498.05 65.01019303950468
6726.56 65.59396528495516
6963.87 65.22955384472696
7209.96 66.27195963511362
7464.84 65.11415234570961
7727.05 65.10296325020107
7999.51 64.93470857266784
8282.23 65.39147054144455
8573.73 64.98334946074704
8876.95 64.96408372074463
9188.96 65.12470979774332
9514.16 65.24951594941497
9849.61 65.27398989124346
10196.8 65.00862336185732
10555.7 63.97657314681139
10927.7 62.72157999866651
11313.0 63.50231613808903
11712.9 64.31364011534325
12126.0 64.97585392235825
12553.7 64.82688636323272
12996.1 64.38266794038013
13454.6 64.37027775258606
13929.2 63.90069332184535
14419.9 62.85903437369832
14928.2 61.11529835037648
15455.6 58.91046927501013
16000.5 54.84316135227333
16564.5 48.74968711900338
17148.9 47.958265281861614
17752.4 49.274409820397594
18379.4 50.31654892152743
19026.9 49.44652747779624
19697.8 51.60565861839994
19999.5 50.482477486275926
