Freq,Floor Bounce,Ceiling Bounce,Front Wall Bounce,Side Wall Bounce,Rear Wall Bounce,Total Early Reflection
20.5078,53.89288342384714,54.9392642737013,54.9965015849568,54.33955993499177,63.68078245525783,58.42406166445747
21.9727,59.11418840069348,59.34545419583091,59.302112026334356,59.42703845420027,65.98379746077592,61.68484833390252
23.4375,61.28075298368168,61.3292073695396,61.39622028305848,61.154591908336926,66.89080870548509,63.12694551304432
24.9023,65.65035766891172,64.91283412061418,65.31853760909519,65.20820534743532,69.23610490707718,66.41080296135169
26.3672,67.5291854074039,66.71403919213702,67.26628327521368,66.96386394988949,70.53212900857048,68.05588605365844
27.832,69.34107464785157,68.38648431699792,68.96991816865686,68.79894314291944,71.9917503037085,69.71093098048442
29.2969,72.39605291306411,71.07154930182149,71.77693331885808,71.84148797725236,74.76250953534486,72.57375529960854
30.7617,74.38685166844581,73.27663509935999,73.80825693394172,73.9869800451446,76.82080829818148,74.65068835855269
32.2266,76.90820507236029,75.50381553081449,76.15389930915742,76.42989059406239,78.90421914589814,76.94575386841309
33.6914,79.00328304791032,77.55683762749558,78.22348703634626,78.52779430600789,80.66981089802798,78.93007253062925
35.1562,80.58182258329336,79.07550721409238,79.77911331683526,80.05524973180809,81.9062367157904,80.38689572474453
36.6211,81.6166466237155,80.06171992796452,80.7920513930594,81.0762838756985,82.76745181113961,81.3594875629441
38.0859,82.42258462266997,80.77087972970203,81.55308960102374,81.85127466425149,83.4177958827125,82.0947661803616
39.5508,82.97420391594522,81.2277767345561,82.04466737633746,82.4025396810544,83.9332201970349,82.61206422087244
41.0156,83.76622516178813,82.10235080439614,82.88519832123306,83.2092857740194,84.5241793670332,83.37420700928021
42.4805,84.16150182501258,82.4284224462538,83.25646387981061,83.57412054572988,84.76567337995428,83.70932426329534
43.9453,84.44054094117831,82.68669636958009,83.53517235370633,83.83733601290301,84.90849416960052,83.94776117982643
45.4102,84.8287485289171,83.03661849003976,83.91568098669887,84.19766033422019,85.14034161094278,84.2848275518947
46.875,85.16718817061022,83.34913576510637,84.25421682814793,84.51084303468016,85.3368679659309,84.58025424382603
48.3398,85.43168773418066,83.58809936992465,84.51634640642499,84.75457786794979,85.48142373568356,84.80808379131197
51.2695,86.08521966584897,84.22969189666473,85.16986247094812,85.41111014271902,86.08686081308181,85.4492172220818
52.7344,86.26612125107198,84.40957275756305,85.3477144178526,85.59919883795868,86.25884881939652,85.62875622881691
54.1992,86.48792427432447,84.61758947806348,85.5687110694115,85.81839957408212,86.43909626714432,85.83823180813482
55.6641,86.78280958300189,84.9143850511527,85.87227744501952,86.11088267400919,86.67592924699646,86.12130027788024
58.5938,87.23643867343642,85.37595361162082,86.33232745691242,86.56144105035995,87.04085956276992,86.5567442879557
60.0586,87.42096187840708,85.52992585855826,86.50598914244831,86.7231364202736,87.14865156412414,86.71291178400524
62.9883,87.75410473618393,85.82600430336458,86.82971602333578,87.03222030447319,87.3811462808206,87.01169616611794
64.4531,87.89032537732781,85.9499538485191,86.96390714039794,87.16002757496946,87.47831122814762,87.13548907381268
67.3828,88.19264842091559,86.20599964426648,87.25914713255627,87.43138094070845,87.67168068219104,87.39978440322017
68.8477,88.37565955374214,86.37982046842882,87.44545614848157,87.60477948108459,87.80486410574257,87.56953610670132
71.7773,88.64507906868093,86.61278060245516,87.71582582394741,87.83979988297686,87.92591583973831,87.79569900197379
74.707,88.9199523105689,86.88341039642603,87.98813961789836,88.11868290749044,88.16649066456355,88.06318741571957
77.6367,89.08021250936045,87.05296974693698,88.15382447674183,88.28434433360543,88.31971548038646,88.22558806495564
79.1016,89.13074525309801,87.09774592789302,88.20421914707731,88.32978851842518,88.35277021830969,88.27061587598487
82.0312,89.21448871031437,87.1605948508313,88.28424421716916,88.3956663730403,88.37087650799212,88.33350278810025
84.9609,89.29722596126399,87.23255328294505,88.36570680907839,88.47461227322583,88.44951180222276,88.41274715088113
87.8906,89.27858893477422,87.17728654878636,88.33861374249369,88.42295467495998,88.34771721314097,88.36348501592533
90.8203,89.25266004644477,87.12883257274854,88.31292128144077,88.37729924469713,88.25657860437593,88.31724808756157
95.2148,89.15639109585952,86.99816714885289,88.21418775058714,88.26427470946429,88.13226496831828,88.2063459391731
98.1445,89.05568744962521,86.86860337150915,88.11290875091598,88.14448028788773,87.98305079048572,88.08778869729505
101.074,88.91882729993799,86.65298338693388,87.96685777574807,87.96099963770106,87.72814095340829,87.90491657060738
105.469,88.99871743795043,86.66104228416798,88.08150620502735,88.00210489112703,87.56934344372775,87.9284227699661
108.398,89.26994577363854,86.92046182261092,88.36425009924898,88.27458151992822,87.81152805852719,88.19520015196373
112.793,89.1712999547932,86.75353105253897,88.22507258496711,88.16384264905173,87.75786409580023,88.08386211305515
117.188,89.02073010916624,86.5863863132046,88.07879621284954,88.03228998364226,87.65541458794405,87.94458976486654
120.117,89.03837596379071,86.47409747238814,88.05697192551462,88.01472597964647,87.6318388408871,87.92036985309886
124.512,88.93885304457704,86.37704713434302,87.91740179431156,87.97122023965079,87.91200086225717,87.8980617729456
128.906,88.77403955459357,86.03628551066619,87.6752496267328,87.75860239560814,87.85187713991382,87.705051609214
133.301,88.42599540692474,85.57133462911625,87.24351117355191,87.41497254893306,87.8335445329701,87.39641352379984
139.16,87.79396139669707,84.66745552447153,86.49706754241643,86.68936045075449,87.50618956582672,86.75916871550649
143.555,87.27517905081291,83.95296779937475,85.93802617383732,86.06394625389633,87.21236521989752,86.24330994374921
147.949,86.79196850318972,83.55209595770327,85.61749713742134,85.50893773649273,86.85169147638874,85.81783287057658
153.809,87.06849521888742,84.1486790460689,86.32837154756395,85.62209101402125,86.43827538133452,86.02879222761659
159.668,87.70112821313634,85.0578655958152,87.18819087698948,86.17493849756174,86.26816891942852,86.57205727214628
165.527,88.32740099291809,85.59562692447122,87.84571094559338,86.67036109016435,85.70185403351694,86.96925354766
171.387,88.52721783000251,85.91011360906583,88.02890850081465,87.01665078620456,85.71708263742767,87.1827442642728
177.246,88.22834084691334,85.55661882258796,87.68229817868358,86.66848109848925,85.58431603488317,86.87896018171293
183.105,88.1009792533309,85.39493590787897,87.59651845575425,86.47275123899044,85.25728695638983,86.71455943959971
188.965,88.26966154777259,85.48861250831655,87.86423071929171,86.57987201516208,84.80427175797954,86.80165983598957
196.289,88.83011494753396,85.93635744958618,88.38301181897513,87.23905396912127,84.84412772694427,87.29153315285583
203.613,88.6775432910723,85.57162147319181,88.09548018319597,86.9075006758845,84.71751659559405,87.04171449962494
210.938,88.3300504648418,85.16754457032829,87.68324147605883,86.5006446781244,84.42664821223802,86.66496787934355
218.262,88.30072921021261,85.01992526139625,87.62143654516036,86.55861640809417,83.94059655392408,86.57571209296611
225.586,88.15531583017298,84.79616532519735,87.50497057857338,86.40174807353321,84.33415820059682,86.4867508166732
232.91,88.41493183394999,84.59906704202066,87.66909128452707,86.39233667486032,83.54106937833797,86.4913385282938
241.699,88.07635461615531,84.21338082298446,87.29933724418973,86.2574202591858,83.28005012460656,86.18711225941433
250.488,87.52068479986181,83.28337592477844,86.50089300444164,85.51340955689744,82.9585292134667,85.51040288986826
259.277,88.1779537471286,84.12432679977066,87.88794536536133,86.2898116054287,83.03838453565027,86.34999891454035
268.066,88.31238219221909,84.1051406168842,87.5690969325813,86.68475933194969,83.14188625218972,86.3928049755402
276.855,86.99117718838241,82.54439887191431,85.8351439336567,85.13211616972315,83.39405233689126,85.07201519246117
287.109,89.04753592940907,82.51942346736925,88.16835319649755,85.87394971884822,85.08986765524027,86.71570840663165
297.363,88.97875700210078,83.86017839930169,88.45606665703446,86.63475750720131,83.1940211489086,86.81947524445962
307.617,89.07984448061548,83.93915021706749,88.60465586049952,87.24245890653745,82.4248051325736,86.96655585331965
319.336,88.26563578202665,83.44774909623092,87.87325638435419,86.87780496037374,82.45559027078365,86.37101275290469
329.59,88.33488453154159,82.96581971916915,87.61990774479213,86.59947449756478,82.38786128302107,86.20741605203548
341.309,88.6794220932085,82.89380989140595,87.86090001068233,86.7002344982634,82.60679526156935,86.42186811901652
353.027,89.05345511397563,82.48603199893736,87.98294558248799,86.95771337585231,82.02722936846865,86.562370202586
366.211,88.42490690772411,82.66427072743684,87.25905628744316,86.47678445166346,82.33861523012393,86.08125575034416
379.395,87.8606507260656,82.55020128903696,87.36688566117394,86.12177337314725,81.39958835453477,85.76052982138955
392.578,87.43950320589356,81.82375219799573,86.8572971396938,86.29118180149435,81.22919973073428,85.44108805632587
405.762,86.73818524610488,81.95781549384921,86.57726748861764,85.93353240215578,82.10794489307092,85.15360761531007
420.41,87.83031895804007,81.58977561646388,87.12039959642757,85.89670173328942,80.95367561069139,85.51344500078032
435.059,87.79289682102223,82.42579822650379,87.38466185376589,85.75014869917692,81.49464182493311,85.6606577083877
451.172,87.47548552275546,82.59811374859584,87.14621778731798,86.31426059830576,82.79845991703073,85.74697042859788
465.82,86.53978067670515,82.11243676499657,87.39002567006159,85.42745509019068,82.17385677532127,85.25205195750499
483.398,88.25729510953539,80.2223003937951,88.17421747034291,85.5488141530703,81.33813297994757,85.85779193703992
499.512,88.15735893065722,79.2082881569754,87.29647729036414,85.79361543251609,81.01391307425025,85.51473715717691
517.09,88.084584027562,79.14220349686087,87.34555340617393,85.2471784629865,81.79188736712497,85.45049475294356
536.133,88.72557752595722,79.73262103023062,88.7959936713726,85.9272879534856,81.18890345242258,86.27485231593442
555.176,88.68420198572765,78.86628762347583,88.21540098125274,86.0836138740987,81.37382180460476,86.0675498739613
574.219,89.19634050970183,78.5130427176391,88.3944167471117,86.0663017707421,82.30945958820486,86.36976885360784
594.727,89.68447704389256,77.34305243202682,88.25458680899686,84.83338502323386,81.35806799053833,86.22058634435588
615.234,89.90393453394881,78.4401895207304,88.6088176968087,85.14890567263366,79.93084937756797,86.43361097796473
637.207,89.5229909426057,78.24662192659798,89.47371413702874,86.05001914344146,81.40343601043546,86.79337651880593
659.18,90.35101031418756,77.35138877796805,89.13521531494925,85.91790078163497,79.15975236840706,86.86820473576182
682.617,90.5482031533013,78.74789591995099,89.83178945701901,86.33392413480584,81.47864215137847,87.39095625985469
707.52,90.29895672396637,75.78332885880232,88.83043423653378,85.75783220611349,79.4523118807105,86.69821556211875
732.422,90.06592549708003,75.87413135169955,89.37417098600754,86.13088975836874,80.22666974942423,86.87602835593134
757.324,90.43353811215012,73.9645799562424,88.93499436775771,85.94699158104973,80.14798338723932,86.8289639585521
785.156,89.50834766944568,81.94302535301159,90.61646661659522,88.01950027913716,81.57253826404612,87.7514922001447
811.523,91.0502888165884,72.14789219164965,90.12076073225555,87.17881095222283,77.56112931653857,87.63048424576257
840.82,90.22611806731507,81.59932468589533,87.78671850987573,84.68635033077408,80.06629682604765,86.4234957147881
870.117,91.63361724408789,74.74893221528818,88.62493240495795,85.32489744463867,79.31274989837576,87.22844682417913
900.879,91.32456009269468,78.82767101165824,88.1042062777511,85.76991036560828,81.00776660487281,87.13140594659193
933.105,90.13878548726228,82.8134102964749,87.83615138065542,85.14961118546921,78.32675294417044,86.48660840509352
965.332,91.0153553297718,80.52945476781893,87.3866080968399,83.9788823738496,79.82573221147567,86.57100958207866
1000.49,91.19981614235462,82.62701498895738,89.2153974186659,85.07694927537224,77.07461411200563,87.33821738994567
1035.64,90.46568244985522,84.19161141465372,88.30756865608345,84.55591752033354,77.88460694469437,86.8122326690935
1072.27,90.84175496665067,83.50127995693452,87.42491603308747,83.18693539209582,76.91674571058108,86.5282422488057
1108.89,90.596191774918,85.77850131017735,88.23628586383305,83.24255075898182,75.80192667821899,86.88547696932883
1148.44,89.47181102444276,84.41979719704773,86.84552468073323,82.86180142107177,74.0797486751496,85.71639219195828
1189.45,88.66797636173338,86.73249926741806,87.79817319863099,82.270774628771,75.74815445891724,86.05449840660276
1230.47,88.7048971859452,85.68547481866926,89.20925251382087,85.15401324479002,76.10925979700632,86.65477297385989
1274.41,89.39007336092153,85.46073453828258,89.44964167189994,85.23317996702822,78.58822338638106,87.00269076788953
1319.82,89.99307201249623,83.75083160403,90.73583830709964,86.10280919343067,78.15435456861508,87.62415099928984
1366.7,90.79226110419441,85.80420545417658,90.78480749050516,86.0388279317549,78.69471251932568,88.13510392385109
1413.57,90.35503871580582,86.24548411147572,90.75953632161256,85.99559564002226,78.81969792428409,88.02289854956871
1463.38,90.36830660178673,83.96165508058422,89.62922821400056,85.73387816815892,77.07201113173923,87.29336056611473
1516.11,87.98000485886662,82.4525439456164,88.92562248813235,85.10983201575955,78.51816272023711,85.97741929425644
1568.85,86.73442216850017,83.14792726063509,88.18973154490453,83.39506160422502,76.57937545051419,85.05434768658957
1624.51,85.319028611412,81.91887206188595,88.24464732189384,83.57643627624122,76.60140172153426,84.58480612294204
1681.64,85.08980808500408,81.59680071002089,88.89529855190445,84.0679185338142,76.05168919625336,84.88018835100112
1741.7,84.18237250992617,81.79735655345755,88.81827581555373,83.7782800045959,76.4106061777501,84.64622709770697
1803.22,84.24831000715562,82.58465934675317,88.55998871606899,83.9573888164326,75.71690431833785,84.62734644137325
1866.21,82.85469525659934,81.91133463750504,87.5182251243059,83.53715406060073,75.75551691373101,83.71577860502794
1932.13,81.5233961372308,81.7915799308661,86.09002768617209,83.30829519698624,74.99799663615227,82.76617477364327
1999.51,82.17699333840402,83.87646864267498,86.487673847907,83.0644696143276,74.83493007083418,83.37498210585514
2069.82,80.46919737154724,83.72655046453055,87.0141050611498,83.39439873236265,73.86227480958195,83.39616729712586
2143.07,81.73274434872644,84.24006135102628,87.44790767537468,83.89952069236882,74.70877473331637,83.96250496948382
2219.24,82.34389445261851,84.84848187659796,87.14192196959033,83.87750861378849,74.32731185850582,84.03483891842444
2296.88,82.00951606182615,84.75805713323095,86.55035266446276,83.05792125740508,73.79809612175865,83.5641030317194
2378.91,81.95490861302352,84.31549178585902,86.22049358040377,82.39394273320663,73.36378083378759,83.18498473981225
2462.4,80.81640283473192,84.37759215285388,87.79350127699882,83.58808010593455,73.05889587859916,83.96209586493183
2548.83,82.40035151900727,84.61888174896606,88.6241003457407,85.2613007677153,74.37826511196835,84.9280623151634
2639.65,84.04412708400413,84.82562023265808,88.53550050028205,85.09372546792011,73.12549551908745,85.0919079982716
2731.93,84.23419130162891,84.90211140286534,86.85777623365075,83.69446578542545,72.63393882052968,84.18894229547672
2828.61,84.10825038195239,85.43033288945907,87.20563621182775,83.38812429590337,71.5755781711769,84.36078802035462
2928.22,84.46246893841491,85.56416609077544,87.7837666815123,83.8378485743918,72.58532785099761,84.77103282444651
3030.76,85.40863893576714,84.89679733657115,88.6445120212606,84.56263970565746,72.8757282699079,85.29802541509804
3137.7,85.29673703451769,84.94721635144887,88.37585256925155,84.54642660473942,73.21385657638317,85.17148197044466
3249.02,85.9708485965865,85.1314072656041,88.28330105378322,84.56955802172612,73.84832829008312,85.3288680484819
3363.28,86.19039934615819,85.22685769975897,88.41210576744528,84.10222990034585,72.80377075915312,85.36340979992747
3481.93,86.39518234441601,85.2697758787363,88.7201877010832,84.55637333278725,72.76671405142878,85.61511594625598
3604.98,86.88373126186849,85.18156437515294,88.96630657130723,84.68489791722607,72.89225631611038,85.84201297433452
3732.42,86.63281052660867,85.84475888050704,88.92442152338148,84.45577280325331,73.03776360559291,85.853290654626
3864.26,86.69629854835591,85.84350704821392,88.33439662595839,84.40334134799969,73.16295949264784,85.63282441995491
4000.49,87.36698066248434,85.93372352510912,87.60223947520078,84.7560820061159,72.16904946146579,85.63155326847158
4141.11,87.22330824311088,86.10240142101898,88.12956886762763,85.4602058232475,72.41110358138295,85.92021668586804
4287.6,87.97475272935743,85.56550406207023,88.9547503527173,86.33581406826723,73.16143548325492,86.48246912296344
4438.48,88.03933198979396,85.79163761117924,88.67926516795505,86.30923722842256,73.50825478250002,86.44212541848675
4595.21,88.09731577716593,85.7620271130402,88.5947794158476,85.8161475301041,72.60514676812265,86.32563537619909
4756.35,88.27743480962948,86.02816385272774,88.93183598798204,85.90467241436544,72.89499164953315,86.55939940164325
4924.8,87.78977258720074,85.32714162410988,89.08505837975358,85.5861060773092,72.18505283621252,86.29533287317958
5097.66,88.23104497940209,85.84386960951787,88.482755978825,85.04003231188192,72.1422005066885,86.21208604694891
5277.83,87.92128204120976,85.84719270326586,88.12835660575175,84.13249002991252,71.02843703844994,85.85571857084457
5463.87,87.67567211186369,85.9213884874773,88.55014927026193,84.98803984524152,71.23128078529103,86.06665971624534
5657.23,86.72479542778179,85.87630667266738,88.36747026557549,85.026596270948,71.92700851819689,85.74671263944427
5856.45,86.78233933263058,84.89166589153577,88.30211899022734,85.26171947883286,71.2187674620697,85.58864006332502
6062.99,86.99759242974847,84.73072271958875,88.89101822231892,85.26944644226846,71.1321344206286,85.84832132614467
6276.86,86.87080557937806,84.63982038063276,88.65584773731638,85.20234605419951,70.34738207182909,85.69025359178963
6498.05,86.70081412306048,84.36382345128955,88.76791019484997,84.81017894186438,69.77887954775241,85.57786580943075
6726.56,86.71281456224222,83.81765223432427,88.89927588053409,84.94178601343899,69.85766927931556,85.58178008803512
6963.87,86.73439689773312,83.49721583920038,88.34713680915662,84.30441453553966,69.3279045708104,85.20257457793015
7209.96,86.76686069907123,82.66288418906177,88.9134863189073,84.23061235240982,68.39227181656887,85.34044038614806
7464.84,86.51332844920914,82.18094333490487,88.68845856037332,84.13632559347536,69.04717182429586,85.10507482356294
7727.05,86.39942457869469,82.03214005757954,88.5867473336533,84.09604983233471,67.60347538085055,84.99939382780252
7999.51,86.38192138996979,81.86994206304499,88.94660467163729,83.84264144080288,66.60340209257905,85.10534970867658
8282.23,86.48472197627663,81.4724365877923,88.65560087392288,83.30964834649855,66.41499591304171,84.87957318656757
8573.73,86.15782752212866,80.99919083530311,88.74766769510465,83.21907030583023,65.89701444796336,84.77682134108625
8876.95,85.91361606428171,80.83199555847196,88.51386308100415,82.3952119301986,64.77603850290603,84.46594139598548
9188.96,85.56862327693965,81.0237377667074,88.60445468132852,81.61700966244149,63.431747547724655,84.34422409726382
9514.16,85.58175826209344,80.61078749427031,88.68289205934144,81.3165082129059,61.52171988051768,84.3196895602921
9849.61,85.56989098518707,79.72003193625154,89.0585260819997,81.21326393461939,60.907461870216935,84.44947728309256
