Freq "Total Early Reflection"
20.5078 40.08800596019752
21.9727 40.952672131074436
23.4375 43.96550251220013
24.9023 46.09258630161493
26.3672 50.134491273415605
27.832 51.87475904105163
29.2969 54.37880748170117
30.7617 56.704329179905486
32.2266 58.99057497280948
33.6914 61.299995381685605
35.1563 63.584696952195245
36.6211 65.74793655384289
38.0859 67.76619020265109
39.5508 69.7306125678224
41.0156 71.70766808725084
42.4805 73.1318567833056
43.9453 74.90834573313569
45.4102 76.4647004446668
46.875 77.88905812945077
48.3398 79.22040523179217
51.2695 81.35746579437183
52.7344 82.22287657286768
54.1992 82.94114020872088
55.6641 83.53440634997361
58.5938 84.39603191089871
60.0586 84.73748074089988
62.9883 85.1768690175738
64.4531 85.340578960539
67.3828 85.57939346559475
68.8477 85.67145721566392
71.7773 85.84218425892485
74.707 85.96790727805909
77.6367 86.07003020994453
79.1016 86.10276327931902
82.0313 86.14983046646512
84.9609 86.2104296311407
87.8906 86.21635546434631
90.8203 86.2210906235754
95.2148 86.20960220336845
98.1445 86.20467099094046
101.074 86.17608095242174
105.469 86.12988631675883
108.398 86.09163349293307
112.793 86.11535071851044
117.188 86.00718067391888
120.117 85.97976159521282
124.512 85.96665476952445
128.906 85.87097296038674
133.301 85.80340280618208
139.16 85.70124492832204
143.555 85.59921196069573
147.949 85.51923965692421
153.809 85.40890598782735
159.668 85.40419406270186
165.527 85.39715206422086
171.387 85.2886019472056
177.246 85.17099092007174
183.105 84.99111231039582
188.965 84.92504904703655
196.289 84.94019577500238
203.613 84.77079221311031
210.938 84.70472683285986
218.262 84.61074481594095
225.586 84.55458329453258
232.91 84.5567906824139
241.699 84.43254372917627
250.488 84.25515151707397
259.277 84.47100449697952
268.066 84.31938293643468
276.855 84.23152452361067
287.109 84.44039430610144
297.363 84.36259154700284
307.617 84.40256685210292
319.336 84.24945865283131
329.59 84.33387355367547
341.309 84.23615104982244
353.027 84.0052395876295
366.211 84.09924805420376
379.395 84.49196211106374
392.578 84.33601541565525
405.762 83.9742759696441
420.41 84.23823245268184
435.059 84.0787543443584
451.172 84.28562300931405
465.82 84.26342809020787
483.398 84.24335413575794
499.512 84.0460515243934
517.09 84.37504838678522
536.133 83.6505645947809
555.176 84.15298901908838
574.219 84.68571709637088
594.727 84.74230565144791
615.234 84.65823129583325
637.207 84.80354384012412
659.18 84.3561024601205
682.617 84.25212612455043
707.52 84.57215201899668
732.422 84.43669745981653
757.324 84.49078222961506
785.156 84.76995032532052
811.523 84.07364780924105
840.82 84.1168590824054
870.117 83.68893745557305
900.879 83.56436584971308
933.105 83.3283472141038
965.332 83.26743384326282
1000.49 83.35604039675461
1035.64 83.32157614546537
1072.27 82.8616117039751
1108.89 82.50836494935702
1148.44 83.07925146867602
1189.45 82.72310330364223
1230.47 82.87965645883615
1274.41 83.45085197289025
1319.82 83.530487879335
1366.7 83.22459450955533
1413.57 83.46426159985162
1463.38 83.40091864183054
1516.11 83.54657612710656
1568.85 83.55493482675018
1624.51 83.37591204118465
1681.64 83.14627842089932
1741.7 84.06234405772226
1803.22 83.53586798038491
1866.21 83.07912451645527
1932.13 82.79799535104375
1999.51 82.70375867674453
2069.82 82.49497001796918
2143.07 81.74941340052966
2219.24 81.72045013662746
2296.88 81.27692013417109
2378.91 80.92743338655224
2462.4 80.94082556771444
2548.83 80.63236087237463
2639.65 80.64659330662383
2731.93 80.65501218276027
2828.61 80.21734583801685
2928.22 80.52480002183404
3030.76 80.36051395067794
3137.7 80.2939155952647
3249.02 80.30871721167351
3363.28 80.38026069509846
3481.93 80.56413603598966
3604.98 80.7706651915966
3732.42 80.73021213738738
3864.26 81.28329439543708
4000.49 80.9658530826241
4141.11 81.15036966387386
4287.6 81.33889979124294
4438.48 81.21827807950089
4595.21 81.25214719862454
4756.35 81.28613251091824
4924.8 80.92597115361907
5097.66 81.09533706499191
5277.83 80.93082714146628
5463.87 80.88862106863078
5657.23 80.93221650116638
5856.45 81.01622449642744
6062.99 81.11381811755754
6276.86 81.32627331229305
6498.05 81.56728527279162
6726.56 81.62643073692003
6963.87 81.64550599981236
7209.96 81.68871011142653
7464.84 81.57679265771121
7727.05 81.48731927184619
7999.51 81.28864202383119
8282.23 81.3519188885287
8573.73 81.34152919007494
8876.95 81.30135907452538
9188.96 81.13623589040546
9514.16 81.04406714923137
9849.61 81.00527292995245
10196.8 81.10894925705354
10555.7 80.87138146088242
10927.7 80.59887802659519
11313.0 80.43145584274743
11712.9 80.51331721591431
12126.0 80.54251050790012
12553.7 80.5639094071017
12996.1 80.5826424625771
13454.6 80.49465273031596
13929.2 80.45169818502285
14419.9 80.2902135790774
14928.2 80.04876264468844
15455.6 79.97953085908894
16000.5 79.87674785422183
16564.5 79.62050176319794
17148.9 79.16527315538882
17752.4 78.59127618908438
18379.4 78.07704590261676
19026.9 77.65586256953048
19697.8 76.9527594574294
19999.5 76.66843319512648
