Freq,On Axis,Listening Window,Sound Power,Early Reflections,Early Reflections DI,Sound Power DI,DI offset
20.5078,59.69807575757579,59.519484992499656,60.36801296377814,59.81898974024051,39.700495252259145,39.151472028721514,40
21.9727,62.48797575757578,62.317323259687896,62.33226348149813,62.20094688549193,40.116376374195966,39.985059778189765,40
23.4375,63.61337575757577,63.46298130386782,64.22457137010952,63.734600346109204,39.72838095775862,39.238409933758305,40
24.9023,64.72107575757578,64.59012100354119,65.50088745233552,64.95917338505588,39.63094761848531,39.089233551205666,40
26.3672,66.13207575757578,66.03536580403734,67.23933491685216,66.58880883014925,39.44655697388809,38.79603088718518,40
27.832,67.56597575757577,67.49328455974545,68.72013697425496,68.07836912302548,39.414915436719966,38.77314758549049,40
29.2969,69.39977575757578,69.33294941385036,70.18064535694343,69.71678345425687,39.61616595959349,39.15230405690693,40
30.7617,70.32067575757577,70.26870873526023,71.27393486881552,70.74620505579291,39.52250367946732,38.99477386644472,40
32.2266,71.29527575757578,71.2582962113679,72.34623579473731,71.79205058719377,39.466245624174135,38.912060416630595,40
33.6914,72.70827575757576,72.68386259865845,73.6781082895161,73.1777703375617,39.506092261096754,39.00575430914235,40
35.1562,73.94337575757578,73.92704677445056,74.8575892683094,74.39295289417757,39.53409388027299,39.06945750614116,40
36.6211,74.89177575757577,74.8814468465022,75.76378574411655,75.32703362284161,39.55441322366059,39.117661102385654,40
38.0859,75.60267575757578,75.60108946504994,76.54560962699634,76.08555130974084,39.5155381553091,39.0554798380536,40
39.5508,76.61177575757577,76.61557313087405,77.45616726231108,77.050585361533,39.56498776934106,39.15940586856297,40
41.0156,77.29557575757578,77.30198795219763,78.08445109303663,77.70830122993934,39.5936867222583,39.217536859161,40
42.4805,77.94557575757577,77.95404316801174,78.66029125944809,78.32205232440776,39.63199084360397,39.29375190856365,40
43.9453,78.59357575757578,78.6041543960842,79.26909969015676,78.95336385582077,39.65079054026343,39.33505470592743,40
45.4102,79.14047575757576,79.1534900161738,79.79516943633662,79.49183958476888,39.66165043140492,39.358320579837184,40
46.875,79.67107575757578,79.686573151295,80.30413470498327,80.01484330080174,39.67172985049325,39.382438446311724,40
48.3398,80.11087575757577,80.12822507596277,80.71848394055901,80.44431069134808,39.683914384614695,39.40974113540376,40
51.2695,80.97817575757577,80.99871699765143,81.52887845321749,81.28735917705164,39.71135782059979,39.46983854443394,40
52.7344,81.46377575757577,81.48402089947119,81.95758696186938,81.74441093427492,39.739609965196266,39.52643393760181,40
54.1992,81.88457575757577,81.90261045783546,82.29663387329505,82.12247897935617,39.78013147847929,39.605976584540414,40
55.6641,82.22177575757577,82.24011675811293,82.61636412789302,82.45256202611375,39.78755473199918,39.62375263021991,40
58.5938,82.85777575757578,82.87930640945042,83.2591720081561,83.09568162148376,39.78362478796666,39.62013440129432,40
60.0586,83.14387575757576,83.16705598221762,83.54976354285292,83.38583267840473,39.781223303812894,39.617292439364704,40
62.9883,83.69307575757577,83.71667109481314,84.06024518457339,83.91626664333592,39.80040445147722,39.65642591023975,40
64.4531,83.95227575757579,83.97649920305699,84.31321336402823,84.17302171392792,39.803477489129065,39.66328583902876,40
67.3828,84.45217575757577,84.47643600256126,84.77916295409415,84.65645326915,39.81998273341125,39.69727304846711,40
68.8477,84.68537575757577,84.70879925238826,84.9831468904512,84.87420916303587,39.83459008935239,39.725652361937065,40
71.7773,85.11647575757576,85.13862303228422,85.36398317012684,85.27977593103567,39.85884710124854,39.77463986215737,40
74.707,85.51647575757578,85.53884604895346,85.75080538887487,85.67516293276464,39.863683116188824,39.78804066007859,40
77.6367,85.85527575757578,85.87741826417903,86.07043722120751,86.0043405226576,39.87307774152143,39.806981042971515,40
79.1016,85.99537575757577,86.01643075935854,86.18398295217693,86.13015076443148,39.886279994927065,39.83244780718161,40
82.0312,86.27637575757578,86.2957370598187,86.41803673381108,86.38604144323105,39.909695616587655,39.87770032600763,40
84.9609,86.49847575757578,86.51902304422613,86.65477344876297,86.61614977177508,39.902873272451046,39.864249595463164,40
87.8906,86.70717575757578,86.72526050378087,86.84106916065878,86.81111633009466,39.91414417368621,39.8841913431221,40
90.8203,86.83807575757578,86.85419271592278,86.9260663759913,86.91796704249793,39.93622567342484,39.92812633993148,40
95.2148,87.12807575757577,87.14079752604746,87.15075092003262,87.17249651940313,39.96830100664434,39.99004660601484,40
98.1445,87.25957575757577,87.26887159298616,87.2375895932884,87.27991474934225,39.988956843643905,40.031281999697754,40
101.074,87.32027575757577,87.32611155784576,87.21348303848042,87.29656630724158,40.02954525060419,40.112628519365344,40
105.469,87.43667575757577,87.44137708005057,87.28847968284826,87.39477213322144,40.046604946829135,40.15289739720231,40
108.398,87.64397575757577,87.6453442737742,87.45807064775856,87.58012958638733,40.06521468738687,40.18727362601564,40
112.793,87.82447575757578,87.82307297338329,87.61870753833968,87.74907912027362,40.07399385310967,40.20436543504361,40
117.188,87.91167575757578,87.90789651130231,87.65970190312574,87.81094016806472,40.09695634323759,40.248194608176576,40
120.117,87.9592757575758,87.95369883771883,87.6575714112763,87.83795494114042,40.11574389657841,40.29612742644254,40
124.512,88.09417575757578,88.0864783811891,87.79528458310705,87.96857347186524,40.117904909323855,40.29119379808205,40
128.906,88.07937575757578,88.06951988206778,87.74493304086597,87.93202012151717,40.13749976055061,40.32458684120181,40
133.301,88.04627575757576,88.03474157180983,87.70119112260303,87.88773278459274,40.14700878721709,40.3335504492068,40
139.16,87.94337575757578,87.92786995700932,87.61545493434446,87.78526524164243,40.142604715366886,40.312415022664865,40
143.555,87.93167575757576,87.91146705600868,87.5516391262692,87.74490375961858,40.166563296390095,40.35982792973948,40
147.949,88.07127575757578,88.03814486804151,87.48103916613935,87.7757067427956,40.26243812524591,40.55710570190216,40
153.809,88.07217575757578,88.03662142696759,87.41380230979621,87.74357002799697,40.29305139897062,40.622819117171375,40
159.668,88.20227575757578,88.16270604995123,87.49145819036706,87.84541917584758,40.317286874103644,40.67124785958417,40
165.527,88.27997575757576,88.24073228139399,87.5992821438525,87.93745447109649,40.3032778102975,40.64145013754148,40
171.387,88.13697575757578,88.09159022075741,87.4145573651813,87.76449824867599,40.32709197208142,40.677032855576115,40
177.246,88.06087575757579,88.00920187771777,87.24784337976502,87.63693339604413,40.37226848167364,40.761358497952756,40
183.105,87.95347575757577,87.89650073425676,87.08435532228374,87.50103400382794,40.39546673042882,40.81214541197302,40
188.965,87.94387575757578,87.87611512931932,86.93123915137821,87.41334129771226,40.46277383160705,40.94487597794111,40
196.289,88.16487575757577,88.09554928953568,87.03759718051353,87.59120904027773,40.50434024925795,41.05795210902215,40
203.613,88.08377575757578,88.00253125248784,86.8091734728028,87.4281924575098,40.57433879497805,41.193357779685044,40
210.938,88.13427575757578,88.05919675753432,86.82031413403271,87.47629977636664,40.58289698116768,41.23888262350161,40
218.262,87.92097575757577,87.84766668636726,86.78134584686727,87.33326072156545,40.51440596480181,41.066320839499994,40
225.586,87.98037575757577,87.88477101156764,86.62744990220904,87.26395917568753,40.620811835880104,41.2573211093586,40
232.91,88.12227575757578,88.01872859908308,86.50127899032995,87.2972930944875,40.721435504595576,41.517449608753125,40
241.699,88.00197575757576,87.90743010595558,86.35783145194301,87.17160797493143,40.73582213102415,41.54959865401257,40
250.488,88.11407575757578,88.00177971214676,86.26530019330127,87.17555821203902,40.826221500107735,41.736479518845485,40
259.277,88.23057575757579,88.1379982244119,86.46192869724,87.34933906492451,40.788659159487395,41.676069527171904,40
268.066,87.88017575757576,87.77408546151231,86.13919021189184,86.9922262833405,40.781859178171814,41.63489524962047,40
276.855,87.70177575757577,87.5930428028238,85.94324633010126,86.78917101463911,40.80387178818469,41.64979647272254,40
287.109,87.96187575757578,87.85466530024358,86.03709466642842,86.99341628497885,40.86124901526473,41.817570633815166,40
297.363,87.86617575757577,87.73115432752914,85.8638043483518,86.80808406039021,40.923070267138925,41.867349979177334,40
307.617,88.03747575757578,87.92390820669533,85.9161223295513,86.98361292300562,40.94029528368971,42.00778587714403,40
319.336,87.71407575757576,87.58503812660925,85.53702285106286,86.58183331220506,41.003204814404185,42.04801527554639,40
329.59,87.64967575757578,87.53304118396686,85.43735037142889,86.52716439885259,41.00587678511427,42.09569081253797,40
341.309,87.57307575757577,87.41250913121416,85.32740546342596,86.3991563540561,41.01335277715806,42.0851036677882,40
353.027,87.44227575757577,87.27552613486029,84.95725591720502,86.09095755804115,41.18456857681913,42.31827021765527,40
366.211,87.84267575757578,87.63214163316275,84.86376203875827,86.1948263927507,41.43731524041205,42.76837959440448,40
379.395,88.64657575757577,88.49153269254509,85.53332892516816,87.09932086938629,41.3922118231588,42.95820376737693,40
392.578,87.93187575757578,87.78029205440063,85.21285950842598,86.59946371980581,41.18082833459482,42.567432545974654,40
405.762,87.68887575757577,87.52998334421764,84.66609423583628,86.19916957087403,41.33081377334361,42.86388910838136,40
420.41,88.02947575757578,87.92514421535799,84.74578568350884,86.55757251680922,41.36757169854877,43.17935853184915,40
435.059,86.74237575757579,86.60479864470283,84.27827922079814,85.5619876850056,41.04281095969722,42.326519423904685,40
451.172,87.08947575757577,86.99434840068015,84.07773241108124,85.75218674955553,41.24216165112462,42.91661598959891,40
465.82,87.11877575757578,86.98618639446468,84.23346167383005,85.77089164199332,41.215294752471365,42.75272472063463,40
483.398,87.16557575757578,86.98165497694362,84.37541469335807,85.69530824352921,41.286346733414405,42.60624028358555,40
499.512,87.45837575757578,87.21226306653733,84.09551794178324,85.69100192428282,41.52126114225452,43.11674512475409,40
517.09,87.24187575757577,87.05957134746959,84.44079395564071,85.89033764156275,41.169233705906834,42.61877739182887,40
536.133,87.45367575757578,87.05679731025134,83.75198660688406,85.23205811319833,41.824739197053006,43.30481070336728,40
555.176,87.85367575757577,87.50934370675841,83.63140359690733,85.57250592182496,41.93683778493346,43.87794010985108,40
574.219,87.52107575757577,87.21344952570611,83.505359473737,85.42438954351485,41.78905998219126,43.70809005196911,40
594.727,87.58187575757577,87.16730498772924,83.47687134398447,85.3414925867157,41.825812401013536,43.69043364374477,40
615.234,88.45317575757578,88.03361057175638,83.90643693812456,85.95977567169855,42.07383490005783,44.12717363363183,40
637.207,89.04547575757577,88.65316049562429,84.1733535712469,86.31772320550535,42.335437290118946,44.479806924377385,40
659.18,88.97147575757577,88.62381336887056,83.99961125874577,86.4513446745211,42.17246869434946,44.624202110124784,40
682.617,88.76387575757578,88.35219129959702,83.7635434008345,86.11175576874,42.24043553085703,44.58864789876253,40
707.52,88.78967575757578,88.38038685591762,83.42758330850143,85.87045443195318,42.50993242396444,44.952803547416195,40
732.422,87.74667575757577,87.44546239424079,82.92032098509168,85.43120184736524,42.01426054687555,44.525141409149114,40
757.324,87.98797575757578,87.50436122552381,82.44648738494311,84.98216452370558,42.52219670181823,45.0578738405807,40
785.156,86.70917575757578,86.64779848320048,82.7270274317998,85.09057041781492,41.55722806538556,43.92077105140068,40
811.523,86.98417575757577,87.02699522179341,82.75851210729466,85.22614856783377,41.80084665395964,44.26848311449875,40
840.82,88.73107575757578,88.18064143844278,83.30288549810213,85.2218817020308,42.95875973641198,44.87775594034065,40
870.117,87.88107575757576,87.40931931764707,81.9979720242651,85.1751436241286,42.23417569351848,45.41134729338198,40
900.879,88.20267575757578,87.76115731095743,82.47096708057467,85.10379197288805,42.65736533806938,45.29019023038276,40
933.105,88.14057575757579,87.82478466569616,82.17348190927893,85.25148796628652,42.57329669940964,45.65130275641722,40
965.332,88.87257575757579,88.22018759856832,83.80551055757873,85.69429363282953,42.52589396573879,44.41467704098959,40
1000.49,88.18097575757578,87.6285770919061,82.32694575231872,85.0324632796565,42.5961138122496,45.301631339587374,40
1035.64,86.42107575757578,85.95164842052878,82.83055126289977,84.78742603169547,41.16422238883331,43.12109715762901,40
1072.27,87.59227575757578,86.91782871886475,83.5271202592524,85.22692959496526,41.6908991238995,43.390708459612355,40
1108.89,88.46527575757578,87.5314023710994,83.29221250999998,85.60628778187848,41.925114589220925,44.23918986109942,40
1148.44,88.84817575757577,87.95795003571249,83.10400339048817,85.43732738962302,42.520622646089464,44.85394664522431,40
1189.45,89.22577575757578,88.66035135078057,83.29003201758718,86.16398798768786,42.49636336309271,45.37031933319339,40
1230.47,89.20187575757578,88.92448829926826,83.0801734574731,86.31550609489652,42.60898220437174,45.84431484179517,40
1274.41,88.61637575757578,88.34923963561992,82.52996954810608,85.50165446953785,42.84758516608207,45.81927008751384,40
1319.82,88.71807575757578,87.95441446109592,81.59009838342101,85.44735316258485,42.507061298511076,46.364316077674914,40
1366.7,87.60217575757576,86.99828507798713,80.91313139745287,84.0744042278711,42.923880850116035,46.08515368053426,40
1413.57,85.74927575757577,85.90468955635163,80.75467969072619,83.37893782958916,42.525751726762465,45.150009865625435,40
1463.38,87.51467575757579,86.9064547766155,80.72978982421321,83.73989863003223,43.166556146583275,46.17666495240229,40
1516.11,87.58617575757577,86.74066079350118,80.56769199834815,83.52936566367893,43.21129512982225,46.172968795153025,40
1568.85,87.50547575757577,86.92908550580535,80.17822406301985,83.4519188112493,43.47716669455605,46.75086144278549,40
1624.51,87.17107575757578,86.53890207026787,79.90372574544779,83.30105028260789,43.23785178765998,46.63517632482008,40
1681.64,86.74037575757578,86.27616616658331,79.6901117306212,82.70251032207818,43.573655844505126,46.58605443596211,40
1741.7,88.45857575757577,87.20232651876992,79.96158176327498,82.89528594891381,44.30704056985611,47.240744755494944,40
1803.22,88.86987575757578,87.99240411008739,80.21992299691712,83.42086223856461,44.57154187152278,47.77248111317027,40
1866.21,88.26457575757578,87.60728922455519,80.10251301410969,82.98437676793205,44.62291245662314,47.5047762104455,40
1932.13,87.51727575757577,86.84318213448925,79.09609529582819,82.30294529453269,44.54023683995656,47.74708683866106,40
1999.51,88.1235757575758,87.1838829556395,79.43644291653946,82.6077389704859,44.57614398515361,47.74744003910004,40
2069.82,88.79577575757577,88.0281359981961,79.99682443377417,83.23353142516532,44.79460457303078,48.03131156442194,40
2143.07,88.34507575757577,87.8207968873236,79.99516151576687,82.91537809929913,44.90541878802446,47.82563537155673,40
2219.24,87.08177575757577,86.67458546901325,79.2512940914341,82.00718822678598,44.66739724222727,47.42329137757915,40
2296.88,87.13917575757577,86.65173678382006,79.39608195942694,82.1247448283127,44.526991955507356,47.25565482439312,40
2378.91,87.52117575757578,87.05855656312177,79.74247390800215,82.46991486243311,44.588641700688655,47.316082655119615,40
2462.4,86.31117575757578,86.21594620022611,79.43690469054997,81.86630595976919,44.34964024045692,46.77904150967615,40
2548.83,85.71107575757577,85.69952361383992,79.22975729852759,81.531185328261,44.16833828557891,46.46976631531233,40
2639.65,85.69677575757578,85.67844318429871,78.98411847402747,81.38087827234524,44.29756491195347,46.694324710271246,40
2731.93,85.16567575757577,85.13032235275804,78.33197985833864,80.91431947273526,44.216002880022785,46.7983424944194,40
2828.61,85.04927575757577,85.26164371709054,78.30481627719765,81.0692067408987,44.19243697619184,46.95682743989289,40
2928.22,85.51237575757578,85.37604910312899,78.08809447799837,81.12008963658337,44.25595946654562,47.287954625130624,40
3030.76,85.50567575757577,84.84565544933001,77.43911078986322,80.62900132000433,44.216654129325676,47.40654465946679,40
3137.7,86.02157575757579,85.2688831257675,77.6869251489722,80.79909087128492,44.469792254482584,47.58195797679531,40
3249.02,86.98787575757578,85.88486711473007,77.72702826021764,80.98464881100129,44.90021830372878,48.157838854512434,40
3363.28,87.79477575757578,86.49538315438421,77.84630046154912,81.30503206282039,45.19035109156383,48.649082692835094,40
3481.93,88.72417575757578,87.426251259893,78.61836183898251,82.20978270746104,45.21646855243195,48.807889420910485,40
3604.98,88.46067575757579,87.30729594959935,79.05857402044126,82.24371325075722,45.063582698842126,48.248721929158094,40
3732.42,87.40467575757577,86.37236007161255,79.3280909110113,81.9753056052711,44.397054466341444,47.044269160601246,40
3864.26,85.96437575757578,85.40655060511465,79.74761392168116,81.85878213231206,43.54776847280259,45.65893668343348,40
4000.49,83.62747575757578,84.44478368137203,79.95797669906888,82.05417264693727,42.390611034434755,44.48680698230315,40
4141.11,85.12917575757578,84.83031279178317,80.27533089597627,82.49363796537298,42.33667482641019,44.554981895806904,40
4287.6,84.26707575757578,84.58927443140763,79.99025761766525,82.60612981483197,41.98314461657566,44.59901681374238,40
4438.48,84.00847575757578,84.2490220880111,79.52979736281964,82.63905850208175,41.60996358592935,44.71922472519147,40
4595.21,85.05977575757578,85.17937647143836,79.76968705985357,83.11901426720632,42.060362204232035,45.40968941158479,40
4756.35,83.98587575757577,84.79931188265563,79.78199848137261,82.95015840787389,41.849153474781744,45.01731340128302,40
4924.8,84.30667575757577,85.47711942734301,80.11386658354441,83.04291612132354,42.43420330601947,45.363252843798605,40
5097.66,82.33817575757578,84.73991131558583,80.30736467399636,83.12126761452073,41.618643701065096,44.43254664158947,40
5277.83,84.36927575757576,85.77560924094769,81.05952171249646,83.92864308368874,41.84696615725895,44.716087528451226,40
5463.87,85.68887575757577,85.81292394371607,80.8545289738602,83.96035837175803,41.85256557195804,44.958394969855874,40
5657.23,85.64137575757577,85.41242046851083,80.77984139033855,83.83563755113411,41.57678291737672,44.632579078172284,40
5856.45,85.09937575757577,85.07584178408713,80.19950376080186,83.38213743794557,41.69370434614156,44.87633802328527,40
6062.99,84.76957575757578,85.3045090299934,79.83544911868438,83.06988348077535,42.23462554921805,45.46905991130902,40
6276.86,84.47067575757578,85.29615865704616,79.82227509518688,82.6514567595488,42.64470189749737,45.47388356185928,40
6498.05,82.86567575757579,83.85170989030655,79.30154522609715,81.62684217678967,42.224867713516886,44.550164664209404,40
6726.56,82.74747575757578,83.7025081301135,79.11852030207746,81.80061932671609,41.90188880339741,44.583987828036044,40
6963.87,84.27487575757577,84.72380377706833,79.28191077648039,82.3658032157001,42.35800056136823,45.44189300058794,40
7209.96,85.50007575757577,85.24793560006152,79.2493430215687,82.87442464776322,42.373510952298304,45.99859257849282,40
7464.84,85.73317575757578,85.62427572038801,79.15530385370865,82.77517765304526,42.84909806734275,46.46897186667937,40
7727.05,86.63107575757576,86.36565886997161,79.33283862444745,83.03533155119234,43.33032731877927,47.032820245524164,40
7999.51,87.1381757575758,86.86111046952055,79.4243966425664,83.36623544961768,43.49487501990288,47.43671382695415,40
