Freq "Early Reflections"
20.5078 59.570913982664734
21.9727 61.952871127916154
23.4375 63.48652458853343
24.9023 64.7110976274801
26.3672 66.34073307257347
27.832 67.8302933654497
29.2969 69.4687076966811
30.7617 70.49812929821714
32.2266 71.543974829618
33.6914 72.92969457998592
35.1562 74.14487713660179
36.6211 75.07895786526583
38.0859 75.83747555216506
39.5508 76.80250960395722
41.0156 77.46022547236356
42.4805 78.07397656683199
43.9453 78.70528809824499
45.4102 79.2437638271931
46.875 79.76676754322597
48.3398 80.1962349337723
51.2695 81.03928341947586
52.7344 81.49633517669915
54.1992 81.8744032217804
55.6641 82.20448626853798
58.5938 82.84760586390799
60.0586 83.13775692082895
62.9883 83.66819088576014
64.4531 83.92494595635215
67.3828 84.40837751157423
68.8477 84.6261334054601
71.7773 85.0317001734599
74.707 85.42708717518886
77.6367 85.75626476508182
79.1016 85.8820750068557
82.0312 86.13796568565527
84.9609 86.36807401419931
87.8906 86.56304057251889
90.8203 86.66989128492216
95.2148 86.92442076182735
98.1445 87.03183899176648
101.074 87.0484905496658
105.469 87.14669637564566
108.398 87.33205382881155
112.793 87.50100336269784
117.188 87.56286441048894
120.117 87.58987918356465
124.512 87.72049771428946
128.906 87.6839443639414
133.301 87.63965702701697
139.16 87.53718948406666
143.555 87.4968280020428
147.949 87.52763098521983
153.809 87.49549427042119
159.668 87.5973434182718
165.527 87.68937871352071
171.387 87.51642249110022
177.246 87.38885763846835
183.105 87.25295824625216
188.965 87.16526554013649
196.289 87.34313328270196
203.613 87.18011669993402
210.938 87.22822401879087
218.262 87.08518496398968
225.586 87.01588341811176
232.91 87.04921733691172
241.699 86.92353221735566
250.488 86.92748245446325
259.277 87.10126330734873
268.066 86.74415052576472
276.855 86.54109525706333
287.109 86.74534052740307
297.363 86.56000830281444
307.617 86.73553716542985
319.336 86.33375755462929
329.59 86.27908864127681
341.309 86.15108059648033
353.027 85.84288180046538
366.211 85.94675063517492
379.395 86.85124511181051
392.578 86.35138796223004
405.762 85.95109381329826
420.41 86.30949675923344
435.059 85.31391192742983
451.172 85.50411099197976
465.82 85.52281588441754
483.398 85.44723248595344
499.512 85.44292616670704
517.09 85.64226188398698
536.133 84.98398235562256
555.176 85.32443016424918
574.219 85.17631378593907
594.727 85.09341682913993
615.234 85.71169991412278
637.207 86.06964744792957
659.18 86.20326891694532
682.617 85.86368001116422
707.52 85.6223786743774
732.422 85.18312608978947
757.324 84.7340887661298
785.156 84.84249466023914
811.523 84.978072810258
840.82 84.97380594445502
870.117 84.92706786655282
900.879 84.85571621531227
933.105 85.00341220871074
965.332 85.44621787525375
1000.49 84.78438752208072
1035.64 84.5393502741197
1072.27 84.97885383738948
1108.89 85.3582120243027
1148.44 85.18925163204725
1189.45 85.91591223011208
1230.47 86.06743033732074
1274.41 85.25357871196208
1319.82 85.19927740500907
1366.7 83.82632847029532
1413.57 83.13086207201339
1463.38 83.49182287245645
1516.11 83.28128990610315
1568.85 83.20384305367352
1624.51 83.05297452503211
1681.64 82.4544345645024
1741.7 82.64721019133803
1803.22 83.17278648098883
1866.21 82.73630101035627
1932.13 82.05486953695691
1999.51 82.35966321291012
2069.82 82.98545566758955
2143.07 82.66730234172336
2219.24 81.75911246921021
2296.88 81.87666907073692
2378.91 82.22183910485734
2462.4 81.61823020219342
2548.83 81.28310957068523
2639.65 81.13280251476947
2731.93 80.66624371515948
2828.61 80.82113098332292
2928.22 80.8720138790076
3030.76 80.38092556242856
3137.7 80.55101511370914
3249.02 80.73657305342552
3363.28 81.05695630524461
3481.93 81.96170694988527
3604.98 81.99563749318145
3732.42 81.72722984769533
3864.26 81.61070637473628
4000.49 81.8060968893615
4141.11 82.2455622077972
4287.6 82.3580540572562
4438.48 82.39098274450598
4595.21 82.87093850963055
4756.35 82.70208265029811
4924.8 82.79484036374777
5097.66 82.87319185694496
5277.83 83.68056732611296
5463.87 83.71228261418226
5657.23 83.58756179355834
5856.45 83.1340616803698
6062.99 82.82180772319957
6276.86 82.40338100197302
6498.05 81.37876641921389
6726.56 81.55254356914031
6963.87 82.11772745812432
7209.96 82.62634889018744
7464.84 82.52710189546949
7727.05 82.78725579361657
7999.51 83.1181596920419
8282.23 83.05713512849857
8573.73 82.72176524502407
8876.95 82.52010564364011
9188.96 82.34398615883964
9514.16 82.15158010424825
9849.61 81.74952889987713
10196.8 81.08333710807787
10555.7 80.16212341357702
10927.7 78.97872493452051
11313.0 78.60420328864082
11712.9 78.01956571030972
12126.0 77.7850125015497
12553.7 78.04126062422493
12996.1 78.41020401310085
13454.6 79.21910308624379
13929.2 80.01513908040458
14419.9 80.08634071693886
14928.2 80.11801031477405
15455.6 79.96411547421191
16000.5 78.95555981214225
16564.5 77.98206400544237
17148.9 77.36006176355724
17752.4 76.90598897347273
18379.4 76.34284893099593
19026.9 75.37677189524355
19697.8 74.714665875553
19999.5 74.36182700811383
