Freq "Sound Power"
20.5078 60.36801296377814
21.9727 62.33226348149813
23.4375 64.22457137010952
24.9023 65.50088745233552
26.3672 67.23933491685216
27.832 68.72013697425496
29.2969 70.18064535694343
30.7617 71.27393486881552
32.2266 72.34623579473731
33.6914 73.6781082895161
35.1562 74.8575892683094
36.6211 75.76378574411655
38.0859 76.54560962699634
39.5508 77.45616726231108
41.0156 78.08445109303663
42.4805 78.66029125944809
43.9453 79.26909969015676
45.4102 79.79516943633662
46.875 80.30413470498327
48.3398 80.71848394055901
51.2695 81.52887845321749
52.7344 81.95758696186938
54.1992 82.29663387329505
55.6641 82.61636412789302
58.5938 83.2591720081561
60.0586 83.54976354285292
62.9883 84.06024518457339
64.4531 84.31321336402823
67.3828 84.77916295409415
68.8477 84.9831468904512
71.7773 85.36398317012684
74.707 85.75080538887487
77.6367 86.07043722120751
79.1016 86.18398295217693
82.0312 86.41803673381108
84.9609 86.65477344876297
87.8906 86.84106916065878
90.8203 86.9260663759913
95.2148 87.15075092003262
98.1445 87.2375895932884
101.074 87.21348303848042
105.469 87.28847968284826
108.398 87.45807064775856
112.793 87.61870753833968
117.188 87.65970190312574
120.117 87.6575714112763
124.512 87.79528458310705
128.906 87.74493304086597
133.301 87.70119112260303
139.16 87.61545493434446
143.555 87.5516391262692
147.949 87.48103916613935
153.809 87.41380230979621
159.668 87.49145819036706
165.527 87.5992821438525
171.387 87.4145573651813
177.246 87.24784337976502
183.105 87.08435532228374
188.965 86.93123915137821
196.289 87.03759718051353
203.613 86.8091734728028
210.938 86.82031413403271
218.262 86.78134584686727
225.586 86.62744990220904
232.91 86.50127899032995
241.699 86.35783145194301
250.488 86.26530019330127
259.277 86.46192869724
268.066 86.13919021189184
276.855 85.94324633010126
287.109 86.03709466642842
297.363 85.8638043483518
307.617 85.9161223295513
319.336 85.53702285106286
329.59 85.43735037142889
341.309 85.32740546342596
353.027 84.95725591720502
366.211 84.86376203875827
379.395 85.53332892516816
392.578 85.21285950842598
405.762 84.66609423583628
420.41 84.74578568350884
435.059 84.27827922079814
451.172 84.07773241108124
465.82 84.23346167383005
483.398 84.37541469335807
499.512 84.09551794178324
517.09 84.44079395564071
536.133 83.75198660688406
555.176 83.63140359690733
574.219 83.505359473737
594.727 83.47687134398447
615.234 83.90643693812456
637.207 84.1733535712469
659.18 83.99961125874577
682.617 83.7635434008345
707.52 83.42758330850143
732.422 82.92032098509168
757.324 82.44648738494311
785.156 82.7270274317998
811.523 82.75851210729466
840.82 83.30288549810213
870.117 81.9979720242651
900.879 82.47096708057467
933.105 82.17348190927893
965.332 83.80551055757873
1000.49 82.32694575231872
1035.64 82.83055126289977
1072.27 83.5271202592524
1108.89 83.29221250999998
1148.44 83.10400339048817
1189.45 83.29003201758718
1230.47 83.0801734574731
1274.41 82.52996954810608
1319.82 81.59009838342101
1366.7 80.91313139745287
1413.57 80.75467969072619
1463.38 80.72978982421321
1516.11 80.56769199834815
1568.85 80.17822406301985
1624.51 79.90372574544779
1681.64 79.6901117306212
1741.7 79.96158176327498
1803.22 80.21992299691712
1866.21 80.10251301410969
1932.13 79.09609529582819
1999.51 79.43644291653946
2069.82 79.99682443377417
2143.07 79.99516151576687
2219.24 79.2512940914341
2296.88 79.39608195942694
2378.91 79.74247390800215
2462.4 79.43690469054997
2548.83 79.22975729852759
2639.65 78.98411847402747
2731.93 78.33197985833864
2828.61 78.30481627719765
2928.22 78.08809447799837
3030.76 77.43911078986322
3137.7 77.6869251489722
3249.02 77.72702826021764
3363.28 77.84630046154912
3481.93 78.61836183898251
3604.98 79.05857402044126
3732.42 79.3280909110113
3864.26 79.74761392168116
4000.49 79.95797669906888
4141.11 80.27533089597627
4287.6 79.99025761766525
4438.48 79.52979736281964
4595.21 79.76968705985357
4756.35 79.78199848137261
4924.8 80.11386658354441
5097.66 80.30736467399636
5277.83 81.05952171249646
5463.87 80.8545289738602
5657.23 80.77984139033855
5856.45 80.19950376080186
6062.99 79.83544911868438
6276.86 79.82227509518688
6498.05 79.30154522609715
6726.56 79.11852030207746
6963.87 79.28191077648039
7209.96 79.2493430215687
7464.84 79.15530385370865
7727.05 79.33283862444745
7999.51 79.4243966425664
8282.23 79.06816273481616
8573.73 78.69813258367952
8876.95 78.45108617884296
9188.96 78.25595046987475
9514.16 78.00508912703593
9849.61 77.36182746272272
10196.8 76.55679029008547
10555.7 75.85887335203148
10927.7 74.89898028209502
11313.0 74.56537049584549
11712.9 74.01254451169659
12126.0 73.97699364439015
12553.7 74.29152511297619
12996.1 74.8585675003721
13454.6 75.43081096119258
13929.2 75.73379688515512
14419.9 75.5681627210909
14928.2 75.39908516949859
15455.6 74.97351218523602
16000.5 73.94583672773827
16564.5 73.14516128428224
17148.9 72.33794389221862
17752.4 71.70729834564719
18379.4 71.01860449264721
19026.9 70.18361910423287
19697.8 69.36768196941124
19999.5 68.9146193759944
