Freq "Floor Bounce"
20.5078 56.99497776842935
21.9727 57.95707676765963
23.4375 61.39136801520846
24.9023 63.33321279364864
26.3672 64.20144073212958
27.832 65.82489328477249
29.2969 66.9857153201979
30.7617 67.6491251870469
32.2266 68.23370315102287
33.6914 68.81759403903978
35.1562 69.4177544958454
36.6211 69.93602543347018
38.0859 70.42978285745598
39.5508 70.86705969620843
41.0156 71.42160836689514
42.4805 71.92628987246376
43.9453 72.42646337663597
45.4102 72.90033587612234
46.875 73.40816473327536
48.3398 73.93930568123963
51.2695 75.0304266936686
52.7344 75.5032518734071
54.1992 75.92494076415771
55.6641 76.35699990403361
58.5938 77.3171792323582
60.0586 77.8485596379461
62.9883 78.86571075026461
64.4531 79.40076821195103
67.3828 80.32767815336508
68.8477 80.7579935561134
71.7773 81.69857292876995
74.707 82.6715929218081
77.6367 83.5686498054682
79.1016 83.99845259777834
82.0312 84.97049689060518
84.9609 85.94698784541607
87.8906 86.825182361748
90.8203 87.74069526665957
95.2148 89.26304143751709
98.1445 90.22414326571047
101.074 91.1210615853913
105.469 92.29535541731696
108.398 93.05660153565903
112.793 93.81810658791987
117.188 94.16767077607754
120.117 94.2836040498575
124.512 94.62029297096052
128.906 94.31185974112398
133.301 93.78084661306903
139.16 93.38375242546243
143.555 92.93424603308523
147.949 92.46958616247147
153.809 92.39199445749655
159.668 92.06224807824799
165.527 92.0650970721222
171.387 92.08214044676093
177.246 91.49877245993551
183.105 91.14679705439144
188.965 90.9866749931232
196.289 90.91939172356967
203.613 90.49198079708813
210.938 90.00048711360276
218.262 89.81742665843132
225.586 89.38922408692946
232.91 89.44717908489574
241.699 89.35438534479181
250.488 90.38799936718416
259.277 90.28093316224957
268.066 90.3897254326558
276.855 91.06790751486756
287.109 91.24299512843722
297.363 90.97168720743902
307.617 91.36544627796123
319.336 91.48326909233373
329.59 90.75549086460757
341.309 90.49055756093469
353.027 90.5279051428901
366.211 90.574517651987
379.395 91.71250357544073
392.578 93.37232385711758
405.762 92.37623197972682
420.41 91.92635545364887
435.059 91.5821428973097
451.172 90.01230459519563
465.82 92.85709958253379
483.398 93.09222697463555
499.512 92.05741988462745
517.09 86.95805375815759
536.133 81.90990767604427
555.176 82.12897801102991
574.219 83.22018553584878
594.727 85.78466151575708
615.234 88.84267680073307
637.207 89.58932345282585
659.18 89.37163595105399
682.617 89.69399605937437
707.52 91.20145505404463
732.422 91.06165036886765
757.324 91.5706209447778
785.156 90.0607008667077
811.523 89.47166529399065
840.82 90.45746967241466
870.117 89.84321357991533
900.879 90.35980377730081
933.105 90.00468856357932
965.332 88.93813902568766
1000.49 89.76554423269245
1035.64 93.82692918043989
1072.27 94.51493277264302
1108.89 93.46805521638368
1148.44 92.46456051286714
1189.45 92.25256563718854
1230.47 91.37589352537631
1274.41 90.4424574714727
1319.82 89.61964888508642
1366.7 89.61770444952992
1413.57 89.93897676690423
1463.38 89.41848748955594
1516.11 89.32761006611369
1568.85 88.8122024821226
1624.51 88.39792663733965
1681.64 86.94877323317695
1741.7 86.55513857919736
1803.22 85.1170953407316
1866.21 83.18662075931978
1932.13 84.09835886891017
1999.51 86.0020454155416
2069.82 87.85622782281713
2143.07 87.6203984185625
2219.24 88.10630012115357
2296.88 87.63038479335209
2378.91 87.15298050644034
2462.4 87.13333632201454
2548.83 86.99970668011413
2639.65 86.35200838784553
2731.93 85.97744668965882
2828.61 86.04108077075462
2928.22 85.4433035344986
3030.76 84.40632038418383
3137.7 84.21673012904697
3249.02 84.69533863302559
3363.28 83.46631889505788
3481.93 83.66422796815912
3604.98 84.47873351789033
3732.42 84.96926609854853
3864.26 85.73009973802122
4000.49 85.833248403463
4141.11 86.21254442587302
4287.6 86.1188610373855
4438.48 85.41694398887839
4595.21 85.59532061244734
4756.35 85.89661869162323
4924.8 86.63132371599195
5097.66 86.9797556874169
5277.83 86.76105533170772
5463.87 86.37351567558082
5657.23 86.01735647593473
5856.45 85.24115512606193
6062.99 86.06857366538568
6276.86 86.57045872156115
6498.05 87.50916910316928
6726.56 86.90020031529633
6963.87 86.20866598416761
7209.96 87.43223614433212
7464.84 88.02333484680669
7727.05 87.78029203769026
7999.51 87.22489922446329
8282.23 87.7467720516646
8573.73 88.80855796167032
8876.95 89.4190749642607
9188.96 90.7601174868846
9514.16 90.46571573189634
9849.61 90.55693825420204
10196.8 91.07895621037885
10555.7 90.71815741295867
10927.7 89.53375980690974
11313.0 89.03697034808008
11712.9 88.64052262487614
12126.0 90.61945551747525
12553.7 92.3270456863808
12996.1 92.60023011359281
13454.6 90.91478687842819
13929.2 91.31303341088793
14419.9 93.21954285353598
14928.2 94.49388958952342
15455.6 88.93094330265208
16000.5 77.12601586387584
16564.5 85.46027127170282
17148.9 88.85431210483996
17752.4 78.2461704294618
18379.4 70.08588724832703
19026.9 80.49427985565055
19697.8 80.86546654857065
19999.5 75.76517280310682
