Freq "Listening Window"
20.0 33.97716685084177
20.2909 33.60205987591044
20.586 33.15245463678639
20.8855 32.74881459179605
21.1893 32.75808309899483
21.4975 33.27800813000192
21.8102 34.09682041461423
22.1274 34.96841616016664
22.4492 35.666027090011994
22.7758 36.053167173334174
23.1071 36.09965051746423
23.4432 35.88592732221343
23.7841 35.68573511697136
24.1301 35.91065183925929
24.4811 36.68735774010722
24.8372 37.753846490213874
25.1984 38.766235693333385
25.5649 39.51239593922455
25.9368 39.93722387368118
26.3141 40.104955267166105
26.6968 40.17045015705497
27.0851 40.32381141844044
27.4791 40.699441866416805
27.8788 41.264617673105306
28.2843 41.899123235385474
28.6957 42.525935294293646
29.1131 43.12724344038742
29.5365 43.70775706639296
29.9661 44.259820633124235
30.402 44.76446494337722
30.8442 45.21687833516822
31.2929 45.681187149832084
31.748 46.220493202074465
32.2098 46.85448015073027
32.6783 47.528555049711144
33.1536 48.15798843528765
33.6359 48.71833097994917
34.1251 49.24473218118578
34.6215 49.79873669490172
35.125 50.39195438162906
35.6359 50.990306381124526
36.1543 51.56131789507697
36.6802 52.111217880492376
37.2137 52.67434622162517
37.755 53.260101596735865
38.3041 53.848825760604
38.8613 54.41940308115912
39.4265 54.982770801724655
40.0 55.55733506365159
40.5818 56.13717071749113
41.1721 56.68931535490148
41.771 57.20359320191395
42.3785 57.69684116173086
42.9949 58.193022557141234
43.6203 58.69783799941126
44.2548 59.21448141493539
44.8985 59.75743084771874
45.5515 60.31782777836074
46.2141 60.857781130407716
46.8863 61.36574432900406
47.5683 61.887395698312844
48.2602 62.43879257948535
48.9621 62.959108887862
49.6743 63.41165152295886
50.3968 63.85672368778839
51.1299 64.34636963112271
51.8736 64.84624830756734
52.6281 65.31957895128804
53.3936 65.78501661899418
54.1702 66.25022529085192
54.9581 66.69675683047596
55.7575 67.12423092596079
56.5685 67.53500494659295
57.3914 67.91423423020309
58.2261 68.25891726162041
59.073 68.58236464601978
59.9323 68.89549231156977
60.804 69.22451195460064
61.6884 69.58441639773645
62.5857 69.94588944294671
63.496 70.29279959827308
64.4196 70.6379454405952
65.3566 70.97263789582273
66.3073 71.27322950631769
67.2717 71.56558416663364
68.2502 71.89273550554827
69.2429 72.23999005520787
70.2501 72.58782211800033
71.2719 72.94063518941749
72.3086 73.30078825606522
73.3603 73.65083108713141
74.4274 73.96809033590642
75.5099 74.26559554061168
76.6083 74.54864909876478
77.7226 74.82269344113429
78.8531 75.12940845736385
80.0 75.45456914195017
81.1636 75.78552085007944
82.3442 76.11602259017388
83.5419 76.42474876488558
84.757 76.70124229313907
85.9899 76.9571888030146
87.2406 77.19604017831591
88.5096 77.42853550842304
89.797 77.6402750207813
91.1031 77.73345026187998
92.4282 77.764738737322
93.7726 77.86057648675663
95.1366 77.99964083386593
96.5204 78.16548706207533
97.9243 78.41500433737234
99.3486 78.68585343709236
100.794 78.93171029139809
102.26 79.14533360589469
103.747 79.36983806323485
105.256 79.53835771759861
106.787 79.68899200092086
108.34 79.867513764161
109.916 80.05559111042129
111.515 80.21078364034415
113.137 80.30196222750065
114.783 80.38393059861791
116.452 80.43900994164385
118.146 80.4848748186428
119.865 80.53972613375208
121.608 80.59868866933533
123.377 80.64076773912726
125.171 80.66040973071371
126.992 80.66004425082494
128.839 80.66457424301471
130.713 80.67065688740439
132.615 80.64418835472875
134.543 80.57849186741511
136.5 80.5393512847574
138.486 80.49588509111118
140.5 80.48230312586517
142.544 80.51728576494881
144.617 80.43025476878256
146.721 80.3382392735702
148.855 80.35032890940391
151.02 80.40942162483029
153.217 80.2509540023589
155.445 79.89393418565778
157.706 79.7402521105307
160.0 79.64623521310992
162.327 79.59811331544097
164.688 79.67209491013494
167.084 79.8663026368402
169.514 79.79995617024426
171.98 79.53473465079747
174.481 79.38483593475497
177.019 79.34094430900456
179.594 79.02483008044223
182.206 78.61071562824074
184.856 78.60716047816207
187.545 78.6638293704157
190.273 78.48528777515924
193.041 78.38951657120725
195.849 78.41153075982334
198.697 78.30110706766078
201.587 78.0717944503993
204.52 78.03248021884525
207.494 78.10729541772028
210.512 78.28799565697207
213.574 78.15903805045488
216.681 77.86941501709188
219.833 77.90380431519084
223.03 78.00097551283403
226.274 78.09104691062817
229.565 78.00278091600683
232.905 77.79831869423055
236.292 77.45817970249081
239.729 77.53017403723598
243.216 77.72906882378973
246.754 77.9140761578937
250.343 77.80678638115548
253.984 77.69714954074824
257.678 77.54810810711658
261.426 77.2690704947889
265.229 77.26239077530744
269.087 77.30305551160328
273.001 77.20873197943749
276.972 76.99767268008694
281.0 76.96663281707467
285.088 77.24708232130766
289.234 77.58577644896025
293.441 77.76272058982127
297.709 77.48768269613214
302.04 77.25837480742567
306.433 76.93986803895203
310.89 76.78599589733969
315.412 76.6504014990638
320.0 76.6890672114294
324.655 76.77364809273115
329.377 76.95088107162059
334.168 76.98445785244208
339.028 76.97507737631375
343.959 76.51201377671944
348.962 76.39004324400773
354.038 76.31440195781026
359.188 76.43521743132571
364.412 76.32919425248214
369.713 76.10709914085983
375.09 76.12167555893383
380.546 76.04401947633649
386.081 76.02429715702334
391.697 75.88784177197259
397.394 75.81886417818149
403.175 75.59757989145496
409.039 75.46955936988401
414.989 75.34687529239397
421.025 75.2576646185994
427.149 75.06229869701268
433.362 74.90496122844627
439.665 74.72068373205519
446.06 74.4941395266597
452.548 74.25681992649814
459.131 74.051816645407
465.809 73.89373530539683
472.584 73.74289437880465
479.458 73.64110251923412
486.432 73.54485805153263
493.507 73.50419191198984
500.686 73.44912192515875
507.968 73.4205938977597
515.357 73.45140269744255
522.853 73.53122720032351
530.458 73.64348089971662
538.174 73.7752475122513
546.002 73.92532960569564
553.943 74.08868888995617
562.001 74.25679968042675
570.175 74.4257552001888
578.469 74.58847880592441
586.883 74.73833517354119
595.419 74.87276259941734
604.08 74.99226579477453
612.866 75.0952056197911
621.78 75.1802341927657
630.824 75.24679043981133
640.0 75.29451463613717
649.309 75.32464949830023
658.753 75.34053786128575
668.335 75.34369192177505
678.056 75.33732198185989
687.919 75.32481810126288
697.925 75.31010152572713
708.077 75.29726854051414
718.376 75.29113079838406
728.825 75.29384301858408
739.426 75.30936331181931
750.181 75.3385644136336
761.093 75.38248660527255
772.163 75.4391153844868
783.394 75.50660105877247
794.789 75.58242161609003
806.349 75.65940735022352
818.078 75.73399215627398
829.977 75.80023954467013
842.05 75.85370465907496
854.298 75.88969326383388
866.724 75.90337088097297
879.33 75.89305660694913
892.12 75.85533547767352
905.097 75.7893905210565
918.262 75.69465856498758
931.618 75.57251364728324
945.169 75.42527050392363
958.917 75.25583365328961
972.864 75.06931966365033
987.015 74.87111653034522
1001.37 74.66141844741112
1015.94 74.45612235516809
1030.71 74.26676946479934
1045.71 74.09598129469987
1060.92 73.95291508814245
1076.35 73.8477540815273
1092.0 73.78404503864247
1107.89 73.76344423503971
1124.0 73.7856813449423
1140.35 73.84561517910086
1156.94 73.93748609792605
1173.77 74.05023352583817
1190.84 74.17241852606988
1208.16 74.29243388164963
1225.73 74.40018644739638
1243.56 74.48570186717977
1261.65 74.53922575879616
1280.0 74.55729861608438
1298.62 74.53739934687391
1317.51 74.48097875464521
1336.67 74.39243368425252
1356.11 74.28060984708702
1375.84 74.1550669888998
1395.85 74.02668758396818
1416.15 73.9056048940481
1436.75 73.79721361429984
1457.65 73.70099955020538
1478.85 73.61291316991257
1500.36 73.52687825060093
1522.19 73.43686511593316
1544.33 73.34242115784414
1566.79 73.24992087696761
1589.58 73.1766664329578
1612.7 73.14440222392886
1636.16 73.17336214150397
1659.95 73.27165995522458
1684.1 73.43206471060557
1708.6 73.62828398118546
1733.45 73.82371774124154
1758.66 73.9850007843348
1784.24 74.08319607916886
1810.19 74.10635616303396
1836.52 74.05921615085956
1863.24 73.96431824370741
1890.34 73.85660693858927
1917.83 73.77600882981812
1945.73 73.75181524507977
1974.03 73.7886688488428
2002.74 73.866606801726
2031.87 73.95128533300951
2061.43 74.01183936055375
2091.41 74.03238056527913
2121.83 74.0179040688714
2152.69 73.98781977396331
2184.01 73.96506995233977
2215.77 73.95911356645736
2248.0 73.96113865997904
2280.7 73.94544971793994
2313.87 73.8848061532815
2347.53 73.7638482815541
2381.68 73.58826503092803
2416.32 73.38253860749664
2451.46 73.18025908346343
2487.12 73.00776259762893
2523.3 72.87432467925768
2560.0 72.77442955568563
2597.24 72.6972513011244
2635.01 72.63502045616659
2673.34 72.58764873053406
2712.23 72.55044419797707
2751.68 72.51624782740068
2791.7 72.48109387789512
2832.31 72.45110866810722
2873.5 72.44147801588642
2915.3 72.46284905998738
2957.7 72.51105868424271
3000.72 72.57077580753216
3044.37 72.62768909524206
3088.65 72.68523214560926
3133.58 72.7508303536628
3179.16 72.8278347241856
3225.4 72.90902903870352
3272.31 72.99263534682022
3319.91 73.09521953401809
3368.2 73.23214947271185
3417.19 73.39428579231648
3466.89 73.55250823870477
3517.32 73.69157545844786
3568.48 73.82786217578452
3620.39 73.98722664429849
3673.05 74.16653109896419
3726.47 74.33344892048655
3780.67 74.4674768341986
3835.67 74.57331686302393
3891.46 74.66438833920145
3948.06 74.7475811170564
4005.49 74.82652844467026
4063.75 74.89681595621312
4122.86 74.93791012024681
4182.82 74.93796119993146
4243.66 74.91468916427806
4305.39 74.88777670827622
4368.01 74.85249149994982
4431.55 74.80740219646631
4496.01 74.77424996829527
4561.4 74.77139623949881
4627.75 74.81304374349381
4695.06 74.90631926104474
4763.35 75.0118291449088
4832.64 75.06724862510454
4902.93 75.08997789352745
4974.24 75.13877676747701
5046.6 75.22362095218509
5120.0 75.31189135514163
5194.47 75.34375265067582
5270.03 75.26752280225341
5346.68 75.1242949683886
5424.45 74.99139181899943
5503.35 74.89194571086489
5583.4 74.83872232142167
5664.61 74.82073282672947
5747.01 74.7891677393456
5830.6 74.72216737572937
5915.41 74.69880951812652
6001.45 74.81049613356925
6088.74 74.94351962995114
6177.3 75.02476856836051
6267.15 75.12678838358534
6358.31 75.21880186528671
6450.8 75.29121722439191
6544.62 75.34308013481665
6639.82 75.39778766109106
6736.4 75.48386661598467
6834.38 75.58521373215201
6933.79 75.6764067639053
7034.64 75.73380112139631
7136.96 75.780646103929
7240.77 75.82414207676058
7346.09 75.92102225733157
7452.94 76.0151617638343
7561.35 76.1107616916772
7671.33 76.19954012789245
7782.91 76.28834767789799
7896.12 76.35017781014784
8010.97 76.3526431630333
8127.49 76.38386066473801
8245.71 76.43833127209145
8365.65 76.4115566136905
8487.33 76.31694615643642
8610.78 76.16832048187565
8736.03 75.93212499292852
8863.09 75.62312147244592
8992.01 75.2364520911199
9122.8 74.72887927575925
9255.5 74.20066382007708
9390.12 73.83273755030763
9526.7 73.59582621186871
9665.27 73.54330574952064
9805.86 73.71176578378402
9948.49 73.95958501808997
10093.2 74.13480670404476
10240.0 74.31817849665333
10388.9 74.48797561294708
10540.1 74.60335362285394
10693.4 74.71604985708962
10848.9 74.90741373732584
11006.7 75.17514976968509
11166.8 75.48101740773821
11329.2 75.87633940880903
11494.0 76.30436121136366
11661.2 76.69816816689136
11830.8 77.02134332477249
12002.9 77.22361842377585
12177.5 77.29212226828652
12354.6 77.28666293197479
12534.3 77.24607997028781
12716.6 77.20456667665532
12901.6 77.16949268424804
13089.2 77.12180087083729
13279.6 76.997481568748
13472.8 76.84296324664957
13668.8 76.74184047926303
13867.6 76.55036254832032
14069.3 76.28316816170798
14273.9 75.94152830747935
14481.5 75.70144895573706
14692.2 75.64642129817632
14905.9 75.60324411860488
15122.7 75.4679295509175
15342.7 75.19247155645999
15565.8 74.84605085619853
15792.2 74.5700785837366
16021.9 74.43847529308235
16255.0 74.37574051490486
16491.4 74.30264105424267
16731.3 74.13548858746776
16974.7 73.90512202562866
17221.6 73.67098312312959
17472.1 73.47308141764896
17726.2 73.29437762460007
17984.0 73.08489801795588
18245.6 72.88929047822366
18511.0 72.72509812691142
18780.2 72.53112044551142
19053.4 72.28814856005383
19330.5 71.9953259411765
19611.7 71.8246739023447
19897.0 71.71230087676054
