Freq "Listening Window"
20.0 35.24711024706818
20.2909 34.87200327213682
20.586 34.42239803301277
20.8855 34.01875798802246
21.1893 34.02802649522124
21.4975 34.54795152622833
21.8102 35.36676381084061
22.1274 36.23835955639302
22.4492 36.9359704862384
22.7758 37.323110569560555
23.1071 37.36959391369061
23.4432 37.15587071843984
23.7841 36.95567851319774
24.1301 37.18059523548567
24.4811 37.9573011363336
24.8372 39.023789886440255
25.1984 40.036179089559795
25.5649 40.78233933545093
25.9368 41.20716726990756
26.3141 41.374898663392514
26.6968 41.44039355328135
27.0851 41.59375481466682
27.4791 41.969385262643186
27.8788 42.534561069331716
28.2843 43.169066631611855
28.6957 43.795878690520055
29.1131 44.39718683661383
29.5365 44.97770046261934
29.9661 45.529764029350616
30.402 46.03440833960363
30.8442 46.48682173139463
31.2929 46.95113054605852
31.748 47.490436598300874
32.2098 48.12442354695668
32.6783 48.798498445937526
33.1536 49.42793183151403
33.6359 49.98827437617558
34.1251 50.51467557741219
34.6215 51.06868009112813
35.125 51.661897777855444
35.6359 52.26024977735091
36.1543 52.83126129130338
36.6802 53.38116127671876
37.2137 53.94428961785155
37.755 54.530044992962274
38.3041 55.11876915683038
38.8613 55.68934647738553
39.4265 56.252714197951036
40.0 56.82727845987799
40.5818 57.407114113717526
41.1721 57.95925875112788
41.771 58.47353659814034
42.3785 58.96678455795727
42.9949 59.46296595336763
43.6203 59.96778139563767
44.2548 60.48442481116179
44.8985 61.02737424394515
45.5515 61.58777117458713
46.2141 62.127724526634125
46.8863 62.635687725230454
47.5683 63.15733909453925
48.2602 63.70873597571176
48.9621 64.22905228408841
49.6743 64.68159491918524
50.3968 65.12666708401478
51.1299 65.61631302734911
51.8736 66.11619170379373
52.6281 66.58952234751443
53.3936 67.05496001522056
54.1702 67.52016868707831
54.9581 67.96670022670236
55.7575 68.3941743221872
56.5685 68.80494834281934
57.3914 69.1841776264295
58.2261 69.52886065784679
59.073 69.8523080422462
59.9323 70.16543570779615
60.804 70.49445535082702
61.6884 70.85435979396284
62.5857 71.21583283917309
63.496 71.56274299449947
64.4196 71.9078888368216
65.3566 72.24258129204912
66.3073 72.54317290254409
67.2717 72.83552756286005
68.2502 73.16267890177467
69.2429 73.50993345143426
70.2501 73.85776551422674
71.2719 74.21057858564387
72.3086 74.57073165229161
73.3603 74.9207744833578
74.4274 75.2380337321328
75.5099 75.53553893683808
76.6083 75.81859249499118
77.7226 76.09263683736069
78.8531 76.39935185359025
80.0 76.72451253817657
81.1636 77.05546424630583
82.3442 77.38596598640027
83.5419 77.69469216111199
84.757 77.97118568936546
85.9899 78.227132199241
87.2406 78.4659835745423
88.5096 78.69847890464943
89.797 78.91021841700771
91.1031 79.00339365810638
92.4282 79.03468213354839
93.7726 79.13051988298302
95.1366 79.26958423009233
96.5204 79.43543045830172
97.9243 79.68494773359873
99.3486 79.95579683331874
100.794 80.20165368762449
102.26 80.41527700212109
103.747 80.63978145946125
105.256 80.80830111382502
106.787 80.95893539714727
108.34 81.1374571603874
109.916 81.32553450664768
111.515 81.48072703657054
113.137 81.57190562372705
114.783 81.6538739948443
116.452 81.70895333787024
118.146 81.75481821486918
119.865 81.80966952997846
121.608 81.86863206556173
123.377 81.91071113535364
125.171 81.9303531269401
126.992 81.92998764705135
128.839 81.93451763924112
130.713 81.94060028363079
132.615 81.91413175095516
134.543 81.8484352636415
136.5 81.8092946809838
138.486 81.76582848733756
140.5 81.75224652209157
142.544 81.78722916117519
144.617 81.70019816500897
146.721 81.60818266979658
148.855 81.62027230563031
151.02 81.67936502105667
153.217 81.52089739858529
155.445 81.16387758188418
157.706 81.01019550675711
160.0 80.9161786093363
162.327 80.86805671166735
164.688 80.94203830636135
167.084 81.13624603306658
169.514 81.06989956647065
171.98 80.80467804702388
174.481 80.65477933098138
177.019 80.61088770523095
179.594 80.29477347666861
182.206 79.88065902446712
184.856 79.87710387438844
187.545 79.9337727666421
190.273 79.75523117138562
193.041 79.65945996743363
195.849 79.68147415604972
198.697 79.57105046388716
201.587 79.3417378466257
204.52 79.30242361507165
207.494 79.37723881394666
210.512 79.55793905319847
213.574 79.42898144668126
216.681 79.13935841331829
219.833 79.17374771141723
223.03 79.27091890906043
226.274 79.36099030685456
229.565 79.27272431223321
232.905 79.06826209045694
236.292 78.7281230987172
239.729 78.80011743346239
243.216 78.99901222001613
246.754 79.1840195541201
250.343 79.07672977738187
253.984 78.96709293697464
257.678 78.81805150334297
261.426 78.53901389101529
265.229 78.53233417153382
269.087 78.57299890782966
273.001 78.4786753756639
276.972 78.26761607631335
281.0 78.23657621330108
285.088 78.51702571753404
289.234 78.85571984518664
293.441 79.03266398604767
297.709 78.75762609235854
302.04 78.52831820365208
306.433 78.20981143517842
310.89 78.05593929356608
315.412 77.9203448952902
320.0 77.95901060765578
324.655 78.04359148895756
329.377 78.22082446784697
334.168 78.25440124866847
339.028 78.24502077254014
343.959 77.78195717294584
348.962 77.65998664023411
354.038 77.58434535403666
359.188 77.7051608275521
364.412 77.59913764870853
369.713 77.37704253708623
375.09 77.39161895516024
380.546 77.3139628725629
386.081 77.29424055324974
391.697 77.15778516819898
397.394 77.08880757440787
403.175 76.86752328768134
409.039 76.7395027661104
414.989 76.61681868862037
421.025 76.5276080148258
427.149 76.33224209323907
433.362 76.17490462467265
439.665 75.99062712828159
446.06 75.7640829228861
452.548 75.52676332272455
459.131 75.32176004163341
465.809 75.16367870162324
472.584 75.01283777503104
479.458 74.91104591546053
486.432 74.81480144775904
493.507 74.77413530821624
500.686 74.71906532138514
507.968 74.6905372939861
515.357 74.72134609366894
522.853 74.80117059654991
530.458 74.91342429594302
538.174 75.04519090847771
546.002 75.19527300192203
553.943 75.35863228618257
562.001 75.52674307665315
570.175 75.6956985964152
578.469 75.8584222021508
586.883 76.00827856976758
595.419 76.14270599564374
604.08 76.26220919100092
612.866 76.36514901601748
621.78 76.45017758899209
630.824 76.51673383603773
640.0 76.56445803236356
649.309 76.59459289452661
658.753 76.61048125751213
668.335 76.61363531800144
678.056 76.6072653780863
687.919 76.59476149748927
697.925 76.58004492195352
708.077 76.56721193674053
718.376 76.56107419461047
728.825 76.56378641481047
739.426 76.5793067080457
750.181 76.60850780986001
761.093 76.65243000149891
772.163 76.70905878071319
783.394 76.77654445499887
794.789 76.85236501231644
806.349 76.9293507464499
818.078 77.00393555250037
829.977 77.07018294089654
842.05 77.12364805530135
854.298 77.15963666006027
866.724 77.17331427719937
879.33 77.16300000317551
892.12 77.12527887389992
905.097 77.0593339172829
918.262 76.96460196121397
931.618 76.84245704350963
945.169 76.69521390015002
958.917 76.52577704951602
972.864 76.33926305987673
987.015 76.14105992657161
1001.37 75.93136184363752
1015.94 75.72606575139449
1030.71 75.53671286102573
1045.71 75.36592469092626
1060.92 75.22285848436884
1076.35 75.1176974777537
1092.0 75.05398843486887
1107.89 75.03338763126611
1124.0 75.05562474116869
1140.35 75.11555857532727
1156.94 75.20742949415245
1173.77 75.32017692206456
1190.84 75.44236192229627
1208.16 75.56237727787601
1225.73 75.67012984362276
1243.56 75.75564526340617
1261.65 75.80916915502254
1280.0 75.82724201231078
1298.62 75.80734274310032
1317.51 75.75092215087162
1336.67 75.66237708047893
1356.11 75.5505532433134
1375.84 75.4250103851262
1395.85 75.29663098019458
1416.15 75.17554829027449
1436.75 75.06715701052623
1457.65 74.97094294643178
1478.85 74.88285656613898
1500.36 74.79682164682733
1522.19 74.70680851215957
1544.33 74.61236455407052
1566.79 74.51986427319402
1589.58 74.44660982918418
1612.7 74.41434562015527
1636.16 74.44330553773037
1659.95 74.54160335145096
1684.1 74.70200810683198
1708.6 74.89822737741184
1733.45 75.09366113746793
1758.66 75.25494418056118
1784.24 75.35313947539527
1810.19 75.37629955926036
1836.52 75.32915954708595
1863.24 75.2342616399338
1890.34 75.12655033481566
1917.83 75.04595222604452
1945.73 75.02175864130616
1974.03 75.0586122450692
2002.74 75.13655019795239
2031.87 75.2212287292359
2061.43 75.28178275678016
2091.41 75.30232396150552
2121.83 75.2878474650978
2152.69 75.2577631701897
2184.01 75.23501334856616
2215.77 75.22905696268376
2248.0 75.23108205620545
2280.7 75.21539311416633
2313.87 75.1547495495079
2347.53 75.0337916777805
2381.68 74.85820842715442
2416.32 74.65248200372305
2451.46 74.4502024796898
2487.12 74.2777059938553
2523.3 74.14426807548406
2560.0 74.04437295191202
2597.24 73.9671946973508
2635.01 73.904963852393
2673.34 73.85759212676045
2712.23 73.82038759420345
2751.68 73.78619122362707
2791.7 73.7510372741215
2832.31 73.72105206433362
2873.5 73.71142141211283
2915.3 73.73279245621377
2957.7 73.78100208046911
3000.72 73.84071920375855
3044.37 73.89763249146844
3088.65 73.95517554183566
3133.58 74.0207737498892
3179.16 74.097778120412
3225.4 74.17897243492992
3272.31 74.26257874304662
3319.91 74.36516293024448
3368.2 74.50209286893825
3417.19 74.66422918854288
3466.89 74.82245163493114
3517.32 74.96151885467424
3568.48 75.09780557201091
3620.39 75.25717004052487
3673.05 75.43647449519058
3726.47 75.60339231671294
3780.67 75.737420230425
3835.67 75.84326025925033
3891.46 75.93433173542783
3948.06 76.01752451328278
4005.49 76.09647184089664
4063.75 76.16675935243951
4122.86 76.2078535164732
4182.82 76.20790459615787
4243.66 76.18463256050444
4305.39 76.15772010450262
4368.01 76.12243489617622
4431.55 76.07734559269271
4496.01 76.04419336452167
4561.4 76.04133963572522
4627.75 76.08298713972022
4695.06 76.17626265727114
4763.35 76.2817725411352
4832.64 76.33719202133095
4902.93 76.35992128975384
4974.24 76.4087201637034
5046.6 76.49356434841148
5120.0 76.581834751368
5194.47 76.61369604690222
5270.03 76.53746619847982
5346.68 76.394238364615
5424.45 76.26133521522581
5503.35 76.1618891070913
5583.4 76.10866571764807
5664.61 76.09067622295586
5747.01 76.059111135572
5830.6 75.99211077195577
5915.41 75.96875291435292
6001.45 76.08043952979563
6088.74 76.21346302617755
6177.3 76.29471196458691
6267.15 76.39673177981172
6358.31 76.48874526151309
6450.8 76.56116062061831
6544.62 76.61302353104304
6639.82 76.66773105731745
6736.4 76.75381001221108
6834.38 76.85515712837841
6933.79 76.94635016013171
7034.64 77.00374451762269
7136.96 77.05058950015538
7240.77 77.09408547298698
7346.09 77.19096565355795
7452.94 77.2851051600607
7561.35 77.38070508790359
7671.33 77.46948352411883
7782.91 77.55829107412438
7896.12 77.62012120637425
8010.97 77.6225865592597
8127.49 77.6538040609644
8245.71 77.70827466831784
8365.65 77.68150000991687
8487.33 77.58688955266283
8610.78 77.43826387810205
8736.03 77.20206838915492
8863.09 76.8930648686723
8992.01 76.50639548734628
9122.8 75.99882267198564
9255.5 75.47060721630348
9390.12 75.10268094653402
9526.7 74.86576960809512
9665.27 74.81324914574704
9805.86 74.98170918001041
9948.49 75.22952841431636
10093.2 75.40475010027114
10240.0 75.58812189287973
10388.9 75.75791900917348
10540.1 75.87329701908034
10693.4 75.98599325331601
10848.9 76.17735713355222
11006.7 76.44509316591149
11166.8 76.7509608039646
11329.2 77.14628280503543
11494.0 77.57430460759005
11661.2 77.96811156311776
11830.8 78.29128672099888
12002.9 78.49356182000226
12177.5 78.56206566451291
12354.6 78.55660632820118
12534.3 78.5160233665142
12716.6 78.47451007288173
12901.6 78.43943608047444
13089.2 78.39174426706369
13279.6 78.2674249649744
13472.8 78.11290664287597
13668.8 78.01178387548944
13867.6 77.82030594454672
14069.3 77.55311155793439
14273.9 77.21147170370574
14481.5 76.97139235196346
14692.2 76.91636469440273
14905.9 76.87318751483127
15122.7 76.7378729471439
15342.7 76.46241495268637
15565.8 76.11599425242493
15792.2 75.840021979963
16021.9 75.70841868930874
16255.0 75.64568391113127
16491.4 75.57258445046908
16731.3 75.40543198369417
16974.7 75.17506542185505
17221.6 74.94092651935598
17472.1 74.74302481387535
17726.2 74.56432102082648
17984.0 74.35484141418226
18245.6 74.15923387445005
18511.0 73.99504152313781
18780.2 73.80106384173783
19053.4 73.55809195628022
19330.5 73.26526933740291
19611.7 73.0946172985711
19897.0 72.98224427298693
