Freq "On Axis"
20.5078 66.67199999999998
21.9727 68.4737
23.4375 75.79899999999999
24.9023 78.06759999999998
26.3672 80.86390000000002
27.832 83.62059999999998
29.2969 86.69950000000001
30.7617 89.9968
32.2266 93.312
33.6914 95.9277
35.1562 98.6546
36.6211 100.963
38.0859 103.224
39.5508 105.12
41.0156 106.689
42.4805 107.861
43.9453 108.652
45.4102 109.21
46.875 109.57800000000002
48.3398 109.724
51.2695 109.94600000000001
52.7344 109.915
54.1992 109.833
55.6641 109.752
58.5938 109.56500000000001
60.0586 109.515
62.9883 109.294
64.4531 109.189
67.3828 109.06000000000002
68.8477 109.011
71.7773 108.956
74.707 108.98899999999999
77.6367 108.92300000000002
79.1016 108.956
82.0312 109.024
84.9609 108.57799999999999
87.8906 108.551
90.8203 108.491
95.2148 108.818
98.1445 109.144
101.074 109.149
105.469 109.103
108.398 109.38100000000001
112.793 109.43399999999998
117.188 109.83
120.117 110.081
124.512 110.168
128.906 109.934
133.301 109.431
139.16 109.275
143.555 109.59
147.949 109.546
153.809 109.492
159.668 109.572
165.527 109.065
171.387 108.98899999999999
177.246 109.391
183.105 108.56
188.965 108.908
196.289 109.96
203.613 109.83199999999998
210.938 109.898
218.262 109.849
225.586 110.03600000000002
232.91 110.018
241.699 109.78099999999999
250.488 109.894
259.277 109.977
268.066 109.553
276.855 109.726
287.109 109.679
297.363 109.986
307.617 110.004
319.336 109.58799999999998
329.59 109.476
341.309 109.22700000000002
353.027 109.58399999999999
366.211 109.761
379.395 109.66099999999999
392.578 109.002
405.762 109.425
420.41 110.29700000000001
435.059 110.274
451.172 110.863
465.82 110.255
483.398 110.165
499.512 110.356
517.09 110.108
536.133 110.429
555.176 110.29
574.219 109.44699999999999
594.727 109.17
615.234 109.528
637.207 111.037
659.18 110.01199999999999
682.617 109.91200000000002
707.52 110.598
732.422 110.512
757.324 110.819
785.156 110.383
811.523 110.579
840.82 110.773
870.117 111.015
900.879 111.311
933.105 111.387
965.332 111.29900000000002
1000.49 111.395
1035.64 111.366
1072.27 110.642
1108.89 111.212
1148.44 111.555
1189.45 111.151
1230.47 110.485
1274.41 109.967
1319.82 109.954
1366.7 109.777
1413.57 109.72099999999999
1463.38 110.502
1516.11 111.535
1568.85 112.209
1624.51 112.545
1681.64 112.047
1741.7 111.602
1803.22 111.83999999999999
1866.21 112.03
1932.13 112.41799999999999
1999.51 112.105
2069.82 111.664
2143.07 110.471
2219.24 111.404
2296.88 111.674
2378.91 110.215
2462.4 109.81499999999998
2548.83 111.248
2639.65 112.053
2731.93 111.198
2828.61 110.396
2928.22 110.66100000000002
3030.76 111.165
3137.7 111.173
3249.02 111.135
3363.28 111.259
3481.93 111.266
3604.98 111.354
3732.42 111.367
3864.26 109.633
4000.49 110.589
4141.11 111.134
4287.6 110.829
4438.48 110.848
4595.21 111.124
4756.35 111.067
4924.8 109.865
5097.66 110.972
5277.83 109.98900000000002
5463.87 110.242
5657.23 110.331
5856.45 110.865
6062.99 110.89200000000001
6276.86 111.122
6498.05 110.923
6726.56 111.267
6963.87 110.91800000000002
7209.96 110.877
7464.84 110.43599999999999
7727.05 110.915
7999.51 110.732
8282.23 110.966
8573.73 111.236
8876.95 110.962
9188.96 111.501
9514.16 111.257
9849.61 111.07200000000002
10196.8 110.42299999999999
10555.7 109.693
10927.7 109.372
11313.0 108.932
11712.9 109.16700000000002
12126.0 109.18599999999999
12553.7 109.086
12996.1 108.981
13454.6 109.367
13929.2 109.972
14419.9 111.278
14928.2 112.81400000000001
15455.6 114.232
16000.5 114.87
16564.5 114.92900000000002
17148.9 114.262
17752.4 113.301
18379.4 112.22499999999998
19026.9 111.439
19697.8 110.959
19999.5 110.746
