Freq,On Axis,Listening Window,Sound Power,Early Reflections,Early Reflections DI,Sound Power DI,DI offset
22.4,42.499999999999986,41.95951665299593,44.63764401507571,44.005305744808524,27.954210908187406,27.321872637920222,30
23.0,44.2,43.6833221148061,46.225920021726424,45.632124938617935,28.051197176188168,27.45740209307968,30
23.6,45.89999999999999,45.42246486857867,47.789451629700054,47.23641378202994,28.18605108654873,27.63301323887862,30
24.0,48.39999999999999,47.92809296592792,50.133256046823746,49.62344010743796,28.30465285848996,27.79483691910417,30
25.0,50.7,50.181398619251425,52.17471855268552,51.72295777520385,28.458440844047573,28.006680066565906,30
25.8,52.499999999999986,52.0010175756165,53.86070218172209,53.44349884130206,28.557518734314442,28.14031539389441,30
26.5,54.2,53.669286149501815,55.36079087323499,54.977423120070384,28.69186302943143,28.308495276266825,30
27.2,55.89999999999999,55.44794366419326,56.96588240420773,56.63885412887254,28.809089535320723,28.482061259985528,30
28.0,57.5,57.06682611011155,58.39949481052116,58.107545538500986,28.959280571610563,28.667331299590387,30
29.0,58.89999999999999,58.43877433243712,59.662715456252045,59.39830345703621,29.040470875400914,28.776058876185076,30
30.0,60.39999999999999,59.93877433243712,60.98566740879198,60.78387898321181,29.154895349225313,28.953106923645137,30
30.7,62.2,61.7111849186705,62.63064826731487,62.46831272063493,29.24287219803557,29.08053665135563,30
31.5,63.8,63.33158623188321,64.07466658008438,63.96256343890393,29.36902279297928,29.256919651798825,30
32.5,65.2,64.77166569798207,65.38392025278277,65.30671072707408,29.464954970907996,29.3877454451993,30
33.5,66.8,66.34491028373509,66.79445197224078,66.7777659546722,29.567144329062884,29.55045831149431,30
34.5,68.2,67.7449102837351,68.07950853931976,68.09290091082053,29.652009372914563,29.665401744415334,30
35.5,69.49999999999999,69.03402549053665,69.23569372037556,69.29897258726864,29.735052903268013,29.798331770161084,30
36.5,70.8,70.31860367876975,70.35740661690973,70.46695027952497,29.851653399244782,29.96119706186002,30
37.5,71.90000000000002,71.45479163210673,71.37004107262649,71.52287165513674,29.931919976969994,30.08475055948024,30
38.7,73.00000000000001,72.5079022521413,72.28108564289523,72.47800492506163,30.02989732707968,30.22681660924607,30
40.0,73.9,73.42879337965887,73.0607665332875,73.30288492386065,30.125908455798225,30.368026846371365,30
41.2,74.7,74.24865087590824,73.79512441628385,74.07486674511183,30.173784130796406,30.453526459624385,30
42.5,75.50000000000001,75.00323566738747,74.44015464653484,74.76750304947373,30.23573261791374,30.563081020852636,30
43.7,76.2,75.70323566738746,75.02444481166454,75.39567605763385,30.30755960975361,30.678790855722923,30
45.0,76.8,76.32321009804544,75.54529449590173,75.95646451422279,30.36674558382265,30.777915602143707,30
46.2,77.3,76.84451161632832,75.93893308379141,76.38345274102814,30.461058875300182,30.905578532536907,30
47.5,77.7,77.28585653551836,76.29375954970129,76.78882873355361,30.497027801964748,30.99209698581707,30
48.7,78.00000000000001,77.51962782852318,76.42750063047694,76.95795567156088,30.561672156962302,31.092127198046242,30
50.0,78.2,77.74094688149697,76.54426656108356,77.11622835435743,30.624718527139535,31.196680320413407,30
51.5,78.39999999999999,78.00734160341491,76.71880032153366,77.31539835760438,30.691943245810535,31.28854128188125,30
53.0,78.7,78.29732931289777,76.93591186840521,77.56426334132307,30.733065971574703,31.36141744449256,30
54.5,79.10000000000001,78.68281623236096,77.22403341616955,77.88400854760332,30.798807684757648,31.458782816191416,30
56.0,79.49999999999999,79.08281623236098,77.55552096189386,78.25311651745275,30.82969971490823,31.52729527046712,30
58.0,79.9,79.45132045835385,77.84609258780259,78.58283006292159,30.86849039543226,31.60522787055126,30
60.0,80.3,79.83698698262181,78.16110978343947,78.91829606571639,30.91869091690542,31.675877199182338,30
61.5,80.8,80.33698698262181,78.58009372607388,79.36741757159274,30.96956941102907,31.756893256547926,30
63.0,81.2,80.73698698262181,78.91337875128177,79.72242887912309,31.01455810349873,31.823608231340046,30
65.0,81.5,81.05871457222582,79.17862281540104,80.02025193466342,31.038462637562404,31.880091756824783,30
67.0,81.8,81.32726949110126,79.39812101228901,80.26353144238128,31.063738048719983,31.92914847881225,30
69.0,81.90000000000002,81.45871457222582,79.50097103843305,80.36918740968795,31.089527162537863,31.957743533792765,30
71.0,81.90000000000002,81.4793632752825,79.47788723900678,80.36257687871965,31.116786396562844,32.00147603627572,30
73.0,82.2,81.69172879386603,79.64910405962438,80.55604116120392,31.135687632662112,32.042624734241656,30
75.0,82.4,81.9793632752825,79.86628965057655,80.79433417462927,31.185029100653225,32.11307362470595,30
77.5,82.6,82.1793632752825,80.03703082998712,80.97479557655211,31.204567698730386,32.14233244529538,30
80.0,82.6,82.11368341804672,79.95251130745528,80.89756718244458,31.216116235602144,32.16117211059144,30
82.5,82.6,82.11368341804672,79.92903438750048,80.88586806844857,31.227815349598146,32.18464903054624,30
85.0,82.7,82.2345468212238,80.02535633344442,80.99455095560675,31.239995865617047,32.20919048777938,30
87.5,82.8,82.29987674967886,80.07566877197605,81.0416219474527,31.258254802226162,32.224207977702804,30
90.0,82.7,82.25579294263933,80.01351987024199,80.98747156313259,31.268321379506745,32.24227307239734,30
92.5,82.7,82.22080642548244,79.96940501144284,80.94589506207484,31.274911363407597,32.25140141403959,30
95.0,82.6,82.11127488862122,79.83156047967833,80.80849247648052,31.3027824121407,32.279714408942894,30
97.5,82.5,82.02080642548245,79.74628236026163,80.71962884586252,31.30117757961993,32.27452406522082,30
100.0,82.3,81.86432591185743,79.60176000396321,80.57139260659356,31.292933305263873,32.26256590789423,30
103.0,82.2,81.76432591185744,79.49909821797492,80.45196283461351,31.31236307724393,32.26522769388252,30
106.0,82.2,81.75099066421392,79.52462911732077,80.46593424237864,31.28505642183528,32.226361546893145,30
109.0,82.4,81.86343711559546,79.66676270326074,80.59661404106464,31.26682307453082,32.196674412334715,30
112.0,82.6,82.16065528231933,79.97903778017611,80.88212212090303,31.27853316141629,32.18161750214321,30
115.0,82.9,82.45099066421393,80.26596776629738,81.16354921849909,31.287441445714848,32.185022897916554,30
118.0,82.8,82.29462234658067,80.17073386421676,81.04717890394488,31.247443442635785,32.12388848236391,30
122.0,82.5,81.99462234658067,79.89720006480114,80.76794849847691,31.226673848103758,32.09742228177953,30
125.0,82.2,81.7485908497831,79.68470241419942,80.52525573565418,31.223335114128915,32.06388843558368,30
128.0,81.99999999999999,81.5707640747013,79.54668448598936,80.3672614683257,31.203502606375608,32.02407958871194,30
132.0,81.60000000000001,81.11542894557151,79.12197971609926,79.92669117918071,31.1887377663908,31.993449229472247,30
136.0,81.0,80.52539964351575,78.5777913747963,79.37835415825532,31.147045485260435,31.94760826871945,30
140.0,80.50000000000001,80.01284354328007,78.05887482830599,78.85320845510947,31.159635088170603,31.95396871497408,30
145.0,80.1,79.55833520624617,77.61828607992186,78.4178390775417,31.14049612870447,31.94004912632431,30
150.0,79.40000000000002,78.90411160534158,76.93475767027086,77.74049317268096,31.163618432660627,31.96935393507073,30
155.0,78.39999999999999,77.89178134372514,75.89364384176245,76.72957326259167,31.16220808113347,31.998137501962688,30
160.0,77.1,76.65779196492038,74.59876279540829,75.47055921552612,31.187232749394255,32.05902916951209,30
165.0,75.89999999999999,75.44718678504016,73.29856974642658,74.23237691680427,31.21480986823589,32.14861703861358,30
170.0,75.3,74.82732257797979,72.58451306368109,73.575249258356,31.25207331962379,32.2428095142987,30
175.0,74.6,74.18174191187605,71.80670416552914,72.87461142118843,31.307130490687612,32.375037746346905,30
180.0,73.9,73.47352208303121,70.96375385807015,72.11152639940208,31.361995683629132,32.509768224961064,30
185.0,73.39999999999999,73.0046196988519,70.33135669554065,71.57682587077623,31.427793828075664,32.67326300331125,30
190.0,73.5,73.1724557389388,70.33411749046086,71.6732247402265,31.499230998712292,32.83833824847794,30
195.0,74.49999999999999,74.14870163402428,71.1438039127043,72.56986476672678,31.578836867297497,33.00489772131998,30
200.0,76.0,75.64870163402426,72.51379853706813,74.03177316005487,31.616928473969395,33.13490309695614,30
206.0,77.6,77.29335189415356,73.98424562163619,75.58496403148133,31.708387862672225,33.30910627251737,30
212.0,79.10000000000001,78.77369819947313,75.32411635752418,76.9971245724964,31.776573626976727,33.449581841948955,30
218.0,80.3,79.97369819947313,76.41853821086775,78.15763783104521,31.816060368427927,33.55515998860538,30
224.0,81.3,80.97369819947313,77.29422202598549,79.10369069858457,31.870007500888562,33.67947617348764,30
230.0,81.99999999999999,81.69224037578323,77.91575092692251,79.76398186408046,31.928258511702765,33.776489448860715,30
236.0,82.5,82.22576184825603,78.35134610680667,80.2511741643128,31.974587683943227,33.874415741449354,30
240.0,82.9,82.57054426872764,78.6239332391654,80.55517894349121,32.01536532523643,33.94661102956225,30
250.0,83.09999999999998,82.75811819823174,78.74243877348172,80.69369089689975,32.06442730133199,34.01567942475002,30
258.0,83.2,82.85642719287974,78.77216259876015,80.74810781434769,32.108319378532045,34.08426459411959,30
265.0,83.09999999999998,82.82464604011315,78.68845665799726,80.68135526884548,32.14329077126767,34.13618938211589,30
272.0,83.00000000000001,82.7126537546765,78.52980704482954,80.52614390869773,32.18650984597876,34.182846709846956,30
280.0,82.8,82.5017247216028,78.26866406583301,80.27578506575806,32.22593965584474,34.23306065576979,30
290.0,82.4,82.15752870816128,77.91773027082006,79.92083023228793,32.236698475873354,34.23979843734122,30
300.0,81.90000000000002,81.6802980202329,77.43541012841305,79.4296500558416,32.25064796439129,34.24488789181984,30
307.0,81.3,81.10876050112404,76.88872043920689,78.88458904907694,32.2241714520471,34.220040061917146,30
315.0,80.59999999999998,80.45579500600411,76.25094307167159,78.23725491642297,32.21854008958114,34.204851934332524,30
325.0,79.8,79.70433836493503,75.58071449696774,77.56101672943679,32.14332163549824,34.12362386796728,30
335.0,79.10000000000001,78.9734905474868,74.88087782113419,76.90192253767809,32.071568009808715,34.09261272635261,30
345.0,78.39999999999999,78.216500383241,74.14579300422692,76.22515919207493,31.99134119116607,34.07070737901408,30
355.0,77.8,77.58121377355643,73.39526025423275,75.58026709857343,32.000946674983,34.185953519323675,30
365.0,77.3,76.96664816310539,72.63551071910054,74.91754133498061,32.04910682812478,34.33113744400485,30
375.0,76.99999999999999,76.48503168484585,71.97129244409288,74.34497374293751,32.14005794190834,34.51373924075297,30
387.0,76.7,76.10970201323953,71.42375715016935,73.8799884068903,32.22971360634922,34.685944863070176,30
400.0,76.5,75.84179818696235,70.99268875230644,73.5118234987206,32.32997468824175,34.849109434655915,30
412.0,76.4,75.76712449434633,70.7615815408701,73.34402533256808,32.423099161778254,35.00554295347624,30
425.0,76.60000000000001,75.93220397570214,70.82186271296446,73.45261219424519,32.479591781456946,35.11034126273768,30
437.0,76.99999999999999,76.3189330566414,71.1497897115983,73.85165493650896,32.467278120132434,35.169143345043096,30
450.0,77.5,76.87425087402663,71.67218084873598,74.44206756604373,32.432183307982896,35.20207002529065,30
462.0,78.00000000000001,77.35783770685941,72.17494259303105,74.98492459559687,32.37291311126255,35.182895113828366,30
475.0,78.2,77.6288002575772,72.54024694477026,75.38073346349003,32.248066794087165,35.08855331280694,30
487.0,78.09999999999998,77.57446015594618,72.62964677565218,75.48132976780786,32.09313038813832,34.94481338029401,30
500.0,77.6,77.16446441651448,72.40093545840764,75.24014360150866,31.924320815005814,34.76352895810683,30
515.0,76.7,76.31481909419671,71.76983492557663,74.58130881046587,31.733510283730837,34.544984168620076,30
530.0,75.59999999999998,75.22040840448048,70.82923158049503,73.642583723373,31.577824681107487,34.39117682398545,30
545.0,74.49999999999999,74.13857253848552,69.83152221269833,72.65151791381557,31.487054624669952,34.30705032578719,30
560.0,74.0,73.73934164060536,69.38745460556923,72.26409922410532,31.475242416500038,34.35188703503613,30
580.0,74.6,74.29633515472777,69.67190331476337,72.64983072676789,31.646504427959883,34.6244318399644,30
600.0,75.59999999999998,75.27129639989597,70.16276897113575,73.27760587915473,31.99369052074124,35.108527428760226,30
615.0,76.5,76.18797616790673,70.56535016540082,73.81633759271672,32.371638575190005,35.62262600250591,30
630.0,77.2,76.86609345441074,70.91052643542152,74.20671442589173,32.65937902851901,35.95556701898923,30
650.0,77.8,77.45591023317486,71.41163897225705,74.62378428533943,32.832125947835436,36.04427126091781,30
670.0,78.5,78.09207093424418,72.24732268816463,75.25037692845545,32.841694005788725,35.84474824607955,30
690.0,79.40000000000002,78.96531319480772,73.49766661524579,76.2113409823778,32.753972212429915,35.46764657956193,30
710.0,80.50000000000001,79.87896237037366,74.87767126124714,77.24843124231064,32.63053112806301,35.00129110912651,30
730.0,81.5,80.74737621513539,76.0132662856969,78.16960067758812,32.57777553754727,34.73410992943849,30
750.0,82.4,81.48390469621086,76.58955322257596,78.76784235448952,32.71606234172134,34.8943514736349,30
775.0,82.9,82.00313344404084,76.69379071984721,79.07886020282241,32.92427324121843,35.30934272419363,30
800.0,83.00000000000001,82.1326239011321,76.45972631327605,79.1745891146528,32.9580347864793,35.672897587856056,30
825.0,82.5,81.73688623355973,75.88056020918634,78.99525482055274,32.741631413006985,35.85632602437339,30
850.0,81.5,80.91950835183981,74.97328349828001,78.50549138474696,32.41401696709285,35.9462248535598,30
875.0,80.50000000000001,80.07983086327138,74.00346759828004,77.88819816574664,32.19163269752474,36.07636326499134,30
900.0,80.3,79.94917133838722,73.45818484177934,77.55861914479956,32.39055219358765,36.490986496607874,30
925.0,80.89999999999999,80.37321724968402,73.31415801242139,77.52070383887819,32.85251341080583,37.05905923726263,30
950.0,81.2,80.57594704839039,73.0729660612405,77.30715519448513,33.268791853905256,37.50298098714988,30
975.0,81.0,80.36154739794524,72.61077803544025,76.83076281369354,33.530784584251705,37.750769362505,30
1000.0,80.50000000000001,79.92532216607246,72.16396747161717,76.29888091901535,33.626441247057116,37.76135469445529,30
1030.0,80.3,79.74007172083466,72.11716878552066,76.08620353241378,33.65386818842089,37.622902935314,30
1060.0,80.2,79.59631559046835,72.27116480677877,76.08180161599545,33.514513974472905,37.32515078368958,30
1090.0,79.9,79.34032896213556,72.2150626908669,76.01333605591914,33.32699290621642,37.12526627126866,30
1120.0,79.9,79.20501982489432,71.93866617075572,75.95145128380858,33.25356854108574,37.2663536541386,30
1150.0,79.9,79.11510336855606,71.46179718897935,75.75264025764584,33.36246311091023,37.65330617957672,30
1180.0,79.8,78.87610095611194,70.8140484725115,75.29160513263228,33.58449582347966,38.06205248360044,30
1220.0,79.7,78.79629579595503,70.3730117918373,74.96243924063818,33.833856555316856,38.42328400411773,30
1250.0,80.0,79.09346690154302,70.20995435080933,74.93170662878393,34.161760272759096,38.8835125507337,30
1280.0,80.2,79.05321328638365,69.72779789606662,74.5700757353081,34.48313755107556,39.32541539031703,30
1320.0,79.3,77.85381548382793,68.63807984146581,73.29288508282919,34.56093040099874,39.21573564236212,30
1360.0,77.8,76.07496749909733,67.51394796281238,71.73908466680517,34.33588283229216,38.561019536284945,30
1400.0,77.2,75.55987237063141,67.59339070154344,71.6123681655423,33.9475042050891,37.96648166908797,30
1450.0,77.3,75.84900799330592,68.15609919636533,72.24164988052895,33.607358112776964,37.692908796940586,30
1500.0,77.6,76.14375266450863,68.48327247443949,72.58183084456057,33.561921819948054,37.66048019006914,30
1550.0,78.00000000000001,76.9545382893782,68.88528074366324,73.00928021637645,33.94525807300175,38.06925754571496,30
1600.0,78.3,77.38926295114511,68.91599678829463,73.11120871759654,34.27805423354857,38.47326616285048,30
1650.0,78.8,77.71369519080464,68.85749311801025,73.15494206116084,34.558753129643804,38.85620207279439,30
1700.0,79.3,78.09951639541934,69.04762310342086,73.43098462592569,34.668531769493654,39.05189329199848,30
1750.0,78.8,77.59901807084286,68.62437048705836,72.8901043894762,34.70891368136665,38.9746475837845,30
1800.0,77.3,76.35782854770927,67.5384479962748,71.41202280785483,34.94580573985445,38.81938055143448,30
1850.0,76.90000000000002,75.70901179324123,67.18780936240555,70.79122394401897,34.917787849222265,38.521202430835686,30
1900.0,77.8,76.1528823789258,67.8939352731601,71.4619136031377,34.69096877578809,38.2589471057657,30
1950.0,78.7,76.37364999400278,67.98014716244666,71.72621011073522,34.64743988326755,38.39350283155612,30
2000.0,79.10000000000001,76.42695520913884,67.7117692510807,71.6679707020033,34.75898450713554,38.71518595805814,30
2060.0,79.49999999999999,76.7654245124371,67.78714917658452,71.87407692446148,34.891347587975616,38.97827533585257,30
2120.0,79.7,76.90248241041179,67.89609832815965,71.95393837975136,34.94854403066043,39.00638408225214,30
2180.0,79.8,77.03299745071156,68.00348550116732,72.01988949968437,35.013107951027195,39.02951194954424,30
2240.0,79.40000000000002,77.00128075233849,67.92169066583625,71.98004581257982,35.02123493975867,39.079590086502236,30
2300.0,79.2,77.07988356627,67.9625432351907,72.16140988526092,34.918473681009075,39.117340331079305,30
2360.0,79.40000000000002,77.1703223054672,68.06348507992254,72.35369772509543,34.816624580371766,39.10683722554465,30
2400.0,79.7,77.59617037664326,68.38070648003091,72.74130245677584,34.85486791986742,39.21546389661235,30
2500.0,79.8,77.82202318038237,68.40124600948475,72.89086356677582,34.93115961360655,39.42077717089762,30
2580.0,79.6,77.4976465743723,67.75008769151037,72.48588875549666,35.01175781887564,39.747558882861924,30
2650.0,79.7,77.45002838193436,67.43458906698771,72.40818252083088,35.04184586110348,40.01543931494665,30
2720.0,79.6,77.33107087571854,67.34281216699766,72.28287228087343,35.048198594845104,39.98825870872088,30
2800.0,79.2,77.26527621709252,67.43013622945801,72.17446400356513,35.090812213527386,39.835139987634506,30
2900.0,79.10000000000001,77.82104832975635,68.29804997442817,72.75270379281457,35.06834453694178,39.522998355328184,30
3000.0,79.10000000000001,77.94028503572916,68.5299813947269,72.97450030796503,34.96578472776413,39.41030364100226,30
3070.0,79.2,78.06738841575671,68.64994443677077,73.09047426413576,34.976914151620946,39.41744397898594,30
3150.0,79.3,78.37956950854286,68.8965239892604,73.29435268994112,35.08521681860174,39.483045519282456,30
3250.0,79.8,78.85879132287435,69.42836285437757,73.75471042289838,35.10408089997597,39.430428468496785,30
3350.0,80.2,78.9161497699907,69.33168785268391,73.6795071646345,35.236642605356195,39.58446191730678,30
3450.0,80.59999999999998,78.99288763376556,69.02108555939174,73.52368577438084,35.469201859384725,39.97180207437383,30
3550.0,80.7,79.19903379937375,69.15098507146723,73.61603769352769,35.582996105846064,40.04804872790652,30
3650.0,80.7,79.33770369608293,69.66586000014003,73.86732811423548,35.47037558184745,39.6718436959429,30
3750.0,80.89999999999999,79.3952465243997,69.80312064348855,73.9832805638872,35.41196596051249,39.59212588091114,30
3870.0,80.89999999999999,78.8539208304885,69.0829394578227,73.44653521492,35.4073856155685,39.7709813726658,30
4000.0,81.0,78.77768327918346,68.8590203822381,73.3617137585746,35.41596952060887,39.918662896945364,30
4120.0,81.2,79.03226562960451,69.2385957143189,73.66312607178385,35.36913955782066,39.793669915285605,30
4250.0,81.5,79.35343071672422,69.5873134828018,73.91935021561697,35.434080501107246,39.766117233922415,30
