Freq "Sound Power"
22.4 44.63764401507569
23.0 46.22592002172644
23.6 47.78945162970004
24.0 50.13325604682376
25.0 52.17471855268553
25.8 53.860702181722075
26.5 55.360790873234976
27.2 56.96588240420775
28.0 58.399494810521176
29.0 59.662715456252045
30.0 60.98566740879198
30.7 62.630648267314854
31.5 64.0746665800844
32.5 65.38392025278279
33.5 66.79445197224078
34.5 68.07950853931976
35.5 69.23569372037556
36.5 70.35740661690974
37.5 71.37004107262649
38.7 72.28108564289523
40.0 73.06076653328749
41.2 73.79512441628387
42.5 74.44015464653484
43.7 75.02444481166452
45.0 75.54529449590174
46.2 75.93893308379141
47.5 76.29375954970129
48.7 76.42750063047694
50.0 76.54426656108356
51.5 76.71880032153365
53.0 76.93591186840523
54.5 77.22403341616955
56.0 77.55552096189388
58.0 77.8460925878026
60.0 78.16110978343946
61.5 78.58009372607387
63.0 78.91337875128177
65.0 79.17862281540104
67.0 79.398121012289
69.0 79.50097103843305
71.0 79.47788723900676
73.0 79.64910405962438
75.0 79.86628965057653
77.5 80.03703082998712
80.0 79.9525113074553
82.5 79.92903438750048
85.0 80.02535633344442
87.5 80.07566877197605
90.0 80.01351987024198
92.5 79.96940501144284
95.0 79.83156047967833
97.5 79.74628236026165
100.0 79.60176000396321
103.0 79.49909821797492
106.0 79.52462911732076
109.0 79.66676270326076
112.0 79.97903778017611
115.0 80.26596776629736
118.0 80.17073386421674
122.0 79.89720006480114
125.0 79.68470241419942
128.0 79.54668448598935
132.0 79.12197971609925
136.0 78.57779137479629
140.0 78.05887482830599
145.0 77.61828607992186
150.0 76.93475767027084
155.0 75.89364384176247
160.0 74.59876279540828
165.0 73.29856974642658
170.0 72.58451306368107
175.0 71.80670416552914
180.0 70.96375385807016
185.0 70.33135669554065
190.0 70.33411749046086
195.0 71.14380391270431
200.0 72.51379853706811
206.0 73.98424562163618
212.0 75.32411635752416
218.0 76.41853821086774
224.0 77.29422202598548
230.0 77.91575092692251
236.0 78.35134610680666
240.0 78.62393323916538
250.0 78.74243877348172
258.0 78.77216259876016
265.0 78.68845665799728
272.0 78.52980704482955
280.0 78.26866406583301
290.0 77.91773027082004
300.0 77.43541012841307
307.0 76.8887204392069
315.0 76.2509430716716
325.0 75.58071449696773
335.0 74.8808778211342
345.0 74.1457930042269
355.0 73.39526025423277
365.0 72.63551071910054
375.0 71.97129244409287
387.0 71.42375715016935
400.0 70.99268875230644
412.0 70.76158154087011
425.0 70.82186271296446
437.0 71.14978971159832
450.0 71.67218084873599
462.0 72.17494259303105
475.0 72.54024694477027
487.0 72.62964677565219
500.0 72.40093545840764
515.0 71.76983492557663
530.0 70.82923158049502
545.0 69.83152221269833
560.0 69.38745460556925
580.0 69.67190331476337
600.0 70.16276897113575
615.0 70.56535016540082
630.0 70.91052643542152
650.0 71.41163897225707
670.0 72.24732268816464
690.0 73.4976666152458
710.0 74.87767126124713
730.0 76.0132662856969
750.0 76.58955322257597
775.0 76.69379071984721
800.0 76.45972631327605
825.0 75.88056020918633
850.0 74.97328349828
875.0 74.00346759828005
900.0 73.45818484177934
925.0 73.3141580124214
950.0 73.0729660612405
975.0 72.61077803544026
1000.0 72.16396747161716
1030.0 72.11716878552065
1060.0 72.27116480677878
1090.0 72.21506269086692
1120.0 71.93866617075572
1150.0 71.46179718897935
1180.0 70.81404847251152
1220.0 70.37301179183731
1250.0 70.20995435080931
1280.0 69.72779789606662
1320.0 68.6380798414658
1360.0 67.51394796281237
1400.0 67.59339070154343
1450.0 68.15609919636532
1500.0 68.4832724744395
1550.0 68.88528074366323
1600.0 68.91599678829462
1650.0 68.85749311801025
1700.0 69.04762310342085
1750.0 68.62437048705837
1800.0 67.53844799627478
1850.0 67.18780936240555
1900.0 67.89393527316011
1950.0 67.98014716244667
2000.0 67.7117692510807
2060.0 67.7871491765845
2120.0 67.89609832815967
2180.0 68.00348550116732
2240.0 67.92169066583625
2300.0 67.96254323519068
2360.0 68.06348507992254
2400.0 68.38070648003092
2500.0 68.40124600948474
2580.0 67.75008769151039
2650.0 67.43458906698773
2720.0 67.34281216699766
2800.0 67.43013622945801
2900.0 68.29804997442817
3000.0 68.5299813947269
3070.0 68.64994443677077
3150.0 68.8965239892604
3250.0 69.42836285437758
3350.0 69.3316878526839
3450.0 69.02108555939175
3550.0 69.15098507146723
3650.0 69.66586000014004
3750.0 69.80312064348854
3870.0 69.08293945782272
4000.0 68.85902038223809
4120.0 69.2385957143189
4250.0 69.58731348280179
4370.0 69.80763034545026
4500.0 69.46788618482226
4620.0 69.83085768807504
4750.0 70.0973819135636
4870.0 70.50876026640363
5000.0 70.9297864188122
5150.0 71.63913429759396
5300.0 72.54601919828272
5450.0 72.0479969908175
5600.0 70.99360431471351
5800.0 70.5413111804364
6000.0 71.57574046836822
6150.0 71.38370782490497
6300.0 70.12616844709395
6500.0 69.60784283186815
6700.0 69.78542871546605
6900.0 69.82525037900285
7100.0 70.11351449073774
7300.0 71.14425280622484
7500.0 71.2372287561405
7750.0 70.56199670355264
8000.0 70.49717263595527
8250.0 71.3817371803463
8500.0 71.85334023611699
8750.0 71.2823688207082
9000.0 71.18189164293543
9250.0 71.95846329631313
9500.0 71.82272448015806
9750.0 72.8179983366093
10000.0 72.71352523574541
10300.0 72.55530239596601
10600.0 72.60962494927897
10900.0 71.74273589737211
11200.0 71.14251484006971
11500.0 69.83885634943591
11800.0 71.1714035589168
12200.0 72.61506127884456
12500.0 72.74262066397799
12800.0 70.14819344294868
13200.0 72.0532444448587
13600.0 70.44430087450134
14000.0 68.55068206678916
14500.0 70.65412738164707
15000.0 69.51610627334172
15500.0 69.28446870257731
16000.0 68.40283748341297
16500.0 65.47574347268382
17000.0 69.85327038231962
17500.0 70.15859859781212
18000.0 67.1546903469724
18500.0 72.33518762066373
19000.0 68.20558991672333
19500.0 70.07762413572524
