Freq "Sound Power"
22.4 45.09207439482252
23.0 46.68035040147326
23.6 48.243882009446864
24.0 50.587686426570585
25.0 52.62914893243236
25.8 54.3151325614689
26.5 55.8152212529818
27.2 57.42031278395457
28.0 58.853925190268
29.0 60.11714583599887
30.0 61.44009778853881
30.7 63.08507864706168
31.5 64.52909695983122
32.5 65.83835063252961
33.5 67.2488823519876
34.5 68.53393891906659
35.5 69.69012410012239
36.5 70.81183699665657
37.5 71.82447145237332
38.7 72.73551602264206
40.0 73.51519691303432
41.2 74.2495547960307
42.5 74.89458502628166
43.7 75.47887519141135
45.0 75.99972487564857
46.2 76.39336346353824
47.5 76.74818992944812
48.7 76.88193101022377
50.0 76.99869694083038
51.5 77.17323070128047
53.0 77.39034224815205
54.5 77.67846379591637
56.0 78.0099513416407
58.0 78.30052296754943
60.0 78.61554016318628
61.5 79.0345241058207
63.0 79.3678091310286
65.0 79.63305319514787
67.0 79.85255139203582
69.0 79.95540141817987
71.0 79.93231761875359
73.0 80.1035344393712
75.0 80.32072003032336
77.5 80.49146120973394
80.0 80.40694168720212
82.5 80.3834647672473
85.0 80.47978671319125
87.5 80.53009915172288
90.0 80.4679502499888
92.5 80.42383539118967
95.0 80.28599085942516
97.5 80.20071274000847
100.0 80.05619038371003
103.0 79.95352859772174
106.0 79.97905949706758
109.0 80.12119308300758
112.0 80.43346815992294
115.0 80.72039814604419
118.0 80.62516424396357
122.0 80.35163044454796
125.0 80.13913279394625
128.0 80.00111486573617
132.0 79.57641009584607
136.0 79.03222175454312
140.0 78.51330520805281
145.0 78.07271645966868
150.0 77.38918805001767
155.0 76.3480742215093
160.0 75.0531931751551
165.0 73.7530001261734
170.0 73.0389434434279
175.0 72.26113454527597
180.0 71.41818423781699
185.0 70.78578707528747
190.0 70.78854787020768
195.0 71.59823429245114
200.0 72.96822891681494
206.0 74.438676001383
212.0 75.77854673727099
218.0 76.87296859061456
224.0 77.7486524057323
230.0 78.37018130666934
236.0 78.80577648655348
240.0 79.0783636189122
250.0 79.19686915322855
258.0 79.22659297850699
265.0 79.1428870377441
272.0 78.98423742457638
280.0 78.72309444557983
290.0 78.37216065056687
300.0 77.88984050815989
307.0 77.34315081895373
315.0 76.70537345141842
325.0 76.03514487671455
335.0 75.33530820088103
345.0 74.60022338397373
355.0 73.84969063397959
365.0 73.08994109884736
375.0 72.42572282383969
387.0 71.87818752991618
400.0 71.44711913205326
412.0 71.21601192061694
425.0 71.27629309271128
437.0 71.60422009134514
450.0 72.12661122848282
462.0 72.62937297277787
475.0 72.9946773245171
487.0 73.08407715539902
500.0 72.85536583815447
515.0 72.22426530532346
530.0 71.28366196024184
545.0 70.28595259244516
560.0 69.84188498531607
580.0 70.1263336945102
600.0 70.61719935088257
615.0 71.01978054514764
630.0 71.36495681516834
650.0 71.86606935200389
670.0 72.70175306791147
690.0 73.95209699499263
710.0 75.33210164099395
730.0 76.46769666544373
750.0 77.0439836023228
775.0 77.14822109959404
800.0 76.91415669302287
825.0 76.33499058893315
850.0 75.42771387802682
875.0 74.45789797802688
900.0 73.91261522152617
925.0 73.76858839216823
950.0 73.52739644098733
975.0 73.06520841518709
1000.0 72.61839785136398
1030.0 72.57159916526747
1060.0 72.72559518652561
1090.0 72.66949307061374
1120.0 72.39309655050255
1150.0 71.91622756872617
1180.0 71.26847885225834
1220.0 70.82744217158414
1250.0 70.66438473055614
1280.0 70.18222827581344
1320.0 69.09251022121262
1360.0 67.96837834255919
1400.0 68.04782108129025
1450.0 68.61052957611214
1500.0 68.93770285418633
1550.0 69.33971112341005
1600.0 69.37042716804145
1650.0 69.31192349775708
1700.0 69.50205348316767
1750.0 69.0788008668052
1800.0 67.99287837602161
1850.0 67.64223974215237
1900.0 68.34836565290693
1950.0 68.4345775421935
2000.0 68.16619963082752
2060.0 68.24157955633133
2120.0 68.35052870790649
2180.0 68.45791588091414
2240.0 68.37612104558308
2300.0 68.4169736149375
2360.0 68.51791545966937
2400.0 68.83513685977775
2500.0 68.85567638923156
2580.0 68.20451807125721
2650.0 67.88901944673455
2720.0 67.79724254674449
2800.0 67.88456660920484
2900.0 68.75248035417499
3000.0 68.98441177447373
3070.0 69.10437481651759
3150.0 69.35095436900723
3250.0 69.8827932341244
3350.0 69.78611823243072
3450.0 69.47551593913857
3550.0 69.60541545121406
3650.0 70.12029037988687
3750.0 70.25755102323537
3870.0 69.53736983756954
4000.0 69.31345076198491
4120.0 69.69302609406573
4250.0 70.04174386254861
4370.0 70.26206072519709
4500.0 69.92231656456909
4620.0 70.28528806782187
4750.0 70.55181229331042
4870.0 70.96319064615045
5000.0 71.38421679855902
5150.0 72.09356467734078
5300.0 73.00044957802955
5450.0 72.50242737056432
5600.0 71.44803469446033
5800.0 70.99574156018322
6000.0 72.03017084811505
6150.0 71.8381382046518
6300.0 70.58059882684077
6500.0 70.06227321161498
6700.0 70.23985909521288
6900.0 70.27968075874968
7100.0 70.56794487048457
7300.0 71.59868318597167
7500.0 71.69165913588732
7750.0 71.01642708329946
8000.0 70.95160301570209
8250.0 71.83616756009313
8500.0 72.30777061586382
8750.0 71.73679920045502
9000.0 71.63632202268225
9250.0 72.41289367605995
9500.0 72.27715485990488
9750.0 73.27242871635613
10000.0 73.16795561549223
10300.0 73.00973277571283
10600.0 73.06405532902579
10900.0 72.19716627711894
11200.0 71.59694521981653
11500.0 70.29328672918274
11800.0 71.62583393866362
12200.0 73.06949165859139
12500.0 73.19705104372481
12800.0 70.6026238226955
13200.0 72.50767482460553
13600.0 70.89873125424816
14000.0 69.00511244653599
14500.0 71.1085577613939
15000.0 69.97053665308854
15500.0 69.73889908232414
16000.0 68.85726786315979
16500.0 65.93017385243064
17000.0 70.30770076206645
17500.0 70.61302897755894
18000.0 67.60912072671923
18500.0 72.78961800041056
19000.0 68.66002029647015
19500.0 70.53205451547207
