Freq,On Axis,Listening Window,Sound Power,Early Reflections,Early Reflections DI,Sound Power DI,DI offset
20.5078,71.77459999999999,71.81253915861853,72.46145200395965,72.13983424079305,39.672704917825484,39.351087154658885,40
21.9727,74.67839999999998,74.71154472326346,75.31203345962247,75.01133450649219,39.70021021677127,39.39951126364099,40
23.4375,76.5508,76.58522963621694,77.2151148847174,76.90107965398299,39.68414998223395,39.37011475149954,40
24.9023,78.06219999999999,78.09761834277403,78.75000380927202,78.42527312041776,39.67234522235627,39.34761453350201,40
26.3672,79.6688,79.702554755207,80.32886877317824,80.01644177762697,39.68611297758004,39.37368598202876,40
27.832,80.7302,80.76385702761414,81.3897394737115,81.07735387063124,39.686503156982894,39.374117553902636,40
29.2969,81.8675,81.90102726119608,82.5288544898068,82.21604234761871,39.68498491357737,39.37217277138927,40
30.7617,82.9005,82.93311177116733,83.55316796957234,83.24306410953949,39.690047661627844,39.37994380159499,40
32.2266,83.7799,83.81248608178085,84.43557370353405,84.12413647998497,39.68834960179588,39.3769123782468,40
33.6914,84.5298,84.56130054838334,85.17651577258621,84.86827484031463,39.69302570806872,39.38478477579713,40
35.1562,85.205,85.23600328954663,85.84978274268474,85.54100517667436,39.69499811287227,39.38622054686189,40
36.6211,85.7414,85.77195618037692,86.3831952005414,86.07529679746959,39.69665938290733,39.388760979835524,40
38.0859,86.24120000000002,86.27136754032021,86.8798192642297,86.57257359491744,39.69879394540277,39.39154827609052,40
39.5508,86.6921,86.72149589736173,87.32672497775565,87.02030342675252,39.701192470609215,39.39477091960609,40
41.0156,87.0713,87.10043968501289,87.70761700826452,87.39985100190397,39.70058868310892,39.39282267674837,40
42.4805,87.371,87.39944368538887,88.0013552501849,87.69536185286867,39.7040818325202,39.398088435203974,40
43.9453,87.6453,87.67272339735663,88.26697098585512,87.96328227437351,39.70944112298312,39.40575241150151,40
45.4102,87.8416,87.86870238355733,88.4630345385144,88.15894475281625,39.70975763074108,39.40566784504293,40
46.875,88.0368,88.0633625468246,88.65776273807306,88.35292256225542,39.71043998456919,39.405599808751546,40
48.3398,88.1809,88.20694741044356,88.80179657904418,88.49588569269996,39.711061717743604,39.40515083139938,40
51.2695,88.4249,88.44976816791345,89.03815706861837,88.73420888406534,39.71555928384811,39.41161109929507,40
52.7344,88.5217,88.5455759937743,89.12823023757817,88.82679411793669,39.71878187583762,39.41734575619614,40
54.1992,88.58000000000001,88.603402065378,89.18663430900097,88.88458800866087,39.718814056717136,39.41676775637704,40
55.6641,88.64090000000002,88.66363138677954,89.24354049804215,88.94238494518497,39.72124644159457,39.42009088873739,40
58.5938,88.71120000000002,88.7328159503507,89.31592873096182,89.01132613064365,39.721489819707045,39.41688721938888,40
60.0586,88.7316,88.75256947371096,89.33472142312624,89.0296103349476,39.72295913876336,39.41784805058472,40
62.9883,88.7732,88.79277379256366,89.37614376167245,89.06863718066495,39.724136611898714,39.41663003089121,40
64.4531,88.7807,88.79975669497448,89.3878501561081,89.07701589328774,39.72274080168674,39.411906538866376,40
67.3828,88.7525,88.7708966444818,89.3718276966319,89.0519067389533,39.71898990552849,39.3990689478499,40
68.8477,88.7574,88.7751816809051,89.37358641701806,89.05351779619728,39.72166388470782,39.401595263887046,40
71.7773,88.8184,88.83369991964278,89.40506363321421,89.0975880674475,39.73611185219528,39.42863628642857,40
74.707,88.84460000000001,88.85797385405877,89.41898547919376,89.1156690671063,39.742304786952474,39.438988374865005,40
77.6367,88.8185,88.83054541519931,89.39786354847317,89.08982106964234,39.74072434555697,39.43268186672614,40
79.1016,88.7757,88.78692876896638,89.35605534649028,89.04581607827618,39.7411126906902,39.4308734224761,40
82.0312,88.73419999999999,88.74408474048889,89.31730892535747,89.0026363864694,39.74144835401948,39.42677581513142,40
84.9609,88.73239999999998,88.74091335530412,89.32092593147064,89.00009337679327,39.74081997851084,39.419987423833476,40
87.8906,88.6783,88.6857966044868,89.27331605689756,88.94657596042723,39.73922064405957,39.41248054758924,40
90.8203,88.5873,88.59228807569656,89.16421233383856,88.84277668852108,39.749511387175474,39.428075741857995,40
95.2148,88.5086,88.51109907297453,89.08141723698108,88.75712461735574,39.75397445561879,39.42968183599345,40
98.1445,88.5036,88.50347760818927,89.05356808769568,88.73826895838185,39.76520864980742,39.44990952049359,40
101.074,88.373,88.371460307523,88.92872528396735,88.60845832739913,39.76300198012386,39.44273502355564,40
105.469,88.2877,88.28463531216003,88.8463025000356,88.52339643959603,39.76123887256401,39.43833281212443,40
108.398,88.3159,88.3151944158832,88.90397988405107,88.56908502226364,39.74610939361956,39.41121453183213,40
112.793,88.4227,88.41458439931702,88.88702458283177,88.6044853462821,39.81009905303492,39.52755981648525,40
117.188,88.4653,88.45213246872318,88.90312114621943,88.62484983617664,39.82728263254654,39.549011322503745,40
120.117,88.4467,88.43301437150983,88.889444907051,88.60997048876938,39.82304388274045,39.54356946445883,40
124.512,88.4564,88.4388788542296,88.86821105425965,88.59742864578367,39.841450208445934,39.570667799969954,40
128.906,88.3679,88.34776769164803,88.77270882157211,88.49913080430736,39.848636887340675,39.57505887007592,40
133.301,88.3373,88.3132996912817,88.70834458056216,88.44470652570713,39.868593165574566,39.604955110719544,40
139.16,88.2759,88.24648697526979,88.57932944803018,88.3398009631515,39.906686012118286,39.66715752723961,40
143.555,88.1952,88.15936328563083,88.4190094496512,88.20952890508369,39.949834380547145,39.74035383597963,40
147.949,88.14319999999998,88.10077797153822,88.2677215200083,88.0995702635414,40.00120770799683,39.83305645152993,40
153.809,88.1503,88.09792570416062,88.12826621017693,88.02631948678447,40.07160621737614,39.969659493983684,40
159.668,88.1882,88.13379613523523,88.17883553930513,88.0627406677041,40.071055467531124,39.9549605959301,40
165.527,88.4016,88.3443464557375,88.29811658319022,88.23481751368718,40.10952894205032,40.04622987254727,40
171.387,88.3197,88.25184124028823,88.07364350686865,88.07297092928506,40.178870311003166,40.17819773341958,40
177.246,88.1986,88.11933496390814,87.81907839805255,87.8726245319267,40.24671043198144,40.30025656585559,40
183.105,87.957,87.86964728272181,87.47943443210426,87.57069231443693,40.29895496828489,40.39021285061756,40
188.965,87.9351,87.84097543161556,87.26762472749529,87.45896408782883,40.38201134378673,40.57335070412027,40
196.289,87.94200000000001,87.84022534452576,87.15080652339967,87.40542667142705,40.43479867309871,40.6894188211261,40
203.613,87.7744,87.6561152565599,86.73754499628886,87.11331782789883,40.542797428661075,40.91857026027104,40
210.938,87.8966,87.76853855135744,86.6367085652302,87.12688460974266,40.64165394161478,41.131829986127244,40
218.262,87.6764,87.5488369379873,86.34350506382061,86.87794234342462,40.67089459456268,41.20533187416669,40
225.586,87.4836,87.35165872577211,86.02024905686848,86.63023928845769,40.721419437314424,41.33140966890363,40
232.91,87.5199,87.3735136663509,85.66740446250746,86.49649744092706,40.877016225423844,41.70610920384344,40
241.699,87.321,87.16304058843161,85.24114014252558,86.19963887682745,40.96340171160416,41.92190044590603,40
250.488,87.1753,87.00619359870153,84.9093664395955,85.9490658515447,41.05712774715683,42.09682715910603,40
259.277,87.46610000000001,87.2888705285072,84.92361532205997,86.145116977258,41.143753551249205,42.36525520644723,40
268.066,87.0704,86.87266971810807,84.27971274624811,85.6241169257608,41.24855279234727,42.59295697185996,40
276.855,86.9514,86.7468110741453,83.79187400769811,85.38180998342624,41.36500109071906,42.95493706644719,40
287.109,87.2432,87.02912803536469,83.7483917924302,85.58905612535935,41.440071910005344,43.280736242934495,40
297.363,86.96619999999999,86.77023571339804,83.31953075197715,85.27756365857132,41.49267205482671,43.45070496142088,40
307.617,86.8206,86.61340154844419,83.22590576078086,85.14847928078521,41.46492226765898,43.387495787663326,40
319.336,86.7105,86.4509269509758,82.7902265283281,84.85956523395154,41.591361717024256,43.66070042264769,40
329.59,86.4492,86.22258381487308,82.52531657274034,84.64187018091971,41.580713633953366,43.69726724213274,40
341.309,86.4162,86.13223138277863,82.20606629642845,84.44046479355941,41.69176658921921,43.92616508635018,40
353.027,86.3696,86.07414894950796,81.88601607788016,84.28642560888485,41.7877233406231,44.1881328716278,40
366.211,86.4875,86.17480789703853,81.80393605771809,84.31687232129892,41.85793557573962,44.37087183932044,40
379.395,86.8951,86.59970258237271,82.27632219896888,84.7732992136615,41.82640336871121,44.32338038340383,40
392.578,86.3914,86.08145939012212,81.95693432983663,84.26574142711503,41.81571796300709,44.12452506028549,40
405.762,86.8658,86.47489160444613,81.88650930692742,84.46706188420885,42.00782972023728,44.588382297518706,40
420.41,86.5164,86.1584399872371,81.9336692509542,84.3410037529314,41.8174362343057,44.224770736282906,40
435.059,86.3672,86.01291635669092,81.96906246126713,84.18267932050472,41.830237036186205,44.043853895423794,40
451.172,86.69219999999999,86.28860857083025,82.31384849363556,84.43149760697123,41.857110963859014,43.97476007719469,40
465.82,86.954,86.50062346620722,82.57901566217993,84.65364193742575,41.84698152878147,43.92160780402729,40
483.398,87.01229999999998,86.55891464927737,82.57500519031791,84.55409668404928,42.004817965228085,43.98390945895946,40
499.512,87.19049999999999,86.74110783777722,82.67889906679913,84.71776061851925,42.02334721925797,44.06220877097809,40
517.09,87.50569999999999,87.05264343564087,83.45878765988539,85.2808214404414,41.771821995199474,43.593855775755486,40
536.133,87.73740000000001,87.21057958437939,83.49379249041868,85.31292483037322,41.89765475400617,43.716787093960704,40
555.176,87.82,87.35659174256122,83.63493456810855,85.53596472985753,41.820627012703696,43.72165717445267,40
574.219,87.8801,87.40742660581734,83.81904727751805,85.64567742496425,41.76174918085309,43.58837932829928,40
594.727,87.8438,87.3471689046487,84.19900339341214,85.86999360380668,41.47717530084202,43.148165511236556,40
615.234,88.2106,87.78018479608377,84.16876962030265,86.04252864214476,41.737656153939014,43.61141517578112,40
637.207,88.2321,87.78984069709396,84.37881744400313,85.98874688903267,41.801093808061296,43.41102325309083,40
659.18,88.3733,87.9935834073951,84.46697199563425,86.31552100956903,41.67806239782608,43.526611411760854,40
682.617,88.1843,87.82300225664801,84.17920173307353,85.88615841505428,41.93684384159373,43.643800523574484,40
707.52,87.81310000000002,87.4379131191385,83.94562199845464,85.72337818088478,41.71453493825372,43.49229112068386,40
732.422,88.9351,88.62014545743702,84.33558994261173,86.32599043689223,42.29415502054479,44.284555514825286,40
757.324,88.8872,88.67834883162897,84.16414793162869,86.24156877608142,42.436780055547544,44.514200900000276,40
785.156,87.701,87.50331982129053,83.52958422523065,85.75408199768121,41.74923782360932,43.97373559605988,40
811.523,88.2728,87.97945217429802,83.85511249372114,86.04523058177944,41.93422159251858,44.12433968057688,40
840.82,87.9482,87.53915251114435,83.5056825736069,85.86188047864111,41.67727203250324,44.03346993753745,40
870.117,87.9537,87.5526300847705,83.38115645469509,85.7543925408263,41.7982375439442,44.17147363007541,40
900.879,87.9491,87.49611975072342,82.89217370744743,85.55608370512373,41.9400360455997,44.603946043276,40
933.105,87.7322,87.37854613410327,82.66308014850735,85.38866478171084,41.98988135239243,44.71546598559593,40
965.332,87.1979,86.91102341977688,82.2014076618753,84.97069414726565,41.940329272511235,44.70961575790159,40
1000.49,86.75380000000001,86.69559458215573,81.96097850907051,84.93636009194262,41.75923449021312,44.73461607308522,40
1035.64,86.78619999999998,86.68514269790663,82.19096942543939,85.24812237735348,41.437020320553145,44.494173272467236,40
1072.27,86.95319999999998,86.67125654708373,82.47564688426428,85.50835271058324,41.16290383650049,44.19560966281945,40
1108.89,86.6877,86.56018787009602,82.68629488320109,85.81014287731497,40.75004499278104,43.87389298689493,40
1148.44,86.7199,86.55947120559341,82.87407948056014,85.88418894268911,40.675282262904304,43.68539172503327,40
1189.45,87.6629,87.07285250944227,83.08403985569235,86.14465570576104,40.92819680368123,43.98881265374992,40
1230.47,88.5163,88.10078262101368,83.69648366197104,86.67616837130143,41.42461424971225,44.404298959042634,40
1274.41,89.10129999999998,88.76267397822494,84.18229422825866,87.13147539159024,41.631198586634696,44.58037974996628,40
1319.82,89.5915,89.31661112982266,84.5221050792448,87.62600594377727,41.69060518604539,44.794506050577866,40
1366.7,90.47200000000001,90.13452100700938,85.14347892564018,88.17901649677184,41.955504510237546,44.9910420813692,40
1413.57,89.8822,89.59141279972448,85.21709551504493,88.31232766572546,41.27908513399902,44.37431728467955,40
1463.38,89.4928,89.13685194341754,84.85192490179412,88.11415917272144,41.022692770696096,44.28492704162342,40
1516.11,89.0038,88.6247318161794,84.50153399701011,87.81970480653032,40.80502700964908,44.12319781916929,40
1568.85,88.4614,88.12652133227277,83.98537226136283,86.99746360183207,41.12905773044071,44.14114907090995,40
1624.51,88.38,88.25589924442764,84.01722712618238,86.79796688982799,41.45793235459965,44.23867211824526,40
1681.64,88.97890000000001,88.43294065577663,83.74558570659559,86.77698495023094,41.65595570554569,44.68735494918104,40
1741.7,87.6397,87.0432390949547,82.37662101435014,85.20787829606256,41.83536079889214,44.666618080604565,40
1803.22,86.64410000000001,86.15775957147898,81.3401784629079,84.18469729556475,41.97306227591423,44.817581108571076,40
1866.21,85.39339999999999,84.89496690279218,80.69411947084717,83.65217708512043,41.24278981767175,44.20084743194501,40
1932.13,85.4495,85.10309950342034,81.1672149598185,83.99198723019686,41.11111227322348,43.935884543601844,40
1999.51,87.0631,86.52321393006117,82.44939501502276,85.33170398644195,41.191509943619224,44.073818915038416,40
2069.82,87.7123,87.60850647350794,83.09573235236914,85.93832371693702,41.670182756570924,44.512774121138804,40
2143.07,86.964,87.70449393488228,83.47625868688284,86.05774853865455,41.64674539622773,44.228235247999436,40
2219.24,86.443,86.97535489566388,83.4328267066566,85.93465628449377,41.040698611170114,43.542528189007285,40
2296.88,85.17250000000001,86.04120886235623,83.38167322034253,86.1454012946636,39.89580756769263,42.659535642013694,40
2378.91,85.8613,86.77534678809809,83.62368250521587,86.5888261955913,40.186520592506795,43.15166428288222,40
2462.4,87.4702,88.49410641465795,84.29181932363721,87.03572947033774,41.45837694432021,44.202287091020736,40
2548.83,87.7644,88.79022956603205,84.22565079126355,87.06906486665736,41.7211646993747,44.564578774768506,40
2639.65,86.66650000000001,87.80539273253598,83.52868906143998,86.81580071646482,40.98959201607116,44.276703671096,40
2731.93,86.6429,87.04693184972615,82.81416253041638,86.2223339737362,40.82459787598995,44.23276931930977,40
2828.61,87.0664,87.48878514381457,82.64121059060443,86.0945848749639,41.39420026885067,44.84757455321014,40
2928.22,88.29570000000001,88.21522236405697,82.79520129061012,86.32071670282389,41.89450566123308,45.42002107344685,40
3030.76,88.4811,88.3406610375762,82.57984759521904,86.16050239211008,42.18015864546612,45.76081344235716,40
3137.7,88.3356,88.0859396580403,82.29643190616005,85.89707968950081,42.18885996853949,45.78950775188025,40
3249.02,88.5243,87.85798702395405,82.02504160261867,85.64575611027243,42.21223091368162,45.83294542133538,40
3363.28,87.8521,87.44776689982503,81.29874557179419,84.79934061325241,42.648426286572615,46.14902132803084,40
3481.93,88.0446,87.1830956486506,80.73739121658147,84.24048507313859,42.94261057551202,46.445704432069135,40
3604.98,87.91070000000002,86.97498693529047,80.47763486144135,83.86379847635655,43.111188458933924,46.49735207384913,40
3732.42,88.4701,87.30636510912458,80.29803046272092,83.56768176194039,43.73868334718419,47.00833464640367,40
3864.26,87.8454,86.67493189151244,79.62181830470874,83.10579762328803,43.56913426822442,47.053113586803704,40
4000.49,87.62550000000002,85.96099488899651,79.26240436519011,82.59171778876073,43.36927710023578,46.6985905238064,40
4141.11,88.9682,86.91019422135003,79.66744444991484,83.04786622567272,43.862327995677305,47.242749771435186,40
4287.6,88.4271,86.88239420418306,79.61068910514383,82.91156340364596,43.9708308005371,47.271705099039224,40
4438.48,87.30000000000001,86.62441314143769,79.47043681876642,82.7437102874234,43.88070285401429,47.15397632267127,40
4595.21,86.6525,85.72739850849092,78.8435807896223,81.97033614565291,43.75706236283801,46.88381771886863,40
4756.35,87.50569999999999,85.9891944041744,78.79605358574477,82.30263138838383,43.68656301579057,47.193140818429626,40
4924.8,87.7138,86.31409411572471,79.04210287867711,82.63770089979205,43.67639321593266,47.2719912370476,40
5097.66,86.8382,85.71707025171484,78.84469292320132,82.41108597374023,43.305984277974616,46.87237732851352,40
5277.83,86.6919,85.7293087972138,78.57311770309566,82.24342264880295,43.485886148410856,47.15619109411814,40
5463.87,86.5233,85.84811525038961,78.90886196882516,82.49700258725717,43.35111266313244,46.93925328156445,40
5657.23,86.9256,85.81815701531883,78.69794938095937,82.40835140307053,43.409805612248306,47.12020763435946,40
5856.45,86.2508,85.2823214132733,78.51868782223067,82.11676965542534,43.16555175784795,46.76363359104262,40
6062.99,87.06019999999998,86.02474561584573,78.81915423757522,82.34879442976676,43.675951186078976,47.20559137827051,40
6276.86,86.5799,85.53007176904038,78.47617356923007,82.10673307327195,43.42333869576842,47.053898199810305,40
6498.05,86.54650000000001,85.53737776533198,78.24272771519472,82.09360269942182,43.44377506591016,47.294650050137264,40
6726.56,86.7781,85.97911281572107,78.46416520340314,82.44371227074876,43.535400544972305,47.514947612317926,40
6963.87,85.976,85.42180193831993,77.88807271798674,82.00397076740309,43.41783117091684,47.533729220333186,40
7209.96,86.6827,85.73163378138473,78.08018925608403,82.11673694743044,43.61489683395429,47.651444525300704,40
7464.84,86.6583,85.65809473919182,77.75650440308821,81.75129454363174,43.90680019556008,47.90159033610361,40
7727.05,86.7436,85.45953289793113,77.70300195457204,81.73759391104755,43.72193898688357,47.75653094335908,40
7999.51,86.67860000000002,85.40585832654104,77.73007256472573,81.78632903598923,43.61952929055181,47.675785761815305,40
8282.23,86.5625,85.32080699067826,77.35632391054824,81.58260579607635,43.73820119460191,47.96448308013002,40
8573.73,86.4011,85.11942348295675,77.00451975246169,81.3734000043395,43.746023478617246,48.11490373049506,40
8876.95,86.32400000000001,85.00224611096436,76.6465899266056,81.32984176246156,43.67240434850281,48.355656184358764,40
9188.96,85.80619999999999,84.68052582378512,76.34435245356087,80.95791420710754,43.72261161667758,48.336173370224245,40
9514.16,85.9025,84.69292773286071,76.09794914194973,80.87278827874415,43.82013945411656,48.59497859091098,40
9849.61,85.7204,84.59897407839048,75.76933958634848,80.52142998037078,44.0775440980197,48.829634492042004,40
10196.8,86.0666,84.85418074185793,75.63544199094672,80.44431147361112,44.40986926824681,49.218738750911214,40
10555.7,86.0638,84.81169826406605,75.41563702398479,80.23841912103903,44.57327914302702,49.396061240081266,40
10927.7,86.24520000000001,84.92540096246796,75.37079064525564,80.31980118818916,44.6055997742788,49.55461031721232,40
11313.0,86.143,84.89004023706659,75.25155508808606,80.25292327681805,44.637116960248534,49.63848514898052,40
11712.9,86.0499,84.9066843352724,75.11077879660705,80.05950419719754,44.84718013807486,49.79590553866535,40
12126.0,86.1756,84.95619094179231,75.09396988006321,80.07436087075962,44.881830071032695,49.8622210617291,40
