Freq "Listening Window"
20.5078 71.81253915861853
21.9727 74.71154472326346
23.4375 76.58522963621694
24.9023 78.09761834277403
26.3672 79.702554755207
27.832 80.76385702761414
29.2969 81.90102726119608
30.7617 82.93311177116733
32.2266 83.81248608178085
33.6914 84.56130054838334
35.1562 85.23600328954663
36.6211 85.77195618037692
38.0859 86.27136754032021
39.5508 86.72149589736173
41.0156 87.10043968501289
42.4805 87.39944368538887
43.9453 87.67272339735663
45.4102 87.86870238355733
46.875 88.0633625468246
48.3398 88.20694741044356
51.2695 88.44976816791345
52.7344 88.5455759937743
54.1992 88.603402065378
55.6641 88.66363138677954
58.5938 88.7328159503507
60.0586 88.75256947371096
62.9883 88.79277379256366
64.4531 88.79975669497448
67.3828 88.7708966444818
68.8477 88.7751816809051
71.7773 88.83369991964278
74.707 88.85797385405877
77.6367 88.83054541519931
79.1016 88.78692876896638
82.0312 88.74408474048889
84.9609 88.74091335530412
87.8906 88.6857966044868
90.8203 88.59228807569656
95.2148 88.51109907297453
98.1445 88.50347760818927
101.074 88.371460307523
105.469 88.28463531216003
108.398 88.3151944158832
112.793 88.41458439931702
117.188 88.45213246872318
120.117 88.43301437150983
124.512 88.4388788542296
128.906 88.34776769164803
133.301 88.3132996912817
139.16 88.24648697526979
143.555 88.15936328563083
147.949 88.10077797153822
153.809 88.09792570416062
159.668 88.13379613523523
165.527 88.3443464557375
171.387 88.25184124028823
177.246 88.11933496390814
183.105 87.86964728272181
188.965 87.84097543161556
196.289 87.84022534452576
203.613 87.6561152565599
210.938 87.76853855135744
218.262 87.5488369379873
225.586 87.35165872577211
232.91 87.3735136663509
241.699 87.16304058843161
250.488 87.00619359870153
259.277 87.2888705285072
268.066 86.87266971810807
276.855 86.7468110741453
287.109 87.02912803536469
297.363 86.77023571339804
307.617 86.61340154844419
319.336 86.4509269509758
329.59 86.22258381487308
341.309 86.13223138277863
353.027 86.07414894950796
366.211 86.17480789703853
379.395 86.59970258237271
392.578 86.08145939012212
405.762 86.47489160444613
420.41 86.1584399872371
435.059 86.01291635669092
451.172 86.28860857083025
465.82 86.50062346620722
483.398 86.55891464927737
499.512 86.74110783777722
517.09 87.05264343564087
536.133 87.21057958437939
555.176 87.35659174256122
574.219 87.40742660581734
594.727 87.3471689046487
615.234 87.78018479608377
637.207 87.78984069709396
659.18 87.9935834073951
682.617 87.82300225664801
707.52 87.4379131191385
732.422 88.62014545743702
757.324 88.67834883162897
785.156 87.50331982129053
811.523 87.97945217429802
840.82 87.53915251114435
870.117 87.5526300847705
900.879 87.49611975072342
933.105 87.37854613410327
965.332 86.91102341977688
1000.49 86.69559458215573
1035.64 86.68514269790663
1072.27 86.67125654708373
1108.89 86.56018787009602
1148.44 86.55947120559341
1189.45 87.07285250944227
1230.47 88.10078262101368
1274.41 88.76267397822494
1319.82 89.31661112982266
1366.7 90.13452100700938
1413.57 89.59141279972448
1463.38 89.13685194341754
1516.11 88.6247318161794
1568.85 88.12652133227277
1624.51 88.25589924442764
1681.64 88.43294065577663
1741.7 87.0432390949547
1803.22 86.15775957147898
1866.21 84.89496690279218
1932.13 85.10309950342034
1999.51 86.52321393006117
2069.82 87.60850647350794
2143.07 87.70449393488228
2219.24 86.97535489566388
2296.88 86.04120886235623
2378.91 86.77534678809809
2462.4 88.49410641465795
2548.83 88.79022956603205
2639.65 87.80539273253598
2731.93 87.04693184972615
2828.61 87.48878514381457
2928.22 88.21522236405697
3030.76 88.3406610375762
3137.7 88.0859396580403
3249.02 87.85798702395405
3363.28 87.44776689982503
3481.93 87.1830956486506
3604.98 86.97498693529047
3732.42 87.30636510912458
3864.26 86.67493189151244
4000.49 85.96099488899651
4141.11 86.91019422135003
4287.6 86.88239420418306
4438.48 86.62441314143769
4595.21 85.72739850849092
4756.35 85.9891944041744
4924.8 86.31409411572471
5097.66 85.71707025171484
5277.83 85.7293087972138
5463.87 85.84811525038961
5657.23 85.81815701531883
5856.45 85.2823214132733
6062.99 86.02474561584573
6276.86 85.53007176904038
6498.05 85.53737776533198
6726.56 85.97911281572107
6963.87 85.42180193831993
7209.96 85.73163378138473
7464.84 85.65809473919182
7727.05 85.45953289793113
7999.51 85.40585832654104
8282.23 85.32080699067826
8573.73 85.11942348295675
8876.95 85.00224611096436
9188.96 84.68052582378512
9514.16 84.69292773286071
9849.61 84.59897407839048
10196.8 84.85418074185793
10555.7 84.81169826406605
10927.7 84.92540096246796
11313.0 84.89004023706659
11712.9 84.9066843352724
12126.0 84.95619094179231
12553.7 85.07793169009169
12996.1 85.21340984070746
13454.6 85.4537581882441
13929.2 85.64207643893462
14419.9 85.96794071799346
14928.2 86.13153854742646
15455.6 86.10635817674577
16000.5 85.80687839955048
16564.5 85.56673459268981
17148.9 85.60489720257026
17752.4 85.68880095866113
18379.4 85.51645360539919
19026.9 85.24251581136747
19697.8 84.62187342681997
19999.5 84.30157809658716
