Freq "Side Wall Bounce"
22.4 31.608474762795083
23.0 32.30847476279507
23.6 33.031210709785
24.0 34.55232228991457
25.0 35.85232228991458
25.8 36.9147518619892
26.5 38.03594340711305
27.2 40.63798247034961
28.0 42.54027973072476
29.0 43.843080733408556
30.0 46.18812359820069
30.7 49.353888976781946
31.5 51.21527642827334
32.5 52.81368541790545
33.5 55.506132049558886
34.5 57.44491297816046
35.5 59.15704099302798
36.5 61.45171945247549
37.5 63.207370173451324
38.7 64.74348157372005
40.0 66.44348157372005
41.2 67.76358841872172
42.5 69.16358841872173
43.7 70.44348157372005
45.0 71.62629423072543
46.2 72.92629423072543
47.5 73.99043431098546
48.7 74.99043431098546
50.0 75.91223969107672
51.5 76.91223969107672
53.0 77.85510225188591
54.5 78.93873386979051
56.0 79.96079972026519
58.0 81.16789634688514
60.0 82.29137826439042
61.5 83.47316153070014
63.0 84.47316153070014
65.0 85.46710942118739
67.0 86.2015454523888
69.0 86.67811859203174
71.0 86.93650319410435
73.0 86.99471659332137
75.0 87.0580790611964
77.5 87.0580790611964
80.0 87.02329525542224
82.5 86.92329525542225
85.0 86.8309939497215
87.5 86.69715987031381
90.0 86.51294297497091
92.5 86.31294297497091
95.0 86.08337140492975
97.5 85.88337140492976
100.0 85.63972181847333
103.0 85.48161397620564
106.0 85.33972181847335
109.0 85.30154545238881
112.0 85.2470189087668
115.0 85.21294297497091
118.0 85.11294297497092
122.0 85.01294297497091
125.0 84.88903193179225
128.0 84.78903193179225
132.0 84.72903455511702
136.0 84.6129429749709
140.0 84.49306385764996
145.0 84.41294297497092
150.0 84.43727545234267
155.0 84.45934869525956
160.0 84.57938238200319
165.0 84.75934869525958
170.0 84.85934869525958
175.0 85.02614616559958
180.0 85.0908807778642
185.0 85.01590484724741
190.0 84.7834863720267
195.0 84.42894097345656
200.0 83.97740767534553
206.0 83.63189471907262
212.0 83.41210235879116
218.0 83.38145041060721
224.0 83.44797703962688
230.0 83.51789739555667
236.0 83.63182799629398
240.0 83.78977631329741
250.0 83.8897763132974
258.0 83.67717690922971
265.0 83.1011531319378
272.0 82.6209953407741
280.0 82.5209953407741
290.0 82.9494842907913
300.0 83.72225035723322
307.0 84.48437201766319
315.0 84.81406658027883
325.0 84.8643474064991
335.0 84.75205187455845
345.0 84.56913778220854
355.0 84.16913778220854
365.0 83.84607367040769
375.0 83.70862812266589
387.0 83.60862812266588
400.0 83.6486699811024
412.0 83.62895409771927
425.0 83.16973385870907
437.0 82.68008205574219
450.0 82.28857491427367
462.0 81.73786525782808
475.0 81.2904238363638
487.0 80.615653949597
500.0 79.79771259577451
515.0 79.22098411077285
530.0 79.44149755492423
545.0 80.08698790892197
560.0 80.77050816163772
580.0 80.96474613520111
600.0 80.42858514190954
615.0 79.62894849412577
630.0 78.66238730372149
650.0 77.72172798120522
670.0 77.28587193400504
690.0 77.26974458276467
710.0 77.76247435829202
730.0 78.59616075386944
750.0 79.31652200384951
775.0 79.79477713193529
800.0 79.99338263498969
825.0 79.80151496795612
850.0 79.22892157087024
875.0 78.39184110430793
900.0 77.78858520227529
925.0 77.61739671117354
950.0 77.3289997585474
975.0 77.35241465864598
1000.0 77.78782529985263
1030.0 78.22324832429163
1060.0 78.03042039045825
1090.0 77.31843703136637
1120.0 76.4502404049738
1150.0 76.98947342241581
1180.0 78.45198783102786
1220.0 78.79976286377507
1250.0 78.35463448046798
1280.0 77.83987313957223
1320.0 77.10974678152871
1360.0 76.50680502235416
1400.0 76.66538836595257
1450.0 76.9595906031577
1500.0 76.95487659104079
1550.0 76.0166727469234
1600.0 74.27819221486595
1650.0 73.64535083071709
1700.0 74.06078490067361
1750.0 73.58016730430171
1800.0 72.32309523445852
1850.0 69.80146225694429
1900.0 71.61972636994426
1950.0 74.60105190888765
2000.0 75.1993206772308
2060.0 72.77567046567478
2120.0 73.61755082476795
2180.0 76.99151939890622
2240.0 75.046544919346
2300.0 73.64789597752993
2360.0 76.21402818888482
2400.0 75.53682982954744
2500.0 74.26495055228719
2580.0 74.65437992831312
2650.0 76.41188301570209
2720.0 75.28890487358908
2800.0 75.37384184082397
2900.0 76.89281640990211
3000.0 73.14183357034574
3070.0 75.79956015973389
3150.0 74.58914905839994
3250.0 73.91300928382775
3350.0 76.48916901948621
3450.0 73.53744095705898
3550.0 77.02124235869984
3650.0 75.21545842703159
3750.0 77.03518476695982
3870.0 76.8994335839096
4000.0 78.83246035714787
4120.0 78.78798434067787
4250.0 81.34001115841427
4370.0 79.81246090459126
4500.0 80.98911111016231
4620.0 78.91758651934533
4750.0 79.18851925156284
4870.0 77.75658060600648
5000.0 77.5732200962511
5150.0 75.96712402690736
5300.0 75.66916962726486
5450.0 77.1720547914408
5600.0 77.55312654668526
5800.0 77.55724633680819
6000.0 79.11104747270232
6150.0 79.43362066064135
6300.0 78.38118932345878
6500.0 76.95530448425168
6700.0 75.8791894458077
6900.0 76.495298511347
7100.0 78.09524827401087
7300.0 77.71235096698045
7500.0 75.88494196037402
7750.0 74.35889698122054
8000.0 73.79323188545465
8250.0 73.86363297133413
8500.0 75.82186748125557
8750.0 76.88801303968376
9000.0 77.09507698434825
9250.0 76.68263611633171
9500.0 74.49135340866258
9750.0 73.97620604931294
10000.0 75.6111142065781
10300.0 77.22349495054789
10600.0 76.25563463197263
10900.0 72.8736133699511
11200.0 72.70907687617962
11500.0 74.30178477844218
11800.0 74.90584942229611
12200.0 72.9366489004308
12500.0 72.17125783685236
12800.0 72.33069700863214
13200.0 71.01731585233492
13600.0 66.51658614773238
14000.0 68.39008148961165
14500.0 69.96361725123468
15000.0 68.90239959322368
15500.0 69.17360265540621
16000.0 71.3478862044721
16500.0 67.58542298910541
17000.0 65.9516942444046
17500.0 63.3862298447784
18000.0 56.595818465682925
18500.0 48.218353701986985
19000.0 48.12203503381215
19500.0 41.87093233717309
