Freq "Listening Window"
20.0 68.95
20.2909 69.33400000000002
20.586 69.634
20.8855 69.91600000000001
21.1893 70.23300000000002
21.4975 70.58400000000002
21.8102 70.938
22.1274 71.25600000000001
22.4492 71.552
22.7758 71.82699999999998
23.1071 72.098
23.4432 72.383
23.7841 72.695
24.1301 73.016
24.4811 73.295
24.8372 73.524
25.1984 73.73199999999999
25.5649 73.973
25.9368 74.253
26.3141 74.54099999999998
26.6968 74.83
27.0851 75.137
27.4791 75.459
27.8788 75.771
28.2843 76.086
28.6957 76.40600000000002
29.1131 76.718
29.5365 77.0
29.9661 77.272
30.402 77.537
30.8442 77.774
31.2929 78.012
31.748 78.258
32.2098 78.492
32.6783 78.704
33.1536 78.897
33.6359 79.078
34.1251 79.254
34.6215 79.42400000000002
35.125 79.576
35.6359 79.733
36.1543 79.889
36.6802 80.0
37.2137 80.073
37.755 80.139
38.3041 80.206
38.8613 80.281
39.4265 80.35700000000001
40.0 80.428
40.5818 80.49077779767582
41.1721 80.54433338450058
41.771 80.59555576306111
42.3785 80.65744503566229
42.9949 80.71455704214668
43.6203 80.74289189307149
44.2548 80.7481167497889
44.8985 80.76789792876275
45.5515 80.82612541889068
46.2141 80.85935545278407
46.8863 80.78325394935075
47.5683 80.71893223673588
48.2602 80.67439305151622
48.9621 80.54818921470851
49.6743 80.4159897549488
50.3968 80.32101928914099
51.1299 80.26038455356708
51.8736 80.23920146262324
52.6281 80.23924547864006
53.3936 80.27618349518801
54.1702 80.34257518381992
54.9581 80.39197476290468
55.7575 80.41293924039597
56.5685 80.40890653415325
57.3914 80.40455295274981
58.2261 80.40521226687271
59.073 80.38854608526547
59.9323 80.24711055455494
60.804 80.07113415062837
61.6884 79.99605516544192
62.5857 79.99287342394872
63.496 79.98882216180574
64.4196 79.96611021215374
65.3566 79.93441302259923
66.3073 79.91351282375878
67.2717 79.90862484151006
68.2502 79.90774616019151
69.2429 79.87399515775195
70.2501 79.77214570769966
71.2719 79.65354835901697
72.3086 79.5633905081926
73.3603 79.4618144001574
74.4274 79.2628041735649
75.5099 78.94981689968357
76.6083 78.60463485842591
77.7226 78.30922358424296
78.8531 78.18994781777052
80.0 78.33091499889804
81.1636 78.48699916547783
82.3442 78.56610874226676
83.5419 78.62901453419126
84.757 78.67171808098492
85.9899 78.65198414833377
87.2406 78.53394169570498
88.5096 78.3626715020482
89.797 78.12565823302066
91.1031 77.9052180563218
92.4282 77.71712009277962
93.7726 77.51124562616965
95.1366 77.36252378886923
96.5204 77.6073467035544
97.9243 78.438533455148
99.3486 79.62352003704964
100.794 80.56724838472586
102.26 81.07570966360616
103.747 81.20215471900401
105.256 81.08629205963828
106.787 80.89740752703672
108.34 80.70632036772007
109.916 80.485574584184
111.515 80.25305060415715
113.137 80.13887599619571
114.783 80.13237285089005
116.452 80.1821060375771
118.146 80.22525851249569
119.865 80.20917169448941
121.608 80.13935672637493
123.377 79.97495834705335
125.171 79.72454506193634
126.992 79.33855888738051
128.839 78.98126788045148
130.713 78.71428042125784
132.615 78.60683607622482
134.543 78.61613687706557
136.5 78.52968071176824
138.486 78.22998313975422
140.5 77.69845217348202
142.544 77.1057012052034
144.617 76.6335011381148
146.721 76.3259656061024
148.855 75.66970312197284
151.02 74.55830213515425
153.217 73.5655806293296
155.445 73.64856964270881
157.706 74.86098831332963
160.0 76.34423075556599
162.327 77.52085441413291
164.688 78.19547059034902
167.084 78.4749472551131
169.514 78.51736743829908
171.98 78.44607834159757
174.481 78.34526955506715
177.019 78.19888016779574
179.594 78.0274995747795
182.206 77.8975653546425
184.856 77.67013545797495
187.545 77.83355428245589
190.273 78.96805639374945
193.041 80.51913299665435
195.849 82.09718119872211
198.697 83.29786184345737
201.587 83.89925836388099
204.52 84.12361907717425
207.494 84.1301215787417
210.512 83.96827255935672
213.574 83.62694097139625
216.681 83.02133006408137
219.833 82.32100666976291
223.03 81.79556489645951
226.274 81.44091524524495
229.565 81.0297236770733
232.905 80.67373022237624
236.292 80.85928930291074
239.729 81.38359225266625
243.216 82.05306122509708
246.754 82.62458426057916
250.343 82.84810997522207
253.984 82.86085773080934
257.678 82.86714108769559
261.426 82.69969647402128
265.229 82.32093211333272
269.087 82.00177794246414
273.001 81.55967768450297
276.972 80.81716105125791
281.0 79.87330043265727
285.088 79.15895093284898
289.234 79.50004725668981
293.441 80.22991661274814
297.709 81.00801500223888
302.04 81.58565961948791
306.433 81.82602697313204
310.89 81.80959798830564
315.412 81.74949134372908
320.0 81.75500362136604
324.655 81.7132704476291
329.377 81.45354793013759
334.168 81.10085984561714
339.028 80.75926477713206
343.959 80.3878341848451
348.962 80.11132610715394
354.038 80.07618252184123
359.188 80.22287321692657
364.412 80.30938933822172
369.713 80.200155217383
375.09 79.96938780296485
380.546 79.77292824226629
386.081 79.60643996660046
391.697 79.46128505036147
397.394 79.38069437066869
403.175 79.35365622399124
409.039 79.35043470894284
414.989 79.3726747541244
421.025 79.42300309146931
427.149 79.49726871333482
433.362 79.59948140878491
439.665 79.727795650611
446.06 79.87857804197657
452.548 80.05268904534131
459.131 80.24930493281941
465.809 80.4625109545162
472.584 80.69300525040042
479.458 80.9368778869767
486.432 81.19167612915201
493.507 81.4564406577959
500.686 81.72801772796785
507.968 82.00381033619995
515.357 82.2819029450513
522.853 82.55934947806904
530.458 82.83500315914804
538.174 83.10665730231791
546.002 83.37176836218329
553.943 83.62900318404728
562.001 83.876422259609
570.175 84.11404806735105
578.469 84.3361735160173
586.883 84.54321144597137
595.419 84.73394992360183
604.08 84.90861703833379
612.866 85.0625585236006
621.78 85.19600790257206
630.824 85.30431125041787
640.0 85.39050967705262
649.309 85.44837270794528
658.753 85.47904373334215
668.335 85.48202688578927
678.056 85.45578495085661
687.919 85.39928709174315
697.925 85.31192401778418
708.077 85.1931934668556
718.376 85.0443652767319
728.825 84.86610036321063
739.426 84.66075839776893
750.181 84.43075092126573
761.093 84.18114171534644
772.163 83.918536024234
783.394 83.65427731687461
794.789 83.39705717821428
806.349 83.15740165361929
818.078 82.94717289277774
829.977 82.77442540699793
842.05 82.64509209576602
854.298 82.5623776761902
866.724 82.51927508032539
879.33 82.5057878043052
892.12 82.50540465269238
905.097 82.50310330228642
918.262 82.47587946105028
931.618 82.40664677850386
945.169 82.27748776916982
958.917 82.06828086687935
972.864 81.7597782340568
987.015 81.33644936111733
1001.37 80.77104451653739
1015.94 80.05885250634981
1030.71 79.18453698265535
1045.71 78.15555047629805
1060.92 77.07569120548426
1076.35 76.14887798270662
1092.0 75.77002265770257
1107.89 76.16833691530758
1124.0 77.28605222763373
1140.35 78.72512341161692
1156.94 80.14129571193844
1173.77 81.49211824688149
1190.84 82.59329323385677
1208.16 83.61516047458352
1225.73 84.41936397666619
1243.56 85.10902833205648
1261.65 85.6483633719952
1280.0 86.08294720342278
1298.62 86.36855692186157
1317.51 86.6459280228727
1336.67 86.80309563818959
1356.11 86.90245919814785
1375.84 86.94933910784263
1395.85 86.9524346224854
1416.15 86.90783515007733
1436.75 86.84256329012878
1457.65 86.72761042098226
1478.85 86.57414492270362
1500.36 86.37002642904626
1522.19 86.09888281692965
1544.33 85.76757041060789
1566.79 85.38474376131158
1589.58 84.97136226757803
1612.7 84.56745760347748
1636.16 84.23030849281187
1659.95 84.02380468191721
1684.1 83.99360408347088
1708.6 84.145327856611
1733.45 84.43774602023704
1758.66 84.80175400480861
1784.24 85.16823765445096
1810.19 85.4864148052603
1836.52 85.7295831861904
1863.24 85.89300642135147
1890.34 85.98489141226041
1917.83 86.02084922263386
1945.73 86.01806406560412
1974.03 85.98144675660475
2002.74 85.89800139179762
2031.87 85.74784517090426
2061.43 85.4883999750485
2091.41 85.07200700864392
2121.83 84.45290187110815
2152.69 83.54012050174205
2184.01 82.45343147555862
2215.77 81.07378908906101
2248.0 79.68042806649218
2280.7 78.62788869668782
2313.87 78.41963927713365
2347.53 79.05131606107297
2381.68 80.0641651637705
2416.32 81.07990011939305
2451.46 81.88197902106681
2487.12 82.48392864737725
2523.3 82.81926964898396
2560.0 82.95219210842556
2597.24 82.8736385531103
2635.01 82.58957735129383
2673.34 82.05976907675738
2712.23 81.3772299768061
2751.68 80.57388242813678
2791.7 79.89260656583323
2832.31 79.63371391550572
2873.5 79.8977134642369
2915.3 80.52654080656329
2957.7 81.23306946606637
3000.72 81.75743463484231
3044.37 81.92434647792003
3088.65 81.77159069177917
3133.58 81.44711328608479
3179.16 81.09782562705922
3225.4 80.88522490835408
3272.31 80.8174477049202
3319.91 80.77801237595693
3368.2 80.63112803481526
3417.19 80.31084888607487
3466.89 79.8979161355615
3517.32 79.61945549379253
3568.48 79.72024928885413
3620.39 80.19293291749673
3673.05 80.75752930904689
3726.47 81.17912251714888
3780.67 81.33832796442759
3835.67 81.33488069541956
3891.46 81.22009034491552
3948.06 81.20053458120339
4005.49 81.43103261897978
4063.75 81.82543925052074
4122.86 82.18746539131915
4182.82 82.42404323963027
4243.66 82.67197890742845
4305.39 83.14925029689971
4368.01 83.84816978954296
4431.55 84.50514067156654
4496.01 84.93961081853206
4561.4 85.11655960638053
4627.75 85.22106333164784
4695.06 85.45057713398005
4763.35 85.82359570191348
4832.64 86.17298726183348
4902.93 86.26189692627051
4974.24 86.10911001803593
5046.6 85.79535338175063
5120.0 85.57240130669953
5194.47 85.53144661089078
5270.03 85.47192344890918
5346.68 85.26193346970372
5424.45 85.1517127186449
5503.35 85.4763579860269
5583.4 85.9344316441519
5664.61 85.93478696764093
5747.01 85.65746251284504
5830.6 85.34799559758787
5915.41 85.16780386220556
6001.45 84.89870035951057
6088.74 84.49153562570747
6177.3 84.26783241582571
6267.15 84.07125294434438
6358.31 83.58982283737942
6450.8 82.98064916538162
6544.62 82.61227398470088
6639.82 82.6259966966471
6736.4 82.62450940973578
6834.38 82.216712736886
6933.79 81.610993998381
7034.64 81.17850899190586
7136.96 80.7221351471067
7240.77 80.12109280727805
7346.09 79.8097980630315
7452.94 79.81814742423225
7561.35 79.77527784593318
7671.33 79.70662721504412
7782.91 79.7380206473103
7896.12 79.93688577769349
8010.97 80.26608626137002
8127.49 80.89586804480174
8245.71 81.57231165589509
8365.65 81.76636335209419
8487.33 81.68977634418714
8610.78 81.56944426435147
8736.03 81.2406170266292
8863.09 80.79588250255405
8992.01 80.72432783271437
9122.8 80.66908965159287
9255.5 80.29844478599017
9390.12 80.09606206461248
9526.7 79.78810078860663
9665.27 79.21960402701421
9805.86 78.5623307192122
9948.49 77.70136369519908
10093.2 76.8838767971299
10240.0 76.38314262907686
10388.9 76.20676587395485
10540.1 76.25640011316132
10693.4 76.33554963050511
10848.9 76.51816301650311
11006.7 76.88903103977496
11166.8 77.44138181952819
11329.2 78.02313561460238
11494.0 78.68030767161643
11661.2 79.34500920014146
11830.8 79.89263993907367
12002.9 80.22822275796092
12177.5 80.24406305035276
12354.6 79.78824623051433
12534.3 78.99361303739752
12716.6 77.95748039407549
12901.6 77.03389464949667
13089.2 76.21165961740444
13279.6 75.73576824444972
13472.8 75.5774144211134
13668.8 75.52825310618711
13867.6 75.44002995263664
14069.3 75.33671941334694
14273.9 75.28253945965699
14481.5 75.50044341514065
14692.2 75.95690154843977
14905.9 76.40454523408945
15122.7 76.65066505235417
15342.7 76.5018589025645
15565.8 75.93016720788326
15792.2 75.16963100665286
16021.9 74.43948507401598
16255.0 73.65895701583807
16491.4 72.91255359751891
16731.3 72.39408377952941
16974.7 72.09825700924688
17221.6 71.92343241009146
17472.1 71.77205364918929
17726.2 71.66990012209949
17984.0 72.02885394050433
18245.6 72.54421615479663
18511.0 72.69560639209907
18780.2 72.6954569583932
19053.4 72.51112453517817
19330.5 71.94796518125202
19611.7 71.17440086994408
19897.0 70.66288969696976
