Freq "Estimated In-Room Response"
20.0 44.91465028229655
20.2909 45.58850749241347
20.586 46.23302931713911
20.8855 46.80577353584607
21.1893 47.27607846747483
21.4975 47.70768384788798
21.8102 48.16195891898809
22.1274 48.68718554295933
22.4492 49.30549498114598
22.7758 49.99874214265918
23.1071 50.71353588394754
23.4432 51.38602834789128
23.7841 51.975594286338605
24.1301 52.48814261858615
24.4811 52.95405566668339
24.8372 53.4164842870733
25.1984 53.91309627633805
25.5649 54.461153331353444
25.9368 55.0507143218652
26.3141 55.657627574863625
26.6968 56.25810378875727
27.0851 56.835987367161664
27.4791 57.38890448753577
27.8788 57.927253699165334
28.2843 58.463908900821835
28.6957 59.012238246282635
29.1131 59.57450910113556
29.5365 60.144378020344405
29.9661 60.71364123133907
30.402 61.27473581425252
30.8442 61.82163617526541
31.2929 62.3620297508303
31.748 62.89806682795172
32.2098 63.42881506342174
32.6783 63.94999336320829
33.1536 64.45781522557637
33.6359 64.95541909718122
34.1251 65.45054474338232
34.6215 65.95038969949181
35.125 66.45635874177248
35.6359 66.96706765871795
36.1543 67.4724378129469
36.6802 67.96740054287353
37.2137 68.44990510756658
37.755 68.92864353574457
38.3041 69.40862923561303
38.8613 69.8901911111875
39.4265 70.3664786599154
40.0 70.83750613957159
40.5818 71.30260078801875
41.1721 71.75603297337531
41.771 72.18284085461431
42.3785 72.56988370565074
42.9949 72.93366588539321
43.6203 73.29909274962458
44.2548 73.6831249613103
44.8985 74.07735938562188
45.5515 74.46383283706336
46.2141 74.84131169070926
46.8863 75.2089158675809
47.5683 75.5690542819439
48.2602 75.92533638352732
48.9621 76.2792477245674
49.6743 76.62104425538125
50.3968 76.94398772305725
51.1299 77.250241709174
51.8736 77.54943892050449
52.6281 77.8380585076605
53.3936 78.11197370282301
54.1702 78.37214612392465
54.9581 78.61776794849395
55.7575 78.84536519409954
56.5685 79.05313518204679
57.3914 79.24106138319735
58.2261 79.40257816014513
59.073 79.53928891058602
59.9323 79.66850095049948
60.804 79.80069809300734
61.6884 79.92422800047045
62.5857 80.03723317096394
63.496 80.14415118357567
64.4196 80.22893301260031
65.3566 80.28510348978446
66.3073 80.32496028145752
67.2717 80.3385799027159
68.2502 80.33656597934433
69.2429 80.34245989818518
70.2501 80.35691281943546
71.2719 80.36746632587403
72.3086 80.37204031670151
73.3603 80.35815143647672
74.4274 80.3134575373219
75.5099 80.2490153821737
76.6083 80.17110172252406
77.7226 80.09631293815647
78.8531 80.04694285361981
80.0 80.01359184120778
81.1636 79.9849133243537
82.3442 79.9599434321131
83.5419 79.9319646383897
84.757 79.88846311387724
85.9899 79.84336638073461
87.2406 79.7988277391888
88.5096 79.75236885443634
89.797 79.69131400204256
91.1031 79.61109695854539
92.4282 79.48955276445459
93.7726 79.34754691757404
95.1366 79.23853850354652
96.5204 79.15168665309527
97.9243 79.07817503435064
99.3486 79.03563732486455
100.794 79.00704121853369
102.26 78.98943333134112
103.747 78.9713875854228
105.256 78.9538347046598
106.787 78.93286850220154
108.34 78.87905418099142
109.916 78.78680723858093
111.515 78.72187314183851
113.137 78.7035313407425
114.783 78.69902955185522
116.452 78.69391153098931
118.146 78.69664302714261
119.865 78.70839343514469
121.608 78.72193281190056
123.377 78.74013413870264
125.171 78.75687703929421
126.992 78.76551209489273
128.839 78.77973958031907
130.713 78.78472934615378
132.615 78.76277426725693
134.543 78.74378718085502
136.5 78.74048252586027
138.486 78.73393774725533
140.5 78.73137713803237
142.544 78.728071990491
144.617 78.66253401256972
146.721 78.63141046616737
148.855 78.69492976053263
151.02 78.75777825851043
153.217 78.73451918536321
155.445 78.66088971915053
157.706 78.60075232943244
160.0 78.46032247786016
162.327 78.41196399147599
164.688 78.43848380274241
167.084 78.57059703809907
169.514 78.66000004566187
171.98 78.32827481334675
174.481 78.17064018938872
177.019 78.1761333192825
179.594 78.19600932450405
182.206 78.20161510149539
184.856 78.25375544108607
187.545 78.38319828063484
190.273 78.55866556001662
193.041 78.70764947774872
195.849 78.75701639070178
198.697 78.79541315806472
201.587 78.86605490264661
204.52 78.79213372884387
207.494 78.64710780833863
210.512 78.50866033944018
213.574 78.48351316779518
216.681 78.44899815830155
219.833 78.33268722250132
223.03 78.25175302005707
226.274 78.13805686514962
229.565 78.13203687849855
232.905 78.2088773194721
236.292 78.2479972337375
239.729 78.32899895055806
243.216 78.43646311264138
246.754 78.46694654469074
250.343 78.4960978354894
253.984 78.5950250320783
257.678 78.62332069949184
261.426 78.57786587566657
265.229 78.53610314856951
269.087 78.13651640708454
273.001 78.04963720346107
276.972 78.1473262102487
281.0 78.16176281552306
285.088 78.16340433928691
289.234 78.17111940504645
293.441 78.27671984280758
297.709 78.29469682372087
302.04 78.30346810683278
306.433 77.98000151595653
310.89 78.05035985391518
315.412 78.10121285135821
320.0 77.94062929294161
324.655 77.60042557962285
329.377 77.6041674538502
334.168 77.59732693565653
339.028 77.58924207710373
343.959 77.65305444093721
348.962 77.734316416519
354.038 77.79758809722108
359.188 77.95980929600432
364.412 77.94653580294941
369.713 77.90121164420452
375.09 78.06296541441473
380.546 78.17758845444376
386.081 78.19100199469747
391.697 78.22452637995092
397.394 78.36019680199729
403.175 78.23691054669963
409.039 78.16469478853449
414.989 78.15902678802587
421.025 78.17686209531945
427.149 78.13521299356773
433.362 78.12123268053382
439.665 78.19164917846486
446.06 78.05226824125184
452.548 78.01651020413281
459.131 77.90015377325525
465.809 77.9129221577555
472.584 77.79303435669058
479.458 77.69500509624373
486.432 77.63431659590441
493.507 77.52144469319624
500.686 77.42136843929538
507.968 77.34672744652433
515.357 77.28794679237323
522.853 77.24025139617643
530.458 77.21676899923773
538.174 77.22002738379157
546.002 77.25153485613629
553.943 77.30467731675776
562.001 77.38570102557497
570.175 77.4909791420947
578.469 77.61594306704053
586.883 77.75176376448091
595.419 77.89473363023801
604.08 78.0410516266256
612.866 78.18560001160269
621.78 78.32470957895518
630.824 78.45154453362323
640.0 78.55925458326182
649.309 78.6453329271078
658.753 78.70893580857482
668.335 78.74858399119573
678.056 78.76027310378305
687.919 78.74413599823974
697.925 78.70131453920112
708.077 78.63402743836009
718.376 78.54401779952198
728.825 78.4350630206351
739.426 78.31386316177178
750.181 78.1852011314974
761.093 78.0575725240238
772.163 77.94024893819582
783.394 77.83717295676394
794.789 77.7525595221222
806.349 77.6922173734528
818.078 77.656332665489
829.977 77.64263130307413
842.05 77.6445431449857
854.298 77.65662616652325
866.724 77.67103115609271
879.33 77.68300934061811
892.12 77.68751511031405
905.097 77.6822793959812
918.262 77.6692056191986
931.618 77.65224071179479
945.169 77.64096584664945
958.917 77.64427637363465
972.864 77.67191333279615
987.015 77.73071319201021
1001.37 77.82373618814361
1015.94 77.95165837302012
1030.71 78.10408303158556
1045.71 78.27157595225827
1060.92 78.43787972271161
1076.35 78.58301854736544
1092.0 78.6950394882349
1107.89 78.76266809924104
1124.0 78.77830973386769
1140.35 78.742092712718
1156.94 78.65635569247405
1173.77 78.53082553910978
1190.84 78.38210236239564
1208.16 78.22836111520166
1225.73 78.08830197693302
1243.56 77.9775372592205
1261.65 77.90403576288539
1280.0 77.86439320176535
1298.62 77.84610403860557
1317.51 77.83177029185124
1336.67 77.80065602484896
1356.11 77.7442672136736
1375.84 77.65786257866552
1395.85 77.54985540284656
1416.15 77.43825414422946
1436.75 77.34291656815364
1457.65 77.28224586959203
1478.85 77.26209785503606
1500.36 77.27568882883658
1522.19 77.30064880451071
1544.33 77.31365178011633
1566.79 77.29214480344443
1589.58 77.22816126957628
1612.7 77.13129841422192
1636.16 77.02291453152216
1659.95 76.93312197966628
1684.1 76.88657457806475
1708.6 76.88781243531255
1733.45 76.91773895383037
1758.66 76.94303012337625
1784.24 76.92963120145183
1810.19 76.85754852726085
1836.52 76.72831873499777
1863.24 76.56758520813945
1890.34 76.41286724521333
1917.83 76.29449164864891
1945.73 76.2221323477795
1974.03 76.17635400280824
2002.74 76.12898937330434
2031.87 76.06465698863998
2061.43 75.99444414910758
2091.41 75.95181739573516
2121.83 75.9724759161544
2152.69 76.06210948658034
2184.01 76.18884880454877
2215.77 76.30577317035082
2248.0 76.38004907221735
2280.7 76.41245538561128
2313.87 76.43286589692988
2347.53 76.47210885631996
2381.68 76.53990700425352
2416.32 76.61544548702885
2451.46 76.67168807148391
2487.12 76.69939764755696
2523.3 76.7178317275631
2560.0 76.75628488346379
2597.24 76.82515618136716
2635.01 76.90886312222554
2673.34 76.98567495773113
2712.23 77.05228097125632
2751.68 77.12917273038833
2791.7 77.23510326728562
2832.31 77.36330317903528
2873.5 77.48420252823904
2915.3 77.57139916786582
2957.7 77.62448268931311
3000.72 77.6568143125442
3044.37 77.67573127473146
3088.65 77.67353780243558
3133.58 77.64025996433585
3179.16 77.57514611504325
3225.4 77.48794031532762
3272.31 77.38827693997382
3319.91 77.28510093176664
3368.2 77.19066696819148
3417.19 77.11733623453084
3466.89 77.06118499252274
3517.32 77.00999764699667
3568.48 76.9582257983231
3620.39 76.92344814337216
3673.05 76.93115783885126
3726.47 76.98534979585772
3780.67 77.04818096267795
3835.67 77.07840384414268
3891.46 77.07487200502081
3948.06 77.06786876675024
4005.49 77.052872562541
4063.75 76.9876684090654
4122.86 76.87310279686895
4182.82 76.76326647050038
4243.66 76.67225325504758
4305.39 76.57906382855964
4368.01 76.51558808819459
4431.55 76.50223124667723
4496.01 76.46348293040685
4561.4 76.3753981597471
4627.75 76.32314616803353
4695.06 76.30334134303664
4763.35 76.25039025128187
4832.64 76.22626395301428
4902.93 76.27744486203234
4974.24 76.34214714217471
5046.6 76.43679075531304
5120.0 76.56246151949331
5194.47 76.63682175980624
5270.03 76.69461098747496
5346.68 76.78013988041432
5424.45 76.8277955437098
5503.35 76.87301176826398
5583.4 76.9695687894966
5664.61 77.06456829955525
5747.01 77.18548380852587
5830.6 77.32556878623659
5915.41 77.39705473219163
6001.45 77.44710399267362
6088.74 77.47383513669536
6177.3 77.45361966553884
6267.15 77.44898652380422
6358.31 77.45685102891078
6450.8 77.53570738931373
6544.62 77.6316261946333
6639.82 77.72675684443277
6736.4 77.81248244040864
6834.38 77.77470180243523
6933.79 77.61797424455982
7034.64 77.39008663701244
7136.96 77.12971007191881
7240.77 76.82233715456418
7346.09 76.69380465667805
7452.94 76.76241422044626
7561.35 76.91492911669229
7671.33 77.15777517409626
7782.91 77.34345318583905
7896.12 77.4356864293854
8010.97 77.52664619269231
8127.49 77.57832645526062
8245.71 77.53946468135072
8365.65 77.46730740162674
8487.33 77.28983426351384
8610.78 76.97051020309584
8736.03 76.60896917449809
8863.09 76.2115991753748
8992.01 75.9287032516979
9122.8 75.83184283171329
9255.5 75.81591685074005
9390.12 75.86613134829432
9526.7 75.86103370160912
9665.27 75.78993642391919
9805.86 75.6735500104161
9948.49 75.51590825894193
10093.2 75.47736928940229
10240.0 75.54065241991324
10388.9 75.72995273217572
10540.1 75.83856372179615
10693.4 75.93129203241585
10848.9 75.92550805661003
11006.7 75.87757141144033
11166.8 75.77604522046717
11329.2 75.64101280092648
11494.0 75.53803144107201
11661.2 75.61480388729308
11830.8 75.89830888385563
12002.9 76.22864997442697
12177.5 76.37797681385527
12354.6 76.32873403445276
12534.3 76.12786116816471
12716.6 75.95260360103958
12901.6 75.88031725762112
13089.2 76.07861040631934
13279.6 76.29208166015529
13472.8 76.37515846038609
13668.8 76.26310790597793
13867.6 76.0205881621468
14069.3 75.72256355138117
14273.9 75.40014758506648
14481.5 75.2638153598867
14692.2 75.25501107853408
14905.9 75.08167736443355
15122.7 74.62175038521659
15342.7 74.14659287947728
15565.8 73.85854878681846
15792.2 73.53757487683774
16021.9 72.98814784426106
16255.0 72.48860818212077
16491.4 73.32574538561069
16731.3 73.83969062059998
16974.7 73.54872637186212
17221.6 73.299060753367
17472.1 73.02376977304704
17726.2 72.57818611884979
17984.0 72.01150001705574
18245.6 71.60464199559962
18511.0 71.41901295299124
18780.2 71.1315420937918
19053.4 70.56294606663698
19330.5 69.9261790827916
19611.7 69.56272788594084
19897.0 69.2077003642583
