Freq "Ceiling Bounce"
22.4 44.17325096508452
23.0 44.97325096508453
23.6 45.87325096508454
24.0 48.139918940803994
25.0 50.20632911392403
25.8 51.906329113924045
26.5 53.439918940804006
27.2 54.77325096508454
28.0 56.00632911392404
29.0 57.10632911392403
30.0 58.10632911392403
30.7 59.039918940804014
31.5 59.93991894080402
32.5 60.73991894080402
33.5 61.539918940804014
34.5 62.30632911392402
35.5 63.00632911392404
36.5 64.10632911392403
37.5 65.13991894080401
38.7 66.10632911392403
40.0 66.97325096508453
41.2 67.80632911392404
42.5 68.57325096508454
43.7 69.30632911392404
45.0 70.00632911392404
46.2 70.67325096508455
47.5 71.27325096508453
48.7 71.87325096508454
50.0 72.47325096508455
51.5 72.97325096508453
53.0 73.47325096508453
54.5 73.97325096508455
56.0 74.47325096508453
58.0 74.90709660837965
60.0 75.27325096508454
61.5 75.57325096508453
63.0 75.80709660837965
65.0 76.10709660837965
67.0 76.30709660837965
69.0 76.60709660837966
71.0 76.80709660837965
73.0 77.07477995197837
75.0 77.30709660837965
77.5 77.57477995197837
80.0 77.84145970570387
82.5 78.07477995197837
85.0 78.24145970570386
87.5 78.37477995197837
90.0 78.50939868496656
92.5 78.64454041281145
95.0 78.70939868496656
97.5 78.60939868496655
100.0 78.34454041281145
103.0 78.14454041281147
106.0 77.91323412427863
109.0 77.81323412427862
112.0 77.71323412427863
115.0 77.61323412427863
118.0 77.64915941864376
122.0 78.21323412427864
125.0 78.68242086841626
128.0 79.04915941864377
132.0 78.94915941864377
136.0 78.81860089708022
140.0 78.61860089708023
145.0 78.04915941864377
150.0 77.31860089708022
155.0 76.91860089708022
160.0 77.28852878724709
165.0 77.68852878724708
170.0 78.28852878724709
175.0 78.85893864594621
180.0 79.2254961689516
185.0 78.96300167322454
190.0 78.73391630675997
195.0 78.83391630675996
200.0 78.93391630675995
206.0 79.30530356523329
212.0 79.53391630675996
218.0 79.33391630675995
224.0 79.03391630675995
230.0 78.9053035652333
236.0 78.73391630675997
240.0 78.53391630675995
250.0 78.30530356523329
258.0 77.9053035652333
265.0 77.44385688692432
272.0 76.91596168074024
280.0 76.32812650081299
290.0 75.94179174527086
300.0 75.81575159818424
307.0 76.01575159818424
315.0 76.61575159818422
325.0 77.30139369428232
335.0 77.92812650081298
345.0 78.35531270543245
355.0 78.65531270543245
365.0 78.6682777895617
375.0 78.40898361732744
387.0 77.86632873137394
400.0 77.37902056714998
412.0 77.1548492685121
425.0 77.23276209134912
437.0 77.68731401943083
450.0 78.36498635410274
462.0 78.94409645677945
475.0 79.16769749015167
487.0 79.04409645677944
500.0 78.54243619369754
515.0 77.74386104969307
530.0 77.22812964076377
545.0 77.28888976891938
560.0 77.88156735187152
580.0 78.51097823603999
600.0 78.75376810479136
615.0 78.45376810479138
630.0 77.3227168170541
650.0 75.35082570812114
670.0 72.929272741084
690.0 72.22927274108402
710.0 74.15907905606764
730.0 75.89852958543977
750.0 76.50957523445108
775.0 76.26594945592512
800.0 76.48039238396161
825.0 77.1006383700281
850.0 77.1355775033889
875.0 76.83645088614057
900.0 76.48888976891936
925.0 76.59548850684645
950.0 77.22465588306285
975.0 77.8453107551369
1000.0 77.6043758214112
1030.0 76.43807182702699
1060.0 75.04471428260345
1090.0 73.57203187563051
1120.0 72.55750928851975
1150.0 71.73837404852223
1180.0 70.847206549075
1220.0 70.45171528722445
1250.0 69.83831168768555
1280.0 70.01358984906409
1320.0 69.95630452410231
1360.0 69.55091087661744
1400.0 70.18123508562549
1450.0 72.05878355176753
1500.0 73.10132737419985
1550.0 73.11228560176623
1600.0 72.75869979272335
1650.0 72.03721462865
1700.0 71.25793100649676
1750.0 70.20978310858077
1800.0 69.02919272268942
1850.0 67.67298323212454
1900.0 66.62439074120041
1950.0 68.51197503998387
2000.0 69.19077673755413
2060.0 69.69615768065876
2120.0 68.81785610932711
2180.0 67.81892076745551
2240.0 67.3578711713575
2300.0 64.95067439616264
2360.0 63.44761023262275
2400.0 63.76167612943212
2500.0 63.79544972483622
2580.0 64.10368685781259
2650.0 64.63221171703103
2720.0 64.96900842559799
2800.0 61.473720586574615
2900.0 57.563309849829764
3000.0 58.74925950874194
3070.0 57.869145127400316
3150.0 60.41554052112808
3250.0 63.504368911482075
3350.0 66.07306214474413
3450.0 67.79025950375627
3550.0 66.89780782395403
3650.0 68.39334220192072
3750.0 67.96237034756936
3870.0 69.76304256356453
4000.0 70.10064703549043
4120.0 67.54856707295164
4250.0 66.52205026828199
4370.0 64.60139810801373
4500.0 64.85452985175468
4620.0 67.87010252669617
4750.0 67.03916316200528
4870.0 66.79749436453857
5000.0 68.6518022931333
5150.0 69.12014254135016
5300.0 68.94525935059114
5450.0 67.77597211016861
5600.0 66.8632043656139
5800.0 66.04993826506369
6000.0 67.58160085468825
6150.0 68.67723369846915
6300.0 71.5446844236173
6500.0 72.42856183735938
6700.0 71.3510682820964
6900.0 69.60528108986075
7100.0 66.61589042423273
7300.0 67.4767728416933
7500.0 71.0115089292905
7750.0 73.77570245963413
8000.0 72.08447514429889
8250.0 70.74095372435117
8500.0 66.55727839696532
8750.0 65.70610040923336
9000.0 68.47729236501418
9250.0 69.08779152894896
9500.0 69.54585147253702
9750.0 70.45877965754951
10000.0 68.6271114395372
10300.0 67.10606713717394
10600.0 65.29680289647139
10900.0 61.23518480665925
11200.0 58.68280979938227
11500.0 60.4244484127982
11800.0 63.09431196042719
12200.0 69.64837319297251
12500.0 65.9384184855543
12800.0 65.01559727593394
13200.0 55.30137129348401
13600.0 55.36975640875869
14000.0 39.038061587524766
14500.0 39.429882487491454
15000.0 52.21982353397598
15500.0 49.993051901219076
16000.0 55.412517977025885
16500.0 60.81486879834512
17000.0 62.693499887437724
17500.0 55.88677961156142
18000.0 49.88106809716996
18500.0 47.11486879834516
19000.0 45.23108889546438
19500.0 47.39636499991528
