Freq "Front Wall Bounce"
22.4 46.11065754246425
23.0 46.86941431146519
23.6 47.7694143114652
24.0 49.7694143114652
25.0 51.61065754246428
25.8 53.18031689417825
26.5 54.58031689417825
27.2 55.82241085744283
28.0 56.950460680715636
29.0 58.02241085744282
30.0 58.95046068071562
30.7 59.92241085744283
31.5 60.75046068071563
32.5 61.550460680715645
33.5 62.26441794645042
34.5 62.992843609784984
35.5 63.72108442921612
36.5 64.73513627066932
37.5 65.73513627066933
38.7 66.69218360302642
40.0 67.53513627066933
41.2 68.33513627066931
42.5 69.10632911392403
43.7 69.80632911392402
45.0 70.50632911392404
46.2 71.13513627066932
47.5 71.74946850926186
48.7 72.32075657732149
50.0 72.87799186784294
51.5 73.44946850926185
53.0 73.94946850926185
54.5 74.42141225636287
56.0 74.89251361894354
58.0 75.39251361894352
60.0 75.79251361894353
61.5 76.06473495896464
63.0 76.33612411148309
65.0 76.62141225636287
67.0 76.86473495896466
69.0 77.16473495896466
71.0 77.42141225636288
73.0 77.66473495896466
75.0 77.93612411148308
77.5 78.20862388086096
80.0 78.50862388086095
82.5 78.79381841284444
85.0 79.00862388086097
87.5 79.166682232156
90.0 79.30862388086095
92.5 79.50862388086097
95.0 79.60862388086096
97.5 79.50862388086097
100.0 79.30862388086095
103.0 79.10862388086096
106.0 78.90862388086097
109.0 78.85308061767756
112.0 78.78158034034861
115.0 78.68158034034859
118.0 78.75308061767757
122.0 79.32631334793848
125.0 79.82631334793847
128.0 80.1815803403486
132.0 80.12631334793848
136.0 79.95308061767759
140.0 79.75308061767758
145.0 79.19677274745726
150.0 78.48158034034861
155.0 77.98158034034861
160.0 78.38158034034859
165.0 78.81122410766025
170.0 79.45308061767757
175.0 80.11122410766026
180.0 80.51122410766024
185.0 80.31122410766025
190.0 80.11122410766026
195.0 80.22631334793849
200.0 80.41122410766025
206.0 80.72631334793847
212.0 81.01122410766025
218.0 80.72631334793847
224.0 80.41122410766025
230.0 80.22631334793849
236.0 80.11122410766026
240.0 79.88291888714232
250.0 79.62631334793848
258.0 79.25633545409475
265.0 78.85633545409476
272.0 78.37161627391956
280.0 77.84557187114395
290.0 77.49172041956528
300.0 77.31996851999284
307.0 77.46638848250315
315.0 77.8948012931992
325.0 78.41996851999284
335.0 78.95073221636073
345.0 79.41996851999285
355.0 79.85073221636073
365.0 80.06638848250314
375.0 80.05754393703751
387.0 79.70500154088751
400.0 79.2257553271278
412.0 78.75719124780589
425.0 78.30920539692805
437.0 78.20920539692804
450.0 78.51701877695035
462.0 78.79480129319919
475.0 78.89480129319918
487.0 78.81996851999284
500.0 78.39480129319918
515.0 77.91701877695034
530.0 77.70920539692804
545.0 78.06454620211903
560.0 78.70920539692804
580.0 79.40920539692806
600.0 79.83390932137306
615.0 80.10521569190982
630.0 80.19333454471288
650.0 80.05901369608942
670.0 79.90596851890255
690.0 79.69602426942086
710.0 79.51739049406899
730.0 79.12574314634603
750.0 78.17615537231443
775.0 77.28088697336972
800.0 77.86011284866952
825.0 79.266230797884
850.0 79.91696176529418
875.0 79.64757711266961
900.0 79.12726139635986
925.0 79.10731588314957
950.0 79.70731588314956
975.0 80.12546706892418
1000.0 79.77827606149994
1030.0 78.81263195088772
1060.0 78.14962574726837
1090.0 77.7704644345149
1120.0 76.93194520366467
1150.0 76.25173130660929
1180.0 76.6513828187784
1220.0 77.84105387643244
1250.0 79.05590829713847
1280.0 79.52368122567486
1320.0 79.29170656662674
1360.0 79.18037981023258
1400.0 79.56489919704042
1450.0 80.10757979000158
1500.0 80.10731588314957
1550.0 80.04757711266961
1600.0 80.41380921283994
1650.0 79.70521569190981
1700.0 78.91460819574567
1750.0 78.12863787095503
1800.0 77.49239068497312
1850.0 77.12850138679565
1900.0 76.36701419152233
1950.0 76.03332378644794
2000.0 75.91066012355071
2060.0 75.89381841284445
2120.0 75.42504776542953
2180.0 75.67868680035244
2240.0 76.02474672599601
2300.0 77.06685264250365
2360.0 78.0592076469511
2400.0 78.63782713863232
2500.0 79.27179911574416
2580.0 79.63455839625627
2650.0 78.76452375573234
2720.0 78.94486018267364
2800.0 78.23782668866065
2900.0 77.56973113138227
3000.0 76.90932470409531
3070.0 77.07451038584693
3150.0 78.41462210303641
3250.0 79.62531266359298
3350.0 80.48959513778692
3450.0 81.11257599629029
3550.0 81.32189158845131
3650.0 80.39669336554823
3750.0 78.79096499652192
3870.0 79.29864917511249
4000.0 78.83826403147512
4120.0 79.13883558394703
4250.0 78.81398314127232
4370.0 80.25048923500614
4500.0 81.16235853008703
4620.0 81.25829096946256
4750.0 79.2581691503735
4870.0 79.43136857716513
5000.0 79.61001674987432
5150.0 77.62419607515025
5300.0 77.81232713733682
5450.0 78.19444041427371
5600.0 79.63049096700172
5800.0 79.67483299387986
6000.0 80.39703617368205
6150.0 80.00814554705411
6300.0 79.73244893155771
6500.0 77.77374539025803
6700.0 78.51255520990475
6900.0 77.99592931488701
7100.0 79.28063408188878
7300.0 80.00010417575999
7500.0 79.33317435450876
7750.0 79.00586676450999
8000.0 76.91712319333156
8250.0 77.09809943710094
8500.0 76.47825717713832
8750.0 75.53537982497556
9000.0 76.34341973644999
9250.0 74.89400196883722
9500.0 75.07077842017159
9750.0 76.80767795970138
10000.0 78.61868558112215
10300.0 80.59343530581154
10600.0 80.57168553070534
10900.0 78.19954434324171
11200.0 76.70023428242797
11500.0 78.07533254525886
11800.0 79.4082497605495
12200.0 86.30501884349442
12500.0 81.8633317607858
12800.0 80.64400285042042
13200.0 73.48540422210571
13600.0 75.09023402736385
14000.0 69.57801727736879
14500.0 68.5824743302208
15000.0 77.01859460727171
15500.0 71.21996019862439
16000.0 70.68709580285102
16500.0 74.56701419152233
17000.0 75.02154782633518
17500.0 67.56000255590926
18000.0 61.324745412349145
18500.0 63.90952937900428
19000.0 60.08713852510829
19500.0 62.00568904922521
