Freq "Side Wall Bounce"
22.4 46.291589524209485
23.0 47.09158952420947
23.6 48.03253574140288
24.0 49.97078738106151
25.0 51.79067574074031
25.8 53.34937505048504
26.5 54.749375050485014
27.2 55.96846391972471
28.0 57.088362898112365
29.0 58.14937505048502
30.0 59.088362898112365
30.7 59.98836289811237
31.5 60.8274415515794
32.5 61.62744155157938
33.5 62.388362898112376
34.5 63.088362898112365
35.5 63.78836289811238
36.5 64.76752385626585
37.5 65.7274415515794
38.7 66.64752894516889
40.0 67.46752385626587
41.2 68.22697254700483
42.5 68.98697509170995
43.7 69.66752385626587
45.0 70.32697254700483
46.2 70.92697254700482
47.5 71.56660499463308
48.7 72.12697254700483
50.0 72.62697254700484
51.5 73.16706973890639
53.0 73.62697254700484
54.5 74.10678962687321
56.0 74.5670697389064
58.0 75.02744155157939
60.0 75.38697509170994
61.5 75.66706973890639
63.0 75.90772123017166
65.0 76.16706973890639
67.0 76.3879109546681
69.0 76.66846391972472
71.0 76.88791095466811
73.0 77.12789983137901
75.0 77.36846391972472
77.5 77.64892941213196
80.0 77.84892941213195
82.5 78.12975429776708
85.0 78.31004449907616
87.5 78.42975429776708
90.0 78.57170535832232
92.5 78.71328794743553
95.0 78.81328794743553
97.5 78.65306588633874
100.0 78.43390906709791
103.0 78.19482647002363
106.0 77.95589686520815
109.0 77.85589686520815
112.0 77.78097012888361
115.0 77.6376160088249
118.0 77.70081201789714
122.0 78.22348231914609
125.0 78.72348231914609
128.0 79.04453324965111
132.0 78.92703099513646
136.0 78.7500886963108
140.0 78.5500886963108
145.0 77.95008869631079
150.0 77.19780116616693
155.0 76.66311824037277
160.0 77.00878139056005
165.0 77.3390955307026
170.0 77.89051670297734
175.0 78.44840494097011
180.0 78.75968738800879
185.0 78.4883749581089
190.0 78.23759261731036
195.0 78.33759261731035
200.0 78.53759261731037
206.0 78.83759261731036
212.0 79.13759261731036
218.0 78.90240739812356
224.0 78.60240739812356
230.0 78.43386512884699
236.0 78.33386512884698
240.0 78.12310635063457
250.0 77.8805904618606
258.0 77.51542676062604
265.0 77.03297574875457
272.0 76.49565168269044
280.0 75.86111054555238
290.0 75.31497225589841
300.0 74.94948069415209
307.0 74.91538477666936
315.0 75.25262551664053
325.0 75.83937990364784
335.0 76.411574831737
345.0 76.911574831737
355.0 77.26081862452617
365.0 77.42490538945356
375.0 77.22016248605993
387.0 76.60392354853158
400.0 75.77357547582147
412.0 74.94807388088037
425.0 74.3758042298358
437.0 74.27472562080801
450.0 74.73147723149322
462.0 75.2620727415619
475.0 75.59745010773493
487.0 75.53386449237232
500.0 74.9222560247929
515.0 73.92684454674227
530.0 73.35035420324493
545.0 73.64241284023963
560.0 74.43545645880818
580.0 75.23697686745422
600.0 75.54392883232434
615.0 75.3770960981819
630.0 74.69773333178529
650.0 73.81864226566759
670.0 73.33652774016531
690.0 73.65079957721639
710.0 74.3651213842698
730.0 74.6374788854437
750.0 73.81427951764593
775.0 72.51754451732253
800.0 72.44201954157427
825.0 73.1636002221385
850.0 73.21067279445109
875.0 72.72683773812642
900.0 72.03431280221488
925.0 71.89799015880858
950.0 72.40752328145345
975.0 72.83415220171898
1000.0 72.32954776677718
1030.0 70.93737635942529
1060.0 69.68870532877
1090.0 68.9511873602084
1120.0 68.0516549464216
1150.0 67.20822624880745
1180.0 66.9701997248732
1220.0 67.17434867027094
1250.0 67.39707979781814
1280.0 68.53675841341749
1320.0 69.422297901845
1360.0 69.83272083558188
1400.0 70.86281093901435
1450.0 72.47962703589556
1500.0 73.36578428545765
1550.0 73.82191360044537
1600.0 74.34409031763454
1650.0 74.3216717983387
1700.0 74.06647197981442
1750.0 73.82279493963888
1800.0 73.38751158465571
1850.0 72.97294302346492
1900.0 72.60232349657794
1950.0 72.50448450605248
2000.0 72.58540775452906
2060.0 73.36843513495278
2120.0 72.7813401313658
2180.0 72.54911847436716
2240.0 72.45820249306047
2300.0 72.6072454926591
2360.0 72.89350986963191
2400.0 73.3787598811288
2500.0 73.66386433452084
2580.0 74.23651147625658
2650.0 73.30670487483034
2720.0 73.36206677784305
2800.0 72.48511871811064
2900.0 71.98393566643519
3000.0 72.12285161265419
3070.0 72.4663962607366
3150.0 73.92119228946855
3250.0 74.81946899943505
3350.0 75.6084111210773
3450.0 76.52496192508708
3550.0 77.22976501371892
3650.0 76.41492658894339
3750.0 75.085636689084
3870.0 76.41046563959168
4000.0 76.27551312384566
4120.0 75.6644280950058
4250.0 75.19216979516958
4370.0 76.67100122156958
4500.0 77.24979728968816
4620.0 77.31455310682855
4750.0 75.94784922280236
4870.0 76.04936536378793
5000.0 75.98569280300748
5150.0 74.00424319786532
5300.0 74.07937303013375
5450.0 74.52090056269137
5600.0 75.85080977607538
5800.0 75.51759995143405
6000.0 76.17175934136608
6150.0 76.34195599874033
6300.0 76.57812573483426
6500.0 74.53449404464035
6700.0 74.54440892964917
6900.0 73.75537980910231
7100.0 75.20981848408279
7300.0 75.99608944807687
7500.0 75.83786261690449
7750.0 75.61090296971653
8000.0 74.07211696238872
8250.0 72.52194959790933
8500.0 71.0665127729959
8750.0 69.83807126750938
9000.0 69.47841038927868
9250.0 67.21334673128331
9500.0 68.11241112620245
9750.0 69.2822131351698
10000.0 73.08559289629284
10300.0 76.11574009081694
10600.0 75.55897476961962
10900.0 73.19063045823455
11200.0 71.59232275594725
11500.0 72.5943413885063
11800.0 73.89128018138902
12200.0 80.96107080205358
12500.0 74.63414290976077
12800.0 74.41365398260879
13200.0 67.75055157139116
13600.0 69.51315223085112
14000.0 64.53467527241972
14500.0 63.212872320997946
15000.0 72.08018644633086
15500.0 64.72480343958959
16000.0 63.87136193163116
16500.0 70.59123287314736
17000.0 69.28960062387482
17500.0 64.47371496509061
18000.0 59.91893699247481
18500.0 60.004795687817804
19000.0 56.61183685978935
19500.0 57.707642943381984
