Freq,On Axis,Listening Window,Sound Power,Early Reflections,Early Reflections DI,Sound Power DI,DI offset
20.5078,51.227869696969705,51.2528425419239,52.25808869499896,51.56552387896791,39.68731866295599,38.99475384692494,40
21.9727,53.403369696969705,53.41764365644376,54.17056943516455,53.64000462082372,39.77763903562004,39.247074221279206,40
23.4375,56.1181696969697,56.18141710316483,57.85564672326613,56.87388307337655,39.307534029788286,38.3257703798987,40
24.9023,58.42436969696972,58.45446883452679,59.364740078721624,58.816040746918375,39.63842808760842,39.08972875580517,40
26.3672,58.4999696969697,58.55230587300677,59.994115938130435,59.16600392782071,39.38630194518606,38.55818993487634,40
27.832,61.007569696969696,61.02670438640632,61.712347208722875,61.25980561708265,39.766898769323674,39.31435717768345,40
29.2969,63.819069696969706,63.79970450481005,63.58735307894449,63.57371389366436,40.22599061114569,40.21235142586556,40
30.7617,65.2465696969697,65.23887678719466,65.22202117940283,65.12456875700163,40.11430803019303,40.016855607791825,40
32.2266,66.54016969696971,66.53420066165516,66.55250932526015,66.44674377538571,40.08745688626945,39.981691336395016,40
33.6914,67.6648696969697,67.65746596025389,67.6491856233892,67.55181750421082,40.10564845604307,40.008280336864686,40
35.1562,69.25066969696971,69.24462209882482,69.23314591224378,69.14026460801692,40.1043574908079,40.011476186581035,40
36.6211,70.6994696969697,70.6881135487797,70.57658324708503,70.54414069293453,40.14397285584516,40.11153030169467,40
38.0859,71.78186969696971,71.77156503098418,71.66433156920405,71.63790998464334,40.133655046340834,40.107233461780126,40
39.5508,72.73486969696971,72.72652240505555,72.62312916907358,72.60970746526401,40.11681493979154,40.10339323598197,40
41.0156,73.4301696969697,73.42188444398846,73.37477605798642,73.32983420760156,40.092050236386896,40.04710838600204,40
42.4805,74.0065696969697,73.9967836655999,73.93026584715176,73.88551030641739,40.11127335918252,40.06651781844815,40
43.9453,75.26106969696971,75.25209524081849,75.18224714724624,75.14544538647303,40.10664985434546,40.06984809357225,40
45.4102,75.9367696969697,75.91863125289241,75.65046982416358,75.71543723995337,40.203194012939036,40.26816142872883,40
46.875,76.64956969696972,76.63154837772613,76.33600759338914,76.41755718721082,40.213991190515316,40.29554078433699,40
48.3398,77.27416969696971,77.25918957430714,77.03216368264215,77.0791447664429,40.18004480786425,40.227025891664994,40
51.2695,78.3870696969697,78.37266035207765,78.18396865198734,78.21581242460913,40.15684792746852,40.1886917000903,40
52.7344,78.88166969696971,78.86853898280921,78.73318036324571,78.73557035222943,40.13296863057978,40.135358619563505,40
54.1992,79.4939696969697,79.47625016236016,79.23202910867597,79.29169784868277,40.184552313677386,40.244221053684186,40
55.6641,80.09236969696971,80.07225597642973,79.77373861803538,79.86387470862162,40.20838126780811,40.29851735839435,40
58.5938,80.9468696969697,80.92756997454224,80.65161146730036,80.73068635888625,40.19688361565599,40.27595850724188,40
60.0586,81.4174696969697,81.3972027515839,81.10659670406913,81.19286794909168,40.20433480249223,40.29060604751477,40
62.9883,82.3194696969697,82.29678788580524,81.96901555970132,82.074869085924,40.22191879988124,40.327772326103926,40
64.4531,82.73446969696971,82.71112391475704,82.37899632126891,82.48821097121926,40.22291294353778,40.332127593488124,40
67.3828,83.51946969696971,83.49403282649327,83.08183284309368,83.23841781068253,40.25561501581073,40.41219998339959,40
68.8477,83.7698696969697,83.74610414567776,83.36027751565693,83.50416627913332,40.24193786654445,40.38582663002083,40
71.7773,84.19156969696971,84.16771404022386,83.80686553747599,83.9377667084282,40.22994733179566,40.36084850274787,40
74.707,84.56916969696971,84.54335267170599,84.15599247887374,84.30034771471973,40.243004956986255,40.38736019283225,40
77.6367,84.7972696969697,84.77012746459091,84.36480912268132,84.51902306902983,40.251104395561086,40.40531834190959,40
79.1016,84.83126969696971,84.80436661746025,84.40178012096023,84.55579101644042,40.24857560101982,40.40258649650002,40
82.0312,84.81286969696971,84.78609868891604,84.4013403865054,84.54635389910429,40.23974478981175,40.384758302410646,40
84.9609,84.87706969696971,84.84875004002214,84.45914298932345,84.60463406041315,40.24411597960899,40.389607050698686,40
87.8906,84.91346969696971,84.88219941869706,84.48755248467451,84.63383020680996,40.248369211887095,40.394646934022546,40
90.8203,84.97366969696971,84.94033033675387,84.52743247827085,84.68363176156096,40.256698575192914,40.41289785848302,40
95.2148,84.9447696969697,84.90762470367521,84.42334937822137,84.61792437807142,40.28970032560379,40.48427532545384,40
98.1445,84.83466969696971,84.79585455448627,84.2991234790462,84.49844029209869,40.297414262387576,40.49673107544007,40
101.074,84.7195696969697,84.67669658680738,84.1076821903933,84.3434305550922,40.33326603171518,40.569014396414076,40
105.469,84.57326969696969,84.52949271908078,83.91903638787706,84.177047180619,40.35244553846178,40.61045633120372,40
108.398,84.47146969696972,84.42685504729022,83.81532942755408,84.07410607644972,40.352748970840494,40.61152561973614,40
112.793,84.25926969696972,84.21294597786857,83.61788330329617,83.86499325063868,40.347952727229895,40.595062674572404,40
117.188,83.95766969696969,83.90418110035911,83.22490002621298,83.50898673805285,40.395194362306256,40.67928107414613,40
120.117,84.02436969696969,83.96548274037104,83.16376612604537,83.51195826139943,40.453524478971616,40.80171661432567,40
124.512,83.9321696969697,83.87888392958497,83.18926479902645,83.4818716717387,40.39701225784627,40.689619130558526,40
128.906,83.69466969696971,83.63682292390226,82.94755593342221,83.23503951289028,40.40178341101198,40.68926699048005,40
133.301,83.58416969696971,83.519686658704,82.66940573784973,83.04530724972138,40.47437940898263,40.850280920854274,40
139.16,83.2936696969697,83.23664643882029,82.37367911821838,82.76997638447058,40.466670054349706,40.86296732060191,40
143.555,82.9363696969697,82.87242937756724,82.03608790663002,82.40616509335148,40.46626428421577,40.83634147093723,40
147.949,83.14316969696971,83.06791974833966,82.05579786488538,82.50998112942118,40.557938618918485,41.012121883454284,40
153.809,83.12696969696971,83.06183571438257,82.13586310690035,82.56096952064023,40.50086619374234,40.92597260748222,40
159.668,82.5886696969697,82.52540532287385,81.56603376778182,82.01844881903914,40.506956503834715,40.959371555092034,40
165.527,82.35916969696972,82.2727507451859,81.28131970080578,81.72365195191985,40.549098793266054,40.99143104438012,40
171.387,82.57556969696971,82.47159784894977,81.01943179281366,81.69986203377292,40.771735815176854,41.45216605613611,40
177.246,82.6160696969697,82.53891690515233,81.39550273757247,81.93261957984335,40.60629732530899,41.14341416757986,40
183.105,82.6486696969697,82.56708771716855,81.38599432206918,81.92990023820336,40.63718747896519,41.18109339509937,40
188.965,82.7277696969697,82.63742372317688,81.42496760180127,81.97648452351545,40.66093919966143,41.21245612137561,40
196.289,83.0639696969697,82.96697943720183,81.61325352510563,82.24929588716563,40.7176835500362,41.353725912096195,40
203.613,83.03986969696969,82.92997492282825,81.4867075607007,82.16253874956324,40.76743617326501,41.44326736212756,40
210.938,83.75496969696971,83.64504056086257,81.87948059080847,82.7620493071217,40.88299125374087,41.7655599700541,40
218.262,84.30016969696969,84.20889768837044,82.49102712016382,83.36811503300761,40.84078265536283,41.71787056820662,40
225.586,84.4346696969697,84.3422250333645,82.93385353564192,83.61898547319741,40.72323956016709,41.408371497722584,40
232.91,84.47596969696973,84.35856528261014,82.70844529671116,83.51123661590951,40.84732866670063,41.65011998589898,40
241.699,85.05676969696971,84.92699850485047,82.95673093422104,83.95952390564611,40.967474599204365,41.97026757062943,40
250.488,84.7067696969697,84.58284576652815,82.58709062222238,83.62100712711377,40.96183863941438,41.995755144305775,40
259.277,84.9547696969697,84.82948584021443,82.6275548831666,83.79912710336251,41.03035873685192,42.201930957047836,40
268.066,85.2560696969697,85.16753976859748,83.18528367108455,84.26714304691141,40.900396721686064,41.98225609751293,40
276.855,84.1859696969697,84.06304555504546,82.35888735031213,83.21888615059585,40.84415940444961,41.70415820473333,40
287.109,84.31876969696971,84.19701564917915,82.05791462570868,83.19539943498181,41.00161621419734,42.139101023470474,40
297.363,84.46736969696971,84.36847315875954,82.0047872640826,83.30456180339837,41.06391135536117,42.36368589467695,40
307.617,84.22636969696971,84.12719740601021,82.22905132105278,83.24397115303402,40.883226252976186,41.89814608495743,40
319.336,83.6596696969697,83.55050409206514,81.43634611709084,82.57941212961215,40.97109196245299,42.114157974974304,40
329.59,83.7486696969697,83.61690330072477,81.5719894902538,82.63405307938787,40.9828502213369,42.04491381047097,40
341.309,83.6828696969697,83.56790221362047,81.21444071619167,82.4917111612023,41.07619105241817,42.353461497428796,40
353.027,83.73096969696972,83.60188500065064,81.1827372352329,82.47654717453764,41.125337826113,42.41914776541773,40
366.211,83.9710696969697,83.91713339639749,81.63659777947318,82.9486345533991,40.968498842998386,42.28053561692431,40
379.395,83.4704696969697,83.36485347859323,81.0473272311089,82.2930252608346,41.071828217758636,42.31752624748434,40
392.578,83.63246969696972,83.5261423302039,81.24157375383498,82.43825305354589,41.087889276658004,42.28456857636891,40
405.762,83.55456969696972,83.44054257807797,81.0212022263561,82.30985149461945,41.130691083458515,42.41934035172187,40
420.41,83.60726969696971,83.4709375217616,80.88579244113573,82.31671521579713,41.15422230596447,42.585145080625864,40
435.059,83.47626969696971,83.33858742841356,80.99929921169365,82.18914039108505,41.149447037328514,42.33928821671991,40
451.172,83.4186696969697,83.32427660287696,80.98885867569489,82.26188085806629,41.06239574481067,42.33541792718208,40
465.82,83.33066969696971,83.19731818301969,80.83834413370315,82.0920725209537,41.10524566206598,42.358974049316544,40
483.398,83.5459696969697,83.32119906636679,80.9342221736657,82.09065000739783,41.23054905896896,42.386976892701085,40
499.512,83.26446969696973,83.06512578771377,80.63799039897553,81.76390279932377,41.301222988389995,42.427135388738236,40
517.09,84.1567696969697,83.87171922938298,80.5648031401713,82.14516932480483,41.72654990457815,43.30691608921167,40
536.133,84.02206969696971,83.81967058024962,80.9502688522439,82.34745583199309,41.47221474825653,42.86940172800573,40
555.176,84.3387696969697,84.0334051699474,81.07217197654292,82.53423995946652,41.49916521048088,42.96123319340448,40
574.219,84.4640696969697,84.17462476120535,80.87969017894125,82.48668604543958,41.68793871576577,43.294934582264105,40
594.727,85.20956969696971,84.82500500741281,81.17669141849764,83.03571766712851,41.789287340284304,43.64831358891517,40
615.234,85.16506969696971,84.7066850771897,81.00024387923419,82.78782293939418,41.91886213779553,43.70644119795551,40
637.207,85.0061696969697,84.67391366880094,80.21714705952469,82.32930671853869,42.344606950262246,44.456766609276244,40
659.18,84.45366969696971,84.09838806266252,80.34682619707746,82.22673631272859,41.87165174993393,43.75156186558506,40
682.617,85.4135696969697,85.04208011898653,80.73701371981323,82.74184927464073,42.300230844345805,44.3050663991733,40
707.52,85.4691696969697,85.11042672930196,80.72148519642425,83.0707168684305,42.03970986087147,44.38894153287771,40
732.422,83.96856969696971,83.91688563833753,80.29606663026158,82.15895917036467,41.757926467972865,43.620819008075955,40
757.324,82.51276969696973,82.53407075644215,79.58058682424335,81.00014809355856,41.53392266288358,42.95348393219879,40
785.156,83.14326969696971,82.94850170278224,79.11486249979238,80.9587964273535,41.98970527542873,43.83363920298986,40
811.523,83.3477696969697,82.9144813313267,79.3004888294702,80.90792696841551,42.00655436291119,43.6139925018565,40
840.82,84.05936969696971,83.61192807047827,79.33424763013382,81.47988058779818,42.13204748268009,44.277680440344454,40
870.117,83.5750696969697,83.36170153397404,79.14794276825664,81.62913555337279,41.73256598060125,44.2137587657174,40
900.879,83.1996696969697,83.03068364717286,79.30341513778545,81.5014714972282,41.52921214994467,43.727268509387414,40
933.105,82.93776969696971,82.77461019272069,79.09845465004723,81.56269690587449,41.2119132868462,43.676155542673456,40
965.332,82.92966969696971,82.6105925114206,78.92440783969,81.40559259083916,41.20499992058144,43.6861846717306,40
1000.49,82.8948696969697,82.4403532717511,78.99363178240766,81.39387739428778,41.04647587746332,43.446721489343446,40
1035.64,83.18486969696971,82.77325573695389,78.73823367198575,81.41357715933908,41.3596785776148,44.03502206496813,40
1072.27,83.15436969696971,82.94904095827586,79.05173003132549,81.43151423349626,41.5175267247796,43.89731092695037,40
1108.89,84.4379696969697,83.7627747925642,79.22563262567427,81.86513422528273,41.89764056728147,44.537142166889936,40
1148.44,83.5029696969697,83.18941907394013,79.06070610874843,81.68852708844449,41.50089198549564,44.128712965191696,40
1189.45,83.3870696969697,82.98307449269267,78.70022891469655,81.71409677542002,41.26897771727265,44.28284557799611,40
1230.47,82.47376969696971,82.27290276629573,78.54273688223428,81.62708454527967,40.64581822101606,43.73016588406145,40
1274.41,82.6583696969697,82.3348509406909,78.22266190685482,81.2635039102544,41.0713470304365,44.112189033836074,40
1319.82,82.89626969696971,82.40893481046082,78.16741477788776,81.00584319411973,41.40309161634109,44.241520032573064,40
1366.7,82.8245696969697,82.63627490763615,78.10779945770335,81.04379105313285,41.5924838545033,44.5284754499328,40
1413.57,83.30376969696971,83.00877872440604,78.29163011143152,80.86755022551571,42.14122849889033,44.717148612974526,40
1463.38,83.4695696969697,82.84204602943744,78.03598618884682,80.80100695919823,42.04103907023921,44.80605984059062,40
1516.11,83.0506696969697,82.61045571432912,77.76026983644267,80.63139007468341,41.97906563964571,44.850185877886446,40
1568.85,83.0249696969697,82.64135647078821,77.5034621197657,80.37964010168098,42.26171636910723,45.13789435102251,40
1624.51,84.06666969696971,83.30251053186277,77.71537284240416,80.61417516934223,42.68833536252053,45.5871376894586,40
1681.64,84.3266696969697,83.61015331016901,77.69430066885158,80.73783339608936,42.872319914079654,45.91585264131743,40
1741.7,84.0603696969697,83.40215197518985,77.60664690120178,80.42809615353123,42.974055821658624,45.79550507398807,40
1803.22,83.31476969696969,82.93102970031889,77.24564726591224,80.05833265835345,42.87269704196544,45.68538243440665,40
1866.21,83.6422696969697,83.16536361500482,77.3075137416027,80.19015610309553,42.97520751190929,45.85784987340212,40
1932.13,83.4983696969697,83.31070316576465,77.44291821258467,80.29752024211449,43.01318292365016,45.86778495317998,40
1999.51,82.91406969696969,82.76562551544964,77.1684692234399,79.83631711765457,42.92930839779507,45.59715629200974,40
2069.82,82.84276969696971,82.7904473778783,77.31852555901428,80.06311374564149,42.72733363223681,45.47192181886402,40
2143.07,83.82226969696971,83.5026459084601,77.55756026760169,80.36074419868221,43.14190170977788,45.94508564085841,40
2219.24,83.8032696969697,83.48087851515955,77.77212785323535,80.59524461955657,42.88563389560298,45.7087506619242,40
2296.88,83.21736969696971,83.0398144794623,77.68759565258067,80.3642761293746,42.67553835008769,45.352218826881625,40
2378.91,83.0955696969697,83.24278418232343,77.8701308182335,80.32375031260443,42.919033869719,45.37265336408993,40
2462.4,83.0424696969697,83.51885575531179,78.06092497587224,80.63908126422905,42.87977449108274,45.45793077943955,40
2548.83,82.4871696969697,82.91392877417455,77.64457065525139,80.31913423047911,42.59479454369544,45.269358118923165,40
2639.65,82.45486969696971,82.87119958072888,77.39568965910946,80.14955842140333,42.72164115932556,45.47550992161942,40
2731.93,82.56026969696971,82.8742957505706,77.30779564870407,80.12221180684841,42.752083943722184,45.566500101866524,40
2828.61,82.6033696969697,82.86822700951618,77.10589069939017,80.00743378594511,42.860793223571065,45.762336310126,40
2928.22,82.0941696969697,82.23578914184787,76.85337232645324,79.65529778405086,42.580491357797015,45.382416815394635,40
3030.76,82.0082696969697,82.54532947548283,77.05090367041426,79.74378961934428,42.80153985613855,45.49442580506857,40
3137.7,81.44206969696971,82.36089025796383,77.20202191249795,79.77053883391116,42.59035142405267,45.158868345465876,40
3249.02,81.97246969696971,82.60396977649926,77.05192564204602,79.84842627102901,42.75554350547024,45.55204413445324,40
3363.28,82.92276969696971,82.87200307799907,77.22616194352265,80.21891667608229,42.65308640191678,45.64584113447641,40
3481.93,83.6313696969697,83.0570818840253,77.14953804808901,80.3379927838931,42.719089100132194,45.90754383593628,40
3604.98,83.7462696969697,83.23110445362674,77.11763598084714,80.38586094666542,42.845243506961324,46.1134684727796,40
3732.42,84.04766969696969,83.2204431348904,77.22044022018089,80.39186036685705,42.82858276803336,46.00000291470951,40
3864.26,84.2150696969697,83.43016518496242,77.31091640516041,80.44336769620247,42.98679748875995,46.11924877980201,40
4000.49,84.2997696969697,83.17046439940839,76.98458890900818,80.31727329058427,42.85319110882412,46.18587549040021,40
4141.11,84.38936969696971,83.41202602255119,76.82626024184576,80.32069241510733,43.09133360744386,46.58576578070543,40
4287.6,83.96086969696971,82.91769071564758,76.51474354514171,80.0387804296453,42.87891028600228,46.40294717050587,40
4438.48,84.14116969696971,82.88887665220581,76.26065431697128,79.81152704814308,43.07734960406273,46.628222335234526,40
4595.21,83.74676969696971,82.539812280683,76.09063909393336,79.68718681859788,42.852625462085115,46.44917318674963,40
4756.35,83.8040696969697,82.71898509095558,76.38594172619689,79.99139151300656,42.72759357794902,46.333043364758694,40
4924.8,84.38006969696971,83.014870254251,76.39855787729552,80.21426189644589,42.8006083578051,46.61631237695548,40
5097.66,84.1173696969697,82.98902874205044,76.54495812646876,80.25648988525312,42.73253885679732,46.44407061558168,40
5277.83,84.00046969696972,83.00210458862337,76.69726022583497,80.3114790130041,42.690625575619265,46.3048443627884,40
5463.87,84.2676696969697,83.04479397134034,76.8794089734066,80.58632115988961,42.45847281145073,46.16538499793374,40
5657.23,83.53126969696972,82.46665976781794,76.68165455656977,80.3321610812271,42.134498686590845,45.785005211248176,40
5856.45,82.7723696969697,82.1008811475915,76.57855678427198,80.0421344642132,42.05874668337829,45.52232436331951,40
6062.99,81.31836969696971,81.3887486835074,76.24196103037401,79.58819147622458,41.80055720728282,45.14678765313339,40
6276.86,80.84666969696971,80.87792699178887,76.10874723773232,79.28089741616641,41.59702957562246,44.76917975405655,40
6498.05,81.0633696969697,80.8228338971043,75.96422376585569,79.04522219917924,41.77761169792507,44.85861013124861,40
6726.56,80.8441696969697,80.7771459332999,75.82694557842701,78.77953489743734,41.99761103586256,44.95020035487289,40
6963.87,80.8774696969697,80.93329729509416,75.71001568440616,78.72566826304949,42.20762903204468,45.223281610688005,40
7209.96,81.0834696969697,81.37067624504503,75.72388398154766,78.8712626519736,42.49941359307144,45.646792263497375,40
7464.84,81.25746969696971,81.64215006029461,75.76927368424614,79.09215805143484,42.549992008859775,45.87287637604847,40
7727.05,81.77806969696972,82.20343773879122,75.53297435654258,79.15767819996802,43.045759538823205,46.67046338224864,40
7999.51,82.89526969696969,82.73894510384078,75.25994988963029,79.18625020921696,43.55269489462381,47.478995214210485,40
