Freq "Rear Wall Bounce"
20.5078 44.14936420591404
21.9727 47.152542973228904
23.4375 50.63069302373715
24.9023 54.09391190053067
26.3672 58.53324093145402
27.832 62.20150817164226
29.2969 65.57415842700401
30.7617 68.58429003920408
32.2266 71.15937676659657
33.6914 73.65351142644413
35.1562 75.96618717292752
36.6211 77.66708584460096
38.0859 79.02874579781226
39.5508 80.58540758946995
41.0156 81.73190184348455
42.4805 82.98515600943607
43.9453 83.93947573596948
45.4102 84.9241228203176
46.875 85.95044791710153
48.3398 86.98271438446238
51.2695 88.03692980313063
52.7344 88.56183836799151
54.1992 88.89698205108678
55.6641 89.54660900057276
58.5938 90.32373979074674
60.0586 90.40348828646835
62.9883 90.17938989581621
64.4531 90.08231829217875
67.3828 89.81956701631763
68.8477 89.64481663712226
71.7773 89.39395391317917
74.707 89.1732672616209
77.6367 88.99314058874243
79.1016 88.94209207375023
82.0312 88.8864723641553
84.9609 88.88724069033795
87.8906 88.73656095367508
90.8203 88.6636782696969
95.2148 88.71077049961477
98.1445 88.69353442982718
101.074 88.55618607203742
105.469 88.4654688463104
108.398 88.49001495254234
112.793 88.44834447911789
117.188 88.29370892693828
120.117 88.26049766824202
124.512 88.24317364601039
128.906 88.1471448201172
133.301 88.02095296213402
139.16 87.8552376205109
143.555 87.72024937810784
147.949 87.46571540344547
153.809 87.11851481062914
159.668 87.07436715544416
165.527 87.07323418968127
171.387 86.86331085859877
177.246 86.55646609343044
183.105 86.34882645481196
188.965 85.98544060340926
196.289 85.94498508992952
203.613 85.63422561070004
210.938 85.37431081419604
218.262 85.36541998805745
225.586 85.09810863455377
232.91 84.83032928997346
241.699 84.52888129586837
250.488 84.35210682930324
259.277 84.63581165665968
268.066 84.34288972614887
276.855 84.20776273604038
287.109 84.04460869897122
297.363 83.9320307981333
307.617 83.78825323321962
319.336 82.73046112772874
329.59 83.0256287524883
341.309 83.42690845395991
353.027 82.74279712203982
366.211 82.09230779814077
379.395 82.84203214338416
392.578 82.74520470331917
405.762 81.60064009354495
420.41 81.74793627178082
435.059 81.88237179841371
451.172 82.5276716248629
465.82 81.83533008364819
483.398 81.36202650197275
499.512 80.62355207651468
517.09 80.89077897257766
536.133 79.72451775442082
555.176 79.55507583327181
574.219 82.33082511313982
594.727 84.2924778711181
615.234 82.73295642401094
637.207 83.4333344700943
659.18 81.15019920660244
682.617 82.05465207681551
707.52 80.96266846744497
732.422 80.3154894768595
757.324 79.95120530164603
785.156 78.87273713987439
811.523 78.77658563369735
840.82 77.97481064830826
870.117 76.85313660156866
900.879 78.43199019609179
933.105 79.08739241966866
965.332 78.06620494668404
1000.49 79.25580252622917
1035.64 78.1386434305118
1072.27 75.18659331563238
1108.89 75.55278456566253
1148.44 74.63126237435047
1189.45 74.75912965989538
1230.47 73.49306567258841
1274.41 73.41569567544228
1319.82 73.53686594937393
1366.7 72.01427352761455
1413.57 71.8463499977049
1463.38 71.84166264451802
1516.11 70.75209404710198
1568.85 70.95632309156808
1624.51 69.91473049610677
1681.64 70.47830507856794
1741.7 71.46346560193795
1803.22 71.19874116569322
1866.21 70.36521221272878
1932.13 69.68071814079731
1999.51 69.70314110431512
2069.82 70.59791723892806
2143.07 69.95905551660393
2219.24 68.99906865897974
2296.88 69.19455961913029
2378.91 69.69306708545737
2462.4 69.92776433096684
2548.83 70.02306568168272
2639.65 69.83651245048272
2731.93 69.71875374954476
2828.61 69.6658465874406
2928.22 68.9362609086211
3030.76 68.49357770348776
3137.7 69.20296110965218
3249.02 69.93880678340678
3363.28 69.71916942711313
3481.93 70.17805468022321
3604.98 69.84673857608495
3732.42 69.77588230725726
3864.26 69.87764398225512
4000.49 69.71000081200407
4141.11 70.22496043613413
4287.6 69.5668136666756
4438.48 69.14385084960861
4595.21 69.45667216222905
4756.35 68.7147032389757
4924.8 68.78250393873378
5097.66 68.12142775685926
5277.83 68.32322531682983
5463.87 67.59217697230171
5657.23 68.67358010042344
5856.45 69.16352446383728
6062.99 68.32491009546762
6276.86 68.76053243667523
6498.05 68.2397028602982
6726.56 67.97586742361206
6963.87 67.91799509088574
7209.96 67.83890324978691
7464.84 67.19201667022772
7727.05 66.16566390745291
7999.51 64.62785197833163
8282.23 63.2185781862613
8573.73 62.53358439389304
8876.95 61.63752942100372
9188.96 60.527564824423976
9514.16 60.286739915735794
9849.61 59.52192554992986
10196.8 59.16796812969362
10555.7 58.47538342185071
10927.7 57.10098611449068
11313.0 55.6292991117778
11712.9 54.866564921679256
12126.0 54.65932755032891
12553.7 54.78536445915928
12996.1 54.16751924463763
13454.6 53.82065353907966
13929.2 52.82411194719491
14419.9 55.20371344070968
14928.2 56.165340333633154
15455.6 53.09197487869595
16000.5 54.41224698288413
16564.5 56.26899223733871
17148.9 57.70144142437313
17752.4 56.34219439539437
18379.4 54.855240840855615
19026.9 53.53538308812391
19697.8 52.31783502114597
19999.5 52.518474946840016
