Freq "Ceiling Bounce"
22.4 48.80566989659725
23.0 49.605669896597234
23.6 51.238742177999896
24.0 52.90642552159862
25.0 54.04025929750448
25.8 54.8064255215986
26.5 55.706425521598604
27.2 56.77232609222931
28.0 57.938742177999885
29.0 59.3723260922293
30.0 60.84025929750449
30.7 62.3064255215986
31.5 63.506425521598615
32.5 64.47232609222932
33.5 65.20642552159863
34.5 66.10642552159862
35.5 67.20642552159862
36.5 68.1410442545868
37.5 68.97310527532412
38.7 69.7410442545868
40.0 70.4410442545868
41.2 71.1410442545868
42.5 71.74104425458681
43.7 72.27618598243171
45.0 72.6761859824317
46.2 72.8410442545868
47.5 72.54104425458681
48.7 71.9784163629992
50.0 71.72017435686733
51.5 72.4655618763802
53.0 73.73694913485355
54.5 75.13694913485354
56.0 76.22780325027902
58.0 76.89058421556646
60.0 77.12017435686734
61.5 77.0869598323398
63.0 77.22017435686733
65.0 77.28695983233979
67.0 77.28695983233979
69.0 77.45714173857182
71.0 77.6946472428448
73.0 77.9655618763802
75.0 78.50386314414116
77.5 79.27550245654457
80.0 80.17550245654456
82.5 81.16556187638021
85.0 82.0946472428448
87.5 82.69464724284478
90.0 82.9571417385718
92.5 83.29464724284479
95.0 83.53269397473633
97.5 84.10386314414116
100.0 85.00386314414115
103.0 85.80386314414116
106.0 86.36556187638021
109.0 86.67550245654456
112.0 87.07550245654456
115.0 87.40386314414117
118.0 87.44270998473003
122.0 87.3869582750527
125.0 87.62686015509432
128.0 88.12686015509432
132.0 88.29992335918195
136.0 88.09992335918194
140.0 88.04062918694768
145.0 88.29992335918195
150.0 88.12686015509432
155.0 87.7869582750527
160.0 87.32686015509431
165.0 86.99992335918195
170.0 86.5143909808658
175.0 86.33035367164229
180.0 86.47267241715328
185.0 86.61439098086582
190.0 86.24062918694769
195.0 85.81439098086581
200.0 85.4303536716423
206.0 85.2052402721404
212.0 85.87267241715327
218.0 86.33035367164229
224.0 86.61439098086582
230.0 86.81439098086581
236.0 87.18189193216065
240.0 87.44062918694769
250.0 86.79992335918195
258.0 86.44062918694767
265.0 86.14739716780448
272.0 85.91439098086582
280.0 85.68859596364793
290.0 85.48859596364792
300.0 85.28859596364795
307.0 84.91439098086582
315.0 84.2559025811928
325.0 83.47267241715328
335.0 82.8303536716423
345.0 82.47267241715328
355.0 83.31555418815141
365.0 83.6788822195706
375.0 83.32306954156806
387.0 82.91507934363277
400.0 82.1610950275381
412.0 82.2603662578689
425.0 82.2046954204049
437.0 82.2220292992937
450.0 82.18042574174389
462.0 82.51962856134789
475.0 83.5708556101095
487.0 84.64605319410127
500.0 84.77435556393573
515.0 84.61493243969345
530.0 84.04230380604285
545.0 83.8907246256879
560.0 83.83269686004901
580.0 84.08247127774136
600.0 84.02028118311273
615.0 83.75952334105452
630.0 82.92044221500758
650.0 82.33943949291816
670.0 81.5570070271923
690.0 81.0259296712873
710.0 80.64792076061602
730.0 79.25295850365899
750.0 78.70489196686145
775.0 79.69016229646836
800.0 79.8633517143174
825.0 80.32290523218741
850.0 80.47007388302804
875.0 80.4089808036591
900.0 80.35192411267035
925.0 80.3639992071112
950.0 79.47308019084403
975.0 77.60023838503983
1000.0 76.16118222220695
1030.0 75.6260323805558
1060.0 79.50197587637844
1090.0 81.4504410961591
1120.0 83.20036945390866
1150.0 82.50241148857516
1180.0 81.06334394212362
1220.0 79.88043420508593
1250.0 77.65908009633084
1280.0 76.96559905780995
1320.0 75.91788883516612
1360.0 76.37977466422412
1400.0 75.59636734887418
1450.0 76.97824999221034
1500.0 72.2042128413476
1550.0 73.4141174069324
1600.0 73.87262544870626
1650.0 74.62953632648747
1700.0 75.1353966702073
1750.0 77.15551271594364
1800.0 78.02664152652932
1850.0 79.05486098361246
1900.0 79.4405567009278
1950.0 79.43581904879473
2000.0 79.77546633214932
2060.0 80.06143288227248
2120.0 79.86795056280812
2180.0 78.97711437313376
2240.0 78.01122448643457
2300.0 76.75475624292483
2360.0 76.21067087772587
2400.0 76.97361415063705
2500.0 77.56788425739573
2580.0 77.61167301072959
2650.0 78.17435556393575
2720.0 78.85024646670047
2800.0 77.81030705219482
2900.0 76.53044026361232
3000.0 76.20670851890678
3070.0 74.47435556393573
3150.0 70.46621152686592
3250.0 68.91742270433525
3350.0 71.03264282817297
3450.0 75.2424228206349
3550.0 75.89356600255181
3650.0 75.92679651959041
3750.0 77.12922600852288
3870.0 74.49662188067137
4000.0 74.15353671317983
4120.0 71.83110255241553
4250.0 74.31850722888122
4370.0 72.43972615673742
4500.0 71.65044109615908
4620.0 71.88091447714619
4750.0 72.398709745154
4870.0 73.4530947517218
5000.0 73.45947543709853
5150.0 74.33992115585794
5300.0 76.50759898874627
5450.0 73.67622247651556
5600.0 71.42781601281015
5800.0 69.44955941728432
6000.0 71.94665158629847
6150.0 74.94034745737041
6300.0 74.80608154133549
6500.0 75.18154286777533
6700.0 74.47581422658818
6900.0 72.61343552103584
7100.0 70.34028467354021
7300.0 68.423713840034
7500.0 70.76312764422562
7750.0 74.61131990198314
8000.0 76.01205444875792
8250.0 76.3776528177177
8500.0 73.39562335065276
8750.0 72.93694913485355
9000.0 75.24583303523445
9250.0 80.26767557193305
9500.0 81.74798503543578
9750.0 77.9899371223875
10000.0 75.13838477526437
10300.0 73.26100528612801
10600.0 73.81166647875233
10900.0 75.16350833749645
11200.0 76.14571163453675
11500.0 73.21093898060103
11800.0 75.31144900369223
12200.0 73.56457247791363
12500.0 71.98878084272535
12800.0 72.01642274372121
13200.0 68.44060818893199
13600.0 64.74914470951659
14000.0 66.44113845341151
14500.0 68.96758957599353
15000.0 67.58407510591576
15500.0 65.27615919709486
16000.0 68.07888717328767
16500.0 70.85278335844652
17000.0 70.48492547644415
17500.0 72.99180611054355
18000.0 71.87083391438505
18500.0 74.3144153854717
19000.0 70.6499562993436
19500.0 70.61321788297128
