Freq "Floor Bounce"
22.4 41.67343560203476
23.0 42.203607373154156
23.6 43.95425408438071
24.0 45.79893982591612
25.0 46.83114632427517
25.8 47.33965152959156
26.5 48.32990256307481
27.2 50.01114532251317
28.0 51.84759543109264
29.0 54.01066613677024
30.0 56.190930051422086
30.7 58.35590258119281
31.5 60.09445463016034
32.5 61.54270998473005
33.5 62.765561876380204
34.5 64.0946472428448
35.5 65.55714173857181
36.5 66.95024646670048
37.5 68.14487969389889
38.7 69.24487969389888
40.0 70.20948269141365
41.2 71.1410442545868
42.5 72.03874217799991
43.7 72.8387421779999
45.0 73.40489653470479
46.2 73.7379746835443
47.5 73.7379746835443
48.7 73.37156451042426
50.0 73.30642552159861
51.5 74.10948269141366
53.0 75.44487969389887
54.5 76.8784163629992
56.0 78.04104425458682
58.0 78.60642552159862
60.0 78.8723260922293
61.5 78.90642552159862
63.0 79.17232609222931
65.0 79.37232609222932
67.0 79.5723260922293
69.0 79.8723260922293
71.0 80.3723260922293
73.0 80.87232609222932
75.0 81.60642552159861
77.5 82.47232609222932
80.0 83.30642552159861
82.5 84.23874217799991
85.0 85.0048965347048
87.5 85.5048965347048
90.0 85.87156451042426
92.5 86.3048965347048
95.0 86.87232609222932
97.5 87.67232609222931
100.0 88.60489653470479
103.0 89.37232609222932
106.0 89.8723260922293
109.0 90.2064255215986
112.0 90.77232609222932
115.0 91.17232609222933
118.0 91.3723260922293
122.0 91.67232609222931
125.0 92.17232609222933
128.0 92.67232609222931
132.0 92.7723260922293
136.0 92.67232609222931
140.0 92.67232609222931
145.0 92.67232609222931
150.0 92.37461044021614
155.0 92.07461044021615
160.0 91.84025929750449
165.0 91.64329275120899
170.0 91.60869200849838
175.0 91.60869200849838
180.0 91.47461044021615
185.0 91.243292751209
190.0 90.8784163629992
195.0 90.71246819384868
200.0 90.57841636299919
206.0 90.51246819384866
212.0 90.98374187792899
218.0 90.72454114665676
224.0 90.47054686400986
230.0 89.96666713722225
236.0 89.23831581294255
240.0 88.16323922283277
250.0 88.06556187638022
258.0 89.2784163629992
265.0 89.87841636299919
272.0 90.14784097026758
280.0 90.25390160581135
290.0 89.82454114665676
300.0 89.6614715342041
307.0 89.46147153420408
315.0 89.032831742376
325.0 88.82454114665677
335.0 88.6614715342041
345.0 88.54261970672965
355.0 89.1271309848407
365.0 90.3271309848407
375.0 90.46666713722226
387.0 89.85551271594362
400.0 88.93831581294255
412.0 88.36323922283277
425.0 88.06323922283278
437.0 87.86323922283277
450.0 87.58055742017443
462.0 87.24780323911185
475.0 86.96609702029266
487.0 87.04732130250817
500.0 88.3410442545868
515.0 89.34025929750449
530.0 89.77461044021614
545.0 90.17310527532412
560.0 90.70798956611905
580.0 91.2433986908709
600.0 91.78080498826402
615.0 91.95901634653177
630.0 91.64634402206202
650.0 91.53035883329575
670.0 91.71757589787889
690.0 91.63539667020729
710.0 91.25204307881431
730.0 90.93054479768037
750.0 90.93036030570532
775.0 91.2843816382995
800.0 91.16293917745482
825.0 90.78093107631332
850.0 90.3934909515004
875.0 89.7452017526
900.0 89.18349801522955
925.0 88.36036625786889
950.0 88.07906900560356
975.0 88.07249883747907
1000.0 88.12953632648747
1030.0 89.43187406017205
1060.0 90.98099571461972
1090.0 90.35124465437273
1120.0 89.61234926180869
1150.0 88.99245183685063
1180.0 88.38012969915577
1220.0 86.79704218675427
1250.0 86.04735297419485
1280.0 84.13793572561381
1320.0 81.8313980643535
1360.0 81.52801056953552
1400.0 82.05461052933472
1450.0 82.6814551385997
1500.0 82.68814543567
1550.0 81.84487969389887
1600.0 82.54667857992406
1650.0 81.91382831222366
1700.0 81.44608649649636
1750.0 82.4387889925736
1800.0 83.06723918758671
1850.0 82.36733279438538
1900.0 82.92373631145921
1950.0 83.22271434194165
2000.0 82.73600135947484
2060.0 83.82004288128039
2120.0 84.09066513461165
2180.0 84.32351610822347
2240.0 85.35364598366111
2300.0 85.55690433911965
2360.0 85.63815793259239
2400.0 85.91502907031658
2500.0 86.26077692015814
2580.0 86.80956457791027
2650.0 86.41786233650704
2720.0 85.29348684823412
2800.0 83.86004663453046
2900.0 83.13695864761858
3000.0 83.54297489958127
3070.0 82.84641908005109
3150.0 82.88324775238033
3250.0 82.95809818818121
3350.0 83.07007053668977
3450.0 82.61507934363279
3550.0 83.63602139103145
3650.0 83.90935558431427
3750.0 85.63351107707732
3870.0 85.90601026982823
4000.0 84.70635148130917
4120.0 84.54236344646418
4250.0 84.51966397974768
4370.0 82.86954727190292
4500.0 83.04798130659815
4620.0 82.97030839019338
4750.0 83.1880699906762
4870.0 83.04558611135779
5000.0 82.50495946120661
5150.0 83.26629305821947
5300.0 83.57890298028356
5450.0 80.98687913737237
5600.0 81.18154914196852
5800.0 82.58370191411282
6000.0 83.99483503022871
6150.0 84.7823985536858
6300.0 85.37570512252016
6500.0 85.97845895665684
6700.0 85.47994757448556
6900.0 85.01623595367306
7100.0 84.82371011235044
7300.0 83.47951667738461
7500.0 83.44798130659814
7750.0 85.72050445042075
8000.0 87.73174848628186
8250.0 87.92003308798515
8500.0 84.77706407056895
8750.0 83.4867990216092
9000.0 86.17360705881782
9250.0 89.95054358649415
9500.0 90.59802091360767
9750.0 87.44582787879769
10000.0 86.6568778234757
10300.0 86.17723341754562
10600.0 84.61382831222366
10900.0 88.0889293313605
11200.0 89.12328936173363
11500.0 86.32987181790189
11800.0 86.15818904355751
12200.0 86.0784454635942
12500.0 85.7513378039753
12800.0 82.352958503659
13200.0 80.84354039839452
13600.0 80.3807360614402
14000.0 81.77336912137729
14500.0 81.80581818303882
15000.0 83.73624399420919
15500.0 80.28309789311203
16000.0 82.99376415757744
16500.0 86.18374001427145
17000.0 88.32727114910074
17500.0 88.74473530620487
18000.0 86.44863566097757
18500.0 85.13227485832242
19000.0 84.95894903679758
19500.0 86.6366347223068
