Freq "Floor Bounce"
22.4 40.33546091849047
23.0 40.86563268960987
23.6 42.61627940083642
24.0 44.46096514237183
25.0 45.49317164073088
25.8 46.001676846047275
26.5 46.99192787953052
27.2 48.673170638968884
28.0 50.509620747548354
29.0 52.67269145322595
30.0 54.8529553678778
30.7 57.01792789764852
31.5 58.756479946616054
32.5 60.204735301185764
33.5 61.427587192835915
34.5 62.75667255930051
35.5 64.21916705502753
36.5 65.61227178315619
37.5 66.8069050103546
38.7 67.90690501035459
40.0 68.87150800786937
41.2 69.80306957104251
42.5 70.70076749445562
43.7 71.50076749445562
45.0 72.0669218511605
46.2 72.4
47.5 72.4
48.7 72.03358982687998
50.0 71.96845083805432
51.5 72.77150800786937
53.0 74.10690501035458
54.5 75.54044167945491
56.0 76.70306957104253
58.0 77.26845083805433
60.0 77.53435140868501
61.5 77.56845083805433
63.0 77.83435140868502
65.0 78.03435140868503
67.0 78.23435140868501
69.0 78.53435140868501
71.0 79.03435140868501
73.0 79.53435140868503
75.0 80.26845083805432
77.5 81.13435140868503
80.0 81.96845083805432
82.5 82.90076749445562
85.0 83.66692185116051
87.5 84.16692185116051
90.0 84.53358982687998
92.5 84.9669218511605
95.0 85.53435140868503
97.5 86.33435140868502
100.0 87.2669218511605
103.0 88.03435140868503
106.0 88.53435140868501
109.0 88.86845083805431
112.0 89.43435140868503
115.0 89.83435140868504
118.0 90.03435140868501
122.0 90.33435140868502
125.0 90.83435140868504
128.0 91.33435140868502
132.0 91.43435140868502
136.0 91.33435140868502
140.0 91.33435140868502
145.0 91.33435140868502
150.0 91.03663575667186
155.0 90.73663575667186
160.0 90.5022846139602
165.0 90.3053180676647
170.0 90.27071732495409
175.0 90.27071732495409
180.0 90.13663575667186
185.0 89.90531806766471
190.0 89.54044167945491
195.0 89.37449351030439
200.0 89.2404416794549
206.0 89.17449351030437
212.0 89.6457671943847
218.0 89.38656646311247
224.0 89.13257218046557
230.0 88.62869245367796
236.0 87.90034112939826
240.0 86.82526453928848
250.0 86.72758719283593
258.0 87.9404416794549
265.0 88.5404416794549
272.0 88.80986628672329
280.0 88.91592692226706
290.0 88.48656646311247
300.0 88.32349685065981
307.0 88.12349685065979
315.0 87.69485705883172
325.0 87.48656646311248
335.0 87.32349685065981
345.0 87.20464502318536
355.0 87.78915630129642
365.0 88.9891563012964
375.0 89.12869245367797
387.0 88.51753803239933
400.0 87.60034112939826
412.0 87.02526453928849
425.0 86.72526453928849
437.0 86.52526453928849
450.0 86.24258273663014
462.0 85.90982855556756
475.0 85.62812233674838
487.0 85.70934661896388
500.0 87.00306957104252
515.0 88.0022846139602
530.0 88.43663575667185
545.0 88.83513059177983
560.0 89.37001488257476
580.0 89.90542400732662
600.0 90.44283030471973
615.0 90.62104166298748
630.0 90.30836933851774
650.0 90.19238414975146
670.0 90.3796012143346
690.0 90.297421986663
710.0 89.91406839527002
730.0 89.59257011413608
750.0 89.59238562216103
775.0 89.9464069547552
800.0 89.82496449391053
825.0 89.44295639276903
850.0 89.05551626795611
875.0 88.40722706905571
900.0 87.84552333168526
925.0 87.0223915743246
950.0 86.74109432205927
975.0 86.73452415393479
1000.0 86.79156164294318
1030.0 88.09389937662776
1060.0 89.64302103107543
1090.0 89.01326997082845
1120.0 88.2743745782644
1150.0 87.65447715330635
1180.0 87.04215501561148
1220.0 85.45906750320998
1250.0 84.70937829065056
1280.0 82.79996104206953
1320.0 80.4934233808092
1360.0 80.19003588599124
1400.0 80.71663584579044
1450.0 81.34348045505541
1500.0 81.3501707521257
1550.0 80.50690501035459
1600.0 81.20870389637977
1650.0 80.57585362867937
1700.0 80.10811181295207
1750.0 81.10081430902932
1800.0 81.72926450404242
1850.0 81.02935811084109
1900.0 81.58576162791492
1950.0 81.88473965839736
2000.0 81.39802667593055
2060.0 82.4820681977361
2120.0 82.75269045106737
2180.0 82.98554142467918
2240.0 84.01567130011682
2300.0 84.21892965557537
2360.0 84.3001832490481
2400.0 84.57705438677229
2500.0 84.92280223661385
2580.0 85.47158989436598
2650.0 85.07988765296275
2720.0 83.95551216468984
2800.0 82.52207195098617
2900.0 81.7989839640743
3000.0 82.20500021603698
3070.0 81.5084443965068
3150.0 81.54527306883604
3250.0 81.62012350463692
3350.0 81.73209585314548
3450.0 81.2771046600885
3550.0 82.29804670748716
3650.0 82.57138090076998
3750.0 84.29553639353303
3870.0 84.56803558628394
4000.0 83.36837679776488
4120.0 83.20438876291989
4250.0 83.18168929620339
4370.0 81.53157258835863
4500.0 81.71000662305386
4620.0 81.63233370664909
4750.0 81.85009530713191
4870.0 81.7076114278135
5000.0 81.16698477766232
5150.0 81.92831837467519
5300.0 82.24092829673927
5450.0 79.64890445382808
5600.0 79.84357445842423
5800.0 81.24572723056853
6000.0 82.65686034668443
6150.0 83.4444238701415
6300.0 84.03773043897587
6500.0 84.64048427311255
6700.0 84.14197289094128
6900.0 83.67826127012877
7100.0 83.48573542880615
7300.0 82.14154199384032
7500.0 82.11000662305385
7750.0 84.38252976687646
8000.0 86.39377380273757
8250.0 86.58205840444086
8500.0 83.43908938702467
8750.0 82.14882433806491
9000.0 84.83563237527353
9250.0 88.61256890294986
9500.0 89.26004623006338
9750.0 86.1078531952534
10000.0 85.31890313993141
10300.0 84.83925873400133
10600.0 83.27585362867937
10900.0 86.75095464781622
11200.0 87.78531467818934
11500.0 84.9918971343576
11800.0 84.82021436001322
12200.0 84.74047078004992
12500.0 84.41336312043101
12800.0 81.01498382011471
13200.0 79.50556571485023
13600.0 79.04276137789591
14000.0 80.435394437833
14500.0 80.46784349949453
15000.0 82.3982693106649
15500.0 78.94512320956774
16000.0 81.65578947403316
16500.0 84.84576533072716
17000.0 86.98929646555645
17500.0 87.40676062266058
18000.0 85.11066097743328
18500.0 83.79430017477813
19000.0 83.62097435325329
19500.0 85.2986600387625
