Freq "Rear Wall Bounce"
22.4 40.09962008895667
23.0 40.34565104537006
23.6 41.85931619659334
24.0 43.56867484885353
25.0 45.0056110023726
25.8 46.225137608074505
26.5 47.56977820693601
27.2 49.36850432308299
28.0 50.977412040512974
29.0 52.60092043657252
30.0 54.25484079422637
30.7 55.95165664513641
31.5 57.51917176205285
32.5 58.877020025382905
33.5 59.97445968434744
34.5 61.099816315340604
35.5 62.40641117593333
36.5 63.66789411849717
37.5 64.79617797401949
38.7 65.85235011627181
40.0 66.76933340749571
41.2 67.70279620041993
42.5 68.63722158419193
43.7 69.53804344305946
45.0 70.25438866079264
46.2 70.77135152255971
47.5 70.86451394618828
48.7 70.44911052306095
50.0 69.68133530739348
51.5 69.1394184616247
53.0 69.27873248004002
54.5 70.28048891956712
56.0 71.51764188107914
58.0 72.50696270708498
60.0 73.13242202585687
61.5 73.53729891244325
63.0 73.96632262818248
65.0 74.27007284088393
67.0 74.32496481368028
69.0 74.34815364321084
71.0 74.40655556714877
73.0 74.5482697331829
75.0 74.74814941373371
77.5 75.28256099825074
80.0 76.18067190150302
82.5 77.41213477632822
85.0 78.51844071054916
87.5 79.59978513125665
90.0 80.25997785880114
92.5 80.53427067503772
95.0 80.66769877695299
97.5 80.90751332679363
100.0 81.72060645338364
103.0 82.4910815882761
106.0 83.15824395646524
109.0 83.51934257057985
112.0 83.98853560408821
115.0 84.5022744942109
118.0 84.68314650051136
122.0 84.45565351199056
125.0 84.51469998006762
128.0 84.89101863390574
132.0 84.96461520933929
136.0 84.5387118276796
140.0 84.32480276437578
145.0 84.6136062878094
150.0 84.53557531222393
155.0 84.26725882326735
160.0 83.91877493898694
165.0 83.42985554919494
170.0 82.79272877828788
175.0 82.27222546853999
180.0 82.01843802477096
185.0 82.06620814285884
190.0 81.89344478171432
195.0 81.50965272099273
200.0 80.85465126414819
206.0 80.41884588673304
212.0 81.00205219874337
218.0 81.10316184773049
224.0 81.18707874926125
230.0 81.01490231350246
236.0 80.9569503246743
240.0 80.98352047965844
250.0 80.26598741571135
258.0 79.67066645238009
265.0 79.68549923096536
272.0 79.5694838100577
280.0 79.12394083233433
290.0 78.42260896312544
300.0 77.97835537947445
307.0 77.80361741563857
315.0 77.50527367949715
325.0 76.73015464254117
335.0 76.17143079689203
345.0 75.94143321997068
355.0 76.5004816235776
365.0 77.20541862045822
375.0 77.40481998010705
387.0 77.04259709213045
400.0 75.91579547230468
412.0 75.25176232273284
425.0 75.06582622340224
437.0 74.8114493763905
450.0 74.09161233165445
462.0 73.09889482391995
475.0 72.36694854279027
487.0 72.38540115893335
500.0 72.51640892515194
515.0 72.38996463451977
530.0 72.46243480553063
545.0 72.76749768518712
560.0 72.23732139604894
580.0 71.95287282415502
600.0 71.97296809142661
615.0 71.70295187299233
630.0 71.17781327440188
650.0 70.91990119426481
670.0 70.52565191370545
690.0 70.15256526123437
710.0 69.80490413414533
730.0 69.31702414432701
750.0 71.4314962608549
775.0 71.75439139959005
800.0 70.91168383917403
825.0 70.13673648040933
850.0 68.44103959322294
875.0 67.52805107135649
900.0 67.42727271043763
925.0 66.35868267849379
950.0 64.30228057685639
975.0 63.447804706781824
1000.0 65.65388006908752
1030.0 68.61014747161174
1060.0 67.07832845003139
1090.0 65.34362920220923
1120.0 63.10282704432609
1150.0 62.58765671492452
1180.0 61.56067364619196
1220.0 57.912941554659625
1250.0 58.06129243895825
1280.0 57.75809889016335
1320.0 58.442083563766374
1360.0 60.29220110354771
1400.0 61.931056760182884
1450.0 62.20771736592559
1500.0 63.42212074183976
1550.0 62.648903970558706
1600.0 62.94393615608843
1650.0 61.372196144495234
1700.0 61.086526850452145
1750.0 61.051138815713216
1800.0 61.148218356405124
1850.0 61.028529384220576
1900.0 61.722352237468726
1950.0 62.38118890922357
2000.0 62.31410903072242
2060.0 63.61922955881397
2120.0 62.49764531187989
2180.0 61.41338358229228
2240.0 62.191864060408506
2300.0 63.26421428440901
2360.0 63.55380849355777
2400.0 63.856715933469815
2500.0 64.63497600820449
2580.0 65.09992947624258
2650.0 65.11216051551955
2720.0 61.960110553421856
2800.0 59.48324617147824
2900.0 59.07461939975036
3000.0 58.61207926022908
3070.0 58.01361287997389
3150.0 59.51744295593903
3250.0 60.63048577360624
3350.0 59.33821265035277
3450.0 60.960326304899496
3550.0 61.128462994400934
3650.0 59.88502338690043
3750.0 61.73236849228621
3870.0 62.17999854506587
4000.0 61.541328729407866
4120.0 61.40926851031608
4250.0 61.011111612129554
4370.0 59.92938385914164
4500.0 59.98071992300359
4620.0 59.63993005986018
4750.0 61.43469463700686
4870.0 63.17002183339602
5000.0 63.76148083822389
5150.0 63.28899262820099
5300.0 60.9898198006853
5450.0 58.260415822228566
5600.0 57.529210455822096
5800.0 59.11132647430722
6000.0 60.590465733003555
6150.0 61.86189801925116
6300.0 61.56527745228041
6500.0 60.87966209402023
6700.0 59.03780774145048
6900.0 58.05589463236771
7100.0 57.83576424618187
7300.0 58.04334193924532
7500.0 61.25378197279642
7750.0 63.13209871556049
8000.0 61.33353772261907
8250.0 59.41720953976835
8500.0 58.046187135173
8750.0 57.532506784113764
9000.0 58.776057770300355
9250.0 62.32997327352618
9500.0 62.45160984391737
9750.0 61.5764565912925
10000.0 65.27458873186121
10300.0 63.527731540452294
10600.0 61.20149862899231
10900.0 59.60752218765634
11200.0 60.91687538947937
11500.0 58.16448215977701
11800.0 59.14745674054319
12200.0 61.22651645294468
12500.0 59.22296092524101
12800.0 57.141968987213914
13200.0 57.542615033662685
13600.0 56.27523906107004
14000.0 56.29233232700656
14500.0 55.457391373247816
15000.0 55.70700078871326
15500.0 55.122432530258095
16000.0 55.82622284657759
16500.0 59.0862341683939
17000.0 55.44906947344643
17500.0 55.75900951383579
18000.0 58.16118172842428
18500.0 58.290750937210674
19000.0 53.813701144374846
19500.0 54.34129954942034
