Freq "Estimated In-Room Response"
22.4 5.954181156628948
23.0 8.218637640591965
23.6 10.338756538799942
24.0 12.202969088099678
25.0 13.850125582822216
25.8 15.279662926784965
26.5 16.590952576235935
27.2 17.758686631548557
28.0 18.87538477911582
29.0 20.039995982474778
30.0 21.2859664930632
30.7 22.73266091461528
31.5 24.427267007808098
32.5 26.361281097906726
33.5 28.425255931559178
34.5 30.56071417519007
35.5 32.709790541324395
36.5 34.810892227755176
37.5 36.845720174595954
38.7 38.77500444153998
40.0 40.6484771541831
41.2 42.54741998920511
42.5 44.41590116563694
43.7 46.27383700667335
45.0 48.10899227452646
46.2 49.925953680529375
47.5 51.70259131416401
48.7 53.40976351557654
50.0 55.06586112502333
51.5 56.655583124242625
53.0 58.212937828164485
54.5 59.72328104916069
56.0 61.142494117366056
58.0 62.512562801108345
60.0 63.80787525726143
61.5 65.02130359817205
63.0 66.1388734603305
65.0 67.16986278487911
67.0 68.1307514096089
69.0 68.99916339592768
71.0 69.76263691401152
73.0 70.4438029633665
75.0 71.10085403697558
77.5 71.67280846742125
80.0 72.21117901428458
82.5 72.6940274290908
85.0 73.14953222715943
87.5 73.58138095951081
90.0 73.9873817912799
92.5 74.33811712938515
95.0 74.65632527499015
97.5 74.95162250761038
100.0 75.21463364006786
103.0 75.46123802192757
106.0 75.66735162914227
109.0 75.8761757775974
112.0 76.0756664012346
115.0 76.25882485538673
118.0 76.41653232729007
122.0 76.56736396157518
125.0 76.72313693405957
128.0 76.87455287542579
132.0 77.01315999466004
136.0 77.1209850096032
140.0 77.19101513563484
145.0 77.2220880030397
150.0 77.2140422208669
155.0 77.17035934095993
160.0 77.11512399746165
165.0 77.05679243181986
170.0 77.01086129034411
175.0 76.97202684332501
180.0 76.94717736113712
185.0 76.9310537308239
190.0 76.91800972408227
195.0 76.9276493626765
200.0 76.89019865068028
206.0 76.85286226178587
212.0 76.80724826917039
218.0 76.73881401187555
224.0 76.65863349861417
230.0 76.58096795071677
236.0 76.48498558063632
240.0 76.3878967532942
250.0 76.286886944564
258.0 76.20350792104779
265.0 76.08649087157917
272.0 75.97511776460809
280.0 75.84594329159673
290.0 75.72179333258924
300.0 75.63724941979092
307.0 75.59826891459498
315.0 75.55366960815746
325.0 75.55891545431547
335.0 75.57117036074128
345.0 75.55231999272952
355.0 75.53944959640329
365.0 75.52135852695218
375.0 75.4868892160111
387.0 75.46766177917719
400.0 75.43884757289825
412.0 75.38019138798022
425.0 75.35048362426204
437.0 75.32938168687689
450.0 75.29758370713705
462.0 75.30028867692312
475.0 75.28396249106507
487.0 75.2816715358325
500.0 75.2253882423437
515.0 75.14116786474422
530.0 74.99603631496942
545.0 74.8245972849289
560.0 74.65006361425111
580.0 74.51766493773957
600.0 74.50561577070803
615.0 74.50721762791959
630.0 74.51964462821186
650.0 74.44290403617234
670.0 74.29303341181154
690.0 74.05563360837886
710.0 73.84023657282061
730.0 73.65151521041378
750.0 73.51893241162993
775.0 73.34196075733335
800.0 73.06497562248391
825.0 72.74283881108161
850.0 72.43232713057134
875.0 72.18940798094752
900.0 71.99257825905798
925.0 71.72682595893068
950.0 71.35857321479429
975.0 71.02459065640953
1000.0 70.83945695112153
1030.0 71.0228119655603
1060.0 71.48338814180714
1090.0 71.84501702316582
1120.0 72.014004802874
1150.0 72.30509747246064
1180.0 72.78955156635055
1220.0 73.16408565498828
1250.0 73.32696771761805
1280.0 73.44466140770459
1320.0 73.53279624141226
1360.0 73.46738720603244
1400.0 73.24001906185131
1450.0 73.02094340868177
1500.0 72.86294669748587
1550.0 72.755844739091
1600.0 72.68742434101459
1650.0 72.63972422578519
1700.0 72.58863496981563
1750.0 72.47024096519259
1800.0 72.28250204627798
1850.0 72.06828535512646
1900.0 71.84769294975173
1950.0 71.67455535481682
2000.0 71.49933090446567
2060.0 71.37544949699435
2120.0 71.25440518549993
2180.0 71.09016478673055
2240.0 70.88004376067906
2300.0 70.67786132632594
2360.0 70.5029155886372
2400.0 70.3217349973066
2500.0 70.13998876044596
2580.0 70.01573717857542
2650.0 69.90106717768518
2720.0 69.82277643886371
2800.0 69.73638700556938
2900.0 69.63895710700118
3000.0 69.56011123488227
3070.0 69.4627025681522
3150.0 69.39981070840429
3250.0 69.41792554197056
3350.0 69.45058141694682
3450.0 69.54982641304127
3550.0 69.71541047132743
3650.0 69.86422045927615
3750.0 70.02093740318026
3870.0 70.18993552846369
4000.0 70.38220186476886
4120.0 70.5929053860957
4250.0 70.6889877416818
4370.0 70.72879177670299
4500.0 70.57804693681922
4620.0 70.34601042039142
4750.0 70.0767109001593
4870.0 69.89806025811494
5000.0 69.87593932882892
5150.0 69.90771938525586
5300.0 69.94398178723061
5450.0 69.87630441744025
5600.0 69.6172414871888
5800.0 69.31443819102677
6000.0 68.9583765768643
6150.0 68.648597558541
6300.0 68.39170037913563
6500.0 68.06430501390133
6700.0 67.69662975343394
6900.0 67.36726507748482
7100.0 67.117094394194
7300.0 67.02685117525914
7500.0 67.03205287970871
7750.0 67.14582162138039
8000.0 67.31858223409503
8250.0 67.61778952383636
8500.0 67.9868904723914
8750.0 68.30238348548431
9000.0 68.37477694425961
9250.0 68.14370753746634
9500.0 67.7203030032454
9750.0 67.2585859448563
10000.0 66.81614329556163
10300.0 66.40062444702073
10600.0 66.0027236973463
10900.0 65.66646782577679
11200.0 65.41384513092459
11500.0 65.10735943006821
11800.0 64.71243419429337
12200.0 64.52064637805991
12500.0 64.57954701794756
12800.0 64.60191923662174
13200.0 64.37855554595012
13600.0 63.84679643712265
14000.0 63.12881183439933
14500.0 62.54745604302215
15000.0 62.10902380169247
15500.0 61.66244976571059
16000.0 61.21941949919457
16500.0 60.75296304604531
17000.0 60.26938758646929
17500.0 59.57719826982657
18000.0 58.467439429633814
18500.0 57.02637102527859
19000.0 55.36793210852073
19500.0 53.52442571720704
