Freq "Ceiling Bounce"
20.0 69.600388
20.290899 69.805389
20.586 70.01239
20.8855 70.218384
21.189301 70.422386
21.497499 70.618385
21.8102 70.80439
22.127399 70.975388
22.4492 71.131386
22.775801 71.270386
23.1071 71.39538600000002
23.443199 71.514389
23.7841 71.632385
24.1301 71.758385
24.4811 71.897385
24.8372 72.049385
25.1984 72.213387
25.564899 72.385384
25.9368 72.560387
26.3141 72.733383
26.6968 72.905388
27.0851 73.074387
27.479099 73.242386
27.878799 73.41138499999998
28.2843 73.58239
28.6957 73.756386
29.1131 73.932388
29.536501 74.11039
29.966101 74.291389
30.402 74.47438799999999
30.8442 74.666389
31.2929 74.86138899999999
31.748 75.058388
32.209801 75.257385
32.678299 75.464386
33.153599 75.672386
33.635899 75.879387
34.125099 76.087387
34.621498 76.29039
35.125 76.490387
35.635899 76.67839100000002
36.154301 76.86039000000001
36.680199 77.04039000000002
37.213699 77.222389
37.755 77.411392
38.3041 77.605385
38.861301 77.80638899999998
39.426498 78.00738500000001
40.0 78.209389
40.581799 78.410385
41.1721 78.61138899999999
41.771 78.815392
42.378502 79.021385
42.9949 79.229385
43.6203 79.437386
44.254799 79.645386
44.898499 79.853386
45.551498 80.062386
46.2141 80.271385
46.886299 80.480385
47.568298 80.689392
48.260201 80.89839199999999
48.962101 81.108391
49.674301 81.31739
50.396801 81.52302753459611
51.129902 81.72761584296471
51.8736 81.93115594852789
52.628101 82.14663889756126
53.3936 82.33407878772535
54.1702 82.53646614496081
54.958099 82.73980105332281
55.7575 82.94408157380924
56.568501 83.14730925615378
57.391399 83.34948172440784
58.226101 83.55159241728438
59.073 83.7486565126142
59.932301 83.9406580631476
60.804 84.12560609408126
61.6884 84.29848620268483
62.585701 84.45831446563504
63.496 84.600084438927
64.419601 84.72678471598266
65.356598 84.83943186722466
66.307297 84.93700747733652
67.271698 85.02251855437046
68.250198 85.10096926037517
69.242897 85.18335813888066
70.250099 85.26967078507094
71.271896 85.36291978021491
72.308601 85.46110367828591
73.360298 85.56220909830829
74.427399 85.66425013467754
75.509903 85.77021780219876
76.608299 85.87811083808101
77.722603 85.98893617873692
78.853104 86.09967949184843
80.0 86.20834686847165
81.163597 86.3139388980823
82.3442 86.41745317526625
83.541901 86.51688328489728
84.757 86.61224284559049
85.989899 86.70051500250034
87.240601 86.782701755239
88.509598 86.8618048317231
89.797 86.93382673525555
91.103104 86.99275410076122
92.4282 87.05260059621321
93.772598 87.11635479722209
95.136597 87.17302333105873
96.520401 87.22759326677625
97.924301 87.27607326986598
99.348602 87.32146094138831
100.794 87.363745067418
102.26 87.40294296513558
103.747 87.44003780531428
105.256 87.47403196466699
106.787 87.50192046367036
108.34 87.52171232309739
109.916 87.52939592242757
111.515 87.52097528401278
113.137 87.48344843052853
114.783 87.40680974438587
116.452 87.29606789018156
118.146 87.17420161178346
119.865 87.06722693529397
121.608 86.99313852638043
123.377 86.94993613317853
125.171 86.92961342247763
126.992 86.92416514575486
128.839 86.93059897099397
130.713 86.93991329046129
132.615 86.94208749839864
134.543 86.90815390064617
136.5 86.81508061970251
138.486 86.68187369050871
140.5 86.51753878381581
142.544 86.37006466457373
144.617 86.27145200497169
146.721 86.20670157396003
148.855 86.16281604524946
151.02 86.13578682508425
153.217 86.11760532206004
155.445 86.1162862116401
157.706 86.11981327276608
160.0 86.11318655131201
162.327 86.1024100938128
164.688 86.10347831713591
167.084 86.10638464077576
169.514 86.12013674559714
171.98 86.14671542469019
174.481 86.13914436090302
177.019 86.05939835239579
179.594 85.92947845683094
182.206 85.76239373269904
184.856 85.59913261312987
187.545 85.46869753428527
190.273 85.35807956051408
193.041 85.29627513257378
195.849 85.27228831837583
198.697 85.27912418679655
201.587 85.2997605621614
204.52 85.31820789672142
207.494 85.33546051086789
210.512 85.39351261651763
213.574 85.4773642950234
216.681 85.52000900923746
219.833 85.49745284477534
223.03 85.42068288846852
226.274 85.29769999296288
229.565 85.17551025155772
232.905 85.08908352619078
236.292 85.06345514826445
239.729 85.13458937026301
243.216 85.2334962972439
246.754 85.29817442224966
250.343 85.32761485552568
253.984 85.29182409683858
257.678 85.2537926505243
261.426 85.31250702559208
265.229 85.40697473583033
269.087 85.47718890885815
273.001 85.53415606594781
276.972 85.57385773340971
281.0 85.54830404921465
285.088 85.4874673362274
289.234 85.37137395354169
293.441 85.08600423565414
297.709 84.8663593387959
302.04 84.92542721695825
306.433 85.07321163746069
310.89 85.07970556508528
315.412 84.9168985737371
320.0 84.6258022434675
324.655 84.29739816060093
329.377 84.14468651451233
334.168 84.21067130586027
339.028 84.37433573520929
343.959 84.59167981854489
348.962 84.7687051754325
354.038 84.78339743250538
359.188 84.50075022360306
364.412 84.07077377943502
369.713 83.82544656855084
375.09 83.84377642519513
380.546 83.96074983763033
386.081 84.1013680663047
391.697 84.0916202073035
397.394 84.00051353521094
403.175 84.05101958341658
409.039 84.13315722521625
414.989 84.21490801608167
421.025 84.18327326421856
427.149 84.06923512846103
433.362 83.99180735746485
439.665 84.04797070939993
446.06 84.06872537913496
452.548 84.04505714829135
459.131 84.0409672382697
465.809 83.98644902412842
472.584 83.91050075078043
479.458 83.88110667930978
486.432 83.87426765216692
493.507 83.8289765230068
503.906 83.8289765230068
509.766 83.79998924973962
515.625 83.77086876396503
521.484 83.74180699221735
527.344 83.7129118755602
533.203 83.68436657733649
539.062 83.6561565308394
544.922 83.62844373383719
550.781 83.60118097590968
556.641 83.57438900976372
562.5 83.54802820832728
568.359 83.52210352697868
574.219 83.49652720876377
580.078 83.4712368375455
585.938 83.4461244630527
591.797 83.42106424565489
597.656 83.3959554130834
603.516 83.3708014417938
609.375 83.34533548023215
615.234 83.31959442923151
621.094 83.293370746153
626.953 83.26663119407196
632.812 83.23934421092854
638.672 83.21138243667257
644.531 83.18277753178481
650.391 83.15339040741033
656.25 83.1233658624436
662.109 83.09262414205169
667.969 83.06120089397768
673.828 83.02923296051586
679.688 82.99672398462614
685.547 82.96376207796833
691.406 82.9304826872987
697.266 82.89700572327028
703.125 82.86340872033614
708.984 82.82987656379119
714.844 82.79654240743143
720.703 82.76356132861653
726.562 82.73099886574569
732.422 82.69904813243919
738.281 82.6677963467207
744.141 82.63738109408733
750.0 82.6078952516644
755.859 82.57933189233695
761.719 82.55181097592813
767.578 82.52534388411026
773.438 82.49991754275878
779.297 82.47556448892819
785.156 82.45222370992089
791.016 82.42985480921215
796.875 82.408423525768
802.734 82.38778848448507
808.594 82.36788843638915
814.453 82.34858133415906
820.312 82.32977832105145
826.172 82.31136406092692
832.031 82.29321655161742
837.891 82.2663214837629
843.75 82.257382332181
849.609 82.23935442207836
855.469 82.22123736573676
861.328 82.20289127286013
867.188 82.18436810879727
873.047 82.16546716128622
878.906 82.14633542198057
884.766 82.12686621970086
890.625 82.10712669147082
896.484 82.08713177498306
902.344 82.06689434154111
908.203 82.04660325917861
914.062 82.02621888573114
919.922 82.00581609850357
925.781 81.98562084408832
931.641 81.96556665871442
937.5 81.94590180420558
943.359 81.92661846016637
949.219 81.90781618158248
955.078 81.88959414844315
960.938 81.87203342087403
966.797 81.85512577902416
972.656 81.83890388787208
978.516 81.82341581626319
984.375 81.80858706307629
990.234 81.7944585293673
996.094 81.78086377714212
1001.95 81.76775951971327
1007.81 81.75506446123573
1013.67 81.74259463527451
1019.53 81.73021758300318
1025.39 81.71777509215939
1031.25 81.70507561650034
1037.11 81.69195318657496
1042.97 81.67822359603716
1048.83 81.6636792648323
1054.69 81.64816948677644
1060.55 81.63149382034285
1066.41 81.61362708065921
1072.27 81.59426114783986
1078.12 81.57337832000098
1083.98 81.55098666718376
1089.84 81.52689616186807
1095.7 81.50123144513837
1101.56 81.47395200888171
1107.42 81.44510979229703
1113.28 81.41485580129051
1119.14 81.38334994900528
1125.0 81.3506786803369
1130.86 81.31719385728603
1136.72 81.28299735102824
1142.58 81.24844029398491
1148.44 81.21380860496664
1154.3 81.17942012750235
1160.16 81.14554094800319
1166.02 81.11250394639895
1171.88 81.0806586257934
1177.73 81.05027691670911
1183.59 81.02168142946185
1189.45 80.99501923042101
1195.31 80.97066918912112
1201.17 80.94879562418046
1207.03 80.92941565378948
1212.89 80.91274543710533
1218.75 80.89879708064542
1224.61 80.88758229032801
1230.47 80.87903275157304
1236.33 80.8730133898061
1242.19 80.86946638443857
1248.05 80.8681481465615
1253.91 80.86880114003253
1259.77 80.87120268360134
1265.62 80.87510527993582
1271.48 80.88011896133922
1277.34 80.88602079841425
1283.2 80.89245377748117
1289.06 80.89911427758511
1294.92 80.905764193676
1300.78 80.91204549814175
1306.64 80.91772540815884
1312.5 80.92264951842058
1318.36 80.9265412131311
1324.22 80.92937969181902
1330.08 80.93094483116339
1335.94 80.93116353168121
1341.8 80.93011922434634
1347.66 80.9277700095051
1353.52 80.92425118039974
1359.38 80.91959984535049
1365.23 80.91394547939667
1371.09 80.90754478664061
1376.95 80.90054120962543
1382.81 80.89315935029914
1388.67 80.88559136048234
1394.53 80.87812737223669
1400.39 80.871046229603
1406.25 80.86449701697548
1412.11 80.85872869029207
1417.97 80.85389001589047
1423.83 80.85021599542867
1429.69 80.84782205417477
1435.55 80.84677859064595
1441.41 80.84715404993723
1447.27 80.8489719289047
1453.12 80.85221671245658
1458.98 80.85684120585137
1464.84 80.8627489712361
1470.7 80.86979685442081
1476.56 80.87786035252098
1482.42 80.8867193626972
1488.28 80.89619713487265
1494.14 80.90613714660785
1500.0 80.91627183770103
1505.86 80.92645447745461
1511.72 80.9365327370784
1517.58 80.94634533764244
1523.44 80.95575021274479
1529.3 80.96467670401763
1535.16 80.97304466804354
1541.02 80.98096395271804
1546.88 80.9883641930977
1552.73 80.99548810127567
1558.59 81.00241718503656
1564.45 81.00942768415965
1570.31 81.01673888838849
1576.17 81.02475499512884
1582.03 81.0337953001552
1587.89 81.04427941719047
1593.75 81.05663608184759
1599.61 81.07135307132853
1605.47 81.08890652552209
1611.33 81.10967478375728
1617.19 81.13412373649435
1623.05 81.1626792889574
1628.91 81.19567850206336
1634.77 81.23334762609004
1640.62 81.27598353370298
1646.48 81.32360103917046
1652.34 81.3763733146151
1658.2 81.43411743987558
1664.06 81.49681696207294
1669.92 81.56417830907527
1675.78 81.63591553566006
1681.64 81.71157542799237
1687.5 81.79079631027567
1693.36 81.87305214559129
1699.22 81.95772486344019
1705.08 82.04439906345289
1710.94 82.13230859559785
1716.8 82.22095940055605
1722.66 82.30979298486079
1728.52 82.39811838929563
1734.38 82.48545383713011
1740.23 82.57121751219384
1746.09 82.6549735744938
1751.95 82.736248370032
1757.81 82.81457642749868
1763.67 82.88960624572945
1769.53 82.96100528894756
1775.39 83.02859294225999
1781.25 83.09194552103197
1787.11 83.15100459716058
1792.97 83.20552573144471
1798.83 83.25554346773681
1804.69 83.30086808379606
1810.55 83.34153453922215
1816.41 83.3775290730504
1822.27 83.40899039763376
1828.12 83.4358941337163
1833.98 83.4584462676722
1839.84 83.47678796438824
1845.7 83.49107095566563
1851.56 83.50149218833488
1857.42 83.50825553222624
1863.28 83.51161989981182
1869.14 83.51184038263644
1875.0 83.50909553281285
1880.86 83.50370979304523
1886.72 83.49583985710251
1892.58 83.48573970023511
1898.44 83.47372310601517
1904.3 83.4599340974957
1910.16 83.44452843962212
1916.02 83.42773828470922
1921.88 83.40969797806606
1927.73 83.39053012749416
1933.59 83.37034555359617
1939.45 83.34923428326032
1945.31 83.32723127333499
1951.17 83.30438196663297
1957.03 83.28068752748378
1962.89 83.25614116558663
1968.75 83.23072158071892
1974.61 83.20435452688035
1980.47 83.17708991764385
1986.33 83.14871945785197
1992.19 83.11925862582132
1998.05 83.08866869699911
2003.91 83.05684233847175
2009.77 83.02368538622166
2015.62 82.98925791431724
2021.48 82.9534094040185
2027.34 82.91617859552845
2033.2 82.87756146436608
2039.06 82.83752635683587
2044.92 82.79614410706846
2050.78 82.75336405108372
2056.64 82.70939330659813
2062.5 82.66422430545484
2068.36 82.61790168226985
2074.22 82.57063228167574
2080.08 82.52252807869498
2085.94 82.4736793156112
2091.8 82.4242443156585
2097.66 82.37432181749918
2103.52 82.32411997624375
2109.38 82.27364324803
2115.23 82.22312504210252
2121.09 82.17265260590737
2126.95 82.12226598126986
2132.81 82.07204526101732
2138.67 82.02207229840224
2144.53 81.97233537367136
2150.39 81.9228981259461
2156.25 81.87362026528582
2162.11 81.82460653802501
2167.97 81.77569281702743
2173.83 81.72681148251539
2179.69 81.67792963128076
2185.55 81.62884897922044
2191.41 81.57946560595087
2197.27 81.52974778178229
2203.12 81.47944096880879
2208.98 81.42847995962984
2214.84 81.37671349446586
2220.7 81.32414306726201
2226.56 81.27054558381688
2232.42 81.21594503841956
2238.28 81.16023543264777
2244.14 81.10344047519199
2250.0 81.04551827230303
2255.86 80.98651046080408
2261.72 80.92650162725046
2267.58 80.86551712255309
2273.44 80.80380186166762
2279.3 80.74134255439455
2285.16 80.67838473043872
2291.02 80.61512161028102
2296.88 80.55173015874682
2302.73 80.48849397261306
2308.59 80.42552706760924
2314.45 80.36313555590891
2320.31 80.30154503117113
2326.17 80.240968785601
2332.03 80.18149203257667
2337.89 80.12349395281242
2343.75 80.06690469591838
2349.61 80.01204341464674
2355.47 79.95879145494378
2361.33 79.90730444404805
2367.19 79.85759821146048
2373.05 79.80952864648911
2378.91 79.76317321394772
2384.77 79.71835588729664
2390.62 79.67491241261537
2396.48 79.63268526856594
2402.34 79.59148413917275
2408.2 79.55124825191065
2414.06 79.51160149270632
2419.92 79.47247652649209
2425.78 79.43361083673776
2431.64 79.39482118358596
2437.5 79.35593757672316
2443.36 79.31689939673763
2449.22 79.27741197446723
2455.08 79.23760754201422
2460.94 79.1971821791111
2466.8 79.15621704000395
2472.66 79.11471046786032
2478.52 79.07261272631872
2484.38 79.03001079222074
2490.23 78.98691050716943
2496.09 78.94332984942199
2501.95 78.89950226846007
2507.81 78.83334723166173
2513.67 78.78915438133735
2519.53 78.76709889437211
2525.39 78.72295414142648
2531.25 78.67890529363973
2537.11 78.63504578498458
2542.97 78.59141680928812
2548.83 78.54797703377014
2554.69 78.50471588891065
2560.55 78.46168223075432
2566.41 78.41867923475381
2572.27 78.37563369465919
2578.12 78.33248340311228
2583.98 78.288909631041
2589.84 78.2448835800581
2595.7 78.20011674698404
2601.56 78.15434748436128
2607.42 78.10747463277382
2613.28 78.05911079743417
2619.14 78.0091447176809
2625.0 77.95731327558993
2630.86 77.90338619040106
2636.72 77.84719842936109
2642.58 77.78860345811317
2648.44 77.72749276156803
2654.3 77.66379534875334
2660.16 77.59741045859879
2666.02 77.5283512313717
2671.88 77.45666183946496
2677.73 77.38252051699489
2683.59 77.30593150866193
2689.45 77.2272154488489
2695.31 77.14647970385242
2701.17 77.06395597657202
2707.03 76.9800835673305
2712.89 76.89504896450161
2718.75 76.8091707326968
2724.61 76.72289132690875
2730.47 76.63647129144013
2736.33 76.55028457737802
2742.19 76.46459330656585
2748.05 76.37975802433509
2753.91 76.29599759706362
2759.77 76.21349184711134
2765.62 76.13240062706821
2771.48 76.05294482086366
2777.34 75.97508122236589
2783.2 75.89877833832735
2789.06 75.82400833681335
2794.92 75.75064800712305
2800.78 75.67845252726808
2806.64 75.60730558237532
2812.5 75.53690391124337
2818.36 75.4669834379147
2824.22 75.39722617320625
2830.08 75.3273986278446
2835.94 75.25723537647634
2841.8 75.18637248683429
2847.66 75.11473391451769
2853.52 75.04215819206782
2859.38 74.96848502966508
2865.23 74.8936728032438
2871.09 74.81786884889432
2876.95 74.74120440238647
2882.81 74.66390280453919
2888.67 74.5863801474553
2894.53 74.5089269310326
2900.39 74.43210454357974
2906.25 74.35657745690756
2912.11 74.2830323831975
2917.97 74.21211242779557
2923.83 74.1447011272035
2929.69 74.08158606781814
2935.55 74.02359241452454
2941.41 73.97141520538521
2947.27 73.9258319316002
2953.12 73.8873995950601
2958.98 73.85671978686867
2964.84 73.83407334802676
2970.7 73.81988396154642
2976.56 73.81401500930573
2982.42 73.81664436663836
2988.28 73.82745199391184
2994.14 73.8461681494954
3000.0 73.87235668199932
3005.86 73.90550810530382
3011.72 73.94500706321477
3017.58 73.99024019036817
3023.44 74.04047387932933
3029.3 74.0951896860653
3035.16 74.15361509077924
3041.02 74.2151879987509
3046.88 74.27940611002103
3052.73 74.34572104833101
3058.59 74.41382652927783
3064.45 74.48331925904047
3070.31 74.55399895694666
3076.17 74.6255931964934
3082.03 74.69807629962064
3087.89 74.77144987571144
3093.75 74.84564209538144
3099.61 74.92078255334309
3105.47 74.99691860167306
3111.33 75.07421441269554
3117.19 75.15279932873818
3123.05 75.23284298010002
3128.91 75.31440001765014
3134.77 75.39765135399585
3140.62 75.48260051308806
3146.48 75.56933743129332
3152.34 75.65781216789259
3158.2 75.74800604870545
3164.06 75.83981112310902
3169.92 75.93308300054163
3175.78 76.02757577113043
3181.64 76.12315984308648
3187.5 76.21953707412756
3193.36 76.31638410320527
3199.22 76.41343175541739
3205.08 76.51049069571145
3210.94 76.6070843376642
3216.8 76.70304342254822
3222.66 76.79811450686005
3228.52 76.8920131208434
3234.38 76.9845010237024
3240.23 77.07550082171143
3246.09 77.16484365780676
3251.95 77.25243299466369
3257.81 77.33823892924137
3263.67 77.42222557398462
3269.53 77.50446156545026
3275.39 77.58510493335991
3281.25 77.66415115757158
3287.11 77.74185202502208
3292.97 77.8183525771789
3298.83 77.89377657285581
3304.69 77.96848028296039
3310.55 78.04263590838383
3316.41 78.11646410776345
3322.27 78.19021631042813
3328.12 78.264106565933
3333.98 78.33824947841447
3339.84 78.4128867176953
3345.7 78.48823325034645
3351.56 78.5642810590011
3357.42 78.64118933355124
3363.28 78.71889012788365
3369.14 78.79744088794334
3375.0 78.87677326207233
3380.86 78.95673708041588
3386.72 79.0372672257004
3392.58 79.11817349281704
3398.44 79.19919695501436
3404.3 79.28019470861794
3410.16 79.36084434690814
3416.02 79.44090775862718
3421.88 79.52011265924067
3427.73 79.5981569389261
3433.59 79.67481063305297
3439.45 79.74985945494974
3445.31 79.82293791385902
3451.17 79.89394272683039
3457.03 79.96267328909391
3462.89 80.02888715590363
3468.75 80.09251792373296
3474.61 80.15343164821925
3480.47 80.21159229294189
3486.33 80.26693339919129
3492.19 80.3194556365363
3498.05 80.36921821545783
3503.91 80.41629185247453
3509.77 80.46071093189565
3515.62 80.5026714728743
3521.48 80.54227412310645
3527.34 80.57961293665252
3533.2 80.61495864173106
3539.06 80.648503084253
3544.92 80.68031407014561
3550.78 80.71072259743852
3556.64 80.73985168208597
3562.5 80.76790718986675
3568.36 80.79504565325325
3574.22 80.8214629129362
3580.08 80.8472250446203
3585.94 80.87256030852505
3591.8 80.89749892375558
3597.66 80.92217126596148
3603.52 80.94654027480007
3609.38 80.97066966612253
3615.23 80.9946206776863
3621.09 81.01829764113022
3626.95 81.0417621951613
3632.81 81.06484676111943
3638.67 81.08751387586555
3644.53 81.10970309710781
3650.39 81.13127336794665
3656.25 81.15219680258934
3662.11 81.172269393001
3667.97 81.19152653859028
3673.83 81.20986828025086
3679.69 81.22713092469046
3685.55 81.24330994792354
3691.41 81.25837323655057
3697.27 81.27229336442811
3703.12 81.28509449764653
3708.98 81.29678455333375
3714.84 81.30739625967205
3720.7 81.31706046061616
3726.56 81.32584249056474
3732.42 81.3338464295416
3738.28 81.34130417597005
3744.14 81.34824881494102
3750.0 81.35487866019473
3755.86 81.36146397375502
3761.72 81.36806713979038
3767.58 81.3749586127634
3773.44 81.38220517524292
3779.3 81.39013617983163
3785.16 81.39875960647878
3791.02 81.40826817889415
3796.88 81.41883807739636
3802.73 81.43046247051072
3808.59 81.4432794428541
