Freq "Side Wall Bounce"
20.0 69.600388
20.290899 69.805389
20.586 70.01239
20.8855 70.218384
21.189301 70.42238600000002
21.497499 70.618385
21.8102 70.80439
22.127399 70.97538799999998
22.4492 71.131386
22.775801 71.270386
23.1071 71.395386
23.443199 71.514389
23.7841 71.632385
24.1301 71.758385
24.4811 71.89738500000001
24.8372 72.049385
25.1984 72.21338700000001
25.564899 72.38538399999999
25.9368 72.56038700000002
26.3141 72.733383
26.6968 72.905388
27.0851 73.074387
27.479099 73.242386
27.878799 73.411385
28.2843 73.58239
28.6957 73.756386
29.1131 73.932388
29.536501 74.11039
29.966101 74.291389
30.402 74.474388
30.8442 74.666389
31.2929 74.861389
31.748 75.058388
32.209801 75.257385
32.678299 75.464386
33.153599 75.67238599999999
33.635899 75.87938699999998
34.125099 76.087387
34.621498 76.29039
35.125 76.490387
35.635899 76.678391
36.154301 76.86039
36.680199 77.04039
37.213699 77.222389
37.755 77.411392
38.3041 77.60538499999998
38.861301 77.806389
39.426498 78.007385
40.0 78.209389
40.581799 78.41038499999999
41.1721 78.611389
41.771 78.815392
42.378502 79.021385
42.9949 79.229385
43.6203 79.437386
44.254799 79.645386
44.898499 79.853386
45.551498 80.062386
46.2141 80.271385
46.886299 80.48038500000001
47.568298 80.689392
48.260201 80.898392
48.962101 81.108391
49.674301 81.31738999999999
50.396801 81.51506817160899
51.129902 81.71158396877544
51.8736 81.90693861799078
52.628101 82.1141210610857
53.3936 82.29314341880593
54.1702 82.48699525761646
54.958099 82.68167466341701
55.7575 82.87717765100413
56.568501 83.07150488306313
57.391399 83.2646509192183
58.226101 83.45761041789933
59.073 83.64539445336914
59.932301 83.8279850452723
60.804 84.00339148070697
61.6884 84.16659626424564
62.585701 84.31661351630494
63.496 84.44843597012392
64.419601 84.56504914211808
65.356598 84.66746882843744
66.307297 84.75467353358654
67.271698 84.82967053221735
68.250198 84.89745993260074
69.242897 84.96903947205024
70.250099 85.04439172710718
71.271896 85.12652857776646
72.308601 85.21344548255486
73.360298 85.3031284647098
74.427399 85.39358747098284
75.509903 85.48781386331775
76.608299 85.58380142160544
77.722603 85.68255726609416
78.853104 85.78106430009662
80.0 85.87732684838366
81.163597 85.97034257891019
82.3442 86.06110619084643
83.541901 86.14761068710368
84.757 86.22986687108137
85.989899 86.30485399005991
87.240601 86.37357445994154
88.509598 86.43902517271218
89.797 86.49720792412074
91.103104 86.54210664451563
92.4282 86.58773238995211
93.772598 86.63707092744193
95.136597 86.67912621224968
96.520401 86.71888367664977
97.924301 86.75234943486922
99.348602 86.78251840635798
100.794 86.80937254359755
102.26 86.83293506279134
103.747 86.85418551195825
105.256 86.87211626465785
106.787 86.88372301821735
108.34 86.88701547992324
109.916 86.87797211722238
111.515 86.85259769089694
113.137 86.79789097257134
114.783 86.7038365290474
116.452 86.57545439261186
118.146 86.43570298362788
119.865 86.31059918955815
121.608 86.21814907837378
123.377 86.15633221496553
125.171 86.11715370487136
126.992 86.09258822607585
128.839 86.07965492401698
130.713 86.06934269831405
132.615 86.05162151536479
134.543 85.99754564180458
136.5 85.88405293285649
138.486 85.73015057260223
140.5 85.54485579744549
142.544 85.3761377395864
144.617 85.2560086828976
146.721 85.16944989404863
148.855 85.10347570695019
151.02 85.05406848985325
153.217 85.01321068988585
155.445 84.98892869746976
157.706 84.96918711366844
160.0 84.93898748483102
162.327 84.90433537838777
164.688 84.88121651596727
167.084 84.85961570673496
169.514 84.848552515964
171.98 84.84998901558706
174.481 84.81696083438975
177.019 84.71142421207757
179.594 84.55538208055174
182.206 84.36184539737911
184.856 84.17179441896343
187.545 84.01422350151879
190.273 83.87612579255341
193.041 83.7864897975358
195.849 83.73432177786722
198.697 83.7126290239982
201.587 83.70437163333257
204.52 83.69355248428812
207.494 83.6811882793357
210.512 83.70924584054333
213.574 83.76272785694218
216.681 83.77462054449502
219.833 83.72093272460938
223.03 83.61265425358441
226.274 83.45776913993353
229.565 83.3032864436919
232.905 83.18415947053259
236.292 83.12544623842379
239.729 83.16308487174375
243.216 83.22808879182404
246.754 83.25845015929538
250.343 83.2531635493103
253.984 83.18222932611263
257.678 83.10863199472533
261.426 83.13135220347763
265.229 83.18939174653396
269.087 83.22274771644636
273.001 83.24242112747946
276.972 83.2443881452307
281.0 83.18066315897423
285.088 83.08119447714478
289.234 82.92603186042061
293.441 82.60113196221567
297.709 82.34150069728665
302.04 82.3601121720954
306.433 82.46698447626702
310.89 82.43209702136996
315.412 82.22743534740518
320.0 81.89400716674108
324.655 81.52279036618226
329.377 81.32679075790911
334.168 81.34899977188917
339.028 81.4684065147165
343.959 81.6409988391201
348.962 81.77277553049315
354.038 81.74171955957709
359.188 81.41282208398044
364.412 80.9360999710955
369.713 80.64351167939277
375.09 80.61408094336727
380.546 80.68277474016035
386.081 80.77460166817849
391.697 80.71554068431277
397.394 80.57460670681466
403.175 80.57475287963528
409.039 80.6060147901406
414.989 80.63635612260146
421.025 80.55278654871005
427.149 80.38627953598778
433.362 80.25584899001575
439.665 80.2584760151972
446.06 80.22515290358106
452.548 80.1468662728023
459.131 80.08761000732929
465.809 79.97738713105575
472.584 79.84518900176609
479.458 79.75899333370117
486.432 79.69480296754894
493.507 79.5916129366552
503.906 79.5916129366552
509.766 79.50458748296262
515.625 79.41887537749562
521.484 79.33457888185117
527.344 79.25195436226184
533.203 79.17113153813764
539.062 79.09231354204766
544.922 79.01558762429111
550.781 78.94110337611444
556.641 78.86895352051539
562.5 78.79920183698727
568.359 78.7318723201976
574.219 78.66704533508347
580.078 78.60472295206114
585.938 78.54482529121013
591.797 78.48737385372951
597.656 78.43232418807835
603.516 78.37957737016873
609.375 78.32914029660627
615.234 78.28096334086909
621.094 78.23483563127182
626.953 78.19083166125733
632.812 78.1488241344344
638.672 78.10873133276431
644.531 78.07060085960104
650.391 78.03434132536317
656.25 77.99997418849053
662.109 77.96745370087437
667.969 77.93683588608764
673.828 77.90822863971782
679.688 77.8815884731024
685.547 77.85704504910632
691.406 77.8347213323691
697.266 77.81470719851869
703.125 77.79713388662394
708.984 77.78222935027318
714.844 77.77005589703514
720.703 77.76080570127313
726.562 77.75471714298487
732.422 77.75186074644951
738.281 77.75239962402301
744.141 77.75660826660948
750.0 77.7644667420727
755.859 77.77624050320497
761.719 77.79191808108612
767.578 77.81163511171457
773.438 77.8354692163661
779.297 77.86340291010333
785.156 77.895436361643
791.016 77.93151839907642
796.875 77.97160189219082
802.734 78.01566573833699
808.594 78.06344268949812
814.453 78.11488209675774
820.312 78.16974980335645
826.172 78.22787607741638
832.031 78.2890644518676
837.891 78.38609624818893
843.75 78.41979914193003
849.609 78.48849014972758
855.469 78.55923355579776
861.328 78.63170846032973
867.188 78.70570115218527
873.047 78.78095615351059
878.906 78.85721020555523
884.766 78.93422976772922
890.625 79.01181749188478
896.484 79.08972298364775
902.344 79.16777378138806
908.203 79.24579364559044
914.062 79.32366485705239
919.922 79.4011360414041
925.781 79.47821518121589
931.641 79.55464938673515
937.5 79.63037157504073
943.359 79.70536547501679
949.219 79.77945844642319
955.078 79.85264602254344
960.938 79.9248366089062
966.797 79.99597427219183
972.656 80.06602853361535
978.516 80.13498839111162
984.375 80.2027357040913
990.234 80.26928067298927
996.094 80.3345793357034
1001.95 80.39851134235002
1007.81 80.46114153739886
1013.67 80.52239438659879
1019.53 80.58217749247231
1025.39 80.64049489566884
1031.25 80.69727248594481
1037.11 80.75248368883564
1042.97 80.80604951285869
1048.83 80.85789163214764
1054.69 80.90799589357012
1060.55 80.95638688718161
1066.41 81.00291019953548
1072.27 81.04756600072206
1078.12 81.0903275132671
1083.98 81.13112562803713
1089.84 81.17002325339817
1095.7 81.20691540850169
1101.56 81.24185507607282
1107.42 81.274827431118
1113.28 81.30580918259457
1119.14 81.33482870838245
1125.0 81.36196668377828
1130.86 81.3871557176757
1136.72 81.4104811346267
1142.58 81.43200984261604
1148.44 81.45174597214313
1154.3 81.46979662383218
1160.16 81.48614953981237
1166.02 81.500945703975
1171.88 81.51424314870012
1177.73 81.52600523031339
1183.59 81.5364523316617
1189.45 81.54555362977433
1195.31 81.55337820264856
1201.17 81.56002835805921
1207.03 81.5655800598453
1212.89 81.57003195221691
1218.75 81.57343219441911
1224.61 81.57593615649728
1230.47 81.57746741579884
1236.33 81.5781254194681
1242.19 81.57790526344455
1248.05 81.57685600082074
1253.91 81.57500870886258
1259.77 81.57233469166555
1265.62 81.56883986486825
1271.48 81.56456456289503
1277.34 81.55949628080513
1283.2 81.55356083094895
1289.06 81.54681835450369
1294.92 81.53922578578434
1300.78 81.53070443108923
1306.64 81.5213324024013
1312.5 81.51099747877639
1318.36 81.49971178941749
1324.22 81.48740624297766
1330.08 81.47410332255534
1335.94 81.4597264243089
1341.8 81.44427872442755
1347.66 81.42774033011719
1353.52 81.41003008102219
1359.38 81.39116179814582
1365.23 81.37111644827047
1371.09 81.34986377854757
1376.95 81.32740403438177
1382.81 81.30375109919284
1388.67 81.27884346417149
1394.53 81.2527150503739
1400.39 81.22536757548473
1406.25 81.1967902717363
1412.11 81.167053441555
1417.97 81.1360904783963
1423.83 81.10396053131069
1429.69 81.07070677259057
1435.55 81.0363597945967
1441.41 81.00092753662679
1447.27 80.96448889987747
1453.12 80.92708335450345
1458.98 80.88876474539953
1464.84 80.84957327733972
1470.7 80.8096351516332
1476.56 80.76896642543075
1482.42 80.72770917328234
1488.28 80.68590938904462
1494.14 80.64369892885904
1500.0 80.60114608911476
1505.86 80.55839176537796
1511.72 80.51563997909348
1517.58 80.47291634903779
1523.44 80.43041354439154
1529.3 80.38833798406526
1535.16 80.34679922772291
1541.02 80.3060330670943
1546.88 80.26617022835771
1552.73 80.22744686326833
1558.59 80.1901033160466
1564.45 80.15435045187145
1570.31 80.12033504066329
1576.17 80.0883638352085
1582.03 80.05862640200446
1587.89 80.03135614208313
1593.75 80.00678929995915
1599.61 79.98514904167232
1605.47 79.96664352627114
1611.33 79.95144782621671
1617.19 79.93974617541888
1623.05 79.93173512860047
1628.91 79.9274773191976
1634.77 79.92714724333446
1640.62 79.93084226857485
1646.48 79.93856324282731
1652.34 79.95038537164507
1658.2 79.96627818152191
1664.06 79.98623338434223
1669.92 80.01019265559138
1675.78 80.03800416632507
1681.64 80.0695577109316
1687.5 80.10478617196034
1693.36 80.14342235539304
1699.22 80.18533127026137
1705.08 80.23028782352426
1710.94 80.27799284367048
1716.8 80.32828474742652
1722.66 80.38089842744868
1728.52 80.43553245418282
1734.38 80.49197374318678
1740.23 80.54997054505598
1746.09 80.6092339916509
1751.95 80.66949524556469
1757.81 80.7305672301141
1763.67 80.79221318012637
1769.53 80.85410243081705
1775.39 80.91609389709046
1781.25 80.97806022030376
1787.11 81.03967986383041
1792.97 81.10082654587299
1798.83 81.1613991882089
1804.69 81.22123126473768
1810.55 81.28017122991771
1816.41 81.33803001942873
1822.27 81.39484047816154
1828.12 81.45047079687512
1833.98 81.50484955404539
1839.84 81.55793181157358
1845.7 81.60965240096425
1851.56 81.65996466298893
1857.42 81.70885344036819
1863.28 81.75633094606869
1869.14 81.8024298785261
1875.0 81.84707286496351
1880.86 81.89032434613807
1886.72 81.93222198447216
1892.58 81.97274497023672
1898.44 82.0119052252941
1904.3 82.04981222829021
1910.16 82.0864481957926
1916.02 82.12187634820366
1921.88 82.15610870655381
1927.73 82.189194887098
1933.59 82.22115095420754
1939.45 82.2520530438452
1945.31 82.28189445740823
1951.17 82.31068249281675
1957.03 82.33843750031573
1962.89 82.36521943937458
1968.75 82.39099597121842
1974.61 82.41578822980415
1980.47 82.43960772942867
1986.33 82.4624098526485
1992.19 82.48420736110293
1998.05 82.50501697860452
2003.91 82.52474950587639
2009.77 82.54343562934223
2015.62 82.56102971487563
2021.48 82.57754907902927
2027.34 82.592842770267
2033.2 82.60700737837821
2039.06 82.61993828417091
2044.92 82.63160829472149
2050.78 82.6419997712353
2056.64 82.65110382371566
2062.5 82.65884239298103
2068.36 82.66523454732481
2074.22 82.67025042311096
2080.08 82.67387045429831
2085.94 82.67605535298122
2091.8 82.67686403611111
2097.66 82.67622178181708
2103.52 82.67424070137564
2109.38 82.67084655705176
2115.23 82.66610798635149
2121.09 82.6600048500247
2126.95 82.65263166283133
2132.81 82.64398643032501
2138.67 82.63417819654566
2144.53 82.62317540634625
2150.39 82.61110445502139
2156.25 82.59803379223116
2162.11 82.5840060894083
2167.97 82.56904857212659
2173.83 82.55336578589393
2179.69 82.53693549432268
2185.55 82.51989003724148
2191.41 82.50225056094831
2197.27 82.48415850492071
2203.12 82.46570545662681
2208.98 82.44692846560497
2214.84 82.42790923460412
2220.7 82.40875214227857
2226.56 82.38950504546429
2232.42 82.37024326330472
2238.28 82.35104349010966
2244.14 82.331950427362
2250.0 82.31305648457031
2255.86 82.29441625056657
2261.72 82.27599028554093
2267.58 82.25785976134674
2273.44 82.24011886437468
2279.3 82.22275035356161
2285.16 82.20575216137696
2291.02 82.18926894177719
2296.88 82.17321067381086
2302.73 82.15763232753837
2308.59 82.14256643064317
2314.45 82.12799762199631
2320.31 82.11396902055984
2326.17 82.10051768652644
2332.03 82.08758394162211
2337.89 82.07525623810906
2343.75 82.06356673885941
2349.61 82.05243752686398
2355.47 82.04196148552651
2361.33 82.0321504686879
2367.19 82.02301871392335
2373.05 82.01457059901216
2378.91 82.00686598131685
2384.77 81.99985622030556
2390.62 81.99370844810731
2396.48 81.98830352819965
2402.34 81.98373735585977
2408.2 81.98002382177121
2414.06 81.97718379608025
2419.92 81.97522564911687
2425.78 81.97418691560469
2431.64 81.97405872019188
2437.5 81.97491082223453
2443.36 81.97669802556292
2449.22 81.97943778236916
2455.08 81.98310522177542
2460.94 81.98770952025642
2466.8 81.99328448033634
2472.66 81.99977401811766
2478.52 82.007165915661
2484.38 82.01543908206114
2490.23 82.0245285930339
2496.09 82.03442744011063
2501.95 82.04507543049864
2507.81 82.06252998920198
2513.67 82.07487922384915
2519.53 82.08139628518333
2525.39 82.09456468099765
2531.25 82.10816499792175
2537.11 82.1222333219485
2542.97 82.13667671845633
2548.83 82.15144751149438
2554.69 82.1664377513107
2560.55 82.18164236730205
2566.41 82.19698085929727
2572.27 82.21239501516918
2578.12 82.22786155624746
2583.98 82.24329610916256
2589.84 82.25867743954444
2595.7 82.2739651115985
2601.56 82.28909837572196
2607.42 82.30409224722771
2613.28 82.31887649114277
2619.14 82.33345821259333
2625.0 82.34780487759082
2630.86 82.36196069572242
2636.72 82.37582845913155
2642.58 82.38941873105483
2648.44 82.40282102858517
2654.3 82.41600536557067
2660.16 82.42891187802016
2666.02 82.44163802688942
2671.88 82.45415112844748
2677.73 82.46644294440804
2683.59 82.47864029824386
2689.45 82.49066065449125
2695.31 82.50260545642378
2701.17 82.51441326627257
2707.03 82.52613456302733
2712.89 82.53783381449132
2718.75 82.5494699357883
2724.61 82.56111270463826
2730.47 82.57274971250277
2736.33 82.5844056853086
2742.19 82.5960789802372
2748.05 82.60777111330901
2753.91 82.6195100223961
2759.77 82.63133064375891
2765.62 82.64317797392678
2771.48 82.65506912646124
2777.34 82.6670599460926
2783.2 82.67906323018397
2789.06 82.69110583679442
2794.92 82.70319638737816
2800.78 82.71534841211967
2806.64 82.72748195465189
2812.5 82.7396537610715
2818.36 82.75180787166536
2824.22 82.76398259780996
2830.08 82.77610593600642
2835.94 82.78823656616389
2841.8 82.80032793796374
2847.66 82.81239808646663
2853.52 82.82438914443212
2859.38 82.83635440271617
2865.23 82.8482911626085
2871.09 82.86016374074761
2876.95 82.87197110489606
2882.81 82.88370820080888
2888.67 82.89539990935737
2894.53 82.90707941442015
2900.39 82.91866192497282
2906.25 82.93022572814934
2912.11 82.94174121129319
2917.97 82.95319479746868
2923.83 82.96466045068647
2929.69 82.976080710823
2935.55 82.98748036480221
2941.41 82.99881296700384
2947.27 83.01012999697042
2953.12 83.0214699409715
2958.98 83.03278528540827
2964.84 83.04405652806734
2970.7 83.05530695007052
2976.56 83.06648163002676
2982.42 83.07767164348805
2988.28 83.08878201934746
2994.14 83.09985897670725
3000.0 83.11085877549675
3005.86 83.12178796523077
3011.72 83.13258335742813
3017.58 83.14333091425381
3023.44 83.15389688727242
3029.3 83.16432448342142
3035.16 83.17464644975283
3041.02 83.18476419475101
3046.88 83.19470223523683
3052.73 83.20446132330049
3058.59 83.21402009399569
3064.45 83.22331998771624
3070.31 83.23239556707543
3076.17 83.24127304091547
3082.03 83.24989824668421
3087.89 83.2582216491658
3093.75 83.26631608234244
3099.61 83.27419725852921
3105.47 83.28181957997715
3111.33 83.2892283891793
3117.19 83.29637610260377
3123.05 83.30331384226524
3128.91 83.31001247523517
3134.77 83.3165569474607
3140.62 83.32288458506072
3146.48 83.32910096352927
3152.34 83.3351241602607
3158.2 83.34102482763682
3164.06 83.34682078499169
3169.92 83.35254480162092
3175.78 83.35820630525441
3181.64 83.36381139212456
3187.5 83.36938979355813
3193.36 83.37496847725453
3199.22 83.3805633725633
3205.08 83.38616076103989
3210.94 83.3918587735002
3216.8 83.397593440484
3222.66 83.40339472082228
3228.52 83.40928516804303
3234.38 83.41530078681238
3240.23 83.42137231415735
3246.09 83.42763417872966
3251.95 83.43393612270279
3257.81 83.44041079176263
3263.67 83.44703034172471
3269.53 83.45372284828701
3275.39 83.46059732457829
3281.25 83.46760860136013
3287.11 83.47473492662297
3292.97 83.48201685994795
3298.83 83.48941117444626
3304.69 83.49693649593321
3310.55 83.50456222625043
3316.41 83.51230607742784
3322.27 83.52021610008529
3328.12 83.52820655320681
3333.98 83.53633131374914
3339.84 83.54456214956377
3345.7 83.55293489746023
3351.56 83.56141578528914
3357.42 83.57004630074675
3363.28 83.57880744067101
3369.14 83.58768784067934
3375.0 83.59668209249863
3380.86 83.60582520627153
3386.72 83.61512260024321
3392.58 83.62450128546811
3398.44 83.634079198509
3404.3 83.64378919890748
3410.16 83.65365965807251
3416.02 83.66367008572203
3421.88 83.673806154166
3427.73 83.68412733015296
3433.59 83.69457082748079
3439.45 83.70516422331582
3445.31 83.71589052646746
3451.17 83.7267174543522
3457.03 83.73764750843503
3462.89 83.74867940640968
3468.75 83.75981961862965
3474.61 83.77099521492582
3480.47 83.78218067950213
3486.33 83.79341157013998
3492.19 83.8046311106534
3498.05 83.81578921326197
3503.91 83.8268834890003
3509.77 83.83790746495875
3515.62 83.84874143653819
3521.48 83.8594518184742
3527.34 83.86992595179535
3533.2 83.88024077095966
3539.06 83.8902526939506
3544.92 83.89992354915768
3550.78 83.9093006369375
3556.64 83.91832614772727
3562.5 83.92691166702882
3568.36 83.93511068909531
3574.22 83.94282319913293
3580.08 83.9500596576247
3585.94 83.95678876046355
3591.8 83.96299173561036
3597.66 83.96862888233143
3603.52 83.97370803792968
3609.38 83.9782419724898
3615.23 83.98214343823656
3621.09 83.98546416754678
3626.95 83.98820276832464
3632.81 83.9903753087718
3638.67 83.99187469858643
3644.53 83.99281267259296
3650.39 83.99318902340711
3656.25 83.9929403652229
3662.11 83.99216179273155
3667.97 83.9908116256164
3673.83 83.98894857301752
3679.69 83.98657503001301
3685.55 83.98367245213959
3691.41 83.98029802139676
3697.27 83.97649588362268
3703.12 83.97217395176258
3708.98 83.96750928934692
3714.84 83.96242335033038
3720.7 83.95693007240834
3726.56 83.95110729869617
3732.42 83.94490515214629
3738.28 83.93842122509056
3744.14 83.93164166970169
3750.0 83.92454239348956
3755.86 83.91717409488857
3761.72 83.90954526491548
3767.58 83.90169312481042
3773.44 83.89358807332442
3779.3 83.88530159762536
3785.16 83.87679118870359
3791.02 83.86809011556795
3796.88 83.8592023044774
3802.73 83.8501014957425
