Freq "Front Wall Bounce"
20.5078 65.44000783696305
21.9727 66.37302941288797
23.4375 67.39507353813994
24.9023 68.28504063123219
26.3672 69.28891149354352
27.832 70.17921838227687
29.2969 70.93607356038065
30.7617 71.7540094348164
32.2266 72.5066186509299
33.6914 73.14113208113812
35.1562 73.88571441944559
36.6211 74.2346272525512
38.0859 74.81178317163005
39.5508 75.52839673983075
41.0156 76.14844286247848
42.4805 76.89567091443627
43.9453 77.42503355297008
45.4102 77.95346388732099
46.875 78.3739766588643
48.3398 79.06349655686262
51.2695 79.9138353755213
52.7344 80.38096464107068
54.1992 80.80285323238921
55.6641 81.1722087294652
58.5938 81.99506640088538
60.0586 82.30246914869834
62.9883 83.04974561131668
64.4531 83.326656552414
67.3828 83.91396724198836
68.8477 84.1624795915457
71.7773 84.6677195534052
74.707 85.09341168665391
77.6367 85.45402581484099
79.1016 85.6561822038216
82.0312 86.13776992052749
84.9609 86.05580843629511
87.8906 85.94266810175942
90.8203 86.28710467325783
95.2148 86.5353022480104
98.1445 86.84368468344019
101.074 87.04746747691905
105.469 86.70427672610003
108.398 86.95945269769922
112.793 86.99714085506238
117.188 87.17766068581287
120.117 87.08498191022262
124.512 86.88123929387186
128.906 86.98350183811395
133.301 87.01623919792561
139.16 86.72452849003302
143.555 86.77532501151883
147.949 86.8189477127864
153.809 86.72958253901103
159.668 86.75122157149944
165.527 86.57286322012345
171.387 86.23131174689138
177.246 85.88053983748773
183.105 85.97760377206053
188.965 86.17972812985181
196.289 87.13012184679287
203.613 87.04774131991914
210.938 86.8552556214552
218.262 86.72722768984303
225.586 86.93615758976482
232.91 87.0982500253709
241.699 86.73302574598935
250.488 86.54400259732071
259.277 86.58240875347009
268.066 86.44084481588365
276.855 86.4248288323873
287.109 86.41406661525058
297.363 86.5536613507371
307.617 86.3896964647451
319.336 86.42750482943741
329.59 86.30888245729064
341.309 85.86540508906042
353.027 86.45076130044446
366.211 86.73253994075691
379.395 86.6353644988607
392.578 85.25009205881484
405.762 86.77825366367837
420.41 89.18405618630725
435.059 87.61899979390529
451.172 88.35883990422293
465.82 88.28236560571023
483.398 87.86368338112274
499.512 88.10121986427285
517.09 87.77461275880239
536.133 88.34051222308277
555.176 88.27900976454376
574.219 88.14434075434806
594.727 87.64495103214739
615.234 85.85185650920133
637.207 89.63264978919015
659.18 90.73721422600568
682.617 89.55561830259197
707.52 89.46838957665067
732.422 88.49551251665143
757.324 90.56078097769742
785.156 91.42617251629537
811.523 91.04430656150441
840.82 90.81958697847962
870.117 90.15947033970936
900.879 90.32782511072998
933.105 90.18511524177949
965.332 89.79537133487895
1000.49 89.50640374801405
1035.64 89.3169110783779
1072.27 90.22638841057375
1108.89 90.44064699316282
1148.44 90.15951067667625
1189.45 90.12930768242552
1230.47 92.13015015800626
1274.41 90.4462582465024
1319.82 90.12399670968136
1366.7 90.07488078449194
1413.57 90.2068690727697
1463.38 91.07415015163932
1516.11 91.34690695823872
1568.85 91.10000415317819
1624.51 90.36891610386843
1681.64 89.63810879051668
1741.7 88.82384786227442
1803.22 88.44176971796716
1866.21 88.26943330063277
1932.13 87.42238673891595
1999.51 86.76362300232057
2069.82 88.32454175565204
2143.07 89.30547086877615
2219.24 89.4121503240193
2296.88 87.82138263392079
2378.91 87.39367480002382
2462.4 88.71499850846158
2548.83 89.07202927219575
2639.65 86.5183887068396
2731.93 86.05635138114758
2828.61 88.20294733223128
2928.22 92.2650470424274
3030.76 92.62754550584708
3137.7 90.78934529275614
3249.02 89.47331574116144
3363.28 88.50845803806526
3481.93 88.47666356608269
3604.98 90.68195937990761
3732.42 91.09085550946781
3864.26 89.32504753745464
4000.49 88.62781074355811
4141.11 88.51080605693329
4287.6 89.70140592254171
4438.48 91.22892764188417
4595.21 92.79512765032823
4756.35 91.82768773667843
4924.8 90.37749124302852
5097.66 90.08108894501788
5277.83 90.75552404365419
5463.87 89.79592859744416
5657.23 89.66171131119856
5856.45 88.91408029766554
6062.99 89.54963835214652
6276.86 89.53399078786661
6498.05 88.94908941196235
6726.56 85.80815669715211
6963.87 84.34892233783468
7209.96 84.59457047856185
7464.84 84.17995056478087
7727.05 84.67772794483685
7999.51 84.7937098968615
8282.23 85.44967682440459
8573.73 84.46694304113265
8876.95 84.08428110319964
9188.96 85.0334825119333
9514.16 85.2037319541694
9849.61 85.86996744322224
10196.8 86.65321142797883
10555.7 87.25754916023985
10927.7 86.66566626244025
11313.0 86.30965442491308
11712.9 87.67393377324838
12126.0 89.49527883999859
12553.7 90.01085820492345
12996.1 89.06076397794294
13454.6 89.39342481868334
13929.2 89.18692208125924
14419.9 86.60299052037766
14928.2 85.66909805479109
15455.6 85.33838487654711
16000.5 85.2945323167082
16564.5 85.24792388476263
17148.9 84.45045643910714
17752.4 83.17813809408378
18379.4 81.04674860786261
19026.9 78.88616207550773
19697.8 77.76976426047314
19999.5 77.40042545027083
