Freq "Front Wall Bounce"
22.4 60.50650580649747
23.0 61.800778269687356
23.6 62.60385063968465
24.0 63.37983225986724
25.0 64.02615966022893
25.8 65.63532285111046
26.5 68.37197721927315
27.2 67.94659453418029
28.0 69.12850915169616
29.0 70.66964231307271
30.0 72.08855857981376
30.7 73.55870682750536
31.5 75.24338471918884
32.5 77.08558680455184
33.5 78.7283515140304
34.5 80.52835151403039
35.5 82.10010855565241
36.5 83.10010855565243
37.5 84.27232989567355
38.7 85.31491846491365
40.0 86.14371904819197
41.2 87.22900719307178
42.5 88.02900719307178
43.7 88.64371904819197
45.0 89.34371904819197
46.2 89.94371904819198
47.5 90.54371904819197
48.7 91.04371904819197
50.0 91.51621881756985
51.5 92.01621881756984
53.0 92.61621881756984
54.5 93.31621881756985
56.0 93.94371904819198
58.0 94.72900719307178
60.0 95.48558680455183
61.5 95.91458191132719
63.0 96.07232989567355
65.0 96.21621881756985
67.0 96.345679189252
69.0 96.41621881756986
71.0 96.4891752770575
73.0 96.46067555438648
75.0 96.36067555438648
77.5 96.24567918925199
80.0 96.01621881756985
82.5 95.74567918925199
85.0 95.44567918925199
87.5 95.01621881756985
90.0 94.57299408675232
92.5 93.97299408675234
95.0 93.40141334955335
97.5 93.01621881756986
100.0 92.845679189252
103.0 92.78917527705748
106.0 92.71881904436914
109.0 92.56067555438648
112.0 92.43390828464737
115.0 92.20436768416616
118.0 92.03390828464737
122.0 91.93390828464737
125.0 91.93390828464737
128.0 91.83390828464738
132.0 91.83390828464738
136.0 91.93390828464737
140.0 92.23390828464736
145.0 92.53390828464735
150.0 92.66393039080366
155.0 92.6924088321031
160.0 92.50758995160074
165.0 92.37921121062844
170.0 92.32306994369121
175.0 92.32306994369121
180.0 92.37921121062844
185.0 92.43390828464737
190.0 92.4924088321031
195.0 92.50758995160074
200.0 92.6230699436912
206.0 92.79479250527925
212.0 93.04929491682279
218.0 93.31881904436915
224.0 93.47427716886489
230.0 93.21881904436913
236.0 92.80758995160075
240.0 92.15316680785284
250.0 91.32306994369121
258.0 90.57921121062844
265.0 89.95316680785284
272.0 89.65316680785284
280.0 89.6433308175492
290.0 89.8182550602596
300.0 90.28994615171959
307.0 90.80622019204613
315.0 91.0884819100786
325.0 91.16478618451478
335.0 91.28848191007859
345.0 91.1884819100786
355.0 91.01334698245492
365.0 90.99032462110866
375.0 91.09032462110865
387.0 91.18483459848139
400.0 91.4173600405414
412.0 91.77360959804784
425.0 91.94835584269188
437.0 91.94835584269188
450.0 91.43029510436159
462.0 90.9755067757944
475.0 90.64150425808195
487.0 90.41334698245493
500.0 90.76770778537839
515.0 91.53972043452015
530.0 92.13972043452014
545.0 92.2173600405414
560.0 91.84587790907604
580.0 91.5634909853878
600.0 91.34225628397178
615.0 91.10719004077347
630.0 90.96349098538782
650.0 90.81736004054139
670.0 90.60036126589137
690.0 90.26349098538782
710.0 90.14225628397179
730.0 90.09376180193405
750.0 90.1120014090526
775.0 90.37315608863591
800.0 90.49148225899867
825.0 90.59148225899867
850.0 90.57133608185542
875.0 90.40549399512841
900.0 90.42410730304285
925.0 90.55815217884843
950.0 90.72061574725134
975.0 90.93043204621233
1000.0 90.93553427374255
1030.0 90.87159018569614
1060.0 90.79812691681641
1090.0 90.61517472671048
1120.0 90.29812691681643
1150.0 89.93825526752774
1180.0 89.67969260312523
1220.0 89.50725466136292
1250.0 89.31938150051342
1280.0 89.03577868023913
1320.0 88.83888946485246
1360.0 88.70571573472543
1400.0 88.46067271784138
1450.0 87.90503152947358
1500.0 87.15458219973111
1550.0 86.17132769228115
1600.0 85.1250663843829
1650.0 84.65344409222008
1700.0 84.70749120530432
1750.0 84.71137982796891
1800.0 84.42763905255586
1850.0 84.39949992988522
1900.0 84.47771710904289
1950.0 84.58447254264418
2000.0 84.94010888649522
2060.0 85.17975904182202
2120.0 85.02327876338047
2180.0 86.86947904910954
2240.0 88.44559079728725
2300.0 89.29729997722103
2360.0 89.39129123222696
2400.0 89.76056244269928
2500.0 90.57550558958295
2580.0 90.79224066321332
2650.0 90.74540395113547
2720.0 91.09656502224122
2800.0 91.86157987559109
2900.0 92.5793706464784
3000.0 93.16423087728492
3070.0 92.13573057628717
3150.0 92.16083999782471
3250.0 92.53254977212467
3350.0 91.86478318606083
3450.0 91.02172165614996
3550.0 90.94485668458593
3650.0 90.56302710235884
3750.0 90.14472324148497
3870.0 90.21570724669715
4000.0 90.79537678898167
4120.0 90.63866374965572
4250.0 90.47928046741423
4370.0 90.86541608598066
4500.0 91.05850031666918
4620.0 91.51928352429775
4750.0 92.99832557473317
4870.0 94.71221155557544
5000.0 96.01948267243921
5150.0 96.49746315834949
5300.0 96.23896351387404
5450.0 97.03662445389087
5600.0 95.61393983968699
5800.0 94.46322497222738
6000.0 93.8112987919009
6150.0 94.51955658799302
6300.0 94.39765245162525
6500.0 94.05401304250128
6700.0 92.03971548734239
6900.0 91.07370941794048
7100.0 90.33314087722924
7300.0 89.68771030649758
7500.0 89.38970534930301
7750.0 88.7872530191949
8000.0 88.98736717559314
8250.0 89.91389424029445
8500.0 90.57033655076609
8750.0 90.81874124052891
9000.0 90.52768337378272
9250.0 90.42084588061687
9500.0 91.18483459848139
9750.0 91.32140414954881
10000.0 91.11962600251516
10300.0 91.24449082728998
10600.0 91.4589671396983
10900.0 91.99170146206431
11200.0 92.06078163022855
11500.0 91.37735449232419
11800.0 91.5070539640574
12200.0 91.6766367833344
12500.0 91.3224716765392
12800.0 91.27164463012994
13200.0 91.4390350934573
13600.0 91.05797049438567
14000.0 91.03034582669689
14500.0 90.62405713639028
15000.0 90.5539553611558
15500.0 90.7870767335361
16000.0 90.10330229658246
16500.0 89.81506132934723
17000.0 90.59650488524797
17500.0 90.34607083886965
18000.0 90.25480626504265
18500.0 89.66216096054185
19000.0 87.77134055365016
19500.0 85.40047118461872
