Freq "Estimated In-Room Response"
20.5078 38.45145399892141
21.9727 42.09946823019001
23.4375 46.62734195049782
24.9023 48.166321982189885
26.3672 49.085329531601104
27.832 52.02817491319303
29.2969 53.121246536776255
30.7617 53.85731964444031
32.2266 55.941355725135764
33.6914 57.625806359437746
35.1562 59.08299962961388
36.6211 60.75037387593645
38.0859 61.47414919331331
39.5508 62.98106163013557
41.0156 63.978094454083475
42.4805 64.8401592212063
43.9453 65.84593922588556
45.4102 66.86454376948707
46.875 67.79567698631088
48.3398 68.49816691786997
51.2695 69.76116195425948
52.7344 70.39524978801215
54.1992 70.88033712632657
55.6641 71.34295867413428
58.5938 72.11244315096265
60.0586 72.50997464889514
62.9883 73.26759681919515
64.4531 73.568301059486
67.3828 74.06376858157411
68.8477 74.25940014784358
71.7773 74.84745858801284
74.707 75.45024190369698
77.6367 75.72902362723985
79.1016 75.89207888582563
82.0312 76.50744021447863
84.9609 76.87699414820894
87.8906 76.93176641368822
90.8203 77.56791955224514
95.2148 78.06645100390955
98.1445 78.4148713245543
101.074 78.73329135691432
105.469 79.12185838747713
108.398 79.42471405479002
112.793 79.7886526761123
117.188 80.21864088366743
120.117 80.32659149649176
124.512 80.57752243317336
128.906 80.74118590861471
133.301 80.93564174567126
139.16 80.97365427705313
143.555 81.07151305914431
147.949 81.21546517671621
153.809 81.22087467193101
159.668 81.27703627553547
165.527 81.25583046775373
171.387 81.22969711355822
177.246 81.13968063428173
183.105 81.0037611883858
188.965 80.93972841538768
196.289 80.98074392257644
203.613 80.7797785081186
210.938 80.58152828229353
218.262 80.46792895254437
225.586 80.35163327166904
232.91 80.2311935762541
241.699 80.03110481656097
250.488 79.82276221857303
259.277 79.82164863182291
268.066 79.52539296328905
276.855 79.35219833950508
287.109 79.36869122459773
297.363 79.13216813849579
307.617 79.09806760922588
319.336 78.81117136367655
329.59 78.67678875417428
341.309 78.4989228805534
353.027 78.3405913045327
366.211 78.2418029284636
379.395 78.34172233595118
392.578 77.94359102753185
405.762 77.7338026326417
420.41 77.82838618464802
435.059 77.53958740159915
451.172 77.57371714471654
465.82 77.23547698010762
483.398 77.0706017728028
499.512 76.70009313060507
517.09 76.11601199318108
536.133 74.64104127422516
555.176 74.6949655326244
574.219 81.78382667143364
594.727 82.86242454704858
615.234 81.25984164299646
637.207 80.24681516168113
659.18 79.45128343412512
682.617 79.30690313965701
707.52 78.92253463087167
732.422 78.65301623249775
757.324 78.47325821863899
785.156 78.25411665819074
811.523 78.43291416301071
840.82 78.71859426598031
870.117 78.49098217458064
900.879 78.92064162796272
933.105 78.78857098242602
965.332 79.18548081418113
1000.49 79.74583845978684
1035.64 79.5704314469196
1072.27 75.19033019802384
1108.89 74.19833309061998
1148.44 75.95384470570622
1189.45 77.30020122628054
1230.47 78.03428621707317
1274.41 79.16285673232682
1319.82 78.39369854962862
1366.7 76.99381165110186
1413.57 76.95871916591652
1463.38 77.555084732369
1516.11 81.04805020369989
1568.85 81.41520013599602
1624.51 80.14457165004288
1681.64 79.53228641637867
1741.7 79.70519464427215
1803.22 80.2843362047902
1866.21 80.03576493205216
1932.13 79.06889075612723
1999.51 78.39032946459311
2069.82 77.3249615217328
2143.07 77.52993265009769
2219.24 77.1669145729265
2296.88 76.44029834720442
2378.91 75.78648464794023
2462.4 76.29722812801793
2548.83 76.98317659385009
2639.65 76.33391069416808
2731.93 76.14910895609303
2828.61 76.59970537231776
2928.22 76.99536216816907
3030.76 77.40634047257296
3137.7 77.73766058971573
3249.02 77.89196297234402
3363.28 77.19018133018668
3481.93 76.8612330025116
3604.98 77.53943421813351
3732.42 77.27894993557533
3864.26 76.75431018417213
4000.49 77.45352946817303
4141.11 77.30739026484275
4287.6 77.57855597189722
4438.48 77.30342908712436
4595.21 77.85812695127659
4756.35 76.95643909186371
4924.8 77.14099584681853
5097.66 77.6427130277367
5277.83 77.71954368898832
5463.87 77.4689121396836
5657.23 78.2447256345387
5856.45 78.10787442980723
6062.99 78.8419604156175
6276.86 78.81491813401179
6498.05 78.8728943011157
6726.56 79.035610158404
6963.87 78.64049662755396
7209.96 79.1419117536879
7464.84 78.57591614054091
7727.05 78.53723783009092
7999.51 78.31204490617452
8282.23 78.71360596812161
8573.73 78.7298000570525
8876.95 78.5308066543419
9188.96 78.91482968511613
9514.16 78.63854312713889
9849.61 78.43432894664444
10196.8 78.25814871731455
10555.7 77.94297023989068
10927.7 77.76941306814047
11313.0 77.90121502465169
11712.9 78.16955884965776
12126.0 78.15340702802845
12553.7 78.04409845235695
12996.1 77.88568459539928
13454.6 77.67514325901028
13929.2 77.4177864608269
14419.9 77.3288332964042
14928.2 77.49916422950425
15455.6 77.4043905719328
16000.5 77.22771748820759
16564.5 76.75127917828712
17148.9 76.03465181540017
17752.4 75.39264207987097
18379.4 74.74715491622794
19026.9 74.46755411752818
19697.8 74.54663561312141
19999.5 74.57309936740452
