Freq "Estimated In-Room Response"
22.4 60.547644778064424
23.0 61.155747999023035
23.6 61.70910425827414
24.0 62.303703610589636
25.0 62.87095049065071
25.8 63.44886613229106
26.5 63.997165958134005
27.2 64.56063304006527
28.0 65.10744254076242
29.0 65.67955444623065
30.0 66.2253672022395
30.7 66.76104725481365
31.5 67.32884851289835
32.5 67.86536410903373
33.5 68.41561851581757
34.5 68.95719608281571
35.5 69.5112641702333
36.5 70.05225707661818
37.5 70.60497003936511
38.7 71.17742857032688
40.0 71.72024286991534
41.2 72.28105621364112
42.5 72.8532763112154
43.7 73.4231956180543
45.0 73.98634758232312
46.2 74.55184216134724
47.5 75.1285017505666
48.7 75.70384956383184
50.0 76.29081118322071
51.5 76.87691362614162
53.0 77.47155931090053
54.5 78.05541602438286
56.0 78.65609209339287
58.0 79.24959967654725
60.0 79.83727373852123
61.5 80.43966013858493
63.0 81.03747417115298
65.0 81.63976736337803
67.0 82.239384543327
69.0 82.83775135583919
71.0 83.44553273492893
73.0 84.04001336939864
75.0 84.64974451600463
77.5 85.24418171973761
80.0 85.83187390706308
82.5 86.42390346776405
85.0 87.0226501459302
87.5 87.59679853932302
90.0 88.16296620857239
92.5 88.73783729951792
95.0 89.31142987565137
97.5 89.86425423170853
100.0 90.41966345719698
103.0 90.95555332131252
106.0 91.47874640278597
109.0 92.01309036833432
112.0 92.52934127108412
115.0 93.02061507183394
118.0 93.51148499842407
122.0 93.97307108910779
125.0 94.41039475190516
128.0 94.84881992011597
132.0 95.25858316102062
136.0 95.63898011777272
140.0 96.00452981959138
145.0 96.33782132399362
150.0 96.64632355004744
155.0 96.91879645532862
160.0 97.15778768998153
165.0 97.36903585045869
170.0 97.54114989169675
175.0 97.66631455240608
180.0 97.77077297735727
185.0 97.82776807352016
190.0 97.84885540642192
195.0 97.83986521625431
200.0 97.79283936921789
206.0 97.73634658467873
212.0 97.64038367099158
218.0 97.55685722009862
224.0 97.47098885131679
230.0 97.39540968936022
236.0 97.33981311004464
240.0 97.31166695234985
250.0 97.26259111318397
258.0 97.25349984757351
265.0 97.2260388639666
272.0 97.15119535360365
280.0 97.05745538931579
290.0 96.92258362082197
300.0 96.73666734630028
307.0 96.54000615751609
315.0 96.37710474302546
325.0 96.25447802526132
335.0 96.21527179877208
345.0 96.23700809373942
355.0 96.2779913221088
365.0 96.27466425419372
375.0 96.1839479066521
387.0 95.99287555365366
400.0 95.70351999742806
412.0 95.34418173543081
425.0 94.97619968299776
437.0 94.64773462113773
450.0 94.40002372581428
462.0 94.22842736795381
475.0 94.12629416612658
487.0 94.02108437991839
500.0 93.94469146070233
515.0 93.83838147021508
530.0 93.75059641345352
545.0 93.65291316236745
560.0 93.48514128837951
580.0 93.27493744793118
600.0 93.0333910749867
615.0 92.92991242130714
630.0 93.08049763117405
650.0 93.59045341285525
670.0 94.37881887574984
690.0 95.2569361148426
710.0 96.13665115333136
730.0 96.95244807855369
750.0 97.6025857279964
775.0 97.93353703638854
800.0 97.8365275971128
825.0 97.30164356767243
850.0 96.36359007432394
875.0 95.41654239201732
900.0 94.83278883563402
925.0 94.64479157477872
950.0 94.705080479465
975.0 94.83344854925807
1000.0 94.93477172963726
1030.0 95.1270661048141
1060.0 95.3961615290491
1090.0 95.64849157747612
1120.0 95.86255403298885
1150.0 95.90342105062224
1180.0 95.9066934970022
1220.0 96.03519910647971
1250.0 95.98141882597695
1280.0 96.22254665335164
1320.0 96.33526910390889
1360.0 96.07534538611976
1400.0 95.88457599187593
1450.0 95.99813228280135
1500.0 96.12824309468554
1550.0 96.24987506620401
1600.0 96.11043954972101
1650.0 96.32775041651543
1700.0 95.93772579335473
1750.0 95.68954326848687
1800.0 95.53199686421651
1850.0 95.3557691389678
1900.0 95.42781940849889
1950.0 95.36204689408419
2000.0 95.13230801290428
2060.0 95.35728122857527
2120.0 95.72038651627408
2180.0 95.17012487982245
2240.0 94.59118828819383
2300.0 94.46943465929326
2360.0 94.48506533601487
2400.0 94.94105654037523
2500.0 95.02572219223507
2580.0 95.1176148358699
2650.0 96.08833183667915
2720.0 97.1119379011115
2800.0 96.70969063874516
2900.0 95.96886835547389
3000.0 95.57909997794407
3070.0 95.56882160539503
3150.0 95.08375623456043
3250.0 95.44591211077521
3350.0 95.77514434118636
3450.0 95.54105296285793
3550.0 95.21227126203068
3650.0 94.04771455147835
3750.0 93.19875878479077
3870.0 93.31798508090952
4000.0 94.21841912475121
4120.0 93.72834736745995
4250.0 94.11482355460977
4370.0 94.64683621376368
4500.0 95.30994879943434
4620.0 95.46860202762083
4750.0 96.1786281319176
4870.0 96.76075748821573
5000.0 96.88336473092158
5150.0 96.95484813052123
5300.0 96.12133211828332
5450.0 96.23583331562615
5600.0 96.287935397196
5800.0 95.99932645491587
6000.0 96.6479000770006
6150.0 97.57911889893752
6300.0 97.54647185204028
6500.0 97.894384065143
6700.0 97.36623015090483
6900.0 96.31125431906717
7100.0 95.94244893858114
7300.0 95.39856628224629
7500.0 95.33728723046148
7750.0 95.2475240363321
8000.0 95.26321691105234
8250.0 97.07230177439335
8500.0 98.53301969787445
8750.0 98.88104639995423
9000.0 97.29948071834806
9250.0 95.8139984188042
9500.0 94.27772465266686
9750.0 95.86383303605321
10000.0 96.20883629979254
10300.0 96.8299091496834
10600.0 96.0771347419069
10900.0 93.93003360763622
11200.0 92.31998335163262
11500.0 92.46849428004721
11800.0 93.69763701173439
12200.0 94.94746070431322
12500.0 94.16299739921169
12800.0 91.3094799620544
13200.0 91.4634106211221
13600.0 91.96132603045642
14000.0 91.84994386611518
14500.0 91.99651794520129
15000.0 91.0480000820411
15500.0 90.35697614823748
16000.0 97.67584518238455
16500.0 92.0935775370089
17000.0 91.57572982046159
17500.0 88.55506252680738
18000.0 88.97160215741886
18500.0 91.53101383640885
19000.0 88.78730006881462
19500.0 87.39734325995174
