Freq "Floor Bounce"
20.5078 65.60420145190474
21.9727 66.48835918989883
23.4375 67.42829061181602
24.9023 68.95952774202016
26.3672 69.27255657352161
27.832 70.20307831057059
29.2969 71.31510015134651
30.7617 72.18679273892049
32.2266 72.98639867295549
33.6914 73.85034041421342
35.1562 74.62006705393561
36.6211 75.47207857496251
38.0859 76.32636000194644
39.5508 77.0442100228012
41.0156 77.73031925458274
42.4805 78.48849105782448
43.9453 79.27773312666275
45.4102 79.893207119551
46.875 80.51308036459992
48.3398 81.18537300751734
51.2695 82.47443342460502
52.7344 83.15756526144679
54.1992 83.8272906887048
55.6641 84.38959287100543
58.5938 85.54997656650218
60.0586 86.19217268260503
62.9883 87.27274003757448
64.4531 87.71354904045538
67.3828 88.60344657959267
68.8477 89.11484920697836
71.7773 89.88180126688539
74.707 90.46433469916705
77.6367 90.7647113871764
79.1016 90.83180344231886
82.0312 90.96005031442388
84.9609 91.0075712493904
87.8906 91.10775492687351
90.8203 91.1574146672906
95.2148 90.83414054055741
98.1445 90.65451506279533
101.074 90.47645866681955
105.469 89.92909061150954
108.398 89.6827701629335
112.793 89.01623416919291
117.188 88.84697627845662
120.117 88.81073984258208
124.512 88.71044268345962
128.906 88.77430185722181
133.301 88.46142108489123
139.16 87.80624392728795
143.555 87.89142064944262
147.949 88.19540102417673
153.809 88.14386182759652
159.668 86.84465318151068
165.527 86.68613523854354
171.387 86.845463955401
177.246 86.93156862750155
183.105 86.52145644323323
188.965 86.90756377399387
196.289 86.54098838904474
203.613 86.5269818887988
210.938 86.88551535288487
218.262 86.75614151842504
225.586 86.83560929458791
232.91 87.64067085219503
241.699 86.79325843553626
250.488 87.82290214904853
259.277 88.61960422536758
268.066 87.58249436219039
276.855 86.71785340241247
287.109 87.70224561797895
297.363 87.85434631895517
307.617 87.89736668921509
319.336 87.13948824808212
329.59 87.70083669568064
341.309 86.98316546514523
353.027 87.72331860477172
366.211 87.38468850791314
379.395 86.84614980814123
392.578 87.70029393318485
405.762 87.09109591746224
420.41 86.88875205418391
435.059 86.3178464750002
451.172 86.73589206461531
465.82 87.34251156987234
483.398 87.55932498250124
499.512 85.64621766589333
517.09 87.49566856120555
536.133 87.82741796947434
555.176 86.46174548973983
574.219 86.48860848522682
594.727 87.02001190082561
615.234 86.46603229495575
637.207 85.49049770864832
659.18 86.5249205833326
682.617 86.14773495183691
707.52 85.66674252164114
732.422 86.12557481927763
757.324 85.84610747727523
785.156 86.0597075134428
811.523 86.10909928079226
840.82 86.47025584260226
870.117 86.0854532158665
900.879 86.45788618369866
933.105 85.76643076363224
965.332 85.1773377046924
1000.49 83.94276823005875
1035.64 83.72042959912825
1072.27 82.96603627877036
1108.89 83.52106649114366
1148.44 82.91675855253217
1189.45 81.61792698237234
1230.47 80.75755252482175
1274.41 79.34205892807661
1319.82 79.84562571797126
1366.7 79.56767443902292
1413.57 80.83995527662026
1463.38 82.47547889715769
1516.11 81.90556143304318
1568.85 80.2818798347107
1624.51 80.72799530348709
1681.64 82.07504021627031
1741.7 80.81449140500746
1803.22 80.98550444425696
1866.21 82.25504096557887
1932.13 82.59262471919018
1999.51 83.29890464931603
2069.82 84.06440871031937
2143.07 83.59621255160395
2219.24 84.17264596354914
2296.88 83.36771023487589
2378.91 83.43225886385613
2462.4 83.32957914544659
2548.83 83.45054739280219
2639.65 83.65971679888266
2731.93 84.2559744369087
2828.61 84.6963938544834
2928.22 84.76596756030528
3030.76 85.09774123785205
3137.7 85.14949517744326
3249.02 85.47214782684908
3363.28 85.90321120259084
3481.93 86.13561385264455
3604.98 85.8985089609476
3732.42 85.51481914392785
3864.26 84.36809131107968
4000.49 80.7401123783314
4141.11 82.00928928216155
4287.6 84.52867798752482
4438.48 86.87507577739403
4595.21 88.35605693360989
4756.35 88.66228647124973
4924.8 88.06419945460087
5097.66 88.43523445296425
5277.83 88.4278613984366
5463.87 88.62275704001047
5657.23 88.03665256512656
5856.45 87.3493429855595
6062.99 87.66191840693402
6276.86 88.2351290620695
6498.05 88.04146113714853
6726.56 87.02675628770055
6963.87 86.06653067931916
7209.96 86.38357155374928
7464.84 87.45873948568723
7727.05 87.45609349427582
7999.51 86.60489704970422
8282.23 85.35692770959173
8573.73 85.0244060745259
8876.95 85.36449437532063
9188.96 86.09742583427533
9514.16 86.85673690707047
9849.61 87.78649347587857
10196.8 86.8317463203175
10555.7 86.67204293004389
10927.7 87.40662299629372
11313.0 86.89190578731171
11712.9 86.70962354515129
12126.0 87.41666300468921
12553.7 87.62155732126188
12996.1 87.33750003246396
13454.6 87.0873895345016
13929.2 86.59254004818615
14419.9 85.88888783657714
14928.2 85.08507889339981
15455.6 84.10314760873054
16000.5 83.02202258988031
16564.5 81.70886940412052
17148.9 80.34846931519883
17752.4 79.43741720748088
18379.4 79.03068682627917
19026.9 78.28576232819948
19697.8 77.06425646819828
19999.5 76.27275186810165
