Freq "Listening Window"
20.0 41.602198666177486
20.2909 41.969467245135235
20.586 42.11151546000224
20.8855 42.44471935468596
21.1893 43.052252672602435
21.4975 43.75456969560861
21.8102 44.57637994731516
22.1274 45.206004674551366
22.4492 45.61022833926543
22.7758 45.888706827863444
23.1071 46.011814859091544
23.4432 46.0635278488933
23.7841 46.43835573672578
24.1301 47.08985756515665
24.4811 47.82335295020181
24.8372 48.35211858419939
25.1984 48.72985840909189
25.5649 48.93367407388803
25.9368 49.04774681307569
26.3141 49.23643097857922
26.6968 49.554197351497265
27.0851 49.86258449727566
27.4791 50.0327361784301
27.8788 50.225313846456146
28.2843 50.299773102262776
28.6957 50.49787434173737
29.1131 50.86844323913223
29.5365 51.35214870111139
29.9661 51.71307510229792
30.402 52.03330121941863
30.8442 52.200135252157594
31.2929 52.47572682750314
31.748 52.776617197901146
32.2098 53.06742543086497
32.6783 53.264152654584336
33.1536 53.55065094648998
33.6359 53.881731995986314
34.1251 54.144926919774065
34.6215 54.587123736877544
35.125 54.892260488015694
35.6359 55.21194861270442
36.1543 55.62248944894077
36.6802 55.93804107518622
37.2137 56.3624282601173
37.755 56.70164899738813
38.3041 57.016536315647755
38.8613 57.38968582690089
39.4265 57.725576174996746
40.0 58.061815978626385
40.5818 58.401234723384846
41.1721 58.84251817310178
41.771 59.19156018272085
42.3785 59.560440137826134
42.9949 59.82651844871506
43.6203 60.13843065722199
44.2548 60.61005603988312
44.8985 60.98227082439669
45.5515 61.431724164562695
46.2141 61.848266278086044
46.8863 62.19567008217663
47.5683 62.57359593566616
48.2602 63.049294062066565
48.9621 63.41110975850481
49.6743 63.802974394069025
50.3968 64.2850500259246
51.1299 64.66467954661029
51.8736 65.1695434728321
52.6281 65.64737429948211
53.3936 66.03421580051797
54.1702 66.42458989312678
54.9581 66.90541858324536
55.7575 67.3711089699173
56.5685 67.75837637759884
57.3914 68.18324770480558
58.2261 68.66134533596741
59.073 69.1182921221819
59.9323 69.54186257079397
60.804 70.00730142322404
61.6884 70.40730142322403
62.5857 70.94367254723443
63.496 71.3035963674476
64.4196 71.81590214472902
65.3566 72.3207325865004
66.3073 72.7150810894658
67.2717 73.22432634971985
68.2502 73.6167390287356
69.2429 74.08278116429439
70.2501 74.49081594596879
71.2719 74.98557904049257
72.3086 75.3803639812038
73.3603 75.88398917283101
74.4274 76.26639579139172
75.5099 76.65166666001876
76.6083 77.06387164327512
77.7226 77.47910479960463
78.8531 77.84593158256415
80.0 78.15013229531114
81.1636 78.44932822018437
82.3442 78.84597134300398
83.5419 79.15515649402244
84.757 79.4406858502779
85.9899 79.7134527591763
87.2406 80.0204797056874
88.5096 80.23978235615897
89.797 80.51014963160107
91.1031 80.71979130480813
92.4282 81.03667268352355
93.7726 81.25006279784544
95.1366 81.42687839517285
96.5204 81.60460683470556
97.9243 81.71800889787312
99.3486 81.90466253369436
100.794 82.02528044837061
102.26 82.03990182520391
103.747 82.12756507533159
105.256 82.32579300110987
106.787 82.4235886153946
108.34 82.52982913299834
109.916 82.7483920038257
111.515 82.880704173408
113.137 82.96471755831945
114.783 83.10688875731054
116.452 83.19724564370021
118.146 83.33552478075171
119.865 83.45325563051131
121.608 83.48676525805739
123.377 83.55859460606496
125.171 83.68456930832261
126.992 83.80846409312973
128.839 83.90846409312974
130.713 84.08665014275734
132.615 84.19647859221195
134.543 84.31824374733003
136.5 84.40789999760037
138.486 84.6454324544818
140.5 84.76779326848728
142.544 84.74466388137806
144.617 84.8610772008303
146.721 84.88741679868929
148.855 84.96081747598072
151.02 85.08142429316844
153.217 85.17977109900998
155.445 85.26512477472487
157.706 85.35118066468422
160.0 85.33851007369321
162.327 85.31794323794487
164.688 85.41067346954658
167.084 85.49509483591919
169.514 85.56770650259199
171.98 85.53952307549964
174.481 85.62744607104818
177.019 85.70707856887327
179.594 85.67821869910102
182.206 85.76023639397545
184.856 85.82517114307309
187.545 85.92020981253089
190.273 85.99062896895958
193.041 86.08614198766874
195.849 86.17433330870642
198.697 86.2670244487152
201.587 86.34477884820959
204.52 86.35587325143017
207.494 86.45283841001716
210.512 86.54355441558988
213.574 86.62994362423136
216.681 86.72640421683347
219.833 86.81784034547941
223.03 86.82640593984333
226.274 86.82572509231761
229.565 86.7997332147284
232.905 86.78801218481193
236.292 86.7208383834491
239.729 86.7757760308644
243.216 86.78318516608425
246.754 86.75137884373561
250.343 86.74604296876115
253.984 86.74149030430591
257.678 86.71321644983533
261.426 86.7120076031714
265.229 86.75186843416466
269.087 86.79707343896199
273.001 86.796073438962
276.972 86.81126916367462
281.0 86.82011105405631
285.088 86.84432208555943
289.234 86.85187447624881
293.441 86.90749129035298
297.709 86.92110642199506
302.04 86.91695036722301
306.433 86.90915787455387
310.89 86.87381340193801
315.412 86.82991425700618
320.0 86.82802931361537
324.655 86.79671960366024
329.377 86.72031829553401
334.168 86.64501076210496
339.028 86.56883266247156
343.959 86.49851726653516
348.962 86.46985666151056
354.038 86.47459298352234
359.188 86.46107549556538
364.412 86.46147371741289
369.713 86.48654677107554
375.09 86.53399173912857
380.546 86.62346343354865
386.081 86.70561702878817
391.697 86.7704556170034
397.394 86.79196920911787
403.175 86.81833021740341
409.039 86.82604202488655
414.989 86.87431924851984
421.025 86.86928960854519
427.149 86.81872546919519
433.362 86.78091011250844
439.665 86.75894477881081
446.06 86.7756576991097
452.548 86.80249175110329
459.131 86.80513424783072
465.809 86.8261292212351
472.584 86.85395838973088
479.458 86.91466959659334
486.432 86.9409381345055
493.507 86.91989422670326
500.686 86.85705784145064
507.968 86.7723011474154
515.357 86.67919468646981
522.853 86.61754530347177
530.458 86.51895114461564
538.174 86.37288488719535
546.002 86.2907458156644
553.943 86.21434736019992
562.001 86.13148712879969
570.175 86.04365292909131
578.469 85.92864441057979
586.883 85.81666625006507
595.419 85.72301363831026
604.08 85.64961484002534
612.866 85.65441287992458
621.78 85.6911058236781
630.824 85.78019712960383
640.0 85.83841758234264
649.309 85.88116096885459
658.753 85.90995377007248
668.335 85.91347386485862
678.056 85.92332212612632
687.919 85.98812437456735
697.925 86.0791538549882
708.077 86.19378672808412
718.376 86.27790368735619
728.825 86.2134454426369
739.426 86.07378821704948
750.181 85.94202706083865
761.093 85.84043582123667
772.163 85.92162860090886
783.394 86.21010128709847
794.789 86.57488160162916
806.349 86.89355726772278
818.078 87.10605126068447
829.977 87.18592141729978
842.05 87.15674188136045
854.298 87.10193705304341
866.724 87.02963764926415
879.33 86.97731117520692
892.12 86.92668400383
905.097 86.81720317439212
918.262 86.72206737056003
931.618 86.6922007453706
945.169 86.74647749336842
958.917 86.84860499977279
972.864 86.92065906887592
987.015 86.92322739973076
1001.37 86.81786686259716
1015.94 86.67412446608942
1030.71 86.57366062362215
1045.71 86.5006729654119
1060.92 86.43591220485104
1076.35 86.28288558097091
1092.0 86.06362713291988
1107.89 85.8383839823069
1124.0 85.67268059645954
1140.35 85.56186311227799
1156.94 85.48843050799655
1173.77 85.48304273835778
1190.84 85.5736775717504
1208.16 85.73252433234555
1225.73 85.84580725904127
1243.56 85.92660478879132
1261.65 86.01744267566852
1280.0 86.13009180160293
1298.62 86.22081256404874
1317.51 86.28401919248434
1336.67 86.31246223867171
1356.11 86.23874930252867
1375.84 86.0625924780707
1395.85 85.79300813132427
1416.15 85.54141077974776
1436.75 85.39681236119583
1457.65 85.31404958135691
1478.85 85.20377457489481
1500.36 85.1014387509829
1522.19 85.15076671897506
1544.33 85.2707507943206
1566.79 85.40893104191926
1589.58 85.53588519960438
1612.7 85.68610085758984
1636.16 85.9127829187182
1659.95 86.1708942202392
1684.1 86.4211000880943
1708.6 86.62713883888344
1733.45 86.7364732219215
1758.66 86.76549170968481
1784.24 86.66233547091771
1810.19 86.41805492894157
1836.52 86.14407591301004
1863.24 86.06291759520765
1890.34 86.08199814004183
1917.83 86.05409688006387
1945.73 86.02218738430958
1974.03 85.8955178123096
2002.74 85.74262060064834
2031.87 85.64303184887208
2061.43 85.49268167536823
2091.41 85.3122225560299
2121.83 85.16403123633901
2152.69 85.10292119993501
2184.01 85.16240431134241
2215.77 85.23438437119299
2248.0 85.30084535629507
2280.7 85.37844716611694
2313.87 85.39854211438795
2347.53 85.40614344504492
2381.68 85.5282566989096
2416.32 85.6092278294019
2451.46 85.6404409448483
2487.12 85.64511708505435
2523.3 85.51138768095855
2560.0 85.4215113932828
2597.24 85.4046547899754
2635.01 85.26328049374186
2673.34 85.15481148365178
2712.23 85.16907993108529
2751.68 85.21178944030723
2791.7 85.26602097062305
2832.31 85.13195981012551
2873.5 84.96147776649902
2915.3 84.92782280557248
2957.7 85.0269491984532
3000.72 85.08273503631168
3044.37 84.87485142887783
3088.65 84.59142824916181
3133.58 84.56711109022436
3179.16 84.68261434526204
3225.4 84.6451561377318
3272.31 84.44978124536738
3319.91 84.292112893622
3368.2 84.39527650534708
3417.19 84.67910892313593
3466.89 84.78867104126581
3517.32 84.77789692112525
3568.48 84.81841884509332
3620.39 85.04481731234677
3673.05 85.16597261389748
3726.47 85.11955626074683
3780.67 85.02136388938985
3835.67 85.11089895513692
3891.46 85.21340628832782
3948.06 85.12246125626226
4005.49 85.02224265048622
4063.75 85.15810559723715
4122.86 85.1955650245398
4182.82 85.15556661175614
4243.66 85.14380483483737
4305.39 85.21717930344117
4368.01 85.19705535689684
4431.55 85.23184008342294
4496.01 85.3320578860091
4561.4 85.3556135341431
4627.75 85.36271410364422
4695.06 85.36912097865059
4763.35 85.34170965123799
4832.64 85.31283052532612
4902.93 85.37767021833697
4974.24 85.29221977893032
5046.6 85.28459050646342
5120.0 85.28587254384482
5194.47 85.14400334607454
5270.03 85.03459025042693
5346.68 85.00315941891765
5424.45 84.81816169178488
5503.35 84.69481289871256
5583.4 84.85889044121087
5664.61 84.6885935195571
5747.01 84.54945331664894
5830.6 84.53171731811244
5915.41 84.36419186357364
6001.45 84.31479804788496
6088.74 84.16274927234235
6177.3 84.0741968767411
6267.15 84.10452123381279
6358.31 84.05276438152276
6450.8 84.09851354395335
6544.62 84.16564437708482
6639.82 84.21013832543849
6736.4 84.3340045630955
6834.38 84.30400842873199
6933.79 84.37869293040784
7034.64 84.42863891488565
7136.96 84.58557674360256
7240.77 84.77967058250977
7346.09 85.03403807393533
7452.94 85.25182908971769
7561.35 85.4369243921827
7671.33 85.46875703274179
7782.91 85.46769467573793
7896.12 85.4032308062124
8010.97 85.41459669541186
8127.49 85.36968128641709
8245.71 85.35773924376714
8365.65 85.16270668503368
8487.33 84.8861528713918
8610.78 84.46659686436155
8736.03 84.23256465221108
8863.09 84.53072764125059
8992.01 85.1749163440871
9122.8 85.47330457107797
9255.5 85.50959117644044
9390.12 85.41875878780687
9526.7 85.43876850493264
9665.27 85.49312868194407
9805.86 85.48914417183919
9948.49 85.35021215913957
10093.2 85.13959137026649
10240.0 84.98893482403801
10388.9 84.84705574422429
10540.1 84.6883257800245
10693.4 84.4825745682618
10848.9 84.29680577966812
11006.7 84.15114679694418
11166.8 83.95171952019095
11329.2 83.59666026849891
11494.0 82.79783383763545
11661.2 82.00111231513986
11830.8 84.01331062024175
12002.9 85.58687256293584
12177.5 85.33562104194527
12354.6 84.85919698494541
12534.3 84.66177978008098
12716.6 84.61257488317119
12901.6 84.45680396079048
13089.2 84.23884885110014
13279.6 84.25471986390913
13472.8 84.42810854802451
13668.8 84.54366041842286
13867.6 84.42188267893401
14069.3 84.13724558621996
14273.9 84.85172144238422
14481.5 85.94293466999311
14692.2 85.57392936907215
14905.9 85.007784033017
15122.7 84.67945829564755
15342.7 84.68754974637105
15565.8 84.35112233071393
15792.2 83.85098217642792
16021.9 84.00698304906713
16255.0 84.45567780145697
16491.4 84.33501238174607
16731.3 83.14191675922339
16974.7 83.5175796928335
17221.6 84.76526258840553
17472.1 84.86814186010625
17726.2 84.70822321128112
17984.0 84.73273774798677
18245.6 84.38226043065656
18511.0 81.94592398529667
18780.2 82.33003765297988
19053.4 83.83256349291
19330.5 85.14524895262961
19611.7 85.72908399727189
19897.0 85.50468882990545
