Freq "On Axis"
20.0 38.09899999999999
20.2909 38.498999999999995
20.586 38.59899999999999
20.8855 38.899
21.1893 39.498999999999995
21.4975 40.19900000000001
21.8102 40.998999999999995
22.1274 41.59899999999999
22.4492 41.998999999999995
22.7758 42.29900000000001
23.1071 42.399
23.4432 42.498999999999995
23.7841 42.899
24.1301 43.59899999999999
24.4811 44.399
24.8372 44.998999999999995
25.1984 45.399
25.5649 45.69900000000001
25.9368 45.899
26.3141 46.19900000000001
26.6968 46.59899999999999
27.0851 46.998999999999995
27.4791 47.29900000000001
27.8788 47.59899999999999
28.2843 47.79900000000001
28.6957 48.09899999999999
29.1131 48.59899999999999
29.5365 49.19900000000001
29.9661 49.69900000000001
30.402 50.09899999999999
30.8442 50.399
31.2929 50.79900000000001
31.748 51.19900000000001
32.2098 51.59899999999999
32.6783 51.899
33.1536 52.29900000000001
33.6359 52.69900000000001
34.1251 53.09899999999999
34.6215 53.59899999999999
35.125 53.998999999999995
35.6359 54.399
36.1543 54.899
36.6802 55.29900000000001
37.2137 55.79900000000001
37.755 56.19900000000001
38.3041 56.59899999999999
38.8613 56.998999999999995
39.4265 57.399
40.0 57.79900000000001
40.5818 58.19900000000001
41.1721 58.69900000000001
41.771 59.09899999999999
42.3785 59.498999999999995
42.9949 59.79900000000001
43.6203 60.19900000000001
44.2548 60.69900000000001
44.8985 61.09899999999999
45.5515 61.59899999999999
46.2141 61.998999999999995
46.8863 62.399
47.5683 62.79900000000001
48.2602 63.29900000000001
48.9621 63.69900000000001
49.6743 64.099
50.3968 64.59900000000002
51.1299 64.999
51.8736 65.499
52.6281 65.999
53.3936 66.399
54.1702 66.799
54.9581 67.299
55.7575 67.799
56.5685 68.19900000000001
57.3914 68.59899999999999
58.2261 69.099
59.073 69.59900000000002
59.9323 69.999
60.804 70.499
61.6884 70.899
62.5857 71.399
63.496 71.799
64.4196 72.299
65.3566 72.799
66.3073 73.19900000000001
67.2717 73.699
68.2502 74.099
69.2429 74.59900000000002
70.2501 74.999
71.2719 75.499
72.3086 75.899
73.3603 76.399
74.4274 76.799
75.5099 77.19899999999998
76.6083 77.599
77.7226 77.999
78.8531 78.399
80.0 78.699
81.1636 78.999
82.3442 79.399
83.5419 79.69899999999998
84.757 79.999
85.9899 80.299
87.2406 80.599
88.5096 80.799
89.797 81.09899999999999
91.1031 81.299
92.4282 81.599
93.7726 81.799
95.1366 81.999
96.5204 82.19899999999998
97.9243 82.299
99.3486 82.499
100.794 82.599
102.26 82.599
103.747 82.699
105.256 82.899
106.787 82.999
108.34 83.099
109.916 83.299
111.515 83.399
113.137 83.499
114.783 83.59899999999999
116.452 83.699
118.146 83.799
119.865 83.899
121.608 83.899
123.377 83.999
125.171 84.099
126.992 84.199
128.839 84.299
130.713 84.399
132.615 84.499
134.543 84.59900000000002
136.5 84.69899999999998
138.486 84.899
140.5 84.999
142.544 84.999
144.617 85.099
146.721 85.099
148.855 85.199
151.02 85.299
153.217 85.399
155.445 85.499
157.706 85.599
160.0 85.599
162.327 85.599
164.688 85.69900000000001
167.084 85.799
169.514 85.899
171.98 85.899
174.481 85.999
177.019 86.09899999999999
179.594 86.098
182.206 86.197
184.856 86.29599999999999
187.545 86.394
190.273 86.494
193.041 86.596
195.849 86.697
198.697 86.798
201.587 86.899
204.52 86.909
207.494 87.008
210.512 87.102
213.574 87.19899999999998
216.681 87.294
219.833 87.384
223.03 87.382
226.274 87.38
229.565 87.37899999999999
232.905 87.371
236.292 87.298
239.729 87.365
243.216 87.398
246.754 87.381
250.343 87.37899999999999
253.984 87.378
257.678 87.376
261.426 87.375
265.229 87.385
269.087 87.47299999999998
273.001 87.472
276.972 87.47
281.0 87.469
285.088 87.468
289.234 87.48400000000001
293.441 87.566
297.709 87.565
302.04 87.564
306.433 87.56299999999999
310.89 87.477
315.412 87.461
320.0 87.45999999999998
324.655 87.37300000000002
329.377 87.318
334.168 87.238
339.028 87.157
343.959 87.084
348.962 87.057
354.038 87.065
359.188 87.05600000000001
364.412 87.064
369.713 87.124
375.09 87.156
380.546 87.248
386.081 87.342
391.697 87.378
397.394 87.391
403.175 87.391
409.039 87.391
414.989 87.48599999999999
421.025 87.449
427.149 87.408
433.362 87.333
439.665 87.325
446.06 87.342
452.548 87.362
459.131 87.374
465.809 87.422
472.584 87.43300000000002
479.458 87.5
486.432 87.518
493.507 87.515
500.686 87.434
507.968 87.363
515.357 87.275
522.853 87.251
530.458 87.15199999999999
538.174 87.029
546.002 86.94
553.943 86.894
562.001 86.796
570.175 86.70500000000001
578.469 86.583
586.883 86.451
595.419 86.345
604.08 86.271
612.866 86.226
621.78 86.244
630.824 86.322
640.0 86.349
649.309 86.408
658.753 86.425
668.335 86.449
678.056 86.49100000000001
687.919 86.59
697.925 86.714
708.077 86.856
718.376 86.965
728.825 86.934
739.426 86.857
750.181 86.791
761.093 86.756
772.163 86.881
783.394 87.186
794.789 87.541
806.349 87.84099999999998
818.078 88.053
829.977 88.162
842.05 88.183
854.298 88.179
866.724 88.148
879.33 88.116
892.12 88.022
905.097 87.829
918.262 87.632
931.618 87.519
945.169 87.526
958.917 87.62299999999999
972.864 87.696
987.015 87.726
1001.37 87.641
1015.94 87.522
1030.71 87.432
1045.71 87.351
1060.92 87.227
1076.35 87.003
1092.0 86.73500000000001
1107.89 86.50400000000002
1124.0 86.356
1140.35 86.245
1156.94 86.139
1173.77 86.125
1190.84 86.22299999999998
1208.16 86.42700000000002
1225.73 86.571
1243.56 86.67
1261.65 86.767
1280.0 86.90200000000002
1298.62 87.03199999999998
1317.51 87.132
1336.67 87.19899999999998
1356.11 87.112
1375.84 86.95499999999998
1395.85 86.709
1416.15 86.516
1436.75 86.4
1457.65 86.34699999999998
1478.85 86.249
1500.36 86.184
1522.19 86.27700000000002
1544.33 86.416
1566.79 86.56800000000001
1589.58 86.727
1612.7 86.91500000000002
1636.16 87.178
1659.95 87.472
1684.1 87.73399999999998
1708.6 87.91399999999999
1733.45 87.976
1758.66 88.055
1784.24 87.949
1810.19 87.67700000000002
1836.52 87.405
1863.24 87.395
1890.34 87.451
1917.83 87.416
1945.73 87.346
1974.03 87.209
2002.74 87.095
2031.87 86.99799999999999
2061.43 86.841
2091.41 86.662
2121.83 86.532
2152.69 86.572
2184.01 86.712
2215.77 86.72799999999998
2248.0 86.74
2280.7 86.75399999999999
2313.87 86.662
2347.53 86.67500000000001
2381.68 86.787
2416.32 86.687
2451.46 86.506
2487.12 86.436
2523.3 86.168
2560.0 86.071
2597.24 86.118
2635.01 85.898
2673.34 85.76
2712.23 85.774
2751.68 85.86600000000001
2791.7 86.058
2832.31 85.953
2873.5 85.714
2915.3 85.63500000000002
2957.7 85.8
3000.72 85.953
3044.37 85.77200000000002
3088.65 85.441
3133.58 85.434
3179.16 85.55
3225.4 85.50799999999998
3272.31 85.31
3319.91 85.129
3368.2 85.236
3417.19 85.574
3466.89 85.753
3517.32 85.84199999999998
3568.48 85.923
3620.39 86.22299999999998
3673.05 86.334
3726.47 86.325
3780.67 86.207
3835.67 86.346
3891.46 86.511
3948.06 86.44999999999999
4005.49 86.359
4063.75 86.59800000000001
4122.86 86.693
4182.82 86.69399999999999
4243.66 86.757
4305.39 86.909
4368.01 86.929
4431.55 87.02600000000001
4496.01 87.18
4561.4 87.251
4627.75 87.34899999999999
4695.06 87.427
4763.35 87.453
4832.64 87.46700000000001
4902.93 87.575
4974.24 87.51400000000001
5046.6 87.537
5120.0 87.55700000000002
5194.47 87.447
5270.03 87.33599999999998
5346.68 87.265
5424.45 87.044
5503.35 86.904
5583.4 87.044
5664.61 86.934
5747.01 86.721
5830.6 86.638
5915.41 86.49100000000001
6001.45 86.475
6088.74 86.275
6177.3 86.185
6267.15 86.17000000000002
6358.31 86.15300000000002
6450.8 86.19
6544.62 86.281
6639.82 86.269
6736.4 86.314
6834.38 86.148
6933.79 86.12700000000001
7034.64 86.128
7136.96 86.202
7240.77 86.346
7346.09 86.5
7452.94 86.661
7561.35 86.805
7671.33 86.843
7782.91 86.863
7896.12 86.836
8010.97 86.85900000000001
8127.49 86.839
8245.71 86.873
8365.65 86.744
8487.33 86.51399999999998
8610.78 86.12300000000002
8736.03 85.905
8863.09 86.255
8992.01 86.948
9122.8 87.271
9255.5 87.32
9390.12 87.231
9526.7 87.333
9665.27 87.468
9805.86 87.54999999999998
9948.49 87.50299999999999
10093.2 87.368
10240.0 87.262
10388.9 87.117
10540.1 86.941
10693.4 86.709
10848.9 86.518
11006.7 86.357
11166.8 86.128
11329.2 85.725
11494.0 84.852
11661.2 83.934
11830.8 85.623
12002.9 87.19
12177.5 87.10899999999998
12354.6 86.761
12534.3 86.636
12716.6 86.657
12901.6 86.549
13089.2 86.387
13279.6 86.423
13472.8 86.626
13668.8 86.776
13867.6 86.7
14069.3 86.44800000000001
14273.9 87.11600000000001
14481.5 88.146
14692.2 87.75999999999999
14905.9 87.234
15122.7 86.974
15342.7 86.91500000000002
15565.8 86.502
15792.2 86.076
16021.9 86.349
16255.0 86.828
16491.4 86.764
16731.3 85.753
16974.7 86.188
17221.6 87.364
17472.1 87.54400000000001
17726.2 87.55700000000002
17984.0 87.671
18245.6 87.405
18511.0 84.872
18780.2 84.98400000000001
19053.4 86.432
19330.5 87.507
19611.7 87.725
19897.0 87.285
