Freq "Ceiling Bounce"
20.5078 66.43391290831384
21.9727 69.0168596656115
23.4375 70.99245494355957
24.9023 72.69617995672128
26.3672 74.8300572158814
27.832 75.10502139361374
29.2969 76.19228085382197
30.7617 76.88106257405522
32.2266 77.55507018855543
33.6914 78.29023937120003
35.1563 79.04402515035741
36.6211 79.57056577910151
38.0859 79.89130936986196
39.5508 80.24113884972287
41.0156 80.76293869700201
42.4805 81.1147992693467
43.9453 81.53055131268886
45.4102 81.70631466857783
46.875 82.12092260771179
48.3398 82.51284581700567
51.2695 83.30214758016659
52.7344 83.58318260538907
54.1992 83.8539287739165
55.6641 84.15470547343821
58.5938 84.78627030404557
60.0586 85.41363377823599
62.9883 86.29274450195909
64.4531 86.69771678076013
67.3828 87.55743129964195
68.8477 87.85278709316212
71.7773 88.39758729448967
74.707 89.03101896885019
77.6367 89.55461998028801
79.1016 89.81176879137884
82.0313 90.26066785895819
84.9609 90.74624022111733
87.8906 91.07515617669962
90.8203 91.61856155024769
95.2148 91.99294978073908
98.1445 92.32602254267475
101.074 92.34058904089414
105.469 92.47590241259422
108.398 92.42006255624496
112.793 91.77370128697952
117.188 90.9057930148913
120.117 91.45228980028897
124.512 91.58153221607647
128.906 91.13056832769131
133.301 90.68048792645072
139.16 89.3943884410147
143.555 88.7052618116041
147.949 89.24853539860148
153.809 88.26697180400849
159.668 88.3858371810975
165.527 87.9679077723376
171.387 89.1781396748856
177.246 88.84068558476676
183.105 88.3619678813428
188.965 88.24458890625206
196.289 88.38988702270446
203.613 87.27575800248019
210.938 87.81570419948561
218.262 87.81701050147255
225.586 86.96499098519175
232.91 86.5970476656711
241.699 86.99461258277591
250.488 85.9351025777232
259.277 86.88362973171066
268.066 88.397411712817
276.855 86.53872387187043
287.109 87.39530935960963
297.363 88.29230985383116
307.617 87.94494609059787
319.336 89.28856816295745
329.59 89.87326757861548
341.309 89.57142803501483
353.027 90.62997164823439
366.211 89.92029648672201
379.395 89.91850170328928
392.578 88.70861731705486
405.762 89.05374202890805
420.41 89.3616872148484
435.059 89.86737648861035
451.172 89.6602695853009
465.82 90.28397618936002
483.398 91.01078923992078
499.512 89.02136769045258
517.09 87.94276875697157
536.133 84.92738999660823
555.176 84.33731570635233
574.219 84.09448550502772
594.727 85.84986059573579
615.234 87.93236873964374
637.207 87.68382700945165
659.18 86.91276994472354
682.617 85.46843709775739
707.52 81.07290116811227
732.422 80.46999557942574
757.324 83.68787281046585
785.156 86.49076757222089
811.523 87.75935570325639
840.82 88.51968364787041
870.117 88.81073588452577
900.879 89.3391884985876
933.105 90.15262816176751
965.332 91.20733686792097
1000.49 91.49829886040438
1035.64 91.31686738526489
1072.27 92.29306047342921
1108.89 93.60738847342473
1148.44 94.45409187984531
1189.45 95.12389985561148
1230.47 95.63975233518661
1274.41 95.84070198911341
1319.82 95.2686862885059
1366.7 95.4746417575061
1413.57 95.19977151787693
1463.38 93.74471770670768
1516.11 94.2854773467983
1568.85 94.15139984046559
1624.51 94.78969763134243
1681.64 94.77792754385004
1741.7 94.70859311064028
1803.22 94.32812491989735
1866.21 94.92821398334688
1932.13 94.86389277199777
1999.51 93.6385624001736
2069.82 92.9260242155451
2143.07 93.23691320444804
2219.24 91.63188379072595
2296.88 90.54764926805603
2378.91 89.8872797154465
2462.4 89.05565413890183
2548.83 89.03805873892075
2639.65 88.14848626058193
2731.93 88.1766573400096
2828.61 87.36924238479354
2928.22 87.78829524285726
3030.76 87.26829465306137
3137.7 87.42223003697573
3249.02 87.73385138392037
3363.28 88.28637700554596
3481.93 87.73739085811646
3604.98 87.47387419536997
3732.42 87.38122835327074
3864.26 88.60162325898611
4000.49 89.49032463631796
4141.11 90.01252841056142
4287.6 90.57491807475061
4438.48 90.2033320019524
4595.21 89.16240233729572
4756.35 87.56390454901809
4924.8 86.42352259854842
5097.66 86.17439220085762
5277.83 87.41904536625141
5463.87 88.59692875612505
5657.23 89.05052680500873
5856.45 88.53742330712554
6062.99 87.55255020188685
6276.86 86.68755969248849
6498.05 86.34568551915389
6726.56 86.04016376519023
6963.87 85.55207858814191
7209.96 85.11713004617498
7464.84 85.12831001777893
7727.05 84.49234164132154
7999.51 83.3359002503924
8282.23 82.90597095119678
8573.73 82.03458335922436
8876.95 81.19805130146939
9188.96 80.27920676902352
9514.16 80.0941151221177
9849.61 79.23050528144753
10196.8 79.11721354512385
10555.7 79.2185868663725
10927.7 78.5066994704885
11313.0 76.85515448098313
11712.9 75.01952327862834
12126.0 74.4449751311304
12553.7 77.54493131712859
12996.1 80.0176211583209
13454.6 80.80894596996089
13929.2 81.07304284346223
14419.9 82.69234749978484
14928.2 83.56510887631043
15455.6 84.29448003217443
16000.5 82.7812006956136
16564.5 80.59964902210801
17148.9 78.79653827002782
17752.4 79.33293515508775
18379.4 76.98051974697331
19026.9 75.35459942996057
19697.8 72.58611209953159
19999.5 70.96634193868465
