Freq "Estimated In-Room Response"
20.1416 69.44928123284384
20.5078 69.78005606938697
21.2402 70.35783707407845
21.9727 70.91070762246926
22.7051 71.354645646693
23.8037 72.09143585509852
24.5361 72.52565349284093
25.2686 72.95306423416501
26.3672 73.56933654075793
27.0996 74.02659147656425
28.1982 74.69139767342877
29.2969 75.17735205960932
30.0293 75.56369284169936
31.1279 76.20216817181128
32.2266 76.48380331620595
33.3252 77.13688919786166
34.79 77.46765489534533
35.8887 77.23748587112362
36.9873 77.61448482785117
38.4521 78.01265400683803
39.917 78.44127430391359
41.3818 79.78724621765953
42.8467 80.25240382155297
44.3115 80.58125310893521
45.7764 81.03368200761952
47.2412 81.44045972577189
49.0723 81.9499616670544
50.9033 82.42829057414957
52.7344 82.82948266597285
54.5654 83.3182909969476
56.3965 83.75902603000641
58.2275 84.14797433203464
60.4248 84.59030211144825
62.6221 85.01869715575788
64.8193 85.3561377992951
67.0166 85.62968732695978
69.2139 85.93972964244594
71.7773 86.29007432576398
74.3408 86.60080280108133
76.9043 86.88898493294008
79.834 87.16086057593547
82.3975 87.36470629049651
85.3271 87.401641702416
88.2568 87.63694038607777
91.5527 87.54315368332573
94.8486 87.52530932641227
98.1445 87.64865690789183
101.44 87.73133898703654
105.103 87.71418265579565
108.765 87.68077315259244
112.793 87.68271418260932
116.455 87.80046441941333
120.85 87.70774455591715
124.878 87.60090358744621
129.272 87.45149912123986
134.033 87.26958776698018
138.794 87.10033222939566
143.555 86.89596416627988
148.682 86.75799121679249
153.809 86.56152419713233
159.302 86.38838910921072
164.795 86.83722515751664
170.654 87.63139973247827
176.88 87.76250077345162
183.105 87.5451692370098
189.331 87.1528736422448
196.289 86.69136581627669
202.881 86.5945335704333
210.205 86.71290900976071
217.529 86.79264489519755
225.22 86.5245635650851
233.276 86.30660020506414
241.333 86.40746096112113
250.122 86.1343951431122
258.911 86.10313357817807
268.066 86.3522704317053
277.222 85.98530622530149
287.109 85.93802030862298
297.363 85.7846401274202
307.617 85.77422392527647
318.604 86.00038817283951
329.956 85.5561992097416
341.675 85.6012674653181
353.394 85.51976373857099
365.845 85.22126459403427
379.028 84.81063437766477
392.212 84.77546412326114
406.128 84.84364029774318
420.41 84.86982874585993
435.425 84.886044107681
450.806 85.10262376177576
466.553 85.43045298014837
483.032 85.54536803339673
499.878 85.73079371694567
517.456 85.66919990606345
535.767 85.65455106016651
554.81 85.97854541264904
574.219 85.96653631917677
594.727 85.81191707043477
615.601 85.64147735458344
637.207 85.51901179156593
659.912 85.25444582069031
682.983 85.04626884677336
707.153 85.10263588773725
732.056 85.05358360178164
757.69 85.02865531732161
784.424 85.18603360133882
812.256 85.30603006566315
840.82 85.3518133773333
870.483 85.59565993119104
901.245 85.78592973353506
933.105 86.13702037402342
966.064 86.06704651612725
1000.12 86.22437619250391
1035.28 86.29911764845825
1071.9 86.30673258593143
1109.62 85.9944935140499
1148.8 85.72872326542212
1189.09 85.51584418693778
1231.2 85.55190382710384
1274.41 85.44586842251871
1319.46 85.21695240370778
1365.97 85.28379800968342
1414.31 85.12567470598151
1464.11 84.42174869946533
1515.75 83.93904787523675
1569.21 83.65015580630849
1624.51 83.38682675789534
1681.64 83.58465428491007
1740.97 83.91492393325345
1802.49 83.55389165245276
1866.21 82.95280777909045
1931.76 82.5911297443289
1999.88 83.00659196602584
2070.56 83.62605334138988
2143.43 83.81476208653895
2219.24 83.39454173422855
2297.24 82.96547186688083
2378.54 83.33576469711393
2462.4 84.18156760737381
2549.19 84.42785145718608
2638.92 84.36618305366017
2731.93 84.10381795555764
2828.25 84.29923209804795
2928.22 84.7206029169133
3031.49 84.80325998747176
3138.43 84.91870644430048
3249.02 84.95795100493646
3363.65 85.07545847474873
3482.3 85.31659380309117
3604.98 85.75417991989356
3732.06 86.01077979700744
3863.89 85.64488070120704
4000.12 84.99891095990672
4141.11 84.87573536288812
4287.23 84.54213183154134
4438.11 84.46112352082002
4594.85 84.13321180541023
4756.71 84.06683709834043
4924.44 84.12408912209159
5098.39 84.0848561890127
5278.2 83.71405342655981
5464.23 83.796014991103
5656.86 83.58028724614415
5856.45 83.50537392264296
6062.99 83.9973702983465
6276.86 84.11931771625345
6498.05 84.16763451986914
6727.29 84.62982045392499
6964.23 84.41030569317445
7209.96 84.53659946462533
7464.11 84.56974979198833
7727.42 84.1823736465277
7999.88 84.23691154757765
8282.23 83.87082760716788
8574.1 83.86201687394248
8876.59 83.34835412839853
9189.7 83.30408983044379
9513.79 82.92218250868166
9849.24 82.74880254875114
10196.4 82.64554383334135
10556.0 82.63641645722517
10928.5 82.64211988691719
11313.7 82.51174678103169
11712.5 82.19043412387387
12125.6 81.82033513365754
12553.3 81.60450471040515
12996.1 81.92622521254027
13454.2 82.26964554702509
13928.8 82.29821003449939
14419.9 82.0550316556151
14928.6 81.48670858471056
15454.8 80.5283926351872
16000.1 79.15626240833359
16564.1 78.03635240812602
17148.2 77.99203909482576
17753.2 77.0334686198834
18379.0 75.79798187986353
19027.2 74.50738390580824
19698.5 73.16505437689943
19999.9 72.60048349825232
