Freq,On Axis,Listening Window,Sound Power,Early Reflections,Early Reflections DI,Sound Power DI,DI offset
20.5078,63.828,63.81256349585934,63.46706343893297,63.64732276796187,40.16524072789747,40.34550005692637,40
21.9727,64.85050000000001,64.8371728347372,64.52203824238029,64.68449927164534,40.15267356309187,40.31513459235691,40
23.4375,66.0916,66.0769188741663,65.72277181391189,65.9054723064201,40.1714465677462,40.354147060254405,40
25.6348,67.55609999999999,67.5423436680887,67.21579287333716,67.38331639685671,40.15902727123199,40.32655079475154,40
27.0996,68.4742,68.46011494242902,68.1258076532296,68.29749451473785,40.16262042769117,40.334307289199415,40
29.2969,69.8185,69.80543195990556,69.49826462164907,69.65537580930997,40.15005615059559,40.30716733825649,40
31.4941,71.02520000000001,71.01283791960137,70.72578624220696,70.87040923780285,40.14242868179852,40.2870516773944,40
33.6914,72.004,71.9897593722222,71.67343492276501,71.83414489679234,40.15561447542986,40.316324449457184,40
35.8887,73.08839999999998,73.07325735000525,72.73740746416999,72.90787490965378,40.165382440351465,40.33584988583526,40
38.8184,74.4388,74.42284079754964,74.07961938142083,74.2527241211844,40.17011667636524,40.34322141612881,40
41.0156,75.4668,75.449768456131,75.08136365517608,75.26786681796786,40.18190163816314,40.36840480095492,40
43.9453,76.73409999999998,76.71810361996273,76.38576449559555,76.55447324457657,40.16363037538616,40.33233912436718,40
47.6074,78.1929,78.17537371935225,77.81617215061941,77.99783843504068,40.177535284311574,40.35920156873284,40
50.5371,79.2815,79.26216071038702,78.87048852414878,79.06726797146412,40.1948927389229,40.39167218623824,40
54.1992,80.58619999999999,80.56591521807579,80.16511760228812,80.3659809283877,40.19993428968809,40.40079761578767,40
58.5938,81.9967,81.97556817686552,81.57828090756631,81.77848320699735,40.19708496986817,40.39728726929921,40
62.2559,82.96110000000002,82.93736468305818,82.48916082132217,82.71195374086345,40.22541094219473,40.448203861736005,40
66.6504,84.1626,84.1368808616458,83.66034175343732,83.89617954986618,40.24070131177963,40.476539108208485,40
71.7773,85.3266,85.2990915805378,84.81330099984793,85.05179407493972,40.247297505598084,40.48579058068988,40
76.9043,86.4369,86.40661289439633,85.89098095467169,86.1443180308583,40.26229486353803,40.51563193972464,40
82.7637,87.49029999999999,87.45635812546148,86.88041751539906,87.16484713554138,40.2915109899201,40.57594061006242,40
88.623,88.2964,88.26051337329301,87.6770625102942,87.96201116817687,40.29850220511614,40.5834508629988,40
94.4824,88.9026,88.8604755970077,88.19064271952121,88.518667303793,40.34180829321471,40.6698328774865,40
101.807,89.3661,89.31702486302584,88.54160893622789,88.92146159831256,40.395563264713275,40.77541592679795,40
109.131,89.6486,89.59403976602917,88.7336066455299,89.15522301522583,40.43881675080334,40.860433120499266,40
116.455,89.7831,89.72340505056677,88.78372710214623,89.24233904027948,40.48106601028729,40.93967794842054,40
125.244,89.7335,89.6672910271813,88.60881596471555,89.12747594590839,40.53981508127292,41.05847506246576,40
134.033,89.6115,89.53859714738299,88.3800806084561,88.9492548009587,40.58934234642429,41.15851653892689,40
143.555,89.5787,89.49736603003747,88.20274540814111,88.83631566786028,40.66105036217719,41.29462062189636,40
153.809,89.7459,89.6507599469161,88.09536117091893,88.86435012511191,40.786409821804185,41.55539877599716,40
164.795,90.1839,90.08389889019955,88.44109837131202,89.25572392964945,40.8281749605501,41.642800518887526,40
176.514,90.1708,90.0597462949452,88.28934890829737,89.16096223282095,40.89878406212425,41.77039738664783,40
189.697,90.4137,90.28903832290105,88.20217362137383,89.2480336150642,41.04100470783685,42.08686470152722,40
202.881,90.35159999999999,90.21572636536735,87.99518315975956,89.10492303318773,41.110803332179614,42.22054320560778,40
217.529,90.0648,89.92193054617834,87.56800155691735,88.7477640716115,41.174166474566846,42.35392898926099,40
232.91,90.10399999999998,89.95254877079623,87.21245121034119,88.62980005144165,41.32274871935458,42.74009756045504,40
249.756,89.6534,89.50037716356964,86.51896216727158,88.0870834602986,41.41329370327104,42.98141499629806,40
268.066,89.0883,88.94040603269201,86.05981063161137,87.56056288487456,41.37984314781745,42.88059540108064,40
287.109,89.7729,89.5931581785171,86.37510606581642,88.0569999106373,41.5361582678798,43.218052112700676,40
307.617,89.6516,89.50465423393004,86.27002926021927,88.00722489673163,41.49742933719841,43.234624973710766,40
329.59,89.2452,89.09517752928537,85.8563964939079,87.58186201262762,41.51331551665774,43.23878103537747,40
353.76,89.7261,89.54781286367586,85.79532151979649,87.81848838586214,41.72932447781372,43.75249134387937,40
378.662,89.86939999999998,89.7303314836916,86.08265077700449,88.0953992571274,41.6349322265642,43.64768070668711,40
405.762,89.1625,89.05339405322088,85.70258772748608,87.5146834589941,41.538710594226785,43.35080632573481,40
435.059,89.25739999999999,89.11904030474638,85.52549754137544,87.46232985695958,41.65671044778679,43.593542763370934,40
466.553,89.5248,89.36831509912132,85.50276763024831,87.57279660584408,41.79551849327724,43.865547468873004,40
500.244,88.30270000000002,88.25841510232775,85.11926699025543,86.89635728156193,41.36205782076581,43.13914811207232,40
536.133,89.1179,88.75975444308743,84.49897258619693,86.71706186232733,42.042692580760104,44.2607818568905,40
574.219,90.08100000000002,89.6957628524455,84.93814115542881,87.42215663489065,42.27360621755484,44.75762169701669,40
615.234,90.0529,89.64102091308722,84.80126179139043,87.39958426678555,42.241436646301665,44.83975912169679,40
659.912,90.09130000000002,89.6431682967162,84.64139757703978,87.17834666487087,42.464821631845325,45.001770719676415,40
706.787,89.65899999999999,89.24053806256862,84.16577837587856,86.75144632930804,42.48909173326058,45.07475968669006,40
758.057,89.0512,88.7360470694056,84.2836429915979,86.65521209101388,42.08083497839172,44.4524040778077,40
812.256,86.2666,86.47698073867123,84.22732714112294,86.29004257949785,40.18693815917338,42.24965359754829,40
870.85,87.0455,86.6578894220535,84.07775985116906,86.06379236226273,40.59409705979077,42.58012957088444,40
933.105,86.7815,86.6724454056139,83.89034727842036,86.28676358695068,40.385681818663215,42.782098127193535,40
999.756,85.9371,86.01761237265316,83.69977785660325,86.18931742860845,39.828294944044714,42.31783451604991,40
1071.53,86.44290000000001,86.23401373820013,83.28483419393187,85.85621531704881,40.377798421151326,42.94917954426826,40
1148.44,87.8141,87.42606627200732,84.07485855409988,86.83709391388393,40.588972358123385,43.35120771790744,40
1231.2,89.5091,89.36322155934576,85.08069761103894,87.9632637836776,41.399957775668156,44.28252394830682,40
1319.82,89.819,89.72201694731744,84.70589329972915,87.58436251071578,42.137654436601665,45.01612364758829,40
1414.31,89.8957,89.6011312723801,84.36861956629738,87.10099445315903,42.50013681922107,45.23251170608272,40
1515.38,90.8381,89.90300449421039,84.29301452194416,87.15507771437518,42.74792677983521,45.609989972266234,40
1624.51,90.02280000000002,89.5680130090752,83.86214259730123,86.72827815307525,42.83973485599995,45.70587041177397,40
1740.97,89.7037,88.86075976478895,83.08692818876858,86.09534181440625,42.7654179503827,45.77383157602037,40
1866.21,88.3682,87.59402359057806,81.90271738822497,85.1186251992319,42.47539839134616,45.69130620235309,40
2000.24,88.2689,86.60355711290069,81.61745072655428,84.83843533949593,41.76512177340476,44.98610638634641,40
2143.8,87.8961,86.3379806853941,82.10098388733304,85.01355312158394,41.32442756381016,44.23699679806106,40
2297.61,88.66580000000002,86.34785719443144,82.60801963585413,85.5444623308911,40.80339486354035,43.73983755857731,40
2462.4,88.4772,86.36257072469517,82.62233571682566,85.9479450614362,40.414625663258974,43.740235007869515,40
2638.92,89.2627,86.85847257027338,82.72960673773127,86.2226067424992,40.63586582777418,44.128865832542104,40
2828.61,89.6533,87.51126050443537,83.09941630448667,86.45815515841633,41.05310534601904,44.4118441999487,40
3031.49,89.3092,87.84438795455377,83.17322212966579,86.35158065251908,41.49280730203469,44.67116582488798,40
3249.02,89.37869999999998,88.76417511062948,83.48729299315043,86.65067650928157,42.113498601347914,45.27688211747905,40
3481.93,89.2382,88.7688903243249,82.96505039784803,86.20831203413012,42.56057829019478,45.80383992647687,40
3732.42,88.87980000000002,88.63946869555183,82.37155142937942,85.81231578955891,42.82715290599292,46.267917266172404,40
3999.76,88.512,88.19568151074519,81.96750439001111,85.50425837771891,42.69142313302628,46.228177120734074,40
4286.87,88.2488,88.32557865036179,82.08389564945342,85.77780016342504,42.54777848693675,46.24168300090837,40
4594.48,89.547,88.77843626839298,82.06438027140294,85.93356403759287,42.84487223080011,46.71405599699004,40
4924.8,89.4787,88.93025942327864,81.90641359109371,85.85160676894378,43.07865265433486,47.02384583218493,40
5277.83,89.4828,88.79202844681875,81.83455468135352,85.64673203161844,43.145296415200306,46.957473765465224,40
5656.49,87.6583,88.41515762558335,81.62846413961813,85.43593826962822,42.979219355955124,46.786693485965216,40
6062.99,88.8416,88.69853669929846,81.45026553551772,85.4473200719163,43.25121662738216,47.24827116378074,40
6498.05,90.2184,89.2726138427293,81.51324716393663,85.71944739578609,43.55316644694321,47.759366678792674,40
6964.6,90.7396,89.63311153757155,81.36946199598114,85.67816666706219,43.954944870509365,48.26364954159041,40
7464.11,90.3964,89.17477878245425,80.51982188845493,84.95860760087115,44.21617118158311,48.654956893999326,40
8000.24,89.24690000000001,88.03398040361324,79.21600270457262,83.674939832813,44.359040570800246,48.817977699040625,40
8574.46,91.2494,89.08066806130836,79.66298310718277,84.45278740862818,44.627880652680176,49.41768495412559,40
9189.7,90.8132,88.60437373638523,79.27128952752315,84.08911415762003,44.515259578765196,49.333084208862076,40
9848.88,88.575,87.39280420523718,78.15372606031211,82.86399871364044,44.52880549159674,49.239078144925074,40
10556.4,88.31809999999999,87.8868289077551,78.8436368047316,83.73953496432921,44.14729394342589,49.0431921030235,40
11313.7,87.853,87.36488692998036,78.57750720544857,83.37142552309196,43.9934614068884,48.78737972453179,40
12126.0,86.6827,86.10766503471916,77.24478166284605,81.85171433176278,44.25595070295638,48.86288337187311,40
12996.1,88.34700000000001,86.21293015345711,76.98196184981316,81.73720087310781,44.4757292803493,49.23096830364395,40
13928.5,87.20760000000001,85.6920982503218,76.20305633422274,81.09591495431273,44.59618329600907,49.48904191609907,40
14928.2,86.5439,84.99917467046862,74.90187103210059,80.06430531361117,44.93486935685745,50.09730363836803,40
15999.8,86.1683,84.71944587838406,74.1366221115345,79.56310888356538,45.15633699481869,50.58282376684956,40
17148.2,85.6852,83.92515153221865,72.8845438490734,78.39623921531462,45.52891231690403,51.040607683145254,40
18379.4,85.9992,83.41398125720494,72.07861900712876,77.5649065659524,45.84907469125254,51.33536225007617,40
19698.5,84.9215,82.79874891575133,72.85481689691512,78.05415861418197,44.74459030156936,49.94393201883621,40
19999.5,85.6938,83.5492077118277,73.59352839708586,78.8189743899275,44.7302333219002,49.95567931474184,40
