Freq,On Axis,Listening Window,Sound Power,Early Reflections,Early Reflections DI,Sound Power DI,DI offset
20.5078,50.81000000000002,50.96356932856419,54.82383167365121,53.30664151403046,47.65692781453373,46.13973765491298,50
23.4375,53.39569999999999,53.291908072191816,52.44669844508367,52.76540536818878,50.526502704003036,50.84520962710815,50
26.3672,54.87859999999999,54.864351889336874,56.82109457073865,55.90491621743131,48.95943567190557,48.04325731859822,50
29.2969,55.0972,54.95286771938272,55.371434708765335,55.028604881829764,49.92426283755296,49.58143301061739,50
32.2266,58.83139999999999,58.7440265244975,59.247063291429285,58.90325965895967,49.84076686553783,49.496963233068215,50
35.1563,61.32639999999999,61.23818709425588,61.51737591866653,61.28926746053851,49.94891963371737,49.72081117558935,50
38.0859,64.6425,64.56413099439034,64.43229224943896,64.40761697168817,50.15651402270217,50.13183874495138,50
41.0156,65.51979999999999,65.4192001477543,64.90030835378202,65.06107706665286,50.35812308110144,50.51889179397227,50
43.9453,69.09429999999999,69.0250533040752,68.66778656236822,68.77520691454977,50.24984638952543,50.35726674170698,50
46.875,71.0185,70.94623242896141,70.34372292228129,70.5749805115443,50.37125191741711,50.60250950668012,50
49.8047,73.0296,72.9619825381892,72.26795366653761,72.55184300347638,50.410139534712826,50.6940288716516,50
52.7344,74.9019,74.83730932404343,74.079111328262,74.40058864678647,50.43672067725696,50.75819799578143,50
55.6641,76.6338,76.57406798983924,75.79332113462476,76.13052663340979,50.44354135642945,50.780746855214474,50
58.5938,78.13719999999999,78.07992620075125,77.26290640110378,77.62182591786448,50.45810028288676,50.81701979964747,50
61.5234,79.1929,79.13760378963141,78.2985509244872,78.6725995629793,50.46500422665211,50.83905286514421,50
64.4531,80.4014,80.34890449081416,79.50714606241424,79.88531553419934,50.46358895661483,50.84175842839993,50
67.3828,81.4759,81.42666470171817,80.59691659308625,80.97129845511138,50.455366246606786,50.82974810863192,50
70.3125,82.7236,82.67937272651129,81.91626947222308,82.25921611736298,50.42015660914831,50.76310325428821,50
73.2422,83.6689,83.6289714096872,82.91009834130952,83.23321428104835,50.39575712863885,50.718873068377675,50
76.1719,84.5505,84.51253470702052,83.80045769601269,84.12220584764354,50.39032885937698,50.712077011007835,50
79.1016,85.2034,85.1688510927898,84.49624693019368,84.79990147142327,50.368949621366525,50.672604162596116,50
82.0313,85.7256,85.6927602689205,85.01325168344253,85.32271313917335,50.37004712974715,50.67950858547796,50
84.9609,86.56929999999998,86.53894837725063,85.89010383825162,86.18566650514887,50.35328187210176,50.648844538999015,50
87.8906,87.38,87.35360528013251,86.78391652038451,87.03909869107109,50.31450658906142,50.569688759748004,50
90.8203,87.8792,87.86248766290869,87.46993654299264,87.63660016321866,50.22588749969003,50.39255111991605,50
93.75,88.54189999999998,88.52458917561312,88.069387599025,88.27295855365573,50.25163062195739,50.45520157658811,50
96.6797,89.0577,89.03663779123538,88.49234839106323,88.74248639588956,50.29415139534582,50.54428940017215,50
102.539,89.859,89.84809597410388,89.49012637078604,89.64621136041198,50.2018846136919,50.35796960331784,50
105.469,90.39809999999999,90.38885756805168,90.04302692515115,90.19573978513144,50.19311778292024,50.34583064290052,50
108.398,90.8663,90.85913927071103,90.54037044122326,90.6804485353952,50.178690735315826,50.318768829487766,50
111.328,91.2805,91.2750626206928,90.98042107564198,91.10951214463516,50.16555047605763,50.29464154505081,50
117.188,91.97430000000001,91.97174930750379,91.72304520420292,91.83234811833103,50.13940118917276,50.24870410330087,50
120.117,92.2372,92.23529928431499,91.98602467666183,92.09710223571102,50.13819704860397,50.24927460765316,50
125.977,92.8279,92.82996459197203,92.6293389627359,92.71592444464711,50.114040147324914,50.20062562923613,50
128.906,93.1638,93.16881766476779,93.01587128063437,93.07947108640371,50.08934657836407,50.152946384133415,50
134.766,93.6448,93.65287903592977,93.5648725356423,93.5980118388522,50.05486719707757,50.08800650028748,50
137.695,93.8628,93.87037564538558,93.7824428192291,93.81604938880713,50.05432625657845,50.087932826156475,50
143.555,94.0705,94.07783996240582,93.97222850510668,94.01587387411006,50.06196608829576,50.10561145729913,50
149.414,94.55819999999999,94.5659432667326,94.45983260943497,94.50368211417724,50.062261152555365,50.106110657297634,50
155.273,94.7016,94.71240588666996,94.64998932253413,94.6731457368828,50.039260149787154,50.06241656413583,50
158.203,94.65939999999999,94.67032084855353,94.61632048554527,94.63496589564953,50.035354952904,50.05400036300826,50
164.063,94.7897,94.80067219203558,94.77765838849486,94.78009010010437,50.0205820919312,50.02301380354072,50
169.922,95.0181,95.03015842973629,95.0415683314446,95.02848884089941,50.001669588836876,49.988590098291695,50
175.781,95.0412,95.05101510956207,95.03921033174696,95.03735805368459,50.01365705587749,50.011804777815115,50
181.641,94.98619999999998,94.99354565638748,94.94342724969363,94.95951241506783,50.03403324131965,50.050118406693855,50
190.43,95.07870000000001,95.08602701499811,95.01933756743406,95.04462050526158,50.04140650973653,50.066689447564045,50
196.289,95.0998,95.10460388306265,95.03149946744477,95.05938636184966,50.04521752121299,50.07310441561788,50
202.148,95.0516,95.05335536273188,94.94912146817516,94.99131662716557,50.062038735566304,50.104233894556714,50
210.938,94.9684,94.96924645838384,94.86734629166541,94.90948064081739,50.05976581756644,50.10190016671842,50
216.797,94.9639,94.96539151567164,94.87395683154598,94.91051325474679,50.05487826092485,50.09143468412566,50
225.586,94.8439,94.83967789132252,94.69578183680112,94.75442344582247,50.085254445500055,50.143896054521406,50
234.375,94.90649999999998,94.89828954261404,94.69807547553098,94.78541553350387,50.11287400911017,50.20021406708305,50
240.234,94.71399999999998,94.70616162477326,94.50299529035824,94.59269681499725,50.113464809776005,50.203166334415016,50
249.023,94.69280000000002,94.67647237635968,94.36564937247078,94.50472646085488,50.1717459155048,50.3108230038889,50
257.813,94.5996,94.58979693099944,94.3591629824239,94.4591492557978,50.130647675201644,50.230633948575544,50
266.602,94.41610000000001,94.39988965802328,94.07303550493529,94.2168823825809,50.18300727544238,50.32685415308799,50
278.32,94.3421,94.3096275953943,94.02689502032865,94.13576926233061,50.17385833306369,50.28273257506565,50
287.109,94.5454,94.51211526404686,94.02032094293844,94.2448260898071,50.26728917423975,50.491794321108415,50
295.898,94.37689999999999,94.33799568578657,93.7781336615142,94.03680262858535,50.30119305720122,50.55986202427236,50
307.617,94.18569999999998,94.15466507394855,93.71530823550282,93.91472221526831,50.23994285868024,50.43935683844573,50
319.336,93.9706,93.93595504682115,93.49534000211706,93.68793619208276,50.24801885473839,50.44061504470409,50
331.055,94.0748,94.0228480010288,93.36044255923676,93.65981572788162,50.363032273147184,50.662405441792046,50
342.773,94.04959999999998,93.99285693319057,93.24967581415257,93.589783632221,50.40307330096957,50.743181119038,50
354.492,93.9467,93.88503821306827,93.04009185006899,93.43849373935304,50.446544473715235,50.84494636299928,50
366.211,93.8616,93.80791696875596,92.99017755663778,93.38278013901714,50.42513682973882,50.817739412118186,50
377.93,93.864,93.8024207299209,93.00206869655791,93.37128563010755,50.431135099813346,50.800352033362984,50
392.578,93.63890000000002,93.56952428781952,92.71363593756979,93.09958802647174,50.46993626134778,50.85588835024973,50
407.227,93.5862,93.49530062672254,92.54530155286986,92.97865993596594,50.5166406907566,50.94999907385268,50
421.875,93.714,93.60797230953958,92.44920761657842,92.98963650864067,50.618335800898905,51.15876469296116,50
436.523,93.6218,93.51675957979113,92.31023757823161,92.87036754865852,50.646392031132606,51.20652200155952,50
451.172,93.85259999999998,93.73539041815746,92.18557776228575,92.94247108807927,50.79291933007819,51.54981265587172,50
465.82,93.7502,93.64371739318095,92.19201717626463,92.88860028609217,50.75511710708878,51.45170021691632,50
483.398,93.73870000000001,93.6287908409784,91.97506069523139,92.78608929532025,50.842701545658144,51.653730145747005,50
500.977,93.70219999999999,93.58876437417359,91.91036389230858,92.74690615449059,50.841858219683004,51.67840048186501,50
518.555,93.696,93.57033699566813,91.797844249011,92.70119492817622,50.86914206749191,51.77249274665712,50
536.133,93.6622,93.5590602784592,91.65195632782569,92.61818593155795,50.94087434690125,51.90710395063351,50
553.711,93.9235,93.80556401188115,91.71802125796063,92.79056133242064,51.01500267946051,52.087542753920516,50
574.219,93.88870000000001,93.79265409856052,91.590975316168,92.74175930560257,51.05089479295795,52.20167878239252,50
594.727,93.8996,93.81576140658426,91.54923238865207,92.74960261721608,51.066158789368174,52.266529017932186,50
615.234,94.04959999999998,93.95923657635778,91.58923111157804,92.8446650051715,51.114571571186275,52.37000546477974,50
638.672,93.9479,93.8716922906127,91.61611226951513,92.8414292867985,51.0302630038142,52.25558002109757,50
659.18,94.1138,94.03422847482553,91.59732286592912,92.90490015063895,51.129328324186574,52.43690560889641,50
682.617,94.1252,94.04227955133256,91.60147186724383,92.87518013028573,51.16709942104683,52.440807684088725,50
706.055,93.9716,93.88388741312833,91.51405117153358,92.78442066707599,51.09946674605234,52.369836241594754,50
732.422,94.0672,93.98940423033487,91.49411412573322,92.80450104258593,51.184903187748944,52.49529010460165,50
758.789,94.241,94.14901141821025,91.5060470476614,92.85991772029668,51.28909369791357,52.64296437054885,50
785.156,93.8137,93.75017147631517,91.24511932888288,92.62259998767199,51.127571488643184,52.505052147432295,50
811.523,93.6792,93.61694495143013,91.21005876963513,92.58381211932753,51.033132832102595,52.406886181795,50
840.82,93.6448,93.59147993643992,91.15183360234404,92.55561218888239,51.03586774755753,52.43964633409588,50
870.117,93.3795,93.296720580064,91.11630392658675,92.39721179056839,50.89950878949561,52.18041665347725,50
902.344,93.5517,93.43471898018231,90.98330281434968,92.35345876204173,51.081260218140585,52.451416165832626,50
931.641,93.9367,93.82575348567073,91.09041152206414,92.57494875552567,51.25080473014506,52.73534196360659,50
966.797,94.00240000000001,93.85449436929841,91.0501050553852,92.61543378759195,51.239060581706454,52.804389313913205,50
999.023,93.5876,93.44683685978131,90.85105291167886,92.31436898948097,51.132467870300346,52.59578394810245,50
1034.18,93.44519999999999,93.19965254957334,90.39496820693435,91.84529570040466,51.35435684916868,52.80468434263899,50
1072.27,93.3557,93.11122096845303,89.95301379573208,91.56260394626457,51.54861702218845,53.15820717272095,50
1110.35,93.2325,92.99356664530522,89.51079377942055,91.27131530795477,51.72225133735046,53.48277286588467,50
1148.44,93.19520000000001,92.91182237384513,89.32311843196933,91.15269419246009,51.75912818138504,53.58870394187579,50
1189.45,93.694,93.31068131553418,89.10937985363769,91.13862195200575,52.17205936352843,54.20130146189649,50
1230.47,93.8651,93.47349638979443,89.11551322495826,91.2022530622903,52.27124332750414,54.35798316483617,50
1274.41,94.158,93.76692851095633,89.32604291254435,91.4779855513401,52.288942959616236,54.44088559841198,50
1318.36,94.3141,93.96257774172317,89.48277563479785,91.7173537475403,52.245223994182865,54.47980210692532,50
1365.23,93.9912,93.68061152991052,89.14972525093042,91.39382732403405,52.28678420587647,54.530886278980105,50
1415.04,93.7424,93.38070541714998,88.5922841578607,90.87249374177509,52.508211675374895,54.78842125928928,50
1464.84,93.71590000000002,93.35085749300463,88.2970610255369,90.6705156610533,52.680341831951324,55.05379646746772,50
1514.65,94.0457,93.7170590178611,88.32199510492093,90.82231381552582,52.89474520233529,55.395063912940174,50
1570.31,94.15330000000002,93.82281446783728,88.31615983622456,90.85345852620425,52.969355941633026,55.50665463161272,50
1623.05,93.5048,93.19809706379176,87.80361075433106,90.25344821813911,52.94464884565265,55.3944863094607,50
1681.64,92.6578,92.36790670845626,87.23307049766863,89.61284661787867,52.75506009057759,55.134836210787626,50
1740.23,92.6279,92.23437767743395,87.0644224662977,89.30618700559698,52.92819067183697,55.169955211136255,50
1801.76,92.9892,92.59773071010363,87.22836962457625,89.35542718575981,53.242303524343825,55.36936108552739,50
1866.21,92.5904,92.28182741057317,87.34914751928154,89.37543476987217,52.906392640701,54.93267989129163,50
1930.66,91.4364,91.25308938931441,87.24619607252909,89.15001627886276,52.103073110451646,54.00689331678532,50
2000.98,91.46139999999998,91.33874217462429,87.75121592046419,89.6971173564584,51.64162481816588,53.587526254160096,50
2071.29,91.8443,91.55817281563658,88.13763408037035,89.83397802443528,51.7241947912013,53.420538735266234,50
2144.53,90.74220000000001,90.9561560852327,88.05556199757851,89.89588007796318,51.06027600726952,52.9005940876542,50
2217.77,91.3344,90.89445514295592,88.12162041384354,90.05539148738754,50.83906365556838,52.772834729112375,50
2296.88,90.6812,91.02101923287096,89.26190879968529,90.88979295331912,50.13122627955184,51.75911043318567,50
2378.91,90.87399999999998,91.87888118891574,89.7112144304107,91.74680949567681,50.13207169323893,52.167666758505035,50
2460.94,92.29130000000002,92.26674396744619,89.45529896292712,91.85652648285178,50.41021748459441,52.81144500451907,50
2548.83,92.65049999999998,92.33473030480026,89.78035301987234,92.31284783155644,50.02188247324382,52.554377284927924,50
2639.65,93.4323,92.98722223164519,89.96297253340438,92.81047172414063,50.176750507504565,53.02424969824081,50
2733.4,93.42040000000001,93.1274329658421,90.11539714735268,92.7633289032738,50.3641040625683,53.01203581848942,50
2827.15,93.7288,93.43964574266299,90.12476457243251,92.84123002114461,50.59841572151838,53.31488117023048,50
2926.76,94.2225,93.86741493179457,90.23700231180182,93.05988907422433,50.80752585757024,53.630412619992754,50
3032.23,94.7581,94.18025909851744,90.21605069202185,93.1346822375988,51.04557686091864,53.96420840649559,50
3137.7,94.9951,94.65217665977146,90.34328368849354,93.1256839874871,51.52649267228436,54.30889297127791,50
3249.02,94.11570000000002,94.13745604256036,90.33718208913054,92.8574874941959,51.279968548364465,53.80027395342982,50
3363.28,93.8402,93.79687140541799,90.17678259457226,92.99492347448042,50.80194793093757,53.62008881084573,50
3483.4,94.42280000000001,94.19997683160805,90.04038271968126,93.23107348459638,50.968903347011675,54.15959411192679,50
3606.45,94.90919999999998,94.3713521438601,89.83435713280652,93.11180668817067,51.25954545568942,54.53699501105358,50
3732.42,94.85620000000002,94.23826377873446,89.6978604939158,93.15976748873878,51.078496289995684,54.540403284818666,50
3864.26,94.7925,94.55867714642855,89.7439644013518,93.09668096488217,51.46199618154638,54.81471274507675,50
3999.02,94.9913,94.71234543146451,90.03081615082414,93.13171556482219,51.580629866642326,54.681529280640376,50
4139.65,95.2019,94.7948773075574,90.0542849403088,93.18790888258742,51.60696842496998,54.740592367248595,50
4286.13,95.13870000000001,94.77016343829462,89.9931569209911,93.00389072222778,51.76627271606684,54.77700651730352,50
4438.48,94.4036,94.54237249342943,90.04155224559283,92.5542255654185,51.98814692801092,54.5008202478366,50
4593.75,93.52399999999999,94.50084154162212,90.32157238917328,92.723986075339,51.77685546628312,54.17926915244884,50
4757.81,90.94429999999998,93.82415293927117,90.27243708940266,93.06506351954212,50.75908941972905,53.551715849868515,50
4924.8,90.60629999999999,93.432629554189,90.11729730992604,92.6290326995187,50.8035968546703,53.31533224426296,50
5097.66,91.121,93.44474249307865,90.01645941829787,92.51295602571807,50.93178646736058,53.42828307478078,50
5279.3,90.2275,93.17165968360139,90.16222754712415,92.45497839658596,50.71668128701543,53.009432136477244,50
5463.87,91.95299999999999,93.58578374106037,89.97546449547254,92.60410425168152,50.98167948937885,53.61031924558783,50
5657.23,92.3883,93.07830386171621,89.9680939852704,92.43385145322695,50.64445240848926,53.11020987644581,50
5856.45,92.4067,92.93171255927172,89.70836905827566,91.92015904438928,51.011553514882436,53.22334350099605,50
6061.52,91.5231,93.2099766260031,89.35454859565785,91.64935701051492,51.56061961548818,53.85542803034525,50
6275.39,90.92310000000002,93.10670730268394,89.10350284081468,91.48948337955274,51.617223923131206,54.00320446186926,50
6498.05,90.0651,92.76934303726098,88.99720434999529,91.51229327299332,51.25704976426766,53.772138687265695,50
6726.56,90.6333,92.72265904929056,88.58330070142036,91.33346847728909,51.38919057200147,54.1393583478702,50
6963.87,91.2234,92.6676432556176,88.13637978298212,91.25340332677857,51.41423992883904,54.53126347263549,50
7209.96,91.2082,92.31643847801625,87.57981611477554,90.85661321071058,51.459825267305675,54.73662236324071,50
7464.84,91.8535,92.38414089842415,87.2721308709525,90.6777849406512,51.706355957772956,55.112010027471655,50
7728.52,92.40429999999999,92.67945750678949,87.09799999597534,90.57855775044331,52.10089975634618,55.58145751081415,50
8000.98,93.36490000000002,93.23148552065939,87.17478570659111,90.65153331058609,52.5799522100733,56.05669981406828,50
8282.23,93.8776,93.5601454713003,87.11908403014247,90.75477281598813,52.80537265531217,56.44106144115783,50
8575.2,94.1971,93.55690880839077,86.94075414176298,90.53332726349831,53.023581544892465,56.61615466662779,50
8876.95,93.944,93.14235715424986,86.44875396925532,90.01117051585199,53.13118663839788,56.693603184994544,50
9190.43,93.4096,92.63027868202276,85.94441718256397,89.5178247611794,53.112453920843365,56.685861499458795,50
9512.7,93.3567,92.3007215411551,85.37135508646435,88.93622008658107,53.364501454574025,56.92936645469075,50
9849.61,92.9441,92.04127347408767,84.84456565552776,88.64784947202035,53.39342400206732,57.196707818559915,50
10195.3,93.1413,92.1479131457803,84.60229875478699,88.42298618893783,53.72492695684247,57.54561439099331,50
10555.7,93.2461,92.24884736689924,84.5232879017545,88.37233654992872,53.87651081697052,57.72555946514474,50
10927.7,93.28250000000001,92.20661314101203,84.27156550161267,88.19531036522287,54.01130277578916,57.93504763939936,50
11314.5,93.4684,92.20495824550034,83.93606598807311,88.03055038361316,54.174407861887175,58.268892257427225,50
11712.9,93.59410000000001,92.13347903864681,83.64782457796076,87.9211969474315,54.212282091215314,58.48565446068605,50
12126.0,93.7923,92.13824207323533,83.43548367702091,87.7584697934361,54.37977227979923,58.70275839621442,50
12553.7,93.8178,92.1081974743146,83.3120532638272,87.7075443347223,54.40065313959229,58.7961442104874,50
12996.1,93.3848,91.74365589604552,82.84419894865246,87.25791164391713,54.4857442521284,58.89945694739306,50
13453.1,93.0366,91.37030528546937,82.31749976697756,86.75241702697842,54.61788825849095,59.05280551849181,50
13927.7,92.1827,90.71156102945868,81.77654760692582,86.13526191349278,54.576299115965895,58.93501342253286,50
14419.9,91.2675,90.03895215688028,81.32678858686921,85.56773393420654,54.47121822267374,58.71216357001107,50
14929.7,90.8097,89.72020817535784,81.04465812970817,85.2906680251146,54.42954015024324,58.67555004564967,50
15454.1,90.7027,89.75198048763464,80.96157235006457,85.23549992603112,54.516480561603515,58.79040813757007,50
15999.0,90.68670000000002,89.82457785004064,80.91202961834783,85.25300938688396,54.57156846315668,58.91254823169281,50
16564.5,90.86149999999999,89.92778454928788,80.81781424490705,85.29207486901494,54.63570968027294,59.10997030438082,50
17147.5,91.3539,90.24184528565387,80.80658935870886,85.44080169119538,54.80104359445849,59.435255926945004,50
17753.9,91.6635,90.4544770662355,80.753284855245,85.5504993142965,54.903977751938996,59.7011922109905,50
