Freq,On Axis,Listening Window,Sound Power,Early Reflections,Early Reflections DI,Sound Power DI,DI offset
20.5078,37.562100000000015,37.67406896226217,38.86536084205841,38.204408550046736,39.46966041221543,38.80870812020376,40
21.9727,41.65270000000001,41.70456284425225,42.3686536771728,41.92110212747042,39.78346071678183,39.33590916707945,40
23.4375,46.38300000000001,46.39301161440446,46.82611832061173,46.48381538168118,39.909196232723275,39.56689329379273,40
24.9023,48.00319999999999,48.01135340096474,48.31276496926924,48.0575501648602,39.953803236104534,39.6985884316955,40
26.3672,49.0549,49.059279459288206,49.161409015256964,49.01509824293211,40.044181216356094,39.89787044403124,40
27.832,52.009600000000006,52.0111029079234,52.09240006856666,51.967700275945276,40.043402631978125,39.91870283935674,40
29.2969,53.027799999999985,53.03210348147084,53.21501085583719,53.04994451193767,39.982158969533174,39.81709262563365,40
30.7617,53.84610000000001,53.84837019394942,53.91589668858444,53.8004128147864,40.04795737916302,39.93247350536498,40
32.2266,56.126299999999986,56.110447321866104,55.90424011625771,55.93127608682269,40.17917123504341,40.20620720560839,40
33.6914,57.7715,57.76167698714373,57.60234014959309,57.611544526617934,40.150132460525796,40.15933683755064,40
35.1562,59.21629999999999,59.20810569930224,59.0602371819236,59.071070129288344,40.13703557001389,40.14786851737864,40
36.6211,60.96520000000001,60.95212997817184,60.68670993848448,60.75724549230286,40.19488448586898,40.265420039687356,40
38.0859,61.52340000000001,61.52266287658239,61.48715780057218,61.447735744116756,40.07492713246563,40.03550507601021,40
39.5508,63.0851,63.0784872193957,62.96798156446549,62.96722912643324,40.11125809296246,40.11050565493021,40
41.0156,63.9618,63.962915545790906,64.01560663173875,63.9444220795459,40.018493466245005,39.94730891405216,40
42.4805,65.111,65.09555709668501,64.74153151260461,64.86585647279009,40.22970062389493,40.354025584080404,40
43.9453,66.0647,66.04863040675494,65.7765877569406,65.85813306660776,40.190497340147175,40.27204264981434,40
45.4102,67.0431,67.02909252678413,66.8128932705547,66.87014678864261,40.15894573814151,40.21619925622943,40
46.875,67.9584,67.94532812643098,67.75277475079973,67.79684256735038,40.1484855590806,40.19255337563125,40
48.3398,68.6035,68.5952848361897,68.481174273729,68.48833015425731,40.10695468193239,40.11411056246071,40
51.2695,69.9552,69.94087784558073,69.69866168938411,69.77315638853959,40.16772145704114,40.24221615619662,40
52.7344,70.6026,70.58710385412112,70.32629432265202,70.41013839209103,40.1769654620301,40.26080953146911,40
54.1992,71.05940000000001,71.04574565664849,70.82566260380277,70.88867941343244,40.15706624321605,40.22008305284572,40
55.6641,71.5168,71.50314696698604,71.29057140118252,71.35052124275117,40.152625724234866,40.21257556580352,40
58.5938,72.3101,72.29460430421352,72.0478657174172,72.12578538724664,40.168818916966885,40.246738586796326,40
60.0586,72.6979,72.68300003449394,72.44999150508092,72.52138908394986,40.16161095054409,40.23300852941303,40
62.9883,73.4592,73.44375715230045,73.20531295889543,73.28038591803318,40.163371234267274,40.238444193405016,40
64.4531,73.7622,73.74650025796424,73.50482377719133,73.58168542035162,40.164814837612624,40.24167648077291,40
67.3828,74.26069999999999,74.24479195491381,73.99843875979346,74.07817219463831,40.166619760275495,40.24635319512035,40
68.8477,74.456,74.43964888635456,74.19465314807815,74.27345099598026,40.166197890374306,40.244995738276415,40
71.7773,75.0631,75.04526915279718,74.77259230857055,74.86644588675738,40.1788232660398,40.27267684422662,40
74.707,75.6745,75.65597562301677,75.37027975853209,75.47195859507306,40.18401702794371,40.28569586448468,40
77.6367,75.9471,75.92875155938006,75.65230140473781,75.74928159779347,40.17946996158659,40.27645015464225,40
79.1016,76.1128,76.0942035770597,75.81400108324219,75.9129808188116,40.1812227582481,40.28020249381751,40
82.0312,76.7577,76.7370325007888,76.41416869686181,76.53532681308118,40.201705687707616,40.32286380392699,40
84.9609,77.1274,77.10793566609158,76.78191231526372,76.90625514662713,40.201680519464446,40.32602335082785,40
87.8906,77.07,77.05503012275608,76.89727829321981,76.93201895654192,40.123011166214155,40.15775182953627,40
90.8203,77.7783,77.75763076038656,77.49661735148193,77.585716995616,40.171913764770565,40.26101340890463,40
95.2148,78.3074,78.2859314414351,77.97673369434293,78.09376524669528,40.19216619473981,40.30919774709217,40
98.1445,78.6394,78.61649679594896,78.3349879911764,78.43767926309988,40.17881753284908,40.28150880477256,40
101.074,79.0581,79.02827804416289,78.60084987633812,78.78023306858104,40.24804497558185,40.42742816782477,40
105.469,79.3736,79.34964046606973,79.02549904370224,79.15326242281816,40.19637804325157,40.32414142236749,40
108.398,79.7071,79.68056946684534,79.3134882281717,79.46248777983043,40.218081687014916,40.367081238673634,40
112.793,80.0564,80.03085193206638,79.68428169224536,79.82370671957936,40.20714521248702,40.34657023982102,40
117.188,80.5375,80.50648168375534,80.09090270547297,80.26312819599723,40.243353487758114,40.41557897828237,40
120.117,80.66379999999998,80.63150687433854,80.19008585357163,80.3745607140018,40.25694616033674,40.44142102076691,40
124.512,80.8895,80.85716926603385,80.45775454289637,80.6167003530851,40.24046891294876,40.39941472313748,40
128.906,81.0678,81.03529036163239,80.61091906664379,80.78629479084688,40.24899557078551,40.4243712949886,40
133.301,81.3142,81.27699163167222,80.78069347750278,80.9906567485564,40.28633488311581,40.49629815416944,40
139.16,81.24939999999998,81.21915498865049,80.87255247323446,81.00459454424252,40.214560444407965,40.34660251541602,40
143.555,81.41890000000001,81.37764342929631,80.93822350503851,81.11604582886608,40.261597600430235,40.439419924257805,40
147.949,81.6261,81.58013288213793,81.05181825256928,81.27194866603857,40.30818421609936,40.528314629568655,40
153.809,81.65620000000001,81.6115175493363,81.04193163604357,81.28423935471795,40.327278194618344,40.56958591329273,40
159.668,81.6736,81.63358093853375,81.11836999837703,81.3311579943292,40.30242294420455,40.51521094015672,40
165.527,81.66830000000002,81.62058236414863,81.097981956732,81.30677025541503,40.3138121087336,40.52260040741663,40
171.387,81.6404,81.59254322088682,81.07070879694213,81.28228133782537,40.31026188306146,40.521834423944696,40
177.246,81.57399999999998,81.52435431262397,80.97076135056228,81.19530184079849,40.32905247182548,40.553592962061686,40
183.105,81.4354,81.38060869477701,80.84093677919788,81.05588950433386,40.32471919044315,40.539671915579135,40
188.965,81.4119,81.35355975122488,80.75909137810172,80.99785434671823,40.35570540450665,40.59446837312316,40
196.289,81.5517,81.48408999760434,80.74979131489343,81.05939869984167,40.42469129776268,40.734298682710914,40
203.613,81.3838,81.31956231442116,80.52340916614966,80.87100925086041,40.44855306356075,40.7961531482715,40
210.938,81.18359999999998,81.1142754477781,80.33619026502117,80.66468193236179,40.44959351541631,40.778085182756925,40
218.262,81.0532,80.98728388500405,80.22844235809328,80.54969813033871,40.437585754665335,40.75884152691077,40
225.586,80.9776,80.90060369914981,80.10080216246557,80.43496033841875,40.465643360731065,40.79980153668424,40
232.91,80.9367,80.8503269375704,79.93756993022963,80.33243847332398,40.517888464246425,40.91275700734077,40
241.699,80.7627,80.67646705567958,79.72042614789274,80.13980185137966,40.53666520429992,40.95604090778684,40
250.488,80.6926,80.58972530525085,79.44692831370354,79.9520702403825,40.637655064868355,41.142796991547314,40
259.277,80.6514,80.55344716986738,79.46818476380992,79.9420446305565,40.61140253931089,41.08526240605747,40
268.066,80.46099999999998,80.3517188158847,79.12643291882969,79.65635372840083,40.695365087483864,41.225285897055,40
276.855,80.2887,80.19476690090437,78.93726561162708,79.49205317472563,40.70271372617874,41.257501289277286,40
287.109,80.3642,80.25753122242277,78.92670340623988,79.51735851316485,40.74017270925792,41.33082781618289,40
297.363,80.1451,80.0377112198467,78.67191707261725,79.29131793181094,40.74639328803576,41.36579414722945,40
307.617,80.17520000000002,80.06000953807032,78.584494452673,79.28469731060852,40.7753122274618,41.47551508539732,40
319.336,79.9557,79.81279691356555,78.29688727138293,78.98539096871306,40.82740594485249,41.51590964218262,40
329.59,79.8734,79.76420081901195,78.09570356063375,78.87890200925409,40.885298809757856,41.668497258378196,40
341.309,79.6964,79.55294430808179,77.94173213692332,78.69214328976656,40.86080101831523,41.61121217115847,40
353.027,79.69660000000002,79.54786072874651,77.69703856509872,78.55383882032164,40.99402190842487,41.85082216364779,40
366.211,79.6485,79.50251582000789,77.57479773904961,78.45581449221476,41.04670132779313,41.92771808095827,40
379.395,79.756,79.62509334021456,77.61825889982985,78.5934789457845,41.031614394430065,42.00683444038471,40
392.578,79.36,79.2471652528947,77.19155373165562,78.21106752474822,41.03609772814649,42.055611521239086,40
405.762,79.2484,79.09790247417563,76.9744694168441,77.98591530647616,41.11198716769947,42.123433057331525,40
420.41,79.5908,79.39427381074952,76.92960377207386,78.11630320531441,41.277970605435115,42.46467003867566,40
435.059,79.10650000000001,78.96961753142278,76.73114972507959,77.8069513270479,41.16266620437489,42.238467806343195,40
451.172,79.5976,79.39745130756697,76.42483069645634,77.94845027953956,41.44900102802741,42.97262061111063,40
465.82,79.1037,78.94476306834346,76.21762579945256,77.55924942359336,41.385513644750105,42.7271372688909,40
483.398,78.92579999999998,78.80452706423831,75.98945686037582,77.43108310925251,41.3734439549858,42.81507020386249,40
499.512,78.6871,78.51102810711181,75.538482903062,77.08861611786179,41.42241198925002,42.97254520404981,40
517.09,78.08279999999999,77.9221215904294,74.95151785075494,76.50837582227464,41.413745768154755,42.97060373967446,40
536.133,76.61590000000001,76.46494310423776,73.48638555728888,75.01976821297492,41.44517489126284,42.97855754694888,40
555.176,76.9415,76.73174369180211,73.3609146725297,75.11397049980053,41.61777319200158,43.370829019272406,40
574.219,83.99119999999999,83.82949955800241,80.45352281197994,82.19679946284228,41.63270009516013,43.375976746022474,40
594.727,85.0105,84.84784952117326,81.52322375258551,83.30501014212224,41.54283937905102,43.32462576858775,40
615.234,83.38930000000002,83.31633074702545,79.9362069918301,81.66403645896628,41.65229428805917,43.38012375519534,40
637.207,82.3526,82.19293697324838,78.94769215657396,80.67789420358758,41.515042769660795,43.245244816674415,40
659.18,81.4823,81.35882779134546,78.18459398500764,79.87534649383205,41.48348129751341,43.174233806337824,40
682.617,81.4537,81.37215073102877,77.99843180549925,79.69737427108294,41.67477645994583,43.373718925529516,40
707.52,80.9907,80.82411083514856,77.66482412110712,79.34279514045757,41.48131569469099,43.15928671404144,40
732.422,80.86690000000002,80.75868767299423,77.37354748563448,79.00737108310278,41.751316589891445,43.38514018735975,40
757.324,80.6228,80.49887952076007,77.20068121614842,78.85516699321022,41.64371252754985,43.298198304611645,40
785.156,80.24339999999998,80.11459616687104,76.9213974367801,78.74009938820159,41.37449677866945,43.19319873009094,40
811.523,80.28549999999998,80.17529049329542,77.13360453807047,78.94038641242587,41.234904080869555,43.04168595522495,40
840.82,80.8177,80.6251260604415,77.28119850050749,79.2549944612797,41.37013159916181,43.343927559934016,40
870.117,80.71439999999998,80.45158834138677,77.15768557939793,78.93927247413029,41.512315867256476,43.29390276198883,40
900.879,81.4581,81.09065985904026,77.40643218457883,79.40347941137802,41.68718044766224,43.684227674461425,40
933.105,81.4574,81.07450543187669,77.29472963276694,79.21084838490381,41.863657046972875,43.77977579910974,40
965.332,81.7676,81.428669792178,77.61343461084806,79.67490996065368,41.75375983152432,43.81523518132994,40
1000.49,82.515,81.97706145414004,78.30889256819998,80.15402757414893,41.823033879991115,43.66816888594006,40
1035.64,82.03559999999999,81.63667534603796,78.39829703415354,79.86580948567689,41.77086586036107,43.23837831188442,40
1072.27,76.3966,75.76745034884237,74.88549269257318,75.31458714140095,40.452863207441425,40.88195765626919,40
1108.89,75.8083,75.65356300931187,73.37703497460772,74.46671220218994,41.18685080712193,42.27652803470414,40
1148.44,78.99860000000001,78.64629283283531,74.24117300359856,76.3346965567011,42.31159627613421,44.40511982923675,40
1189.45,80.927,80.40784125068012,75.26985911031005,77.66786591836822,42.7399753323119,45.13798214037007,40
1230.47,81.5388,81.13979681275781,76.0978532845505,78.34805636702718,42.791740445730625,45.04194352820731,40
1274.41,82.6881,82.30143998995746,77.04808296130821,79.56262446436406,42.738815525593395,45.25335702864925,40
1319.82,81.6729,81.38088837316613,76.22373430972459,78.89914411802523,42.481744255140896,45.15715406344154,40
1366.7,80.2899,79.67512480211609,75.10047656637894,77.48761991368295,42.18750488843314,44.57464823573714,40
1413.57,79.31129999999999,79.06698235832862,75.21531622667769,77.60409692663815,41.46288543169047,43.85166613165093,40
1463.38,79.4256,79.45256339101368,76.03521925036439,78.14637380887939,41.306189582134294,43.41734414064929,40
1516.11,84.4485,84.01672370393719,78.71548625631378,81.64758600360715,42.36913770033004,45.30123744762341,40
1568.85,85.1462,84.58419360956229,78.9253502282608,81.99686206547717,42.58733154408512,45.658843381301494,40
1624.51,84.079,83.48240317209537,77.6277731329722,80.65368304809739,42.82872012399798,45.85463003912318,40
1681.64,82.6057,82.57761241953693,77.1023850311125,80.14441367374505,42.433198745791884,45.47522738842443,40
1741.7,83.6951,82.98844428140258,77.1627864432339,80.2552083313017,42.73323595010088,45.82565783816868,40
1803.22,85.0029,84.04299537497117,77.54346216004842,80.66933381320261,43.37366156176856,46.49953321492275,40
1866.21,84.6991,83.82753162591426,77.19811303067695,80.4475671533273,43.37996447258696,46.62941859523731,40
1932.13,82.5922,82.49961589205279,76.12196858289533,79.73020619371722,42.769409698335565,46.37764730915745,40
1999.51,82.2504,81.7558767542655,75.67849687377853,78.97917702848508,42.77669972578042,46.07737988048697,40
2069.82,79.3861,80.04064065585067,74.90601131864375,78.08084740956473,41.95979324628594,45.13462933720692,40
2143.07,81.9505,81.39093283261387,74.8673810441548,77.81387014982462,43.57706268278925,46.52355178845907,40
2219.24,81.96020000000001,81.03559324125796,74.61263248788521,77.39002521870397,43.64556802255399,46.42296075337275,40
2296.88,80.7376,80.06703722648109,74.08566648271608,76.70401243009792,43.36302479638317,45.98137074376501,40
2378.91,79.97569999999999,79.55423504442268,73.0889266690194,76.14480846317133,43.40942658125135,46.46530837540328,40
2462.4,81.1283,80.30293378035053,73.47143330760701,76.57099787889476,43.73193590145577,46.831500472743514,40
2548.83,82.16120000000001,81.24986194510919,74.14660229557471,77.08564757883558,44.16421436627361,47.10325964953448,40
2639.65,80.9003,80.38370599633811,73.92287316148177,76.35897543913418,44.024730557203924,46.46083283485633,40
2731.93,81.2283,80.47237142626582,73.34935327219745,76.19186220552363,44.28050922074219,47.123018154068376,40
2828.61,81.67320000000001,80.84535687131208,73.67122392377654,76.7629013128315,44.082455558480575,47.17413294753554,40
2928.22,82.131,81.27492245960717,74.15899306309628,77.0885453466413,44.18637711296587,47.11592939651089,40
3030.76,82.3491,81.64720528835231,74.65388401601129,77.48388440032937,44.16332088802294,46.99332127234102,40
3137.7,82.68950000000001,81.88540050436983,75.05191285592197,77.84559708875618,44.03980341561365,46.83348764844786,40
3249.02,82.9099,82.103480527538,75.11909126490488,78.00081384858161,44.10266667895638,46.984389262633115,40
3363.28,81.6236,81.04875597821464,74.61501159681703,77.43062208291406,43.61813389530059,46.43374438139762,40
3481.93,80.525,80.3019461288655,74.56181381582878,77.2015900541421,43.10035607472339,45.74013231303671,40
3604.98,80.7756,81.0291954725502,75.26663818277109,77.83757620639096,43.191619266159236,45.76255728977911,40
3732.42,80.713,80.77413685632396,74.89697421821744,77.63328784834749,43.14084900797647,45.877162638106526,40
3864.26,79.7534,79.95301636061363,74.34627644847494,77.28014358389709,42.672872776716545,45.60673991213869,40
4000.49,80.7656,80.99878073008078,74.87098307986649,77.88329156902404,43.11548916105674,46.12779765021429,40
4141.11,80.7997,80.81155098544217,74.64512136204901,77.7990428512016,43.01250813424056,46.16642962339316,40
4287.6,81.3498,81.16452235531062,74.79758995094818,78.08176653025228,43.08275582505834,46.366932404362444,40
4438.48,80.7216,80.89607243815217,74.56707010630791,77.78181437775666,43.114258060395514,46.329002331844265,40
4595.21,81.7582,81.69289651604801,75.00813528458026,78.25004779931513,43.44284871673288,46.684761231467746,40
4756.35,80.81469999999999,80.68217882928337,74.20674926146347,77.36510907071224,43.31706975857114,46.4754295678199,40
4924.8,81.7235,81.07595308503983,74.11436081729823,77.55384829596251,43.52210478907732,46.961592267741594,40
5097.66,82.4447,81.56978070376908,74.69398505487538,78.02468670488437,43.54509399888471,46.8757956488937,40
5277.83,83.11949999999999,81.86799555469149,74.55718267601742,78.05799879072069,43.8099967639708,47.31081287867407,40
5463.87,83.4196,81.74914787966057,74.06447799325463,77.8247446841879,43.924403195472664,47.68466988640594,40
5657.23,84.4842,82.82109211275126,74.59605469373422,78.49282694876207,44.32826516398919,48.22503741901704,40
5856.45,84.2069,82.54650467089682,74.79996803948099,78.31139742805138,44.235107242845444,47.746536631415836,40
6062.99,84.9125,83.18081468671564,75.689335727161,79.046384469162,44.13443021755363,47.49147895955464,40
6276.86,84.92419999999998,83.01811331245126,75.83716016172136,79.03132912997248,43.986784182478786,47.180953150729906,40
6498.05,84.99629999999999,82.93803144372062,76.04533426221643,79.10882397664489,43.82920746707573,46.89269718150419,40
6726.56,84.979,82.9723843006671,76.42813998149313,79.2432489367998,43.7291353638673,46.54424431917397,40
6963.87,84.27009999999999,82.44791056095494,76.12932202202757,78.87913433880993,43.568776222145004,46.31858853892737,40
7209.96,84.3287,82.91671905379172,76.68357520721779,79.37246885663343,43.54425019715829,46.23314384657394,40
7464.84,83.7089,82.43450094388693,76.06367655106138,78.78307604150314,43.651424902383795,46.370824392825554,40
7727.05,83.2353,82.42837979277361,76.07349690947743,78.69740911676105,43.73097067601256,46.354882883296185,40
7999.51,82.34390000000002,82.24952018336725,75.87442664882224,78.42767465993967,43.821845523427584,46.375093534545016,40
8282.23,82.55449999999999,82.81891326627547,76.18608006793264,78.7656883248973,44.053224941378176,46.63283319834284,40
8573.73,82.1803,83.01315386383833,76.04376101457744,78.74159504692541,44.271558816912915,46.969392849260885,40
8876.95,81.6278,82.95371801232855,75.69091363220394,78.52033613492921,44.43338187739934,47.26280438012461,40
9188.96,81.8618,83.33527363166459,76.04016934805941,78.92423140798557,44.41104222367902,47.295104283605184,40
9514.16,82.1702,83.04587695430453,75.75946452966504,78.6600589614817,44.38581799282284,47.286412424639494,40
9849.61,82.8357,82.72671181066843,75.64314559331301,78.49507127659928,44.23164053406916,47.083566217355425,40
10196.8,83.2479,82.6421311611158,75.3695207878373,78.30193515025682,44.340196010858975,47.272610373278496,40
10555.7,83.3125,82.44833642979913,74.92595092612346,77.95987495370667,44.48846147609245,47.522385503675665,40
10927.7,83.2983,82.33816431485815,74.66500323910338,77.78038965760786,44.55777465725029,47.67316107575476,40
11313.0,83.6104,82.55241574455887,74.78792830580375,77.85125704026221,44.70115870429666,47.764487438755125,40
11712.9,83.8589,82.82825869612563,75.0830212450014,78.10026217049149,44.72799652563414,47.745237451124225,40
