Freq "Front Wall Bounce"
22.4 37.29660581465505
23.0 39.396605814655075
23.6 41.48479431112544
24.0 43.5240010829866
25.0 45.624001082986595
25.8 47.68849395149836
26.5 49.727396995193075
27.2 51.792728569680904
28.0 53.785110969795724
29.0 55.824946918403626
30.0 57.7918260397647
30.7 59.7918260397647
31.5 61.727104358811005
32.5 63.627104358810996
33.5 65.49549536985711
34.5 67.2371006183441
35.5 68.9643820215102
36.5 70.59149311830366
37.5 72.06106235207672
38.7 73.37595803166796
40.0 74.64611540654961
41.2 75.70362500576276
42.5 76.64611540654961
43.7 77.47397253892372
45.0 78.2311168409873
46.2 78.87397253892372
47.5 79.54611540654962
48.7 80.1739725389237
50.0 80.80165212437173
51.5 81.50165212437173
53.0 82.14611540654961
54.5 82.83111684098729
56.0 83.50165212437172
58.0 84.20165212437172
60.0 84.80165212437171
61.5 85.30165212437171
63.0 85.80165212437173
65.0 86.20099441428071
67.0 86.55775667464532
69.0 86.81442746339745
71.0 87.01442746339747
73.0 87.11442746339745
75.0 87.17166275391891
77.5 87.2716627539189
80.0 87.25742449135815
82.5 87.20065786069426
85.0 87.18651449586095
87.5 87.08651449586095
90.0 87.00230990919567
92.5 86.8726484311316
95.0 86.73110179883555
97.5 86.60230990919567
100.0 86.43110179883557
103.0 86.27395729753971
106.0 86.08781919063811
109.0 85.91737758727848
112.0 85.7884942642923
115.0 85.60263119370124
118.0 85.38882407968417
122.0 85.18882407968415
125.0 84.97658977321828
128.0 84.77658977321828
132.0 84.56204375999248
136.0 84.39044363353322
140.0 84.17697531712331
145.0 84.06138002358114
150.0 83.9059350948675
155.0 83.83278882757176
160.0 83.76204375999247
165.0 83.74675150375354
170.0 83.71739302852534
175.0 83.75840584504061
180.0 83.78618450501949
185.0 83.8437907541973
190.0 83.90065786069427
195.0 83.9288071567453
200.0 83.98651449586096
206.0 84.05808883252637
212.0 84.05808883252637
218.0 84.07232492078934
224.0 84.10065786069426
230.0 84.11508314243883
236.0 84.1437907541973
240.0 84.21508314243883
250.0 84.25840584504061
258.0 84.3437907541973
265.0 84.3861845050195
272.0 84.4861845050195
280.0 84.57166275391889
290.0 84.61508314243885
300.0 84.67166275391891
307.0 84.67166275391891
315.0 84.61508314243885
325.0 84.54379075419727
335.0 84.41508314243885
345.0 84.2874892989204
355.0 84.08748929892042
365.0 83.90229476693692
375.0 83.73175513861908
387.0 83.53175513861906
400.0 83.37525122642457
412.0 83.27525122642457
425.0 83.20229476693693
437.0 83.18748929892041
450.0 83.18748929892041
462.0 83.18748929892041
475.0 83.21508314243884
487.0 83.21508314243884
500.0 83.2716627539189
515.0 83.2861845050195
530.0 83.31508314243885
545.0 83.31508314243885
560.0 83.22979499755904
580.0 83.18748929892041
600.0 83.13175513861907
615.0 83.03175513861906
630.0 82.91998423401445
650.0 82.81998423401443
670.0 82.75000634017071
690.0 82.66528715999551
710.0 82.63924275721992
730.0 82.71363940606882
750.0 82.8136394060688
775.0 83.0136394060688
800.0 83.18847217927515
825.0 83.32940676691628
850.0 83.46005936857911
875.0 83.48847217927515
900.0 83.46005936857911
925.0 83.38847217927515
950.0 83.28847217927516
975.0 83.12940676691628
1000.0 82.98847217927516
1030.0 82.9136394060688
1060.0 82.87291818970169
1090.0 82.8136394060688
1120.0 82.78847217927515
1150.0 82.78847217927515
1180.0 82.78847217927515
1220.0 82.78847217927515
1250.0 82.78847217927515
1280.0 82.7351604799582
1320.0 82.68847217927515
1360.0 82.66373611801399
1400.0 82.71068966302632
1450.0 82.71068966302632
1500.0 82.6866419148176
1550.0 82.73443179205897
1600.0 82.77933498230335
1650.0 82.85086213388186
1700.0 82.92758020744903
1750.0 82.9596855474149
1800.0 82.97640057047573
1850.0 83.00343598990848
1900.0 83.00343598990848
1950.0 83.00343598990848
2000.0 82.98147278830733
2060.0 82.94878181929043
2120.0 82.92076211162325
2180.0 82.89888657798578
2240.0 82.89888657798578
2300.0 82.89888657798578
2360.0 82.92076211162325
2400.0 82.98147278830733
2500.0 83.02076211162324
2580.0 83.12076211162325
2650.0 83.22076211162324
2720.0 83.32076211162325
2800.0 83.42076211162325
2900.0 83.52076211162326
3000.0 83.62579638388722
3070.0 83.69343859806335
3150.0 83.77640057047573
3250.0 83.79942293182198
3350.0 83.85086213388186
3450.0 83.85086213388186
3550.0 83.85821708819499
3650.0 83.8512148231135
3750.0 83.8351604799582
3870.0 83.78847217927516
4000.0 83.77291818970168
4120.0 83.7269946725239
4250.0 83.7269946725239
4370.0 83.68164240754622
4500.0 83.66676624520525
4620.0 83.58164240754621
4750.0 83.56676624520526
4870.0 83.54132511734572
5000.0 83.45628853013706
5150.0 83.40190494384014
5300.0 83.30687569495872
5450.0 83.22919741839351
5600.0 83.0920649350121
5800.0 83.0169867271138
6000.0 82.90470702014275
6150.0 82.76016655532524
6300.0 82.60974630488342
6500.0 82.41663399781778
6700.0 82.2495669347549
6900.0 82.04025497201728
7100.0 81.89203502709118
7300.0 81.71064634609232
7500.0 81.56320591042638
7750.0 81.4371489859934
8000.0 81.39249136514914
8250.0 81.39249136514914
8500.0 81.41821932681938
8750.0 81.49964050235671
9000.0 81.5814074727851
9250.0 81.74234877150583
9500.0 81.8900163406472
9750.0 82.05544660667678
10000.0 82.1826133664832
10300.0 82.24838465706785
10600.0 82.29771765240892
10900.0 82.3476262481967
11200.0 82.44762624819671
11500.0 82.46976085057074
11800.0 82.53698126844557
12200.0 82.63698126844558
12500.0 82.83698126844557
12800.0 83.00470702014275
13200.0 83.25968554741492
13600.0 83.4596855474149
14000.0 83.60888507559837
14500.0 83.64855905798716
15000.0 83.60424842490731
15500.0 83.32765542901596
16000.0 82.92765542901594
16500.0 82.28414852304002
17000.0 81.48182004422493
17500.0 80.59023263389044
18000.0 79.58964491052754
18500.0 78.64157710072683
19000.0 77.69529929442267
19500.0 76.91104945368282
