Freq "Rear Wall Bounce"
22.4 36.68379455267167
23.0 38.72623737021222
23.6 40.822015882252074
24.0 42.85647238990181
25.0 44.87724548017327
25.8 46.9224807822619
26.5 48.94449528148935
27.2 50.95694007416678
28.0 52.94480116804205
29.0 54.948903451934754
30.0 56.905089802510005
30.7 58.88425216544856
31.5 60.80913383147784
32.5 62.699205668010094
33.5 64.5552864230575
34.5 66.31192810930499
35.5 68.0370982085798
36.5 69.64788858356475
37.5 71.13781925529382
38.7 72.48536012638155
40.0 73.70619246080463
41.2 74.78583003189509
42.5 75.722632402665
43.7 76.522632402665
45.0 77.24306341013819
46.2 77.91152588386434
47.5 78.53302876319894
48.7 79.13302876319894
50.0 79.73302876319893
51.5 80.3273747716198
53.0 80.96005744984032
54.5 81.58628373312744
56.0 82.22890650858919
58.0 82.83876708302614
60.0 83.36534988823315
61.5 83.91879302173884
63.0 84.38580834122234
65.0 84.7658219637269
67.0 85.10688054201495
69.0 85.37454964443555
71.0 85.5754919962709
73.0 85.70560725175257
75.0 85.81698761491482
77.5 85.87470435373659
80.0 85.83766914832478
82.5 85.78446160748314
85.0 85.67259171759443
87.5 85.54125149318813
90.0 85.36135631947957
92.5 85.15646530211446
95.0 84.95596991091402
97.5 84.73513512232681
100.0 84.49735292283646
103.0 84.27647249397391
106.0 84.0334174823961
109.0 83.79140078499992
112.0 83.54372020454149
115.0 83.2647583160586
118.0 82.98667344023647
122.0 82.65572452661502
125.0 82.2826826750937
128.0 81.90574200184535
132.0 81.52364298888526
136.0 81.13132581628871
140.0 80.793956465189
145.0 80.50812374505114
150.0 80.28225186286086
155.0 80.14293641180302
160.0 80.07703390397629
165.0 80.07703390397629
170.0 80.1572354662665
175.0 80.24398519445613
180.0 80.37322227546773
185.0 80.4636626328726
190.0 80.57367228873774
195.0 80.62448333786952
200.0 80.6741120134097
206.0 80.6741120134097
212.0 80.64557400579982
218.0 80.64780519576885
224.0 80.62295848502187
230.0 80.6070601230103
236.0 80.59834981200297
240.0 80.61267511924376
250.0 80.61701870921259
258.0 80.66226090609402
265.0 80.70162096311354
272.0 80.75498723368675
280.0 80.76702410092898
290.0 80.74512602887708
300.0 80.7463135484157
307.0 80.67417727131681
315.0 80.5841513002035
325.0 80.44874351136697
335.0 80.26663938040501
345.0 80.06067377995205
355.0 79.83007798321607
365.0 79.56536818617506
375.0 79.26030026567003
387.0 78.94365139616629
400.0 78.63651831025636
412.0 78.30980900470853
425.0 78.01761782926896
437.0 77.7522555220004
450.0 77.51162852647774
462.0 77.3006828182207
475.0 77.11161438259984
487.0 76.95591287708395
500.0 76.80563934801773
515.0 76.62189022324411
530.0 76.5329268590926
545.0 76.4239605257105
560.0 76.29172700816592
580.0 76.16988653175675
600.0 76.04860667907901
615.0 75.89946962468797
630.0 75.76889931382047
650.0 75.664618083186
670.0 75.58126552386712
690.0 75.50752766647278
710.0 75.48881391152882
730.0 75.55139137238108
750.0 75.65875755817034
775.0 75.78936205657325
800.0 75.91264999470262
825.0 75.88156049536025
850.0 75.72785107736449
875.0 75.44319671771102
900.0 75.02040020996743
925.0 74.53161989481998
950.0 73.93274993338402
975.0 73.31486988154765
1000.0 72.71602900052294
1030.0 72.22408874861246
1060.0 71.73325766203065
1090.0 71.25702909200218
1120.0 70.87549368776924
1150.0 70.47826487024385
1180.0 70.06753772018531
1220.0 69.69029733008863
1250.0 69.2836821044999
1280.0 68.85300831328904
1320.0 68.42777144732666
1360.0 68.04784686694411
1400.0 67.67553944611774
1450.0 67.34833477348143
1500.0 67.11792157125159
1550.0 66.90606717331717
1600.0 66.72609468375846
1650.0 66.6154721784592
1700.0 66.55777558074928
1750.0 66.51123464980014
1800.0 66.48900994079924
1850.0 66.49746810227097
1900.0 66.57467753884559
1950.0 66.67314076491066
2000.0 66.76443230029355
2060.0 66.85763623999918
2120.0 66.99385137811845
2180.0 67.08371160938553
2240.0 67.19228372198062
2300.0 67.27638310013462
2360.0 67.35359867616798
2400.0 67.42212937740823
2500.0 67.49455888077385
2580.0 67.52744876319473
2650.0 67.57361047059601
2720.0 67.60433511944488
2800.0 67.56399770648136
2900.0 67.49118182793164
3000.0 67.39603541412029
3070.0 67.18220708820266
3150.0 66.91990080279436
3250.0 66.58134821327435
3350.0 66.13836280698114
3450.0 65.60996222663813
3550.0 65.10817186067796
3650.0 64.48857867602115
3750.0 63.86118110061385
3870.0 63.22719917295676
4000.0 62.552796347657136
4120.0 61.901054691817635
4250.0 61.192550193273746
4370.0 60.57486717755073
4500.0 59.85753139060104
4620.0 59.230014622565804
4750.0 58.53104723792619
4870.0 57.91709977205515
5000.0 57.31929870633955
5150.0 56.74224777636353
5300.0 56.2739173303065
5450.0 55.915508898994275
5600.0 55.62482882556036
5800.0 55.50367738625867
6000.0 55.45527846716048
6150.0 55.46606877431388
6300.0 55.55988472129884
6500.0 55.66836200451722
6700.0 55.72130370129848
6900.0 55.79682454412351
7100.0 55.859961348666886
7300.0 55.91599247039896
7500.0 55.92266226776
7750.0 55.97365112607268
8000.0 56.04653754067799
8250.0 56.10210673857348
8500.0 56.18132363292155
8750.0 56.22490397468822
9000.0 56.20397873400121
9250.0 56.05482892982879
9500.0 55.757814058200765
9750.0 55.35360314639702
10000.0 54.79290740273133
10300.0 54.01506509282912
10600.0 53.1108175078446
10900.0 52.06096806004278
11200.0 50.90770737447069
11500.0 49.64734247882278
11800.0 48.23382365660767
12200.0 46.92981599460562
12500.0 46.10369331785627
12800.0 46.13238603292608
13200.0 46.780013157748144
13600.0 47.6666727058949
14000.0 48.461835488329925
14500.0 49.05242126887957
15000.0 49.25948858367444
15500.0 49.16241458865436
16000.0 48.5837893397739
16500.0 47.465613384766826
17000.0 45.924914733281085
17500.0 43.92771786050726
18000.0 41.70926080996078
18500.0 40.00767916898319
19000.0 39.36147870245621
19500.0 39.831041369315514
