Freq,On Axis,Listening Window,Sound Power,Early Reflections,Early Reflections DI,Sound Power DI,DI offset
22.4,21.37088607594937,26.044827132589106,27.519021712060166,26.88406401146419,29.160763121124916,28.52580542052894,30
23.0,22.87088607594937,27.518428508912976,28.462148359001517,27.141009507367002,30.377419001545974,29.05628014991146,30
23.6,24.270886075949377,28.539901241352638,29.2288477258936,27.10715639783338,31.43274484351926,29.311053515459037,30
24.0,25.770886075949377,29.583123464210004,30.250614637804787,28.030824431203357,31.552299033006648,29.332508826405217,30
25.0,27.07088607594936,30.07858469653597,31.047892965482376,29.024167311760877,31.054417384775093,29.030691731053594,30
25.8,28.270886075949377,30.059024445379364,31.57718930143703,29.838786353655777,30.220238091723587,28.481835143942334,30
26.5,29.270886075949377,29.548223796899762,32.09162857344249,30.886782291169183,28.66144150573058,27.45659522345727,30
27.2,30.970886075949366,31.289351084702147,33.42925544102489,32.90925023209003,28.380100852612117,27.860095643677255,30
28.0,32.27088607594938,33.23534555622406,35.22623396448368,35.10918145157724,28.12616410464682,28.00911159174038,30
29.0,32.970886075949366,34.90238931538265,37.403375322321594,37.49476002355628,27.407629291826368,27.499013993061055,30
30.0,33.470886075949366,36.37818757693158,39.616581852109604,39.74055254049246,26.63763503643912,26.761605724821976,30
30.7,34.77088607594938,37.78974416344225,40.02531891172568,40.14831233896318,27.64143182447907,27.764425251716574,30
31.5,35.77088607594938,38.67650385881275,40.04870149695107,40.1768670749352,28.49963678387755,28.627802361861683,30
32.5,36.77088607594938,39.22612919770005,39.48128751484906,39.64980570239267,29.576323495307378,29.74484168285099,30
33.5,38.07088607594936,39.67499826523236,38.73260853630957,39.21865391822753,30.45634434700483,30.94238972892279,30
34.5,39.07088607594936,40.729191367625006,38.93781832153128,40.007480477672104,30.721710889952902,31.791373046093724,30
35.5,40.07088607594936,42.36157753425003,40.057247790566024,41.99635327655322,30.36522425769681,32.30432974368401,30
36.5,41.57088607594936,44.1887568648274,41.919117783439006,43.65928824707596,30.529468617751434,32.26963908138839,30
37.5,42.970886075949366,45.62603128618194,43.371466939753375,44.361169441627894,31.264861844554048,32.254564346428566,30
38.7,44.27088607594938,46.86027858754217,44.81524760883612,44.79461375784818,32.065664829693986,32.04503097870605,30
40.0,45.77088607594938,48.30816824470456,46.87466126547686,47.45865311811933,30.84951512658523,31.4335069792277,30
41.2,47.07088607594936,49.58971615244779,48.54151071702127,49.629462284132146,29.960253868315647,31.048205435426524,30
42.5,47.87088607594937,48.753200806951796,47.95386048285191,48.70075691909902,30.052443887852775,30.799340324099887,30
43.7,48.67088607594938,47.99101304607085,47.599518677195945,47.99648681791878,29.99452622815207,30.391494368874902,30
45.0,49.67088607594938,48.05450038376357,47.86222273900297,48.067257205804665,29.987243177958902,30.192277644760594,30
46.2,50.970886075949366,50.57763277382884,50.21396489397141,50.35440100704443,30.22323176678441,30.36366787985743,30
47.5,52.27088607594938,51.95036614972162,52.21474939765274,52.17565002064991,29.774716129071706,29.73561675206888,30
48.7,53.27088607594938,52.46517220109111,53.0064852111836,53.22143275657986,29.24373944451125,29.458686989907505,30
50.0,54.07088607594936,53.44643927513681,53.73991136669079,54.119973891444886,29.326465383691925,29.70652790844602,30
51.5,54.77088607594938,54.131582675602615,54.06267441573307,54.61649772206317,29.515084953539443,30.068908259869545,30
53.0,55.470886075949366,54.303262054661175,53.241298760615095,54.290674031595714,30.01258802306546,31.06196329404608,30
54.5,56.07088607594936,54.0306683599824,52.755699911710764,53.533797282662434,30.496871077319966,31.274968448271636,30
56.0,56.67088607594937,54.86541894355348,53.55863530635101,54.14947970895851,30.71593923459497,31.30678363720247,30
58.0,57.470886075949366,56.6641658151505,55.27487041995019,55.996067237470456,30.66809857768004,31.389295395200307,30
60.0,58.07088607594936,57.83428650462734,56.516209106453076,57.19580154375301,30.638484960874337,31.318077398174268,30
61.5,58.67088607594937,58.722745272768364,57.55544090862291,58.10770283830581,30.615042434462552,31.16730436414545,30
63.0,59.37088607594937,59.35091420335898,58.258568468808406,58.76874294991593,30.58217125344305,31.092345734550577,30
65.0,60.07088607594936,59.90226993413309,58.812742523716395,59.32084482091359,30.581425113219495,31.089527410416693,30
67.0,60.57088607594936,60.16527937139203,59.04803462804948,59.52766318150985,30.63761618988218,31.117244743342553,30
69.0,61.17088607594937,60.850931131873494,59.8301096911987,60.22038532863995,30.630545803233545,31.020821440674794,30
71.0,61.87088607594937,61.76396771869911,60.986753361563345,61.26106308408468,30.502904634614424,30.77721435713576,30
73.0,62.27088607594938,62.13030210297602,61.6840769063613,61.90506421483458,30.225237888141436,30.44622519661472,30
75.0,62.67088607594937,62.517404980859965,62.26101225561261,62.34257998243585,30.174824998424114,30.256392725247352,30
77.5,63.07088607594936,62.96014449125998,62.835943002716434,62.78332515793494,30.176819333325042,30.124201488543548,30
80.0,63.57088607594936,63.54066133108063,63.56129040117034,63.465121335337116,30.07553999574351,29.97937092991029,30
82.5,64.17088607594937,64.06219618006018,64.19097604997869,64.07778900364988,29.9844071764103,29.871220130081497,30
85.0,64.67088607594935,64.59330813515457,64.7915306766511,64.63418921365339,29.959118921501187,29.801777458503466,30
87.5,65.07088607594937,65.04886199376315,65.32742018645753,65.1218505212009,29.927011472562256,29.721441807305624,30
90.0,65.47088607594937,65.44937627307847,65.75700987453946,65.52226938382378,29.927106889254688,29.692366398539008,30
92.5,65.97088607594937,65.92774764147978,66.07695556628214,65.91571850963696,30.012029131842823,29.850792075197646,30
95.0,66.47088607594937,66.40550314016282,66.59205465743867,66.45376298114478,29.951740159018044,29.813448482724155,30
97.5,66.87088607594937,66.83806572970931,66.9358712558,66.85931391005862,29.978751819650697,29.90219447390932,30
100.0,67.27088607594936,67.28339924145548,67.20646925010139,67.23154012757614,30.051859113879345,30.076929991354092,30
103.0,67.67088607594937,67.74886199376314,67.52323756461004,67.6347577683414,30.11410422542174,30.2256244291531,30
106.0,68.17088607594938,68.22698411408462,67.90873150312204,68.06786068503402,30.159123429050595,30.318252610962574,30
109.0,68.57088607594936,68.67191532995167,68.21375017394577,68.47737497127682,30.194540358674857,30.458165156005904,30
112.0,68.97088607594937,69.0935626642505,68.57498933330461,68.86597313657929,30.227589527671213,30.518573330945884,30
115.0,69.37088607594937,69.44962753737651,68.92773998018824,69.23341026605031,30.2162172713262,30.52188755718828,30
118.0,69.67088607594935,69.84962753737652,69.30330539312702,69.59348703971031,30.25614049766621,30.5463221442495,30
122.0,70.07088607594937,70.18287708920539,69.69784483731844,69.95758726812703,30.225289821078363,30.48503225188695,30
125.0,70.47088607594937,70.51561502652659,70.03415118677866,70.27767884249708,30.237936184029508,30.48146383974793,30
128.0,70.77088607594935,70.78211157580778,70.41742528553844,70.60147770621927,30.180633869588505,30.364686290269333,30
132.0,71.07088607594936,71.08211157580779,70.79557592534073,70.94423408267646,30.137877493131327,30.28653565046706,30
136.0,71.27088607594936,71.33780792710988,71.1070446234024,71.21093026358535,30.126877663524525,30.230763303707477,30
140.0,71.57088607594937,71.57088607594937,71.35853632353714,71.45374925930258,30.11713681664679,30.212349752412237,30
145.0,71.77088607594938,71.77088607594938,71.5204225801489,71.63831382538277,30.13257225056661,30.250463495800474,30
150.0,71.97088607594937,71.93780792710986,71.64115724588389,71.80070862663983,30.137099300470027,30.29665068122597,30
155.0,72.07088607594939,72.07088607594939,71.66605302456048,71.8440125185584,30.226873557390988,30.404833051388906,30
160.0,72.27088607594936,72.17139775398985,71.7317813401576,71.93322828846236,30.23816946552749,30.439616413832255,30
165.0,72.27088607594936,72.23806572970932,71.80869812646456,72.01756710930552,30.220498620403802,30.429367603244756,30
170.0,72.37088607594937,72.28211157580778,71.85834843508233,72.03297473715246,30.249136838655318,30.42376314072544,30
175.0,72.37088607594937,72.28211157580778,71.86485436575708,72.03094462108318,30.251166954724596,30.417257210050693,30
180.0,72.37088607594937,72.30498363887149,71.90593604517213,72.04659766436605,30.258385974505444,30.399047593699365,30
185.0,72.47088607594937,72.31789968521898,71.98809872232063,72.07796877765311,30.239930907565864,30.329800962898346,30
190.0,72.47088607594937,72.33908505361079,72.00398371395171,72.06173392322876,30.27735113038203,30.335101339659076,30
195.0,72.47088607594937,72.30524339728497,71.97309877678708,72.0035343815041,30.301709015780872,30.332144620497886,30
200.0,72.47088607594937,72.22952712828966,71.81579451447797,71.88555963513929,30.343967493150373,30.41373261381169,30
206.0,72.57088607594937,72.32952712828966,71.47861583454295,71.76475346716025,30.564773661129408,30.850911293746705,30
212.0,72.67088607594937,72.42043128268618,71.0925948141025,71.64515685325325,30.775274429432926,31.327836468583683,30
218.0,72.77088607594936,72.55216318018181,70.79366094114896,71.62371440727571,30.928448772906094,31.75850223903285,30
224.0,72.67088607594937,72.51789968521898,70.49562850637699,71.4874339908772,31.030465694341785,32.02227117884199,30
230.0,72.67088607594937,72.40877942889576,70.34933211764407,71.34671654044028,31.062062888455472,32.05944731125169,30
236.0,72.47088607594937,72.22290382905906,70.12422204894061,71.0771262843976,31.14577754466147,32.098681780118454,30
240.0,72.37088607594937,72.06647261173022,69.84402883756624,70.81950011453401,31.24697249719621,32.22244377416398,30
250.0,72.27088607594936,71.95494379476187,69.61922199985308,70.72564155704919,31.229302237712687,32.33572179490879,30
258.0,72.27088607594936,72.05467488904165,69.73400026073075,70.90121004354872,31.153464845492934,32.3206746283109,30
265.0,72.37088607594937,72.29534422015054,69.96810733602867,71.14290124321053,31.15244297694001,32.327236884121874,30
272.0,72.57088607594937,72.49381717843,70.50784642111167,71.56293743312041,30.930879745309596,31.98597075731834,30
280.0,72.57088607594937,72.63780792710988,71.05040800793363,71.89585048686244,30.741957440247432,31.58739991917625,30
290.0,72.47088607594937,72.58236676193329,71.23727595456617,71.92464670857484,30.657720053358446,31.345090807367114,30
300.0,72.37088607594937,72.43780792710987,71.13846859329554,71.83216060634221,30.60564732076766,31.29933933381433,30
307.0,72.17088607594935,72.20447590282933,70.72206243813169,71.54407583868489,30.66040006414444,31.482413464697643,30
315.0,72.07088607594939,72.07139775398986,70.50712938695291,71.37624373836682,30.695154015623032,31.564268367036945,30
325.0,72.17088607594935,72.19381717843,70.66067951028381,71.47854765421457,30.71526952421543,31.533137668146182,30
335.0,72.37088607594937,72.30498363887149,70.83386250678907,71.62547052954379,30.6795131093277,31.471121132082416,30
345.0,72.57088607594937,72.45039294606906,70.83030065903465,71.69042223895495,30.759970707114107,31.62009228703441,30
355.0,72.67088607594937,72.44085990201307,70.53068681990287,71.5125310291164,30.92832887289667,31.910173082110205,30
365.0,72.67088607594937,72.43152359614764,70.32299781331643,71.38142736465151,31.050096231496127,32.10852578283121,30
375.0,72.57088607594937,72.3128149588875,69.92098151968017,71.10228624224776,31.210528716639743,32.39183343920733,30
387.0,72.57088607594937,72.30114262553181,69.77537934200294,71.06986024478458,31.23128238074723,32.525763283528875,30
400.0,72.67088607594937,72.31308646893362,69.37043808816685,70.91043553665476,31.40265093227886,32.94264838076677,30
412.0,72.77088607594936,72.40489306199458,69.26624711143837,70.90761889614696,31.497274165847628,33.13864595055621,30
425.0,72.97088607594937,72.44532498567864,69.20503471642783,70.87059533664453,31.57472964903411,33.240290269250806,30
437.0,73.07088607594937,72.5926983288335,69.09858280678762,70.87529902844886,31.717399300384642,33.49411552204589,30
450.0,73.07088607594937,72.62102069469084,69.00473857313082,70.84066551385874,31.780355180832103,33.61628212156002,30
462.0,72.87088607594937,72.5616237436561,68.93646110022506,70.7756920505896,31.7859316930665,33.62516264343104,30
475.0,72.77088607594936,72.53451790005062,68.9651067945554,70.8096988528027,31.72481904724792,33.56941110549522,30
487.0,72.87088607594937,72.76516784296166,69.42232821253464,71.19248322228613,31.57268462067553,33.34283963042702,30
500.0,73.27088607594935,73.14059626391699,69.73090570938878,71.57267488393917,31.567921379977818,33.40969055452821,30
515.0,73.37088607594937,73.14311466938885,69.61380068639791,71.49986149464816,31.643253174740693,33.52931398299094,30
530.0,73.07088607594937,72.84311466938887,69.25437970162902,71.14896047772534,31.69415419166353,33.58873496775985,30
545.0,72.77088607594936,72.6521631801818,69.02107490592452,71.04356030926542,31.608602870916386,33.63108827425728,30
560.0,72.87088607594937,72.78363085393975,68.94001422670705,71.17963220812622,31.603998645813533,33.843616627232706,30
580.0,73.27088607594935,73.06369937115784,69.22791100104646,71.4710421112208,31.59265725993704,33.83578837011137,30
600.0,73.37088607594937,73.08943883642061,69.39688053983255,71.51761442981149,31.571824406609124,33.69255829658806,30
615.0,73.07088607594937,72.7812006516794,69.15453674154203,71.19820278846736,31.582997863212043,33.62666391013737,30
630.0,73.07088607594937,72.79292663294727,69.11466519811346,71.20385193467472,31.589074698272555,33.678261434833814,30
650.0,73.47088607594937,73.16162374365611,69.39213924749964,71.54396604249605,31.617657701160056,33.769484496156466,30
670.0,73.37088607594937,72.94963486876053,69.03610277180576,71.23355781247041,31.716077056290118,33.91353209695477,30
690.0,72.67088607594937,72.12018120715805,67.97885609530485,70.19021074823819,31.92997045891987,34.141325111853206,30
710.0,72.17088607594935,71.57462381813284,67.03997702693451,69.34430261236874,32.2303212057641,34.53464679119833,30
730.0,71.27088607594936,70.5461969415559,65.45467803791655,68.03012582936678,32.516071112189124,35.091518903639354,30
750.0,70.87088607594937,70.00920325136394,64.25820304265848,67.10446346960892,32.904739781755026,35.75100020870546,30
775.0,73.47088607594937,72.74834402981499,66.81173914228576,69.90994524462639,32.8383987851886,35.93660488752923,30
800.0,75.17088607594937,74.65183761902867,68.7828999718096,71.85907267163755,32.79276494739112,35.86893764721907,30
825.0,75.47088607594937,75.00769410176703,69.26557794462576,72.2641426189826,32.743551482784426,35.74211615714127,30
850.0,75.07088607594937,74.5689317465423,68.80023815713655,71.75817197007724,32.81075977646506,35.76869358940576,30
875.0,74.87088607594937,74.29890319594834,68.45698683846578,71.46562433537751,32.83327886057083,35.84191635748256,30
900.0,75.37088607594937,74.81511046882723,68.6937120270563,71.88904847054594,32.926061998281284,36.12139844177092,30
925.0,75.17088607594937,74.53292211488291,68.18564944084265,71.59601379604699,32.93690831883592,36.347272674040255,30
950.0,74.97088607594937,74.2773912371471,67.74370755620218,71.22964751819201,33.04774371895509,36.53368368094492,30
975.0,75.07088607594937,74.48153064049986,67.97750915632425,71.50145038801827,32.980080252481585,36.50402148417561,30
1000.0,74.57088607594939,73.97462381813284,67.40974464995044,71.01984642689946,32.95477739123338,36.5648791681824,30
1030.0,74.37088607594937,73.75715367269295,67.18651910725931,70.83236539785958,32.924788274833375,36.570634565433636,30
1060.0,73.87088607594937,73.07760138488074,66.74341292638502,70.2166976595852,32.86090372529554,36.33418845849572,30
1090.0,73.37088607594937,72.29382137412306,65.1152399899885,68.91277490671743,33.381046467405625,37.17858138413456,30
1120.0,73.27088607594935,72.2138700609312,64.51529181797989,68.44730090668334,33.76656915424786,37.698578242951314,30
1150.0,73.37088607594937,72.30655004179768,64.04106910906421,68.0958984026256,34.210651639172085,38.26548093273347,30
1180.0,72.97088607594937,71.84157794871709,63.955965061934165,67.71698677626095,34.124591172456135,37.88561288678292,30
1220.0,72.87088607594937,71.7844174008576,64.85396370914115,68.23682404604783,33.54759335480978,36.93045369171645,30
1250.0,72.67088607594937,71.47382426766512,64.58337019933211,68.00095376292228,33.47287050474284,36.890454068333014,30
1280.0,72.67088607594937,71.42786039742434,64.15365266990875,67.73965536770918,33.688205029715164,37.27420772751559,30
1320.0,72.07088607594939,70.86054508801149,63.893244862518074,67.36246469965933,33.498080388352165,36.96730022549342,30
1360.0,70.37088607594937,69.37255428605923,63.98731901010822,66.89667600350027,32.47587828255895,35.385235275951004,30
1400.0,68.27088607594935,68.20828102829906,63.592576379952234,66.38313267249731,31.825148355801744,34.61570464834682,30
1450.0,64.97088607594937,65.29036169193397,60.586543501289256,63.55764990448462,31.732711787449347,34.70381819064471,30
1500.0,66.57088607594937,66.36043102549742,60.15909749992251,63.74208522973818,32.61834579575924,36.20133352557491,30
1550.0,69.37088607594937,68.56118183313312,60.810360191768524,64.97493783924064,33.58624399389248,37.750821641364595,30
1600.0,70.77088607594935,69.84510442279274,62.018558077072754,66.07270771856848,33.77239670422426,37.82654634571999,30
1650.0,71.67088607594937,70.59837911686823,63.70853290103615,67.30891495815897,33.289464158709265,36.88984621583208,30
1700.0,71.97088607594937,70.66863883245378,64.2349045548373,67.70255451184839,32.96608432060539,36.43373427761648,30
1750.0,71.57088607594937,70.35622425864278,64.19220124214446,67.58943674237004,32.76678751627274,36.16402301649832,30
1800.0,71.57088607594937,70.55472705670923,64.48620504720297,67.8302548297208,32.724472226988425,36.06852200950625,30
1850.0,72.07088607594939,71.19717072741881,65.32434524715735,68.62561013241502,32.57156059500379,35.872825480261454,30
1900.0,72.37088607594937,71.44661927482436,65.60410782325714,68.71225624489043,32.73436302993393,35.84251145156722,30
1950.0,72.57088607594937,72.38313817317774,67.06272609540729,69.88466972434792,32.498468448829826,35.320412077770456,30
2000.0,72.67088607594937,72.6548278216706,66.81512859948471,69.97503465316592,32.67979316850467,35.839699222185885,30
2060.0,73.57088607594936,72.88431157611048,65.82244333370885,69.43125469048054,33.453056885629934,37.06186824240163,30
2120.0,74.77088607594936,74.10473813362628,66.19637203148778,70.2163025611327,33.88843557249359,37.9083661021385,30
2180.0,74.77088607594936,74.00838662455442,66.03489710963473,70.13834003836833,33.87004658618609,37.97348951491969,30
2240.0,74.27088607594938,73.53924970709282,65.36185113108708,69.51308467279928,34.02616503429354,38.17739857600574,30
2300.0,74.27088607594938,73.22825855786051,64.6625949929501,69.04883378445636,34.17942477340415,38.56566356491041,30
2360.0,73.67088607594937,72.52140629771634,64.22666769096624,68.62211917522004,33.899287122496304,38.2947386067501,30
2400.0,72.67088607594937,71.56934306275157,63.4348079898012,67.8430258404335,33.72631722231807,38.13453507295037,30
2500.0,71.77088607594938,70.76278220434072,62.976378624653464,67.43959502927719,33.32318717506354,37.78640357968726,30
2580.0,70.77088607594935,69.74621088741871,61.97141554923296,66.3551316338053,33.39107925361341,37.774795338185754,30
2650.0,71.17088607594937,70.58879635536248,62.71574675496679,67.09082362720964,33.49797272815283,37.87304960039569,30
2720.0,72.77088607594936,72.66824594496634,64.43686008908202,68.9667488792697,33.70149706569664,38.23138585588433,30
