Freq "Ceiling Bounce"
20.5078 59.908336928038466
21.9727 64.21620396684561
23.4375 66.89241149982537
24.9023 69.5466330149401
26.3672 71.89568246242312
27.832 73.78604528696496
29.2969 75.44913451157205
30.7617 76.9158918796714
32.2266 78.12851754425404
33.6914 79.07261821433802
35.1562 79.9664828202105
36.6211 80.67375519435927
38.0859 81.23809407650347
39.5508 81.80073556379485
41.0156 82.23796747374574
42.4805 82.91457410570291
43.9453 83.145726684648
45.4102 83.39788079299942
46.875 83.63581311759438
48.3398 83.87514788007628
51.2695 84.23790373422196
52.7344 84.48324582716553
54.1992 84.66002909141665
55.6641 84.80564289441568
58.5938 84.98437168823389
60.0586 85.15877432343018
62.9883 85.32152612728213
64.4531 85.39354144001024
67.3828 85.45400543986287
68.8477 85.51169847441155
71.7773 85.75232845202744
74.707 85.8990888625352
77.6367 86.02811466660648
79.1016 86.07241782711931
82.0312 86.06195428133248
84.9609 86.09556296399396
87.8906 86.17812499426243
90.8203 86.26001057817197
95.2148 86.12243397546636
98.1445 86.13850753891694
101.074 86.10385539698775
105.469 86.18978919413098
108.398 86.30045963719814
112.793 86.38074667239546
117.188 86.32646361659364
120.117 86.38091930457051
124.512 86.28463241324252
128.906 86.10125585700162
133.301 86.00906612599789
139.16 85.85985211862604
143.555 85.69603992456953
147.949 85.5716642734252
153.809 85.54799366613241
159.668 85.3305395958023
165.527 85.54003943995983
171.387 85.65441775183146
177.246 85.66263980031698
183.105 85.4430404715428
188.965 85.1857133900551
196.289 85.2857516172981
203.613 85.04754378135593
210.938 85.0889821589938
218.262 85.03487370962466
225.586 84.67339729982794
232.91 84.36284082189708
241.699 83.66199127324617
250.488 83.35175657768042
259.277 84.10908190682338
268.066 83.79642117947424
276.855 83.86898036832804
287.109 84.61848268946224
297.363 84.5440534897194
307.617 84.62687657738955
319.336 83.848117293282
329.59 83.81653939982748
341.309 83.50880619634194
353.027 83.44889430933009
366.211 83.68740751192769
379.395 84.4136514615933
392.578 83.84000312401105
405.762 83.57473254674424
420.41 84.21039513606637
435.059 83.65984374096547
451.172 83.51694921486278
465.82 83.88374671723562
483.398 84.5734353269196
499.512 84.52730584671373
517.09 84.14546289987094
536.133 83.24046939990393
555.176 83.66286301798861
574.219 84.50456902030677
594.727 83.51746473682127
615.234 84.14499777674942
637.207 84.49608449470207
659.18 83.6898940795704
682.617 83.97953757165715
707.52 83.52414764999233
732.422 83.43270593499308
757.324 84.45284178368274
785.156 85.63916232642036
811.523 86.2586206578541
840.82 83.94975133034987
870.117 83.34485546777526
900.879 82.90629029096267
933.105 83.08792021566168
965.332 84.08826821222885
1000.49 83.62325583220832
1035.64 83.27915673588545
1072.27 83.62870818707012
1108.89 83.91985808797473
1148.44 84.76411342860334
1189.45 82.99665703659716
1230.47 83.31757993416005
1274.41 82.20593101359793
1319.82 82.11146164447447
1366.7 82.86288909082417
1413.57 83.02215152725904
1463.38 81.4103626529407
1516.11 83.87317071225456
1568.85 83.73524430012488
1624.51 84.40099629716858
1681.64 85.63481921062298
1741.7 85.28003283379061
1803.22 84.37724800039632
1866.21 84.09124160655492
1932.13 82.98049268023101
1999.51 83.72398803209225
2069.82 84.84265799131018
2143.07 86.06183095586411
2219.24 86.34331008229486
2296.88 85.48656432973118
2378.91 85.66106194672409
2462.4 86.7061165098149
2548.83 88.00940737124037
2639.65 87.57108056334289
2731.93 85.18154200759726
2828.61 84.98280982718732
2928.22 84.86072201078899
3030.76 83.22736214260172
3137.7 81.53606655566053
3249.02 82.07906513389565
3363.28 81.73215773066747
3481.93 82.4200141537029
3604.98 83.11291175001494
3732.42 82.83159799699206
3864.26 83.56708334483339
4000.49 83.49156850875282
4141.11 82.99955520150303
4287.6 82.64617384525138
4438.48 81.44073376389085
4595.21 80.60608706209338
4756.35 80.4342387824878
4924.8 80.32597898470969
5097.66 80.45248821654933
5277.83 79.4017571922127
5463.87 78.83338439846517
5657.23 78.5109756373406
5856.45 77.90649897607241
6062.99 78.29228696398313
6276.86 78.86022746783313
6498.05 79.5869770580165
6726.56 79.88098309134644
6963.87 80.20766708887456
7209.96 80.10562786163803
7464.84 79.96452659401358
7727.05 79.78109284711019
7999.51 79.6214127781868
8282.23 79.7346050061271
8573.73 79.45887501120927
8876.95 79.22863149830434
9188.96 78.5584792825357
9514.16 77.73151337281918
9849.61 77.55449110359453
10196.8 77.79523697144548
10555.7 77.88870718119716
10927.7 77.99285667560763
11313.0 78.05649607735984
11712.9 77.5515405233117
12126.0 76.57000643079253
12553.7 75.67506181421675
12996.1 75.26026857960323
13454.6 75.24573866689998
13929.2 74.01966030979789
14419.9 72.58822752836045
14928.2 70.8862414446677
15455.6 69.91780174896635
16000.5 68.44599904292586
16564.5 66.78300591777706
17148.9 66.3960794023871
17752.4 66.6971731436125
18379.4 66.47638633238468
19026.9 65.58867104944096
19697.8 63.0329408510612
19999.5 60.976348370387655
