Freq "Rear Wall Bounce"
20.5078 60.43159212499134
21.9727 64.55701183049479
23.4375 67.12071425087936
24.9023 69.62911234293495
26.3672 71.87578309117856
27.832 73.68614882039573
29.2969 75.31246886604842
30.7617 76.72247792571932
32.2266 77.86519301559025
33.6914 78.78423240120375
35.1562 79.61208736498871
36.6211 80.29784955913222
38.0859 80.83623544485302
39.5508 81.366430731038
41.0156 81.71360093286734
42.4805 82.4619195627655
43.9453 82.69521058221609
45.4102 82.95347852637885
46.875 83.18289067099606
48.3398 83.41850717428865
51.2695 83.76868777875568
52.7344 83.98996453135834
54.1992 84.11763823242383
55.6641 84.25035899960885
58.5938 84.44975417767463
60.0586 84.5851782237945
62.9883 84.82152263707607
64.4531 84.89118708561635
67.3828 84.98156912157788
68.8477 85.04467604889669
71.7773 85.21218191376022
74.707 85.30134339825005
77.6367 85.41693631703026
79.1016 85.46165523510504
82.0312 85.47367594045033
84.9609 85.5077699164079
87.8906 85.52939813877958
90.8203 85.49254358693916
95.2148 85.48741358377191
98.1445 85.5409971252333
101.074 85.42106204498782
105.469 85.31076120977804
108.398 85.33335234773115
112.793 85.47192104879255
117.188 85.31245142395895
120.117 85.29547580461053
124.512 85.27232804906627
128.906 85.23169036566867
133.301 85.18776936267132
139.16 84.99988017701229
143.555 84.81006720051796
147.949 84.61781446925292
153.809 84.38354797308669
159.668 84.28540466640192
165.527 84.14360023480901
171.387 83.85362579226998
177.246 83.34281327185859
183.105 83.26300947597798
188.965 83.11099325065345
196.289 82.87556777059086
203.613 82.68975672106487
210.938 82.34866879148012
218.262 82.42329228211192
225.586 82.60750886593581
232.91 82.7094744625173
241.699 82.6970084252898
250.488 81.86971681069012
259.277 81.51715030656086
268.066 81.76572394010037
276.855 81.10651484758398
287.109 80.58205749716713
297.363 81.2267749971578
307.617 80.98030342389659
319.336 80.88656136940364
329.59 80.40964356183264
341.309 80.23143078705755
353.027 80.02643832916621
366.211 79.63079689190837
379.395 78.91565313819508
392.578 79.95099835388635
405.762 79.56233402929783
420.41 79.4184905020756
435.059 79.44159626948465
451.172 79.18574735284159
465.82 78.15445436766436
483.398 78.36012663934673
499.512 78.9772883479106
517.09 79.075326619098
536.133 78.37631799647181
555.176 79.37681097431525
574.219 78.9956700403611
594.727 79.18475304692342
615.234 78.43811025554717
637.207 78.81918227112072
659.18 78.29156430031276
682.617 77.98840896009887
707.52 78.67013262151964
732.422 77.9547189745849
757.324 78.09800286837593
785.156 77.58805800796453
811.523 76.04452862407634
840.82 78.04660877001004
870.117 78.33325731746258
900.879 78.58249233310333
933.105 78.98780828966545
965.332 79.32774677635386
1000.49 79.56783410753737
1035.64 79.42967733887562
1072.27 78.58234199187329
1108.89 78.33139251078038
1148.44 77.92276965322351
1189.45 77.69501528851741
1230.47 76.60659323103069
1274.41 76.99182188979366
1319.82 76.90992810672684
1366.7 77.2453738195329
1413.57 76.19675041658788
1463.38 76.43225539311345
1516.11 75.59150999640191
1568.85 74.11654956604644
1624.51 73.46915706222478
1681.64 75.34389273744986
1741.7 75.34215142144862
1803.22 74.09245966320518
1866.21 73.70944748087692
1932.13 72.03368686010552
1999.51 71.66848850023595
2069.82 72.24079920631385
2143.07 72.97046591912373
2219.24 73.99036054534216
2296.88 74.15859425097831
2378.91 73.91111753345977
2462.4 73.87956525392151
2548.83 74.72899603633616
2639.65 75.41313170580212
2731.93 74.57314043788415
2828.61 73.50214444279815
2928.22 73.98848161980597
3030.76 73.50742523715695
3137.7 73.35567277864975
3249.02 73.36924306181618
3363.28 72.08841779782307
3481.93 72.42591956953194
3604.98 72.13102422434973
3732.42 71.39511723457164
3864.26 70.4766628706231
4000.49 69.06771310495127
4141.11 69.24207000312641
4287.6 68.61441067075151
4438.48 67.47524067831111
4595.21 66.11089480831346
4756.35 65.76635401337465
4924.8 64.79037725930858
5097.66 66.78119244686198
5277.83 65.443652497578
5463.87 65.79221462970419
5657.23 66.93020805564214
5856.45 66.24069370235918
6062.99 65.41614750929172
6276.86 64.07473461474554
6498.05 63.01794121674837
6726.56 64.26627090532257
6963.87 65.0199332472337
7209.96 63.94082734818092
7464.84 64.7928712313239
7727.05 63.957526915782196
7999.51 63.650422225997744
8282.23 65.23631800196728
8573.73 65.18427369065996
8876.95 64.14955523583384
9188.96 62.47865307158611
9514.16 62.950300342983525
9849.61 61.02368855466747
10196.8 60.865049537853906
10555.7 61.606618453867384
10927.7 61.198185900461965
11313.0 61.41281812518446
11712.9 59.376582842718165
12126.0 58.09591072827479
12553.7 58.201850045958736
12996.1 56.76635624070619
13454.6 55.99825519917215
13929.2 55.63118794526349
14419.9 53.9029969017887
14928.2 53.7741602766437
15455.6 52.941710083483315
16000.5 51.33586641369533
16564.5 51.016035183419206
17148.9 50.16388993356654
17752.4 50.39393868762437
18379.4 49.881552715232175
19026.9 49.72665377586742
19697.8 49.13884119533614
19999.5 49.419945908825554
