Freq "Estimated In-Room Response"
22.4 56.23657132322664
23.0 56.99318029961121
23.6 57.76777788198717
24.0 58.86898529963942
25.0 59.96177797731049
25.8 60.98354995677283
26.5 61.961014867331656
27.2 62.86840207810873
28.0 63.72081442730406
29.0 64.53005601382068
30.0 65.28990239534811
30.7 66.00807405490544
31.5 66.70692752775203
32.5 67.35361523591396
33.5 67.98184508334107
34.5 68.58743315424627
35.5 69.23459161659248
36.5 70.37472890801418
37.5 71.51393531845247
38.7 72.56624935875764
40.0 73.53919834598021
41.2 74.42187618921581
42.5 75.25351872711997
43.7 76.02352510025857
45.0 76.76591722351684
46.2 77.47213582048178
47.5 78.09529286819492
48.7 78.38109852409156
50.0 78.62135861688405
51.5 78.79582614855083
53.0 78.93189355368402
54.5 79.08928523451482
56.0 79.15897079446249
58.0 79.22731341479641
60.0 79.27311802890536
61.5 79.35196588377985
63.0 79.388613451368
65.0 79.42966595535749
67.0 79.40724662676752
69.0 79.36091200037055
71.0 79.25800598479286
73.0 79.26866934634639
75.0 79.30212495233982
77.5 79.32413830592758
80.0 79.34602976403184
82.5 79.37030380198075
85.0 79.39526995026459
87.5 79.41862974931335
90.0 79.44747703348854
92.5 79.47427105785881
95.0 79.50706888394643
97.5 79.57878541572117
100.0 79.64404980137348
103.0 79.71694324659121
106.0 79.78028809791341
109.0 79.7296424668625
112.0 79.64432917112967
115.0 79.55372812511023
118.0 79.45115931925822
122.0 79.3156184313671
125.0 79.1811718061666
128.0 79.05177115916023
132.0 79.02095329312006
136.0 79.00473743874025
140.0 79.01081278395868
145.0 79.0481402682798
150.0 79.07365728529864
155.0 79.07985651584967
160.0 79.0297786467535
165.0 78.97105766739017
170.0 78.85750323735682
175.0 78.68896299099816
180.0 78.52260021529057
185.0 78.38804247057959
190.0 78.26219376392817
195.0 78.09293304930927
200.0 77.93881661085827
206.0 77.8642036963332
212.0 77.83042934288312
218.0 78.03741695519463
224.0 78.22280438267123
230.0 78.29378446965923
236.0 78.25052022437853
240.0 77.91821207882991
250.0 77.5809258283029
258.0 77.273942903401
265.0 77.19836607869935
272.0 77.12327707032614
280.0 77.04378002303925
290.0 77.40953902184538
300.0 77.92129060707559
307.0 78.41022631456462
315.0 78.73082811455541
325.0 78.7059092760398
335.0 78.338376358665
345.0 77.67072300673154
355.0 76.9397777532069
365.0 76.53399710630907
375.0 76.67982404049054
387.0 77.2719986184424
400.0 78.12242670525899
412.0 78.86271250794834
425.0 79.32844413534681
437.0 79.31704171290734
450.0 78.79817178123385
462.0 77.5752211390246
475.0 75.70228347580021
487.0 73.77786202099513
500.0 73.24948255008596
515.0 74.50117271601195
530.0 75.90998786707972
545.0 76.60219251158128
560.0 76.85214216714314
580.0 76.98745405908478
600.0 77.29655893364988
615.0 77.62709110429981
630.0 77.70886090135704
650.0 77.36604911301711
670.0 76.79051614292509
690.0 76.34216191392703
710.0 76.19207343902156
730.0 76.2207316226941
750.0 76.27068288499167
775.0 76.26233320155728
800.0 76.27326515686775
825.0 76.37280983091877
850.0 76.5908586168724
875.0 76.88556307884984
900.0 77.01872620193531
925.0 77.2332501842234
950.0 77.8050819074131
975.0 78.26114240428504
1000.0 78.03404496620131
1030.0 77.33056617560602
1060.0 76.98708351117264
1090.0 77.4994231804778
1120.0 77.75730647030808
1150.0 76.71397438056417
1180.0 75.555911781228
1220.0 75.72416588866237
1250.0 76.50445586967466
1280.0 77.04830471172208
1320.0 76.86833888544605
1360.0 76.26692526188855
1400.0 75.64463955593497
1450.0 75.0390401215841
1500.0 75.64009531442721
1550.0 76.23312758965334
1600.0 76.30578448827698
1650.0 76.14139863894387
1700.0 75.44010261230189
1750.0 75.8148459377529
1800.0 76.25310078172215
1850.0 76.02388335148613
1900.0 75.38690230302883
1950.0 74.33500930892241
2000.0 73.76149417192478
2060.0 74.90058158041762
2120.0 76.23034521242283
2180.0 75.68069068868652
2240.0 76.14097808220988
2300.0 76.90416179413849
2360.0 75.70459453217069
2400.0 74.30536634428275
2500.0 75.37809014430397
2580.0 75.64052028479226
2650.0 74.29674561299986
2720.0 74.84562878821438
2800.0 75.49106370377694
2900.0 75.43615136438312
3000.0 75.45333761282927
3070.0 74.57911866902889
3150.0 72.64492005756271
3250.0 72.47211109059354
3350.0 73.78490219507306
3450.0 73.96022466723822
3550.0 73.7962358673852
3650.0 74.5616115282932
3750.0 74.41528461233847
3870.0 74.70128202824004
4000.0 74.24741226768764
4120.0 75.25395667744722
4250.0 75.81579881876786
4370.0 75.94211854762976
4500.0 75.42365353099807
4620.0 75.66184112725703
4750.0 75.44426211575492
4870.0 75.64853380317057
5000.0 75.9622687407019
5150.0 74.9602009269886
5300.0 74.77247752791878
5450.0 75.19502998346728
5600.0 75.49490455808949
5800.0 75.53507269870748
6000.0 75.25048525835732
6150.0 76.42142544841913
6300.0 76.10436463051782
6500.0 75.78610407572143
6700.0 75.82619315600009
6900.0 76.2303932296434
7100.0 75.94392713045154
7300.0 76.97968623258431
7500.0 76.31019410371464
7750.0 76.91531084985688
8000.0 76.95030536313908
8250.0 76.40760382081204
8500.0 76.6595997202768
8750.0 76.25904217604158
9000.0 75.7292094907527
9250.0 77.06956640765578
9500.0 78.04428535654723
9750.0 77.58581906164842
10000.0 75.60916982474906
10300.0 75.9726730527132
10600.0 72.82445117056426
10900.0 71.89586467661437
11200.0 74.44089354365029
11500.0 73.52264880445375
11800.0 72.19134628917728
12200.0 76.64813123597172
12500.0 77.5194711304271
12800.0 74.74618705324141
13200.0 73.07231186113624
13600.0 72.4040611795073
14000.0 67.80746163919927
14500.0 67.07956861217907
15000.0 69.7798722847701
15500.0 71.22498537609009
16000.0 68.1747758978707
16500.0 65.96538230279289
17000.0 66.65315808148979
17500.0 65.38584682015521
18000.0 63.184065330604824
18500.0 62.494359134351484
19000.0 59.50615441673118
19500.0 59.34997779205149
