Freq "Listening Window"
22.4 46.04872375496049
23.0 46.79514585611608
23.6 47.68576258014062
24.0 49.695145856116085
25.0 51.53731869037563
25.8 53.12309895073972
26.5 54.52309895073972
27.2 55.76619868613349
28.0 56.90960831834559
29.0 57.966198686133495
30.0 58.909608318345576
30.7 59.87629760965612
31.5 60.69836223372346
32.5 61.49836223372348
33.5 62.23077580744764
34.5 62.95307232865248
35.5 63.67525496475912
36.5 64.70784081211762
37.5 65.71831431928395
38.7 66.66292063262375
40.0 67.51831431928395
41.2 68.31831431928394
42.5 69.09583817131912
43.7 69.7958381713191
45.0 70.49583817131911
46.2 71.12900570222516
47.5 71.74017281624504
48.7 72.31780979990795
50.0 72.88456217900793
51.5 73.44017281624504
53.0 73.96242715205929
54.5 74.42926021640467
56.0 74.90684079196451
58.0 75.39584400935087
60.0 75.79584400935086
61.5 76.08532182511298
63.0 76.35208267078264
65.0 76.64068643525962
67.0 76.88532182511298
69.0 77.185321825113
71.0 77.42926021640467
73.0 77.685321825113
75.0 77.96319067945444
77.5 78.24194979800974
80.0 78.5307872581252
82.5 78.80785232342583
85.0 79.01933493057813
87.5 79.18682928484863
90.0 79.34194979800974
92.5 79.54194979800974
95.0 79.64194979800973
97.5 79.54194979800974
100.0 79.34194979800974
103.0 79.14194979800975
106.0 78.94194979800973
109.0 78.87630293998774
112.0 78.80961360794956
115.0 78.70961360794956
118.0 78.78760621815647
122.0 79.355609439488
125.0 79.85560943948799
128.0 80.20961360794956
132.0 80.155609439488
136.0 79.98760621815649
140.0 79.78760621815647
145.0 79.22135856019425
150.0 78.50961360794956
155.0 78.02109156541312
160.0 78.42109156541309
165.0 78.85534454215879
170.0 79.49914240913252
175.0 80.15534454215877
180.0 80.55534454215879
185.0 80.35534454215878
190.0 80.15534454215877
195.0 80.26696663412231
200.0 80.45534454215877
206.0 80.7669666341223
212.0 81.04395687406175
218.0 80.77855770736352
224.0 80.44395687406174
230.0 80.26723082353281
236.0 80.13279949834305
240.0 79.91090958320666
250.0 79.65613315679501
258.0 79.2911691103837
265.0 78.88038405881655
272.0 78.40427456187601
280.0 77.88418332332901
290.0 77.54458999472402
300.0 77.36631122790705
307.0 77.52513893882177
315.0 77.95972375170425
325.0 78.48956402382187
335.0 79.03666901375564
345.0 79.48956402382188
355.0 79.92599650276023
365.0 80.14861262824705
375.0 80.14431508363637
387.0 79.80733890039028
400.0 79.3407372446004
412.0 78.8835505894607
425.0 78.45266654311837
437.0 78.36799035901423
450.0 78.65854745960698
462.0 78.94183183358413
475.0 79.04643653154987
487.0 78.99629261241068
500.0 78.59607238659169
515.0 78.15837342764323
530.0 77.97838396770062
545.0 78.32351071176248
560.0 78.95902062877809
580.0 79.65100181252959
600.0 80.08445483030229
615.0 80.35713825178853
630.0 80.45387735956274
650.0 80.33486382542736
670.0 80.1563091713402
690.0 79.9211432475158
710.0 79.68546561423187
730.0 79.23440103471742
750.0 78.27269519499085
775.0 77.39422825180688
800.0 77.95439326839335
825.0 79.34138313674573
850.0 80.01154442748407
875.0 79.75972313842634
900.0 79.22218877045908
925.0 79.1903648782561
950.0 79.7728249312444
975.0 80.1865971568225
1000.0 79.85045197929618
1030.0 78.91106080753256
1060.0 78.27549154116087
1090.0 77.9277958838513
1120.0 77.07002336488975
1150.0 76.27036253211062
1180.0 76.5368041729327
1220.0 77.63980296169281
1250.0 78.85002537775128
1280.0 79.32636857306306
1320.0 79.04544435196222
1360.0 78.84248312931904
1400.0 79.16309251197825
1450.0 79.6577748506952
1500.0 79.68432996594603
1550.0 79.7257283161264
1600.0 80.18656260546872
1650.0 79.59670326681257
1700.0 78.95526161971566
1750.0 78.30277037134685
1800.0 77.72921413473722
1850.0 77.43643019639394
1900.0 76.65613879680986
1950.0 76.17082821387855
2000.0 76.0283144716444
2060.0 76.01333047251701
2120.0 75.53781707921256
2180.0 75.79287237528818
2240.0 76.1193332106101
2300.0 77.08493671464402
2360.0 77.9800522548008
2400.0 78.52730135026223
2500.0 79.17258700402222
2580.0 79.48295428158576
2650.0 78.59752915230243
2720.0 78.68979263667266
2800.0 77.90034795489865
2900.0 77.2431767589508
3000.0 76.60074292926559
3070.0 76.69272096352367
3150.0 78.08121848737999
3250.0 79.1948493563833
3350.0 80.01828699533094
3450.0 80.60516082502399
3550.0 80.7462942328469
3650.0 79.80626140163639
3750.0 78.22617477424807
3870.0 78.61980555955088
4000.0 78.33719697714609
4120.0 78.71870816333615
4250.0 78.41903609213122
4370.0 79.79419269188206
4500.0 80.67175580993793
4620.0 80.84928917952006
4750.0 79.04629761213099
4870.0 79.07104558123723
5000.0 79.31540997055801
5150.0 77.49520317037884
5300.0 78.10871989420302
5450.0 78.60003252033727
5600.0 79.82260191645668
5800.0 79.68416780061425
6000.0 80.30295243111766
6150.0 79.97642034083024
6300.0 80.07749207758248
6500.0 78.07977544155014
6700.0 78.4764457315078
6900.0 78.29512979028243
7100.0 79.48082472015126
7300.0 80.2459352104845
7500.0 79.89987108430034
7750.0 80.38870801994635
8000.0 78.30278967898084
8250.0 78.36000395710508
8500.0 77.30306430748378
8750.0 76.5661789357128
9000.0 77.5465372492443
9250.0 75.93637559690805
9500.0 76.36580566297914
9750.0 78.04535457323146
10000.0 79.08429705918103
10300.0 80.7138809743866
10600.0 80.50361905051541
10900.0 78.11614145153479
11200.0 76.66872723393433
11500.0 77.86997734167494
11800.0 79.45305472442723
12200.0 86.39773305116692
12500.0 81.895780785423
12800.0 80.50715210187373
13200.0 73.36414978578412
13600.0 74.84478534326377
14000.0 69.17667378662446
14500.0 68.2487428612713
15000.0 76.89552487144248
15500.0 70.70859404645228
16000.0 70.58499821777026
16500.0 74.39016842879877
17000.0 74.4379443750993
17500.0 67.49923696703664
18000.0 61.51216332121871
18500.0 63.43821264048694
19000.0 59.761484840831415
19500.0 61.64232019020582
