Freq "On Axis"
22.4 45.906329113924045
23.0 46.60632911392403
23.6 47.50632911392404
24.0 49.50632911392404
25.0 51.406329113924045
25.8 53.00632911392404
26.5 54.406329113924045
27.2 55.70632911392403
28.0 56.806329113924036
29.0 57.906329113924045
30.0 58.806329113924036
30.7 59.80632911392402
31.5 60.60632911392403
32.5 61.406329113924045
33.5 62.20632911392403
34.5 62.906329113924045
35.5 63.60632911392403
36.5 64.70632911392406
37.5 65.70632911392404
38.7 66.60632911392403
40.0 67.50632911392404
41.2 68.30632911392405
42.5 69.10632911392403
43.7 69.80632911392402
45.0 70.50632911392404
46.2 71.10632911392403
47.5 71.80632911392404
48.7 72.40632911392403
50.0 72.90632911392403
51.5 73.50632911392404
53.0 74.00632911392404
54.5 74.50632911392404
56.0 75.00632911392404
58.0 75.50632911392404
60.0 75.90632911392402
61.5 76.20632911392403
63.0 76.50632911392404
65.0 76.70632911392404
67.0 77.00632911392404
69.0 77.30632911392402
71.0 77.50632911392404
73.0 77.80632911392404
75.0 78.10632911392403
77.5 78.40632911392402
80.0 78.70632911392403
82.5 78.90632911392403
85.0 79.20632911392404
87.5 79.30632911392404
90.0 79.50632911392404
92.5 79.70632911392406
95.0 79.80632911392402
97.5 79.70632911392406
100.0 79.50632911392404
103.0 79.30632911392404
106.0 79.10632911392403
109.0 79.10632911392403
112.0 79.00632911392404
115.0 78.90632911392403
118.0 79.00632911392404
122.0 79.60632911392403
125.0 80.10632911392403
128.0 80.40632911392403
132.0 80.40632911392403
136.0 80.20632911392404
140.0 80.00632911392404
145.0 79.50632911392404
150.0 78.70632911392403
155.0 78.20632911392404
160.0 78.60632911392403
165.0 79.00632911392404
170.0 79.70632911392406
175.0 80.30632911392404
180.0 80.70632911392404
185.0 80.50632911392404
190.0 80.30632911392404
195.0 80.50632911392404
200.0 80.60632911392403
206.0 81.00632911392404
212.0 81.20632911392403
218.0 81.00632911392404
224.0 80.60632911392403
230.0 80.50632911392404
236.0 80.30632911392404
240.0 80.10632911392403
250.0 79.90632911392403
258.0 79.50632911392404
265.0 79.10632911392403
272.0 78.70632911392403
280.0 78.20632911392404
290.0 77.90632911392403
300.0 77.70632911392404
307.0 77.90632911392403
315.0 78.30632911392405
325.0 78.80632911392404
335.0 79.30632911392404
345.0 79.80632911392402
355.0 80.20632911392404
365.0 80.50632911392404
375.0 80.60632911392403
387.0 80.30632911392404
400.0 79.90632911392403
412.0 79.40632911392404
425.0 78.90632911392403
437.0 78.80632911392404
450.0 79.00632911392404
462.0 79.20632911392404
475.0 79.30632911392404
487.0 79.20632911392404
500.0 78.80632911392404
515.0 78.40632911392402
530.0 78.30632911392405
545.0 78.60632911392403
560.0 79.30632911392404
580.0 80.00632911392404
600.0 80.50632911392404
615.0 81.00632911392404
630.0 81.20632911392403
650.0 81.20632911392403
670.0 81.00632911392404
690.0 80.60632911392403
710.0 80.10632911392403
730.0 79.50632911392404
750.0 78.50632911392404
775.0 77.90632911392403
800.0 78.60632911392403
825.0 80.10632911392403
850.0 80.80632911392405
875.0 80.60632911392403
900.0 80.10632911392403
925.0 80.10632911392403
950.0 80.70632911392404
975.0 81.20632911392403
1000.0 80.90632911392402
1030.0 80.00632911392404
1060.0 79.50632911392404
1090.0 79.20632911392404
1120.0 78.30632911392405
1150.0 77.70632911392404
1180.0 78.30632911392405
1220.0 79.50632911392404
1250.0 80.80632911392405
1280.0 81.40632911392403
1320.0 81.10632911392403
1360.0 81.00632911392404
1400.0 81.50632911392404
1450.0 81.60632911392403
1500.0 81.10632911392403
1550.0 81.00632911392404
1600.0 81.40632911392403
1650.0 80.60632911392403
1700.0 79.50632911392404
1750.0 78.50632911392404
1800.0 77.70632911392404
1850.0 77.20632911392406
1900.0 76.30632911392404
1950.0 76.30632911392404
2000.0 76.40632911392403
2060.0 76.00632911392404
2120.0 75.70632911392404
2180.0 76.20632911392403
2240.0 76.90632911392404
2300.0 78.10632911392403
2360.0 78.80632911392404
2400.0 79.30632911392404
2500.0 80.10632911392403
2580.0 80.30632911392404
2650.0 79.40632911392404
2720.0 79.50632911392404
2800.0 78.60632911392403
2900.0 77.50632911392404
3000.0 76.10632911392403
3070.0 75.50632911392404
3150.0 76.70632911392404
3250.0 78.00632911392404
3350.0 78.30632911392405
3450.0 78.50632911392404
3550.0 78.10632911392403
3650.0 77.00632911392404
3750.0 75.30632911392404
3870.0 73.90632911392403
4000.0 74.40632911392404
4120.0 77.00632911392404
4250.0 77.50632911392404
4370.0 79.50632911392404
4500.0 80.70632911392404
4620.0 81.00632911392404
4750.0 79.30632911392404
4870.0 79.80632911392402
5000.0 80.80632911392405
5150.0 79.00632911392404
5300.0 78.50632911392404
5450.0 78.40632911392402
5600.0 79.90632911392403
5800.0 79.90632911392403
6000.0 80.40632911392403
6150.0 79.10632911392403
6300.0 78.20632911392404
6500.0 78.10632911392403
6700.0 79.30632911392404
6900.0 78.30632911392405
7100.0 79.20632911392404
7300.0 79.90632911392403
7500.0 79.60632911392403
7750.0 78.40632911392402
8000.0 76.30632911392404
8250.0 78.20632911392404
8500.0 77.70632911392404
8750.0 77.00632911392404
9000.0 78.10632911392403
9250.0 76.00632911392404
9500.0 75.60632911392403
9750.0 78.40632911392402
10000.0 79.70632911392406
10300.0 81.00632911392404
10600.0 81.40632911392403
10900.0 78.90632911392403
11200.0 77.40632911392403
11500.0 78.60632911392403
11800.0 80.10632911392403
12200.0 86.80632911392404
12500.0 83.00632911392404
12800.0 81.80632911392404
13200.0 74.40632911392404
13600.0 75.70632911392404
14000.0 69.40632911392404
14500.0 68.60632911392403
15000.0 77.00632911392404
15500.0 71.70632911392404
16000.0 71.30632911392404
16500.0 74.50632911392404
17000.0 76.00632911392404
17500.0 69.90632911392403
18000.0 62.20632911392403
18500.0 63.20632911392403
19000.0 60.70632911392403
19500.0 62.906329113924045
