Freq,Floor Bounce,Ceiling Bounce,Front Wall Bounce,Side Wall Bounce,Rear Wall Bounce,Total Early Reflection
22.4,-17.62420668920035,-18.151016408491586,-11.416500631993273,-13.27353199338944,-10.39762793490209,-13.132423263337046
23.0,-15.587259127263877,-15.94739046797784,-8.507974729622987,-9.93812645764973,-7.369548100326057,-10.18880976848456
23.6,-13.373615360937293,-13.629282675045914,-5.495637017508642,-6.394469177981165,-4.221752749919716,-7.0812709207794455
24.0,-11.048734974185095,-11.196930428957472,-2.376670464874877,-2.801857373843319,-1.0517153604635894,-3.888066940784398
25.0,-8.541987034472214,-8.4797768967575,0.8452299110149113,0.9470360051148248,2.2636828464590053,-0.5311308725870276
25.8,-5.886458881832596,-5.61760139239226,4.0720304982046684,4.631538646958035,5.582807914684992,2.836419244026331
26.5,-3.0182607133147883,-2.502578013337029,7.291063674914966,8.178206405401824,8.83576257668679,6.157972032005489
27.2,-0.06646188937929765,0.7453439576690073,10.263162035501722,11.48309679546739,11.799266095453362,9.242822852287787
28.0,2.8883643347743657,4.059273472205433,12.838531660795041,14.346661818283536,14.405394309031664,11.958889173194109
29.0,5.812647075279699,7.341950585969897,15.172862460217686,16.804576916646624,16.689584894502502,14.368532324903128
30.0,8.697813553371446,10.503786146987466,17.226892460896153,18.857075115717294,18.61421077698364,16.45399396642776
30.7,11.478830380422949,13.549155493173714,19.00865949303497,20.51432724788154,20.19434391781877,18.240467422378543
31.5,14.069940678532646,16.32592476994779,20.47967247993367,21.756673238180014,21.50293664486111,19.743466687553877
32.5,16.371335494460283,18.765129112085816,21.82046520456609,22.76256512145258,22.63629272120366,21.09304710727926
33.5,18.457412855905773,20.86227190599317,23.095203044785308,23.593830893631065,23.734234975571212,22.36060685745352
34.5,20.279328834713255,22.637801004804857,24.23885809252343,24.370020435368446,24.786490544001225,23.541776704530577
35.5,21.954050934530756,24.157601661434796,25.488553223907275,25.17116673368821,25.87982889556153,24.734445161396053
36.5,23.495064580358274,25.598182094824892,26.77561746066135,26.05674879257205,27.011740053710668,25.951393001857156
37.5,25.011728464373817,26.91853025325682,28.022274297939504,26.992397874208933,28.19577481770679,27.16590811165625
38.7,26.527613557435558,28.265647676535792,29.36032755085685,28.051898189840045,29.431501915911383,28.449962045532175
40.0,28.092385622161032,29.70784363371618,30.601506523279483,29.196642755539614,30.66149150560969,29.753089440341824
41.2,29.719167055027555,31.21655999317605,31.989184872295738,30.508369497364896,31.965060404666872,31.16475106879642
42.5,31.34680983520815,32.7969370438189,33.37902883344182,31.93520513764986,33.29450533328037,32.620523506105116
43.7,33.08335937246298,34.42021956404324,34.7762517235339,33.44204210538604,34.719301213947034,34.1423414407752
45.0,34.78407839372548,36.10265313251614,36.23978662764469,35.02855729347456,36.15641622580975,35.70600382599687
46.2,36.516279400836396,37.76194729184084,37.73006121447767,36.65500503599111,37.66961144272321,37.3017639326051
47.5,38.2489851487955,39.446596928048336,39.16214855864578,38.28038069403007,39.171667282249985,38.89019542798886
48.7,39.942830304719735,41.08219671845799,40.642981551463265,39.86844045927907,40.68903628865206,40.4700772619683
50.0,41.57609175449221,42.66839968904114,42.12565768445833,41.45928632605464,42.169966381152534,42.02216791177534
51.5,43.2069050103546,44.23012065974808,43.57150836204275,42.98705861457921,43.65501726201276,43.55124998249741
53.0,44.87150800786938,45.75603736524559,45.05765485367195,44.56093888759176,45.147094369593276,45.09677020201636
54.5,46.43663575667185,47.24511556931755,46.5673168364917,46.065529744399356,46.57640380201883,46.595233147346306
56.0,47.96845083805432,48.70836933851773,47.97886598818964,47.58420453720899,48.03251006452632,48.070035451309835
58.0,49.534351408685026,50.19965439277178,49.45025043244172,49.049950014964566,49.463971072357026,49.55579806075495
60.0,51.06692185116049,51.592385622161046,50.86510305590953,50.47601488380201,50.867060195900294,50.98893995432036
61.5,52.5007674944556,52.99238562216105,52.20645361017712,51.869397470466694,52.22903753819119,52.37597885425815
63.0,53.93358982687997,54.32349685065981,53.55760778509239,53.24624855237013,53.572862972136505,53.74263619409392
65.0,55.266921851160504,55.65260953202217,54.87759807221792,54.60323352897964,54.867145105935464,55.069199922102655
67.0,56.633589826879984,56.88219967332304,56.1723576864284,55.881108547448136,56.12286745485028,56.35388154268459
69.0,57.93435140868502,58.179287326074316,57.482926012795446,57.18156054014523,57.34500328375471,57.64084301182251
71.0,59.16692185116051,59.34283030471974,58.67962049322249,58.401370912590096,58.46998535937716,58.828642480138484
73.0,60.40076749445562,60.54283030471974,59.9066369243766,59.62201851881731,59.55350976980259,60.0238111027013
75.0,61.60076749445561,61.67387961222818,61.08916941195312,60.80184200296007,60.61128663129513,61.17595471498791
77.5,62.73435140868503,62.77001488257477,62.289169411953125,61.96213480580067,61.59338887294808,62.29303634485571
80.0,63.8669218511605,63.870014882574765,63.41675261639452,63.10371538515213,62.55123064783167,63.38973591546525
82.5,64.9669218511605,64.90231994589774,64.54479812098769,64.16493289163921,63.42172737855468,64.43597314621361
85.0,66.00076749445563,65.90231994589774,65.64479812098769,65.18575404710202,64.3026577746639,65.44969980502675
87.5,66.9669218511605,66.83358982687997,66.6447981209877,66.1667689381132,65.13233012206446,66.3973775722668
90.0,67.8669218511605,67.66692185116051,67.54479812098769,67.0285479120857,65.91785377377687,67.25847078216462
92.5,68.66692185116051,68.43358982687998,68.37331062323638,67.8097493605622,66.60407722012086,68.03718124016953
95.0,69.33358982687997,69.03358982687996,69.02979499755904,68.45046641632362,67.23958193177549,68.67770073026665
97.5,69.83358982687999,69.53358982687998,69.60099441428072,68.99086908513895,67.78885938981767,69.20798657541363
100.0,70.2669218511605,69.90076749445561,70.02979499755905,69.43176270469189,68.22352460819077,69.62778520089859
103.0,70.5669218511605,70.20076749445562,70.35840584504062,69.7317627046919,68.57137094701501,69.94102666831931
106.0,70.76692185116049,70.36845083805433,70.58618450501949,69.95046641632362,68.83808258033511,70.15368877449257
109.0,70.9,70.50076749445562,70.75840584504061,70.15046641632362,69.11667307942226,70.32981254243983
112.0,71.0,70.63513059177983,70.8861845050195,70.30739643702753,69.41618450900256,70.48467187629339
115.0,71.03358982687998,70.66845083805433,70.9861845050195,70.44581337953679,69.65726113662512,70.58596204917168
118.0,71.13358982687996,70.73513059177984,71.04313939533782,70.58388342144039,69.9464940522069,70.70838518344647
122.0,71.13358982687996,70.76845083805433,71.14313939533781,70.68388342144041,70.23643255650289,70.80584597237106
125.0,71.23358982687998,70.86845083805433,71.17166275391891,70.80323352897966,70.49347965558405,70.92231655552818
128.0,71.23358982687998,70.90076749445562,71.24313939533782,70.8616593883022,70.74700156863823,71.00200395293835
132.0,71.23358982687998,70.93435140868503,71.32880715674528,70.9616593883022,70.95277278350261,71.08540711360413
136.0,71.33358982687997,70.96845083805434,71.37166275391891,71.04119983124485,71.11648109991646,71.16921687053659
140.0,71.33358982687997,70.96845083805434,71.42880715674528,71.04119983124485,71.24418323723732,71.2067146976025
145.0,71.33358982687997,70.96845083805434,71.42880715674528,71.06074062498237,71.31434046346453,71.2247157910871
150.0,71.33358982687997,70.96845083805434,71.42880715674528,71.06074062498237,71.35837533652905,71.23374274841868
155.0,71.26769521305295,70.96845083805434,71.42880715674528,71.04119983124485,71.3483303210785,71.21450436282086
160.0,71.26769521305295,70.86845083805433,71.42880715674528,70.96213480580067,71.23728941068472,71.15778330568938
165.0,71.26769521305295,70.86845083805433,71.42880715674528,70.90230232064049,71.10762488327086,71.12023891365271
170.0,71.26769521305295,70.80306957104251,71.40065786069425,70.8041650312734,70.84713099178639,71.03220254214136
175.0,71.20076749445562,70.73663575667186,71.34313939533783,70.66537624439829,70.60904693527016,70.92150942859764
180.0,71.13513059177981,70.63663575667186,71.31508314243884,70.52757995317387,70.31794758221304,70.80292472609788
185.0,71.10076749445562,70.57150800786938,71.21508314243884,70.43128689490086,70.04945581767097,70.69507118410955
190.0,71.03513059177985,70.47150800786939,71.21508314243884,70.31250022107085,69.82734572528004,70.60116440252506
195.0,71.03513059177985,70.40690501035459,71.12979499755905,70.25226959352626,69.63866934073397,70.52652878910959
200.0,71.03513059177985,70.40690501035459,71.11508314243883,70.17464101495956,69.50708246606969,70.48740214189374
206.0,71.03513059177985,70.37150800786937,71.11508314243883,70.13820413572707,69.42426821303657,70.46055464295165
212.0,71.00306957104253,70.3069050103546,71.05907003611941,70.07822458438253,69.33586344061993,70.40252242862275
218.0,70.96845083805434,70.27387961222817,71.02979499755905,70.02070188121242,69.27583974584824,70.36125140822523
224.0,70.86845083805433,70.14283030471974,70.92979499755904,69.92070188121242,69.18184279406357,70.25611965490528
230.0,70.76845083805433,70.04283030471973,70.83175513861906,69.82070188121243,69.0697920655414,70.15469796111371
236.0,70.70306957104252,69.9069050103546,70.7874892989204,69.66516840337087,68.98427985839137,70.06087978396725
240.0,70.63821129888743,69.84283030471974,70.73175513861906,69.56516840337089,68.89976413560733,69.98887459316137
250.0,70.63821129888743,69.77928732607432,70.77525122642457,69.54817140149626,68.83095377846801,69.97331927960906
258.0,70.67150800786938,69.74898514879551,70.80489499373621,69.51020421540908,68.80274120075794,69.97131101758038
265.0,70.70690501035459,69.71627940083641,70.83175513861906,69.47528593102967,68.71622143020527,69.9606414851535
272.0,70.70690501035459,69.68623512455238,70.9048949937362,69.43677387477598,68.58922396976672,69.94733625840718
280.0,70.70690501035459,69.68623512455238,70.9048949937362,69.38264684748962,68.43919801982759,69.91608636332249
290.0,70.70690501035459,69.58623512455237,70.91998423401444,69.32909205685323,68.22784486692888,69.8620154886129
300.0,70.67609175449222,69.5566725593005,70.91998423401444,69.19549513437846,67.9497699306177,69.78814917564374
307.0,70.64283030471974,69.4566725593005,70.89366590096782,69.12034060402875,67.65131706345261,69.70285335640074
315.0,70.61227178315619,69.39471929119203,70.87848478147015,69.00468072914876,67.3484132875204,69.62249349732518
325.0,70.61227178315619,69.39471929119203,70.89366590096782,68.95253555442171,67.05933675172285,69.58426219732634
335.0,70.61227178315619,69.39471929119203,70.89366590096782,68.9202395354893,66.85446059957631,69.5562296423049
345.0,70.68219967332303,69.39471929119203,70.93924275721992,68.8807150234186,66.622580376673,69.55563807903062
355.0,70.6489851487955,69.33331023801675,70.93924275721992,68.82023953548929,66.35332806073484,69.49807054457945
365.0,70.61227178315619,69.29471929119205,70.9136394060688,68.73123983838357,66.1077675919966,69.43535700099882
375.0,70.58219967332303,69.16588846059686,70.8677916354448,68.63123983838358,65.77869536564837,69.34284976496828
387.0,70.48219967332305,69.03331023801675,70.8136394060688,68.49986737502549,65.47540263239479,69.22689452361855
400.0,70.41916705502754,68.93331023801674,70.76779163544481,68.38552008031016,65.17658788471672,69.13370008940193
412.0,70.31916705502753,68.80473530118576,70.73924275721993,68.31219806381526,64.86640570057378,69.03725632234037
425.0,70.25260953202218,68.74413052381576,70.70914589305826,68.24846834388562,64.59088036247618,68.96752413683768
437.0,70.25260953202218,68.64413052381576,70.69366590096782,68.2293191779802,64.38677614304672,68.92613753033086
450.0,70.25260953202218,68.61627783177748,70.73537086618987,68.25286586469683,64.1923562281923,68.9241759596716
462.0,70.28982856673471,68.61627783177748,70.79366590096782,68.28036867902051,64.02294531129516,68.94563528537455
475.0,70.28982856673471,68.58888547155004,70.79366590096782,68.30267266194117,63.854230997573296,68.93373991430266
487.0,70.25260953202218,68.55647994661607,70.81998423401444,68.32150180375096,63.64544993881756,68.91631991014609
500.0,70.18982856673472,68.55647994661607,70.79044363353323,68.34545125988429,63.437724849341805,68.88223774327695
515.0,70.18982856673472,68.51627783177749,70.74865957364794,68.35193405848065,63.230536099882215,68.85139352022202
530.0,70.1234968506598,68.51627783177749,70.71998423401443,68.32435486146815,62.97686782861351,68.80598253119493
545.0,70.08982856673472,68.47662798253907,70.69044363353323,68.3122150776958,62.730179866532765,68.76547463384759
560.0,70.02758719283592,68.40473530118575,70.61998423401444,68.30685391180832,62.46792611847772,68.69944486840075
580.0,69.98982856673473,68.40473530118575,70.51998423401444,68.29521436567791,62.24167004302511,68.64551050602519
600.0,69.88982856673474,68.36588846059686,70.49044363353322,68.25847190092308,62.07862028597832,68.58772351210008
615.0,69.88982856673474,68.36588846059686,70.49044363353322,68.28636162629518,61.97838612027752,68.58848353745978
630.0,69.98982856673473,68.40473530118575,70.51998423401444,68.33923000259124,61.96808363845258,68.64153333412698
650.0,69.98982856673473,68.37244826645843,70.53537086618988,68.4051065045163,61.989602114936446,68.6534869506401
670.0,69.96096514237182,68.27244826645843,70.53537086618988,68.39131511707565,61.98486788724391,68.6242246459521
690.0,69.89897445130926,68.11213611976862,70.49366590096783,68.30499945157857,61.924104901360636,68.54604307944673
710.0,69.77082970284297,67.9121361197686,70.40914589305828,68.11895804084212,61.785545685684056,68.40738485610194
730.0,69.64314826109434,67.65237641506432,70.3677916354448,67.9189580408421,61.621050525138514,68.26910717656651
750.0,69.58219812790057,67.524576725845,70.38336396340043,67.78173448818913,61.426439153905235,68.20202885560101
775.0,69.62179738688894,67.46563268960989,70.48336396340042,67.76253683835182,61.29384435382994,68.22733689952817
800.0,69.6552196930838,67.34942181474028,70.61363940606881,67.7138333721359,61.16444048686344,68.24789083159075
825.0,69.6687803399679,67.22285902893765,70.65802016372604,67.64717612443394,60.89041862876935,68.224587352663
850.0,69.5429397936019,66.88382160833152,70.58847217927516,67.41506249214038,60.49011895713225,68.05714401361703
875.0,69.28382334167596,66.4282115720272,70.32940676691626,67.02781605378387,59.94465654563896,67.7368040890639
900.0,68.90034112939827,65.87882682230878,70.00433100962668,66.62076362461521,59.36771818856846,67.34029575113277
925.0,68.67584607527145,65.39365387530114,69.72940676691627,66.26562908658373,58.92217797282912,67.03164636000446
950.0,68.41832544184972,64.88686427957849,69.52940676691627,66.00070911419962,58.76445703159045,66.76432131947726
975.0,67.9586572401787,64.30654363985349,69.22940676691627,65.65802319787414,58.64846619470498,66.3812403029273
1000.0,67.39430744544666,64.11495907510502,68.78336396340042,65.26932967252948,58.70422236189542,65.96176361939462
1030.0,67.34090753602631,65.17928732607432,68.62251496369491,65.22953403556724,59.12866625310572,66.05322968559062
1060.0,68.04413052381577,67.10231994589776,68.80422246482463,65.62705479142872,59.825000064303154,66.76007316393773
1090.0,68.90690501035459,68.56845083805433,69.10422246482464,66.20942695262511,60.423974411620264,67.54092252305388
1120.0,69.53435140868503,69.13358982687998,69.37525122642457,66.69524068873731,60.704747915416434,68.01859796311376
1150.0,69.77001488257476,69.23513059177982,69.20229476693693,66.89444502055079,60.70231103567305,68.09674088552968
1180.0,69.63746771551315,69.10076749445561,68.84608542591296,66.79053386813494,60.34844538245005,67.90355435484628
1220.0,69.10306957104251,68.46769521305295,68.6059350948675,66.32470462923787,59.45030881102761,67.41727440177912
1250.0,68.4441577493485,67.50231994589777,68.58719242398479,65.70356766205096,58.294523407212495,66.85420931692481
1280.0,67.99897445130925,66.64283030471974,68.68426663030601,65.34341970517119,57.483096442639095,66.4920254776394
1320.0,67.93752777300028,66.29471929119205,68.86007171697719,65.39897501843782,57.29578621613854,66.46885114745695
1360.0,68.19897445130924,66.60473530118576,68.91523835428559,65.59014970106976,57.509468863024665,66.65714582676851
1400.0,68.57609175449221,67.36096514237184,68.88426663030602,65.75271843178537,57.81097338840043,66.94605849265204
1450.0,68.90306957104252,68.08656646311246,68.73212498916763,65.72673616959528,57.95233079086134,67.1658870109055
1500.0,69.16692185116051,68.55768127821952,68.50819596697113,65.46260301589646,57.79808353918777,67.26588263440976
1550.0,69.43964531976002,68.95768127821954,68.15689526970546,65.10402215016512,57.637629507146556,67.32664387520694
1600.0,69.8210416629875,69.43897757455802,67.83971298709419,64.66093011944685,57.42728399398378,67.47306052795301
1650.0,70.10920925226938,69.77717895989804,67.53212498916764,64.2175285551428,57.096008134477756,67.56985637723479
1700.0,70.29408963790567,69.92869245367795,67.2564756610259,63.75440793011916,56.57798444086035,67.58655998235545
1750.0,70.4301206597481,69.89257011413608,67.08426663030602,63.32975714517033,56.04574517742651,67.55292553178458
1800.0,70.39238414975148,69.62812100489947,67.06758191272573,63.137394906962015,55.611168281211874,67.42549260933028
1850.0,70.28155349220621,69.19179815677407,67.19594571156638,63.12660943234303,55.31316701671723,67.2605950074223
1900.0,70.02761355743554,68.63753193576903,67.40433100962667,63.31045766436314,55.15486626263052,67.04883529989375
1950.0,69.71592692226707,68.00921140720405,67.7029700020044,63.62576127765445,54.91408598698655,66.84787870772159
2000.0,69.44136150423586,67.28444762363009,68.1029700020044,63.96327455609746,54.573097024370256,66.69919418636505
2060.0,69.07977745790569,66.56322504785601,68.50297000200442,64.24510142599965,54.30057297830008,66.55793229286292
2120.0,68.70131827952113,65.71323574403132,68.81914356203718,64.38998790704977,54.07648373014129,66.38786093603127
2180.0,68.19257011413609,64.663225047856,69.0412465135419,64.4362872514119,53.87259490747414,66.14101947371083
2240.0,67.53753193576904,63.50174601124772,69.1294192027778,64.29575515489547,53.54578858325459,65.80024601857406
2300.0,66.76322504785603,62.4165581917717,69.12550314698993,64.08195938439553,53.10192291914862,65.42341441871264
2360.0,66.0081499493813,61.77035193787353,69.11981889154697,63.75508516793306,52.45581711178616,65.10745396644379
2400.0,65.5449257205697,61.81227178315618,69.06111856360283,63.359649473839895,51.834057535286604,64.90767514325302
2500.0,65.31365764922522,62.40076749445561,69.08747899297782,63.13645265265836,51.27146136040048,64.8953907471722
2580.0,65.47552377260243,63.202319945897756,69.11507290176979,62.94240705017552,50.94065035167334,65.0156126712778
2650.0,65.91190408638131,63.80906430015985,69.09690468269017,62.91839657771618,50.87257300435036,65.18720842903889
2720.0,66.44852142053364,64.14314826109435,69.10736536151734,62.92064409122817,51.04918608669331,65.37537671255139
2800.0,66.87757950460713,64.21832544184971,69.05647342030848,62.919287944168204,51.39933589967765,65.47965275908761
2900.0,67.292378988098,64.1931748750689,69.01246339401044,62.910100633954855,51.753211413423244,65.57682081863202
3000.0,67.75866027600833,64.10137735040871,68.96265012723981,62.87585731500798,52.066457602899064,65.68552613011545
3070.0,68.12699787697726,63.951265025814905,68.94407254272868,62.885587350272516,52.46486552634025,65.78457819214702
3150.0,68.47872996753789,63.76531718637126,68.89528541276349,62.9245467040374,52.84191280008861,65.8730592186203
3250.0,68.62324058002983,63.36789158478055,68.81009194148193,62.99209485295526,53.162236286136576,65.85619876966578
