Freq "Front Wall Bounce"
22.4 -11.416500631993273
23.0 -8.507974729622987
23.6 -5.495637017508642
24.0 -2.376670464874877
25.0 0.8452299110149113
25.8 4.0720304982046684
26.5 7.291063674914966
27.2 10.263162035501722
28.0 12.838531660795041
29.0 15.172862460217715
30.0 17.22689246089618
30.7 19.00865949303497
31.5 20.47967247993364
32.5 21.82046520456609
33.5 23.095203044785308
34.5 24.23885809252343
35.5 25.488553223907303
36.5 26.77561746066135
37.5 28.022274297939504
38.7 29.36032755085688
40.0 30.60150652327951
41.2 31.989184872295738
42.5 33.37902883344182
43.7 34.7762517235339
45.0 36.23978662764469
46.2 37.73006121447767
47.5 39.16214855864578
48.7 40.642981551463265
50.0 42.12565768445833
51.5 43.57150836204275
53.0 45.05765485367195
54.5 46.5673168364917
56.0 47.978865988189625
58.0 49.450250432441706
60.0 50.86510305590954
61.5 52.20645361017711
63.0 53.5576077850924
65.0 54.87759807221791
67.0 56.17235768642841
69.0 57.482926012795446
71.0 58.67962049322249
73.0 59.90663692437661
75.0 61.08916941195312
77.5 62.289169411953125
80.0 63.416752616394504
82.5 64.54479812098768
85.0 65.6447981209877
87.5 66.64479812098769
90.0 67.54479812098769
92.5 68.37331062323636
95.0 69.02979499755905
97.5 69.6009944142807
100.0 70.02979499755904
103.0 70.35840584504062
106.0 70.5861845050195
109.0 70.75840584504061
112.0 70.88618450501949
115.0 70.98618450501951
118.0 71.04313939533782
122.0 71.14313939533781
125.0 71.1716627539189
128.0 71.24313939533782
132.0 71.32880715674528
136.0 71.37166275391891
140.0 71.4288071567453
145.0 71.4288071567453
150.0 71.4288071567453
155.0 71.4288071567453
160.0 71.4288071567453
165.0 71.4288071567453
170.0 71.40065786069427
175.0 71.34313939533781
180.0 71.31508314243885
185.0 71.21508314243883
190.0 71.21508314243883
195.0 71.12979499755903
200.0 71.11508314243883
206.0 71.11508314243883
212.0 71.05907003611941
218.0 71.02979499755904
224.0 70.92979499755904
230.0 70.83175513861907
236.0 70.78748929892042
240.0 70.73175513861906
250.0 70.77525122642456
258.0 70.80489499373621
265.0 70.83175513861907
272.0 70.90489499373622
280.0 70.90489499373622
290.0 70.91998423401444
300.0 70.91998423401444
307.0 70.89366590096782
315.0 70.87848478147016
325.0 70.89366590096782
335.0 70.89366590096782
345.0 70.93924275721992
355.0 70.93924275721992
365.0 70.91363940606881
375.0 70.8677916354448
387.0 70.8136394060688
400.0 70.7677916354448
412.0 70.73924275721991
425.0 70.70914589305828
437.0 70.69366590096783
450.0 70.73537086618988
462.0 70.79366590096782
475.0 70.79366590096782
487.0 70.81998423401444
500.0 70.79044363353323
515.0 70.74865957364796
530.0 70.71998423401445
545.0 70.69044363353325
560.0 70.61998423401442
580.0 70.51998423401443
600.0 70.49044363353323
615.0 70.49044363353323
630.0 70.51998423401443
650.0 70.53537086618987
670.0 70.53537086618987
690.0 70.49366590096781
710.0 70.40914589305828
730.0 70.3677916354448
750.0 70.38336396340043
775.0 70.48336396340042
800.0 70.6136394060688
825.0 70.65802016372604
850.0 70.58847217927514
875.0 70.32940676691628
900.0 70.00433100962667
925.0 69.72940676691627
950.0 69.52940676691628
975.0 69.22940676691628
1000.0 68.78336396340043
1030.0 68.6225149636949
1060.0 68.80422246482465
1090.0 69.10422246482463
1120.0 69.37525122642455
1150.0 69.20229476693692
1180.0 68.84608542591297
1220.0 68.60593509486752
1250.0 68.58719242398477
1280.0 68.68426663030601
1320.0 68.86007171697719
1360.0 68.9152383542856
1400.0 68.88426663030603
1450.0 68.73212498916763
1500.0 68.50819596697113
1550.0 68.15689526970547
1600.0 67.83971298709417
1650.0 67.53212498916766
1700.0 67.25647566102589
1750.0 67.08426663030602
1800.0 67.06758191272573
1850.0 67.1959457115664
1900.0 67.40433100962667
1950.0 67.70297000200442
2000.0 68.10297000200441
2060.0 68.50297000200442
2120.0 68.8191435620372
2180.0 69.04124651354192
2240.0 69.1294192027778
2300.0 69.12550314698994
2360.0 69.11981889154697
2400.0 69.06111856360283
2500.0 69.08747899297782
2580.0 69.11507290176978
2650.0 69.09690468269018
2720.0 69.10736536151734
2800.0 69.05647342030849
2900.0 69.01246339401045
3000.0 68.9626501272398
3070.0 68.94407254272868
3150.0 68.89528541276347
3250.0 68.81009194148194
3350.0 68.71137603873458
3450.0 68.68438916414588
3550.0 68.63766362204878
3650.0 68.51145253197505
3750.0 68.38090582876194
3870.0 68.26212175296142
4000.0 68.20834053062228
4120.0 68.18108170229945
4250.0 68.28108170229945
4370.0 68.42564326038075
4500.0 68.48820046338577
4620.0 68.62777663861533
4750.0 68.7540884357837
4870.0 68.88005073563689
5000.0 68.89632521682688
5150.0 68.82866158243807
5300.0 68.71270459083858
5450.0 68.45630977625629
5600.0 68.1576642435428
5800.0 67.90190494384014
6000.0 67.66779163544481
6150.0 67.5225149636949
6300.0 67.38268809175152
6500.0 67.23698254671423
6700.0 67.08747899297782
6900.0 66.84735391542189
7100.0 66.52562697403914
7300.0 66.2151965061487
7500.0 65.99339809469194
7750.0 65.73762408325454
8000.0 65.57057235131963
8250.0 65.34949184131462
8500.0 65.15578686065291
8750.0 65.03382795594567
9000.0 65.05825300612997
9250.0 65.18592700055441
9500.0 65.36723627795067
9750.0 65.5847236850968
10000.0 65.57184403860174
10300.0 65.4448256524513
10600.0 65.35709023648471
10900.0 65.15444042544136
11200.0 64.80018582708344
11500.0 64.35116695443666
11800.0 63.90823121243892
12200.0 63.5566858659227
12500.0 63.32105337842164
12800.0 63.03481848871027
13200.0 62.71054904764705
13600.0 62.269157050696364
14000.0 61.70893166036127
14500.0 61.013089537767655
15000.0 60.184331067164095
15500.0 59.12973029399606
16000.0 57.88926470268724
16500.0 56.86311740192089
17000.0 56.179723582405714
17500.0 55.516571717842
18000.0 54.58414618459895
18500.0 53.363023087356254
19000.0 51.964498957005574
19500.0 50.396028604589915
