Freq,On Axis,Listening Window,Sound Power,Early Reflections,Early Reflections DI,Sound Power DI,DI offset
20.5078,37.97236600000001,37.97236600000001,37.97236600000001,37.97236600000001,40.0,40.0,40
21.9727,42.46036500000001,42.46036500000001,42.46036500000001,42.46036500000001,40.0,40.0,40
23.4375,45.72737099999999,45.72737099999999,45.72737099999999,45.72737099999999,40.0,40.0,40
24.9023,48.103370999999996,48.103370999999996,48.103370999999996,48.103370999999996,40.0,40.0,40
26.3672,51.274367999999996,51.274367999999996,51.274367999999996,51.274367999999996,40.0,40.0,40
27.832,53.89736899999998,53.89736899999998,53.89736899999998,53.89736899999998,40.0,40.0,40
29.2969,56.24736800000001,56.24736800000001,56.24736800000001,56.24736800000001,40.0,40.0,40
30.7617,58.72236600000001,58.72236600000001,58.72236600000001,58.72236600000001,40.0,40.0,40
32.2266,61.033366999999984,61.033366999999984,61.033366999999984,61.033366999999984,40.0,40.0,40
33.6914,62.998363,62.998363,62.998363,62.998363,40.0,40.0,40
35.1562,64.79036700000002,64.79036700000002,64.79036700000002,64.79036700000002,40.0,40.0,40
36.6211,66.31037099999999,66.31037099999999,66.31037099999999,66.31037099999999,40.0,40.0,40
38.0859,68.19336700000001,68.19336700000001,68.19336700000001,68.19336700000001,40.0,40.0,40
39.5508,70.042366,70.042366,70.042366,70.042366,40.0,40.0,40
41.0156,71.74337000000001,71.74337000000001,71.74337000000001,71.74337000000001,40.0,40.0,40
42.4805,73.241371,73.241371,73.241371,73.241371,40.0,40.0,40
43.9453,74.58536500000001,74.58536500000001,74.58536500000001,74.58536500000001,40.0,40.0,40
45.4102,75.849365,75.849365,75.849365,75.849365,40.0,40.0,40
46.875,76.84137,76.84137,76.84137,76.84137,40.0,40.0,40
48.3398,77.891365,77.891365,77.891365,77.891365,40.0,40.0,40
51.2695,79.333366,79.333366,79.333366,79.333366,40.0,40.0,40
52.7344,79.746368,79.746368,79.746368,79.746368,40.0,40.0,40
54.1992,80.014366,80.014366,80.014366,80.014366,40.0,40.0,40
55.6641,80.213371,80.213371,80.213371,80.213371,40.0,40.0,40
58.5938,80.50336499999999,80.50336499999999,80.50336499999999,80.50336499999999,40.0,40.0,40
60.0586,80.64637,80.64637,80.64637,80.64637,40.0,40.0,40
62.9883,80.888367,80.888367,80.888367,80.888367,40.0,40.0,40
64.4531,80.985367,80.985367,80.985367,80.985367,40.0,40.0,40
67.3828,81.135368,81.135368,81.135368,81.135368,40.0,40.0,40
68.8477,81.211365,81.211365,81.211365,81.211365,40.0,40.0,40
71.7773,81.36136599999999,81.36136599999999,81.36136599999999,81.36136599999999,40.0,40.0,40
74.707,81.508369,81.508369,81.508369,81.508369,40.0,40.0,40
77.6367,81.643372,81.643372,81.643372,81.643372,40.0,40.0,40
79.1016,81.717369,81.717369,81.717369,81.717369,40.0,40.0,40
82.0312,81.861366,81.861366,81.861366,81.861366,40.0,40.0,40
84.9609,81.995369,81.995369,81.995369,81.995369,40.0,40.0,40
87.8906,82.108368,82.108368,82.108368,82.108368,40.0,40.0,40
90.8203,82.21836899999998,82.21836899999998,82.21836899999998,82.21836899999998,40.0,40.0,40
95.2148,82.353371,82.353371,82.353371,82.353371,40.0,40.0,40
98.1445,82.420364,82.420364,82.420364,82.420364,40.0,40.0,40
101.074,82.48037,82.48037,82.48037,82.48037,40.0,40.0,40
105.469,82.545364,82.545364,82.545364,82.545364,40.0,40.0,40
108.398,82.575371,82.575371,82.575371,82.575371,40.0,40.0,40
112.793,82.607368,82.607368,82.607368,82.607368,40.0,40.0,40
117.188,82.617371,82.617371,82.617371,82.617371,40.0,40.0,40
120.117,82.622368,82.622368,82.622368,82.622368,40.0,40.0,40
124.512,82.63936600000001,82.63936600000001,82.63936600000001,82.63936600000001,40.0,40.0,40
128.906,82.634369,82.634369,82.634369,82.634369,40.0,40.0,40
133.301,82.561371,82.561371,82.561371,82.561371,40.0,40.0,40
139.16,82.434372,82.434372,82.434372,82.434372,40.0,40.0,40
143.555,82.389366,82.389366,82.389366,82.389366,40.0,40.0,40
147.949,82.367371,82.367371,82.367371,82.367371,40.0,40.0,40
300.0,81.90964584425451,81.79431250513055,79.38423233217422,80.69707833754352,41.09723416758703,42.41008017295633,40
307.0,81.97340710190628,81.85467999876597,79.42839723308741,80.74853107810507,41.1061489206609,42.426282765678565,40
315.0,82.03942109098718,81.91658389625208,79.47084831580169,80.7997408365715,41.116843059680576,42.44573558045039,40
325.0,82.11168967522518,81.9837482165293,79.51203087083256,80.8526477444729,41.1311004720564,42.471717345696746,40
335.0,82.17486213020935,82.04164848976781,79.54241243597681,80.89546398737235,41.14618450239546,42.499236053790995,40
345.0,82.22968402536321,82.0910934508034,79.56280347840323,80.92901490190464,41.16207854889876,42.528289972400174,40
355.0,82.27705905360965,82.1329867804283,79.57404434876645,80.95417456385469,41.178812216573604,42.55894243166185,40
365.0,82.31768545192081,82.16808161760095,79.57689059442396,80.97167947179126,41.196402145809685,42.59119102317699,40
375.0,82.35226326862832,82.1970573473369,79.57207660736262,80.98231221944518,41.21474512789172,42.624980739974276,40
387.0,82.38639847296675,82.22431551477236,79.55624983475015,80.98624278521088,41.23807272956148,42.66806568002221,40
400.0,82.41618745255339,82.2464923687415,79.52903991057266,80.98184169996297,41.26465066877853,42.717452458168836,40
412.0,82.43862421051556,82.26182552998546,79.49654767657377,80.97156989014212,41.29025563984334,42.76527785341169,40
425.0,82.45836381960072,82.2739414419281,79.4543653975698,80.95479674551116,41.31914469641694,42.8195760443583,40
437.0,82.47359996358732,82.28211866523219,79.41046256548515,80.93546859329881,41.34665007193338,42.87165609974704,40
450.0,82.4876367727146,82.28865475186788,79.35857188248535,80.91141698831022,41.37723776355766,42.93008286938253,40
462.0,82.49911647731113,82.29332883790481,79.30782116967235,80.88737193746904,41.40595690043577,42.98550766823246,40
475.0,82.510745478163,82.29770095332664,79.25071350116154,80.86024371287078,41.437457240455856,43.0469874521651,40
487.0,82.52106578351712,82.30153669687365,79.19681233072232,80.83486035533626,41.466676341537394,43.10472436615133,40
500.0,82.53213284704488,82.30589056093781,79.13794326466275,80.80767473310092,41.49821582783689,43.16794729627506,40
515.0,82.54499314729897,82.31142789601452,79.0702125187779,80.77727390726703,41.53415398874749,43.24121537723663,40
530.0,82.55809085432621,82.3177705055515,79.003169164885,80.74848787373004,41.56928263182145,43.3146013406665,40
545.0,82.57117942398307,82.32464142294563,78.93742720134959,80.7214573646213,41.60318405832433,43.38721422159604,40
560.0,82.58385673590116,82.33170705654628,78.87318873472488,80.69613734635877,41.63556971018751,43.4585183218214,40
580.0,82.5991120501633,82.34036390562254,78.78960063833998,80.66457080426808,41.67579310135446,43.55076326728256,40
600.0,82.6110042595502,82.34680617390599,78.70789441932475,80.63448022593961,41.71232594796638,43.638911754581244,40
615.0,82.61655331560193,82.34889703586677,78.64706195957464,80.61190933693034,41.73698769893643,43.70183507629213,40
630.0,82.6185486050345,82.34794347894098,78.5861733312286,80.58863213088999,41.759311348050986,43.76177014771238,40
650.0,82.61392199979856,82.3401723049411,78.50352818676942,80.55494701437775,41.78522529056336,43.83664411817169,40
670.0,82.60014417141673,82.3238280499187,78.41818886500302,80.51685343593373,41.80697461398498,43.905639184915685,40
690.0,82.57526845681285,82.29695677940337,78.328447793573,80.47237816537832,41.82457861402506,43.96850898583037,40
710.0,82.53794597415133,82.2579402823045,78.23271065875491,80.41961754903159,41.83832273327292,44.02522962354959,40
730.0,82.48807687031797,82.20653981028403,78.13040538498545,80.35774839701226,41.84879141327177,44.07613442529858,40
750.0,82.42516275251074,82.14213470747212,78.02068309941403,80.28575355356848,41.85638115390364,44.121451608058095,40
775.0,82.32603795129823,82.04094751644985,77.87051550546018,80.17848957994688,41.86245793650296,44.17043201098967,40
800.0,82.20551610963263,81.91791379497634,77.7058167177614,80.05182986749824,41.8660839274781,44.21209707721495,40
825.0,82.06404466924859,81.77347535534099,77.52595220161967,79.90505759171252,41.86841776362847,44.24752315372132,40
850.0,81.90302376485694,81.60892777159889,77.33086858251995,79.73821512837851,41.87071264322037,44.27805918907893,40
875.0,81.72435396117523,81.4264289380647,77.12119349863535,79.55219794121378,41.874230996850926,44.30523543942935,40
900.0,81.53094244111018,81.22898347849582,76.8984258549968,79.34899535046675,41.87998812802907,44.33055762349902,40
925.0,81.32645394000973,81.0207376594918,76.66516301336324,79.13183875142717,41.88889890806463,44.35557464612856,40
950.0,81.11561269298798,80.80681386223036,76.42519609410934,78.90527206057745,41.90154180165291,44.38161776812102,40
975.0,80.90460430742093,80.5938823281193,76.18421629880119,78.67591619330892,41.917966134810385,44.40966602931812,40
1000.0,80.7005185272292,80.38956136898055,75.94943543341064,78.45191365051119,41.937647718469364,44.44012593556991,40
1030.0,80.47533830706928,80.16651462342064,75.68708770569769,78.20256400340224,41.963950620018394,44.47942691772295,40
1060.0,80.28556579529796,79.9816797179844,75.46143916917794,77.9912525130224,41.990427204962,44.52024054880647,40
1090.0,80.14135699473938,79.84438985622099,75.28473265058213,77.83092852356317,42.01346133265781,44.55965720563886,40
1120.0,80.05404073030253,79.7647101797706,75.17045261782097,77.7355279494571,42.02918223031351,44.59425756194963,40
1150.0,80.02290519455083,79.74005959317448,75.11858066839612,77.70453327897437,42.03552631420011,44.62147892477836,40
1180.0,80.04620162252624,79.76715048290278,75.12754361823859,77.73589228447848,42.0312581984243,44.63960686466419,40
1220.0,80.14210614380171,79.86205276657644,75.21181771184509,77.85095153046818,42.01110123610826,44.650235054731354,40
1250.0,80.24567768973365,79.95995695680482,75.31006091986971,77.97225288846566,41.987704068339156,44.649896036935104,40
1280.0,80.35878876069371,80.0641488349186,75.41920320681189,78.10388578668996,41.96026304822864,44.64494562810671,40
1320.0,80.50143945046419,80.19178657858336,75.55724079835942,78.27057195165156,41.9212146269318,44.634545780223945,40
1360.0,80.61246481416599,80.28745663628344,75.66403748586328,78.40396077222634,41.883495864057096,44.62341915042016,40
1400.0,80.67532441516532,80.33801560656337,75.72383139053865,78.4875988793073,41.850416727256075,44.614184216024725,40
1450.0,80.67989207164149,80.3356345827446,75.72785173662008,78.5166040296473,41.819030553097306,44.60778284612452,40
1500.0,80.60951158599694,80.27052955949823,75.66068320576474,78.46823538461423,41.802294174884,44.60984635373349,40
1550.0,80.48640300631635,80.16481133863033,75.54159221243816,78.36195397866986,41.80285735996047,44.62321912619217,40
1600.0,80.34368607599359,80.04755682177259,75.39799628180052,78.22722571978784,41.82033110198475,44.64956053997207,40
1650.0,80.2146559972442,79.94548219827169,75.25685757631548,78.09442952202257,41.851052676249125,44.68862462195621,40
1700.0,80.12746179963743,79.87935769835413,75.14182385635563,77.99113458310683,41.8882231152473,44.7375338419985,40
1750.0,80.09535604728369,79.85846888996129,75.06672946334587,77.93383960184083,41.92462928812046,44.79173942661542,40
1800.0,80.1219890242871,79.88559127684017,75.03744475248367,77.9293873304514,41.95620394638877,44.84814652435651,40
1850.0,80.202702110418,79.95872074065592,75.05149495623402,77.97464864432112,41.9840720963348,44.9072257844219,40
1900.0,80.33015965819499,80.07389945919593,75.1008252741126,78.06037860564093,42.01352085355499,44.973074185083334,40
1950.0,80.49488320118171,80.22428277734521,75.17350105064229,78.17330718847545,42.05097558886976,45.05078172670292,40
2000.0,80.68520919515659,80.39902466490072,75.25564659116704,78.29848619306536,42.100538471835364,45.143378073733686,40
2060.0,80.92633894476116,80.6195322077606,75.34661507517907,78.44336716485368,42.176165042906916,45.272917132581526,40
2120.0,81.15301452035975,80.82294640003728,75.40744889306752,78.55875052677493,42.26419587326235,45.41549750696976,40
2180.0,81.3375619720424,80.9824639818613,75.42068047873131,78.6252050153934,42.357258966467896,45.56178350312999,40
2240.0,81.46328955094246,81.08264796416204,75.37801893562568,78.63290355032923,42.4497444138328,45.70462902853636,40
2300.0,81.5285173172798,81.1231031902898,75.2821978239681,78.58399478735812,42.539108402931674,45.84090536632169,40
2360.0,81.54412933076901,81.11469659195727,75.14416193563574,78.48975703828343,42.62493955367384,45.97053465632153,40
2430.0,81.52235963890189,81.06531193277773,74.95029260439989,78.3443198304123,42.72099210236543,46.11501932837784,40
2500.0,81.48237535775907,80.99826576412063,74.74450000047706,78.18572181373628,42.81254395038435,46.25376576364357,40
2580.0,81.43779090779846,80.92640231977833,74.52069040319702,78.0156490722764,42.91075324750193,46.40571191658131,40
2650.0,81.40899736526235,80.88140330311656,74.34901533413377,77.89054657079066,42.990856732325895,46.53238796898279,40
2720.0,81.38856166727987,80.85412480379223,74.20111910435112,77.78762936430635,43.06649543948588,46.65300569944111,40
2800.0,81.36362622050548,80.83160154556441,74.04679435893843,77.68134798908902,43.15025355647539,46.78480718662598,40
2900.0,81.31176560495281,80.79014815202105,73.84430895242296,77.53341244406303,43.256735707958015,46.94583919959808,40
3000.0,81.24675565164392,80.73231102903215,73.62506788383345,77.36356126396105,43.3687497650711,47.107243145198694,40
3070.0,81.21661531314561,80.69936553349895,73.4819223695536,77.25131370098138,43.448051832517564,47.21744316394535,40
3150.0,81.21921709923672,80.6868198215907,73.35580978915556,77.15381324517577,43.533006576414934,47.331010032435145,40
3250.0,81.29340350360435,80.72307207762603,73.28408358571862,77.10120715814345,43.621864919482576,47.43898849190741,40
3350.0,81.45026176273326,80.82466790348535,73.31952074183691,77.13419918180617,43.69046872167918,47.50514716164844,40
3450.0,81.67586714339414,80.9823167755937,73.43572308291445,77.23540832711895,43.746908448474755,47.54659369267925,40
3550.0,81.93545080849515,81.16178986818194,73.57830004063611,77.36628218303586,43.79550768514608,47.58348982754583,40
3650.0,82.1884326056846,81.32321121549548,73.70400454190454,77.49311711330665,43.83009410218882,47.61920667359094,40
3750.0,82.39874323351965,81.43842415966463,73.79129714043093,77.59385796786243,43.8445661918022,47.64712701923371,40
3870.0,82.56093035890949,81.49792175291691,73.82932221071026,77.65825606765071,43.8396656852662,47.66859954220665,40
4000.0,82.63651855488015,81.48483613549406,73.80319447624427,77.66602994902875,43.81880618646531,47.68164165924979,40
4120.0,82.66980775421736,81.44780491893344,73.76547805538468,77.65927112210247,43.788533796830976,47.68232686354877,40
4250.0,82.70545520524398,81.41587678605444,73.74423855828064,77.6694029589176,43.74647382713684,47.6716382277738,40
4370.0,82.71929555654383,81.38632307000631,73.72992699144383,77.68329929347406,43.70302377653225,47.65639607856248,40
4500.0,82.67932633744415,81.33140156014558,73.69808122365158,77.68002301091721,43.65137854922837,47.633320336493995,40
4620.0,82.6132595701806,81.2857859194138,73.68492738271208,77.68745827433422,43.59832764507958,47.60085853670172,40
4750.0,82.57116670357398,81.29064698702093,73.7319260415585,77.74930860170606,43.54133838531487,47.55872094546244,40
4870.0,82.56903513196282,81.33337358126585,73.80373751380232,77.83387506684254,43.49949851442331,47.52963606746353,40
5000.0,82.53601620360175,81.35308229863035,73.83996168597191,77.8866334549418,43.46644884368855,47.51312061265844,40
5150.0,82.33188472536088,81.23546674549858,73.74872958785804,77.8069208826026,43.42854586289599,47.48673715764055,40
5300.0,82.01230141033322,80.99200181940536,73.55289959351585,77.60615885936123,43.38584296004413,47.43910222588951,40
5450.0,81.87291010593056,80.8592548511066,73.44793442264013,77.49493061786329,43.36432423324331,47.41132042846647,40
5600.0,81.99876908422962,80.98541479022835,73.57527439738615,77.62371364507277,43.36170114515558,47.410140392842195,40
5800.0,82.09169599703866,81.17218923414849,73.78989085506619,77.84659925777218,43.32558997637631,47.3822983790823,40
6000.0,81.90018347977815,81.10114485998513,73.71817324368719,77.80288388012966,43.29826097985547,47.38297161629794,40
6150.0,81.72770597589096,81.05649863767051,73.62332537854287,77.73060156322711,43.325897074443404,47.43317325912764,40
6300.0,81.54274400170611,81.07487140313692,73.62447172915462,77.732305572317,43.34256583081992,47.450399673982304,40
6500.0,81.28087208434403,81.07769205799038,73.69568019232987,77.78128256980091,43.29640948818947,47.3820118656605,40
6700.0,81.03210596829781,81.01840767976145,73.7067249471182,77.76223311858978,43.256174561171676,47.31168273264325,40
6900.0,80.73821934462808,80.89168070624959,73.65905502165359,77.68103085708171,43.21064984916788,47.232625684596,40
7100.0,80.58676671703417,80.7636141416023,73.60115853281721,77.62904474685197,43.13456939475033,47.162455608785095,40
7300.0,80.64471882419268,80.7265830838286,73.54297788667505,77.59075861675196,43.135824467076645,47.183605197153554,40
7500.0,80.7310373017717,80.72155107916085,73.5225265638807,77.57546110082717,43.14608997833368,47.19902451528014,40
7750.0,80.87957197019622,80.73379391918353,73.5483131173593,77.60270838476991,43.131085534413614,47.18548080182423,40
8000.0,80.91362555852264,80.63477648539923,73.34457807127892,77.40234142434257,43.23243506105666,47.29019841412031,40
8250.0,81.0007733932632,80.51284699550766,72.95593097111487,77.09023659906644,43.422610396441215,47.55691602439279,40
8500.0,81.44940991063676,80.7827578844881,72.96347845836331,77.20521126028028,43.57754662420783,47.819279426124794,40
8750.0,81.65170750939926,80.94339548425653,73.04607967510196,77.33623598979243,43.6071594944641,47.89731580915456,40
9000.0,81.1736383926871,80.54749639963498,72.75041949423733,77.03902605067547,43.508470348959506,47.797076905397645,40
9250.0,80.94763416984644,80.39793438390292,72.70371920393319,76.9851311381129,43.412803245790016,47.69421517996973,40
9500.0,81.02294466924857,80.52300360318131,72.90927490143913,77.193255881032,43.32974772214931,47.613728701742176,40
9750.0,80.63578002823081,80.19950877656906,72.64302124033712,76.93118960578762,43.26831917078144,47.55648753623194,40
10000.0,80.50954449999719,80.07498733685819,72.47732931353677,76.78224771781115,43.29273961904704,47.597658023321415,40
10300.0,81.01652531640867,80.50738282472327,72.77134290995764,77.12139956449947,43.385983260223796,47.73603991476563,40
10600.0,80.37875751029675,79.92012318694361,72.47219098567436,76.72335235721366,43.19677082972996,47.44793220126925,40
10900.0,80.1331344569435,79.71723795458455,72.32062209268214,76.58941104512587,43.127826909458676,47.396615861902404,40
11200.0,80.62360247829331,80.0341306024918,72.40470240456064,76.7409720273814,43.2931585751104,47.62942819793116,40
11500.0,80.96317370766081,80.21068970894316,72.31011250688789,76.7023094793936,43.50838022954956,47.900577202055274,40
11800.0,80.9578477251078,80.11290787553646,71.99923284364543,76.3998379583014,43.71306991723506,48.113675031891034,40
12200.0,81.31480758050382,80.51695680120301,72.35938886328678,76.73693218669922,43.78002461450379,48.15756793791623,40
12500.0,81.36310040873165,80.65994469977898,72.58898632415149,76.93417005925512,43.72577464052385,48.070958375627484,40
12800.0,80.86631548778128,80.28910238514145,72.35771735900686,76.69826087608138,43.59084150906007,47.93138502613459,40
13200.0,80.93981885243171,80.57779618741482,72.60284143614716,76.96524090201332,43.6125552854015,47.97495475126766,40
13600.0,80.41100379964357,80.0442932378606,72.08136838582517,76.41520976761922,43.62908347024138,47.96292485203543,40
14000.0,80.65204494804031,80.1846323586346,72.23304849509204,76.5560821770061,43.6285501816285,47.95158386354257,40
14500.0,80.61601668229027,80.02512542664833,72.0658294983016,76.38694440067826,43.63818102597007,47.959295928346734,40
15000.0,81.03555407586217,80.0986565722729,72.05298897601186,76.4666243916886,43.632032180584304,48.04566759626104,40
