Freq "Sound Power"
20.5078 48.0310132553541
21.9727 48.70539879221998
23.4375 49.85704320555227
24.9023 50.37569831450365
26.3672 52.092635753382254
27.832 53.47907059394383
29.2969 54.32830608762107
30.7617 55.628237841179484
32.2266 56.97902494581386
33.6914 58.05636246524601
35.1562 59.40802324727399
36.6211 60.94394762001396
38.0859 62.003859549205075
39.5508 63.24478430659687
41.0156 64.39773242108662
42.4805 65.73348172014427
43.9453 66.93403154212497
45.4102 68.07936135437201
46.875 69.30980984489914
48.3398 70.26169125614517
51.2695 72.42288038993293
52.7344 73.49628479639732
54.1992 74.50341705397271
55.6641 75.43741927482536
58.5938 77.11714602131532
60.0586 77.8959386955989
62.9883 79.23122526442124
64.4531 79.72914961902978
67.3828 80.46041202972513
68.8477 80.70853563854202
71.7773 81.16881741898665
74.707 81.41151537310101
77.6367 81.48229162702299
79.1016 81.50979369701503
82.0312 81.58789384448419
84.9609 81.60465745950168
87.8906 81.57430723622824
90.8203 81.58848091492266
95.2148 81.62599690763031
98.1445 81.60697875402614
101.074 81.59486174085934
105.469 81.66659824087924
108.398 81.75330283084307
112.793 82.00209863085696
117.188 82.01274131793019
120.117 82.08169259409843
124.512 82.15055209101511
128.906 82.2853957834049
133.301 82.37589049655952
139.16 82.48264441970719
143.555 82.5698529854524
147.949 82.62024974313245
153.809 82.71745417182974
159.668 82.84967449515374
165.527 83.0995128313249
171.387 83.12184889937946
177.246 83.13488314768993
183.105 83.13923209114586
188.965 83.15192575964788
196.289 83.22082468242594
203.613 83.13538299136589
210.938 83.29134181651564
218.262 83.3104315909023
225.586 83.33756540915694
232.91 83.24405127109264
241.699 83.16739142488429
250.488 83.10468213793266
259.277 83.29019944746311
268.066 83.11947176759675
276.855 82.98520466758461
287.109 83.10336155793891
297.363 83.01889661710798
307.617 82.95581999260254
319.336 82.61371137710611
329.59 82.34969122401296
341.309 82.34406612920348
353.027 81.93854591489496
366.211 82.42804508843429
379.395 82.75502816934734
392.578 82.49762527647447
405.762 82.21981152260719
420.41 82.23646155025122
435.059 81.89130071164328
451.172 81.92301204754706
465.82 81.76056917851686
483.398 81.85855179154974
499.512 81.57262680867093
517.09 81.74669295673391
536.133 81.104618817942
555.176 81.01551763010058
574.219 81.41908761387863
594.727 80.86337758149114
615.234 80.69352347802173
637.207 81.15374226149933
659.18 81.27274645850967
682.617 81.88438036013308
707.52 82.11816376587598
732.422 81.65979462743579
757.324 81.01713642026375
785.156 81.02657094036124
811.523 80.32944712710999
840.82 80.50476994721498
870.117 81.17546392632171
900.879 82.10323643782758
933.105 82.58968979856277
965.332 82.51442658208512
1000.49 81.84343031741865
1035.64 81.79721769412056
1072.27 81.47640670827697
1108.89 81.5327764083778
1148.44 81.39348501014847
1189.45 81.3449899740675
1230.47 81.62029795437216
1274.41 82.32136376321633
1319.82 82.80358763207535
1366.7 83.12168552319694
1413.57 82.8906069181503
1463.38 81.7839846094278
1516.11 81.1817286541352
1568.85 80.11801186514725
1624.51 79.72282518393973
1681.64 79.1795066977849
1741.7 79.3171606098707
1803.22 79.1670724413906
1866.21 78.63442684545214
1932.13 78.4789576676495
1999.51 78.28985111219559
2069.82 77.46030356837669
2143.07 77.46181849406894
2219.24 77.31600125985145
2296.88 77.02895106043523
2378.91 77.04718899646059
2462.4 77.46776687385729
2548.83 78.18835839879733
2639.65 78.93786563719662
2731.93 78.55336039099338
2828.61 78.02911857391123
2928.22 77.44199880680193
3030.76 76.94503327939353
3137.7 76.80615287450728
3249.02 76.99665189380515
3363.28 77.0173072559858
3481.93 77.22280224150514
3604.98 77.19742682360982
3732.42 76.86350710591142
3864.26 76.89828195114495
4000.49 76.5119056918328
4141.11 77.07005982477106
4287.6 77.62831025808929
4438.48 78.41041775702416
4595.21 78.63673510120981
4756.35 78.14752961282659
4924.8 77.21405896363393
5097.66 76.79822201250586
5277.83 76.73320642641995
5463.87 77.14507361565184
5657.23 76.81851159922137
5856.45 76.8738902164731
6062.99 76.91530461154606
6276.86 76.75451100765252
6498.05 76.65586875946978
6726.56 77.12335799865262
6963.87 76.95986227878639
7209.96 77.17397815080815
7464.84 77.04115664238638
7727.05 76.85525632127853
7999.51 77.06910474696629
8282.23 76.71576852483808
8573.73 76.7270214225634
8876.95 76.51852005422285
9188.96 76.62641166552551
9514.16 76.42638521541507
9849.61 76.21497195228484
10196.8 75.99739976883156
10555.7 75.80175997591363
10927.7 75.29828195661636
11313.0 74.78016029199131
11712.9 74.64790258511754
12126.0 75.21183994595974
12553.7 75.62514348974604
12996.1 75.87916357943456
13454.6 75.94551215568457
13929.2 75.83907253369544
14419.9 75.6938801388734
14928.2 75.64397134433226
15455.6 75.73568722144772
16000.5 75.94469947538649
16564.5 75.68374136443845
17148.9 75.64413525851602
17752.4 75.4924439985343
18379.4 75.20509712687881
19026.9 75.03784900458976
19697.8 74.82641431106039
19999.5 74.83624679982792
