Freq "Rear Wall Bounce"
22.4 6.563213439316357
23.0 8.540094120974786
23.6 10.599141769754041
24.0 13.251749744924965
25.0 15.762383897285005
25.8 18.12944406679655
26.5 20.59965908013767
27.2 23.81141516433145
28.0 27.15846251966498
29.0 30.83888659855974
30.0 35.13077770173702
30.7 38.52633228065487
31.5 42.15957928928508
32.5 46.440922737201774
33.5 45.823041954017256
34.5 46.55367022269978
35.5 46.422690900454896
36.5 46.97072454724092
37.5 48.98775879179645
38.7 50.56616458051498
40.0 51.850297698829124
41.2 53.83969940126131
42.5 56.55344972328267
43.7 59.84400050160133
45.0 62.976940670823666
46.2 65.57769947990603
47.5 67.51288986848542
48.7 68.3158514901067
50.0 69.67271207944256
51.5 71.73076730292307
53.0 73.58603143170205
54.5 74.81071310310254
56.0 76.13536291053786
58.0 77.24210665347765
60.0 77.98552689845309
61.5 78.42705353697401
63.0 78.7669753899883
65.0 79.09041038358488
67.0 79.32909079743601
69.0 79.59704461149398
71.0 79.88962173340161
73.0 80.36522797919143
75.0 80.8490892567391
77.5 81.2147237754338
80.0 81.3370870727225
82.5 81.41141504684622
85.0 81.40488729008692
87.5 81.20249885791957
90.0 80.98014111276191
92.5 80.96115566332632
95.0 80.66242783684011
97.5 80.17659622347459
100.0 79.68534784862938
103.0 79.05200304561403
106.0 78.71357555990869
109.0 78.53558080630823
112.0 78.38625068394587
115.0 78.28176614073354
118.0 78.32279066767299
122.0 78.58864406024557
125.0 79.11993807597509
128.0 79.45059974075501
132.0 79.44256861275517
136.0 78.77603412908537
140.0 77.93602674280619
145.0 77.19625761190962
150.0 76.46170234678164
155.0 75.86371421279283
160.0 75.53218119317484
165.0 75.19222389507193
170.0 75.14350787278825
175.0 75.54326116717851
180.0 76.09900417697638
185.0 76.70965294601129
190.0 77.03360077888459
195.0 77.23463437039099
200.0 77.2344727207433
206.0 77.00089929031293
212.0 76.65562389389892
218.0 76.2055837000035
224.0 75.66027056197669
230.0 75.60537900815675
236.0 75.65672906532107
240.0 75.5706872355676
250.0 75.49378509229292
258.0 75.61555524384517
265.0 75.62011302360203
272.0 75.54663828678227
280.0 75.59042542564409
290.0 75.60013859092834
300.0 74.68842365460729
307.0 73.26440933087781
315.0 72.76166510901693
325.0 72.81943781445678
335.0 73.16169837079947
345.0 73.59757658330442
355.0 73.95841370693002
365.0 73.85190562254597
375.0 73.51948543020048
387.0 73.64758575377537
400.0 73.70906722462162
412.0 73.37248772765172
425.0 72.43444668265779
437.0 71.63729949869558
450.0 70.71594875525447
462.0 70.21143129229668
475.0 70.51140361743683
487.0 72.51870551325473
500.0 74.01152600367323
515.0 73.85241571016995
530.0 73.12436867882094
545.0 72.47689958333767
560.0 71.9128401682881
580.0 70.72343341979672
600.0 68.6013572287026
615.0 66.80710458690399
630.0 65.98430517885282
650.0 65.86288992626919
670.0 66.17111110878507
690.0 66.37408761041883
710.0 66.38001303271226
730.0 66.0435420685595
750.0 65.80150495972767
775.0 65.79984536204066
800.0 65.96428313944433
825.0 65.6578382277743
850.0 65.78672068208793
875.0 66.74101658081015
900.0 66.9415241834645
925.0 66.4418235102746
950.0 66.46437149360376
975.0 66.6045662688549
1000.0 65.70642342258195
1030.0 63.22552864963667
1060.0 63.94479542906325
1090.0 65.13904233221133
1120.0 64.30498907395997
1150.0 64.62462353549864
1180.0 63.66659843157463
1220.0 63.155398891946675
1250.0 62.4394556882783
1280.0 62.13200911492859
1320.0 62.66211807655044
1360.0 62.920426757918676
1400.0 61.48833137866772
1450.0 61.135377014502566
1500.0 60.853505793400856
1550.0 61.98300855810186
1600.0 62.42187443077509
1650.0 63.51933262088059
1700.0 63.01093802845443
1750.0 62.37470494106363
1800.0 61.67811613725475
1850.0 62.57681014065402
1900.0 63.99086955739243
1950.0 63.21821150573321
2000.0 61.19899613651228
2060.0 59.35890926415392
2120.0 57.981856171550945
2180.0 57.97344429349032
2240.0 58.70559976357944
2300.0 59.12713177785194
2360.0 58.185292756417326
2400.0 59.496798805027154
2500.0 61.61851912550922
2580.0 60.90115146447663
2650.0 60.40474455880785
2720.0 59.982254580864364
2800.0 58.666953113931996
2900.0 55.69806965537775
3000.0 55.58089382456815
3070.0 57.40999508230645
3150.0 59.24235307598117
3250.0 59.13761262459779
3350.0 60.152500808014494
3450.0 60.72104560482224
3550.0 59.61359158212581
3650.0 57.73060485480117
3750.0 58.692004812744585
3870.0 59.41009417806113
4000.0 61.40497802632147
4120.0 62.732859902308675
4250.0 63.30651860491393
4370.0 61.87872750587087
4500.0 60.240223334321925
4620.0 58.53628757613285
4750.0 59.698726458768974
4870.0 60.95518822501343
5000.0 62.845821259364726
5150.0 60.92352127515754
5300.0 58.65619108456937
5450.0 58.82574169646216
5600.0 59.65895625226041
5800.0 58.804465648077596
6000.0 59.51467972087305
6150.0 55.66783539044799
6300.0 59.3146918793102
6500.0 60.1468351200336
6700.0 60.07204903852238
6900.0 59.27740686274045
7100.0 58.283452428078974
7300.0 58.37890264681681
7500.0 60.50643533728602
7750.0 59.41063513210051
8000.0 58.948248513104176
8250.0 58.77952130403828
8500.0 57.78356523455862
8750.0 56.88128144057889
9000.0 59.5519555405735
9250.0 60.28668738318734
9500.0 58.324986234961685
9750.0 60.59687454265142
10000.0 59.12611163386886
10300.0 58.71953105125057
10600.0 60.55753510861008
10900.0 60.06439781136058
11200.0 57.11607032166857
11500.0 55.973115101018905
11800.0 53.99854329599448
12200.0 55.05740154175929
12500.0 53.839027242503064
12800.0 55.11511856356553
13200.0 53.89882011019829
13600.0 55.602131067329125
14000.0 56.83353054199118
14500.0 54.36323154615518
15000.0 54.49290799796016
15500.0 53.60302398352907
16000.0 50.71487694837053
16500.0 50.60450917491799
17000.0 50.658293956817246
17500.0 48.33805549525256
18000.0 44.51591654902778
18500.0 46.37116538462517
19000.0 40.54521809078078
19500.0 34.2402758011802
