Freq "Side Wall Bounce"
22.4 6.765929004625335
23.0 8.170110324921652
23.6 9.732662281989192
24.0 12.750158354950841
25.0 15.700724628598934
25.8 18.372120282969732
26.5 20.97592496916657
27.2 24.27554618904732
28.0 27.755068365771407
29.0 31.627549724678644
30.0 36.172244147716626
30.7 39.23557328963257
31.5 41.83836416426452
32.5 44.27082847745963
33.5 45.77574308857409
34.5 48.46855764163273
35.5 49.987493131811206
36.5 50.24824356392291
37.5 52.01686892231014
38.7 53.41798626105255
40.0 54.436691915161944
41.2 56.2529324147812
42.5 58.69320478113205
43.7 61.524712236262985
45.0 64.21937209200657
46.2 66.6079017592781
47.5 68.4948800426303
48.7 69.65742903759282
50.0 71.36086089120458
51.5 73.91003892915816
53.0 76.02456633098787
54.5 77.11484535921592
56.0 78.28677475130246
58.0 79.20413220098862
60.0 79.84334971122664
61.5 80.15057374304348
63.0 80.36951385634636
65.0 80.53541436176911
67.0 80.56382576168853
69.0 80.62616567290932
71.0 80.71722034314463
73.0 80.88186961549715
75.0 81.08066320745229
77.5 81.23256197793245
80.0 81.22552718382808
82.5 81.24283238577807
85.0 81.14282167131502
87.5 80.86502119250632
90.0 80.59566025536816
92.5 80.44404482448925
95.0 80.2420013071038
97.5 79.8474118128235
100.0 79.71139717018367
103.0 79.44248247811171
106.0 79.40757376402102
109.0 79.4800237209869
112.0 79.63829329333869
115.0 79.71576325640257
118.0 79.87203100543715
122.0 80.17121091443904
125.0 80.60476610877569
128.0 80.71879237070253
132.0 80.4505310752311
136.0 79.71354232466422
140.0 79.01588244759714
145.0 78.43888712529932
150.0 77.94133822400401
155.0 77.40411454780882
160.0 77.18831293507573
165.0 76.98292447835097
170.0 76.95118811122296
175.0 77.23897368849214
180.0 77.69780797671258
185.0 78.21140924601764
190.0 78.34160176914196
195.0 78.27648902447513
200.0 78.18970645620264
206.0 78.11965240677576
212.0 78.35863793843882
218.0 78.58337267989693
224.0 78.77706803685945
230.0 78.9216183320439
236.0 79.01649666871171
240.0 79.05377441050966
250.0 79.29959864255191
258.0 79.56011836747727
265.0 79.76765787989861
272.0 79.88986432455255
280.0 79.76951009606667
290.0 79.46421503242048
300.0 78.33494178744483
307.0 76.98135330065284
315.0 76.18720329916187
325.0 75.80321351545017
335.0 75.91131480387502
345.0 76.46384757247006
355.0 77.3440515301842
365.0 77.78841323963128
375.0 77.6558728518072
387.0 77.93445769681695
400.0 78.06404776750227
412.0 77.7467447593345
425.0 77.42306318872664
437.0 77.38346228703269
450.0 77.06998265342203
462.0 76.72452172454226
475.0 76.73072176767785
487.0 78.30194918783145
500.0 79.68197154720492
515.0 80.00319978478431
530.0 79.97686873268707
545.0 79.86913371655838
560.0 79.67292998029522
580.0 79.16806951910209
600.0 78.07957596881504
615.0 76.71405777559458
630.0 75.62278940564408
650.0 74.99110136354139
670.0 74.95573285626033
690.0 74.9313174185503
710.0 74.94443345476455
730.0 74.84752805040505
750.0 74.67219363088115
775.0 74.26833866394647
800.0 73.65336417329573
825.0 73.54422874142114
850.0 73.52956627680675
875.0 73.89536363961666
900.0 74.17532809968027
925.0 74.81024118126872
950.0 75.38502771478646
975.0 75.06972193179641
1000.0 74.68619940547511
1030.0 73.53376180832508
1060.0 72.87627438417758
1090.0 74.25373621165198
1120.0 74.74175778761591
1150.0 75.01848983157366
1180.0 75.27562764722127
1220.0 75.13658406277067
1250.0 74.93319345763337
1280.0 74.57813134613217
1320.0 74.14278895948078
1360.0 74.23724989997339
1400.0 73.11508446824023
1450.0 72.66304143760208
1500.0 72.45430026432754
1550.0 72.34547028018807
1600.0 71.96965338638923
1650.0 72.54002853166345
1700.0 72.77374841076904
1750.0 72.8173453988479
1800.0 73.0883578082179
1850.0 74.09373455145378
1900.0 75.35835585388473
1950.0 74.76198015137845
2000.0 73.37914036628575
2060.0 72.3592946471534
2120.0 71.03082656362427
2180.0 70.63627660996814
2240.0 71.76706748269568
2300.0 72.2000920685746
2360.0 72.16854644233693
2400.0 72.46534249980787
2500.0 73.56917233945268
2580.0 74.18837468064048
2650.0 75.00939512569987
2720.0 75.32809836827161
2800.0 74.92126640402442
2900.0 73.10898101863849
3000.0 72.78809290493611
3070.0 73.48536617566648
3150.0 74.20852852201112
3250.0 74.38967493234439
3350.0 75.4323004622647
3450.0 75.37483333451796
3550.0 74.75660636721021
3650.0 73.48935719949968
3750.0 72.44797207381089
3870.0 73.20813561772928
4000.0 76.0539574408919
4120.0 77.4178342421809
4250.0 78.56403817180603
4370.0 77.503151108152
4500.0 76.1330596532889
4620.0 75.37951143760449
4750.0 75.2345435120345
4870.0 76.2733634671342
5000.0 78.16657376496961
5150.0 76.928235791831
5300.0 75.366606557299
5450.0 76.85971657492158
5600.0 75.62418486787523
5800.0 75.82694668908353
6000.0 77.08865422065435
6150.0 74.15927919119447
6300.0 75.46539289105667
6500.0 75.78769163339255
6700.0 75.12490359239096
6900.0 75.64225366380154
7100.0 75.2227901882503
7300.0 74.07087440688674
7500.0 73.99813616930491
7750.0 73.7655001618023
8000.0 73.81175590890116
8250.0 73.64499545497088
8500.0 74.64845170963315
8750.0 72.84515911147884
9000.0 74.12101105799357
9250.0 75.1372769829374
9500.0 74.33728582333093
9750.0 76.41404963574783
10000.0 75.21737511402527
10300.0 73.24616405399566
10600.0 72.94854796322284
10900.0 74.25207707235354
11200.0 73.22758638505539
11500.0 75.86695866205613
11800.0 74.5875863898544
12200.0 71.09312555465489
12500.0 72.5580455896794
12800.0 72.86142913999475
13200.0 69.88131048306845
13600.0 73.14861550729331
14000.0 72.3179589693048
14500.0 71.32977421361097
15000.0 70.02092929517485
15500.0 69.08883004676177
16000.0 65.59604399358291
16500.0 64.0493472106363
17000.0 63.66232508044409
17500.0 61.5594473441012
18000.0 59.496848693604804
18500.0 62.193791063272855
19000.0 54.31392592539895
19500.0 47.30940981422076
