Freq,On Axis,Listening Window,Sound Power,Early Reflections,Early Reflections DI,Sound Power DI,DI offset
20.5078,57.8343,57.897991535544534,59.420002394218116,58.72200013968988,39.17599139585465,38.47798914132642,40
21.9727,56.27150000000002,56.30959984691496,57.269289270105546,56.79172009663593,39.517879750279036,39.04031057680942,40
23.4375,59.26380000000002,59.292321623798884,59.9415755552793,59.56333280468196,39.72898881911692,39.350746068519584,40
24.9023,61.620400000000004,61.63096989987075,61.86778347407541,61.67963086905614,39.95133903081461,39.76318642579534,40
26.3672,64.4052,64.40829092942661,64.5019698685034,64.38320993245723,40.02508099696938,39.90632106092322,40
27.832,67.3145,67.31128948818889,67.27567327339382,67.22680662536335,40.08448286282554,40.03561621479507,40
29.2969,69.5755,69.57361512252952,69.55258975364262,69.49797626765158,40.07563885487794,40.021025368886896,40
30.7617,72.5371,72.5354313597135,72.52146522621096,72.46826321769821,40.06716814201529,40.013966133502535,40
32.2266,75.0339,75.03202088095249,75.01205565252751,74.96556948630719,40.0664513946453,40.01996522842498,40
33.6914,77.0456,77.0415292751554,76.97419547050863,76.95272461797069,40.08880465718471,40.067333804646765,40
35.1562,79.13620000000002,79.12988277304679,79.01575934113775,79.01859705801753,40.111285715029254,40.114123431909036,40
36.6211,80.974,80.96821197482089,80.86332203673624,80.86381402676544,40.10439794805545,40.10488993808465,40
38.0859,82.67819999999999,82.67368525995202,82.59156447272355,82.58966698770416,40.08401827224786,40.082120787228476,40
39.5508,83.288,83.28084504889857,83.15864680436924,83.17580054317061,40.10504450572796,40.12219824452933,40
41.0156,84.0008,83.99134365915084,83.83699518297938,83.86731300798812,40.12403065116273,40.154348476171464,40
42.4805,84.9071,84.89917933205683,84.77144936991021,84.79130457757269,40.10787475448414,40.12772996214662,40
43.9453,85.5949,85.58557769219863,85.43362284899037,85.46811201567421,40.11746567652442,40.15195484320826,40
45.4102,85.8801,85.86984406922288,85.7016434136409,85.74640498738769,40.12343908183519,40.168200655581984,40
46.875,86.0095,85.99611771055345,85.7658397934258,85.84095684454387,40.15516086600958,40.23027791712765,40
48.3398,86.1875,86.17237786117384,85.89195729632837,85.99118519952785,40.181192661645994,40.28042056484547,40
51.2695,86.1109,86.10109952061829,85.94419004123662,85.98581985585301,40.11527966476528,40.15690947938167,40
52.7344,85.9893,85.9780479273038,85.82196154687696,85.86261287297265,40.11543505433116,40.15608638042684,40
54.1992,85.9413,85.92773059999966,85.74283686440413,85.79732661874604,40.13040398125362,40.18489373559554,40
55.6641,85.9944,85.97384198622217,85.65273343234482,85.77651555695671,40.19732642926546,40.32110855387735,40
58.5938,85.90749999999998,85.88814089624604,85.52209818812098,85.6698820893268,40.21825880691924,40.366042708125065,40
60.0586,85.8884,85.87062972284123,85.54980294802651,85.67605589679418,40.19457382604705,40.32082677481472,40
62.9883,85.8362,85.81414803524997,85.42562275960006,85.58975346755814,40.22439456769183,40.38852527564991,40
64.4531,85.701,85.67964912568188,85.29193565554519,85.45497802569842,40.22467109998345,40.38771347013669,40
67.3828,85.5524,85.53364487490286,85.235202293297,85.35051018406003,40.183134690842834,40.29844258160587,40
68.8477,85.539,85.51990871823992,85.2373786324395,85.34338931591579,40.17651940232413,40.28253008580042,40
71.7773,85.6407,85.62137820456013,85.32956700018457,85.44228789692761,40.17909030763252,40.29181120437556,40
74.707,85.6291,85.60963471870706,85.32906313210364,85.43806835749221,40.17156636121484,40.280571586603415,40
77.6367,85.5886,85.56777293742114,85.29641905238692,85.39965518776363,40.16811774965751,40.271353885034216,40
79.1016,85.5888,85.5674111023281,85.29074431538459,85.39615471374002,40.17125638858808,40.27666678694351,40
82.0312,85.74300000000001,85.71831381140645,85.35899202781502,85.50836815863165,40.20994565277479,40.359321783591426,40
84.9609,85.6349,85.61425307868043,85.3357752984647,85.44292500941732,40.17132806926311,40.27847778021574,40
87.8906,85.71480000000001,85.68537900894472,85.33812170249882,85.4771774878785,40.208201521066215,40.3472573064459,40
90.8203,85.7379,85.7080958546434,85.34013350373583,85.49043412186802,40.21766173277538,40.367962350907575,40
95.2148,85.8647,85.83017241234617,85.36206476852024,85.56182390750998,40.2683485048362,40.46810764382593,40
98.1445,86.0974,86.05366131085366,85.47373063205846,85.73110475678445,40.32255655406921,40.57993067879519,40
101.074,86.0607,86.02335358768654,85.47076219843052,85.72260302143158,40.30075056625496,40.55259138925602,40
105.469,85.9074,85.87349260894972,85.44449311464201,85.62975048645083,40.24374212249889,40.4289994943077,40
108.398,85.9965,85.95635333767184,85.45824749549625,85.67433560122578,40.282017736446065,40.49810584217559,40
112.793,85.9688,85.93122865424932,85.49606684169537,85.6771631408549,40.25406551339442,40.43516181255396,40
117.188,85.82469999999999,85.7780639358693,85.34498778192082,85.51872080245278,40.25934313341652,40.43307615394848,40
120.117,86.0222,85.97136153240639,85.4107291377922,85.6497238209272,40.321637711479184,40.56063239461419,40
124.512,86.0317,85.97738149150058,85.33418493074183,85.61583568189906,40.36154580960152,40.64319656075875,40
128.906,86.1742,86.11387638129132,85.29157946197823,85.66979960953752,40.4440767717538,40.82229691931309,40
133.301,86.0608,86.00623735505927,85.25342390174843,85.58993929762335,40.416298057435924,40.752813453310836,40
139.16,85.7747,85.71963273804624,85.10073375393718,85.3553981782792,40.36423455976704,40.618898984109066,40
143.555,85.6682,85.61140764824852,85.05087403473873,85.27287505685432,40.3385325913942,40.56053361350979,40
147.949,86.1168,86.04327709895414,85.09557327398025,85.52977803758593,40.51349906136821,40.947703824973885,40
153.809,86.01790000000001,85.94972291878379,85.02619766461062,85.44201874044103,40.50770417834276,40.92352525417317,40
159.668,86.1065,86.0326832364745,85.08292537783366,85.5049439347968,40.5277393016777,40.94975785864084,40
165.527,86.089,86.01668111776841,85.08960310789124,85.50796650685012,40.50871461091829,40.92707800987718,40
171.387,85.9193,85.8441260121904,84.94440548126475,85.33574259787933,40.50838341431107,40.89972053092565,40
177.246,85.9067,85.82555613521693,84.8770481084968,85.2832080996937,40.54234803552323,40.948508026720134,40
183.105,85.9586,85.86948429804488,84.78928730881064,85.27299830983291,40.59648598821197,41.08019698923424,40
188.965,86.01989999999999,85.93006248902675,84.7629676606517,85.30422757076694,40.62583491825981,41.167094828375056,40
196.289,86.2468,86.1434007784786,84.92182607294343,85.48373241382107,40.65966836465752,41.22157470553516,40
203.613,86.1187,86.0159131838174,84.75121498421257,85.34000846582619,40.675904717991216,41.26469819960484,40
210.938,86.08370000000001,85.98468537022906,84.7137643084758,85.30705535464801,40.677630015581045,41.270921061753256,40
218.262,85.995,85.8833689703923,84.68424280732044,85.2123954833853,40.670973487007004,41.19912616307185,40
225.586,86.2714,86.13403668674596,84.66002663479858,85.33396676270793,40.80006992403803,41.474010051947374,40
232.91,86.33890000000001,86.21148814672304,84.4508718066108,85.29757879601428,40.913909350708764,41.760616340112236,40
241.699,86.1047,85.97870163608897,84.2732537293394,85.08239706042633,40.89630457566264,41.70544790674957,40
250.488,86.60440000000001,86.45295762778505,84.37188413499493,85.35935614796738,41.09360147981768,42.081073492790125,40
259.277,86.5087,86.3705894829195,84.41116839311842,85.35316953164192,41.017419951277574,41.95942108980108,40
268.066,86.355,86.22009624773408,84.1252522079556,85.13096862445299,41.08912762328109,42.09484403977848,40
276.855,86.247,86.12416534890161,84.01274361005649,85.02955984932423,41.09460549957738,42.111421738845124,40
287.109,86.2255,86.09991236696685,84.11382343956274,85.08840937131697,41.01150299564988,41.98608892740411,40
297.363,86.6843,86.52381919334655,84.02014600610836,85.33095664074803,41.19286255259853,42.50367318723819,40
307.617,86.58,86.42464930305171,83.99204476189647,85.24359293638224,41.181056366669466,42.43260454115524,40
319.336,86.58889999999998,86.44938980315867,83.80341708428244,85.1880260564598,41.26136374669886,42.64597271887622,40
329.59,86.03850000000001,85.92600669808182,83.64874779233934,84.83423898921099,41.09176770887083,42.277258905742485,40
341.309,86.258,86.09347844286152,83.41254649163122,84.81792268888827,41.27555575397325,42.680931951230306,40
353.027,86.5817,86.4465935616998,83.62027040595737,85.09957610493827,41.347017456761535,42.82632315574243,40
366.211,87.2969,87.13633271746646,83.93742732141767,85.62049272342006,41.5158399940464,43.19890539604879,40
379.395,86.6755,86.60760793140737,83.98845060125934,85.42954590499485,41.17806202641252,42.61915733014803,40
392.578,86.37489999999998,86.2172525183661,83.50855176131094,84.9280620847077,41.28919043365839,42.708700757055155,40
405.762,86.6978,86.54628526364583,83.3591037310329,85.04165234330914,41.50463292033669,43.187181532612925,40
420.41,86.81750000000001,86.66258448694525,83.7261946685265,85.2983093601352,41.36427512681004,42.936389818418746,40
435.059,86.31250000000001,86.14391379423297,83.40205012204636,84.79874666233228,41.345167131900695,42.74186367218661,40
451.172,86.9575,86.80412725282595,83.2187265635717,85.14843451897309,41.65569273385286,43.58540068925424,40
465.82,86.9821,86.87996882046261,83.44426752675923,85.28051553549476,41.59945328496785,43.435701293703374,40
483.398,86.1196,85.99793515568865,83.22117445633043,84.6744193860381,41.323515769650555,42.77676069935822,40
499.512,86.48040000000002,86.24526421756723,83.22305129411426,84.86655175174177,41.37871246582546,43.02221292345297,40
517.09,85.5365,85.40645406753757,82.81923325850764,84.18385867003582,41.22259539750175,42.58722080902993,40
536.133,86.3593,86.12027258993798,82.61907252707745,84.27302379474636,41.84724879519162,43.50120006286053,40
555.176,86.1964,86.0787762320348,82.67510015403066,84.45306603415374,41.62571019788106,43.40367607800414,40
574.219,86.2769,85.98547758628773,82.56981548014332,84.38856941352799,41.59690817275974,43.41566210614441,40
594.727,85.7901,85.49302069832372,82.2810452020854,83.9027660065476,41.590254691776124,43.211975496238324,40
615.234,85.6916,85.3893914288099,81.85178311636996,83.61318443201723,41.776206996792666,43.53760831243994,40
637.207,86.5196,86.12565296581558,81.95125476071144,84.06255966074393,42.06309330507165,44.17439820510414,40
659.18,86.071,85.7881787290959,81.86467907222799,83.84668976708763,41.94148896200828,43.92349965686792,40
682.617,86.9285,86.53033618917082,82.09677922308735,84.25353624554431,42.276799943626514,44.43355696608347,40
707.52,87.0103,86.60425725684208,81.64381745593242,84.24077293594993,42.36348432089214,44.960439800909654,40
732.422,86.3088,85.92518816485853,81.43098939409249,83.69109198500094,42.23409617985759,44.49419877076603,40
757.324,86.268,85.98851088702632,81.37443622908145,83.86976922022161,42.11874166680471,44.61407465794487,40
785.156,85.8373,85.44622435804507,80.61731059145701,83.3197877712417,42.126436586803365,44.82891376658806,40
811.523,86.1443,85.75767904589003,81.1370391743674,83.57814679990248,42.179532245987545,44.62063987152263,40
840.82,85.35859999999998,85.10133318404976,80.30770778541975,82.85573661499467,42.245596569055095,44.79362539863001,40
870.117,85.4105,85.13234347289422,80.5896594700928,82.79187357265285,42.340469900241374,44.54268400280142,40
900.879,85.795,85.52447987861201,80.34158595101171,83.12142535668664,42.40305452192537,45.182893927600304,40
933.105,85.9864,85.59817393941935,80.51902068259626,83.0700690034159,42.52810493600346,45.07915325682309,40
965.332,86.66710000000002,86.04609714622045,80.78106879844292,83.51014096214625,42.535956184074195,45.26502834777753,40
1000.49,85.317,85.06405579880959,79.92396395697592,82.3782223906898,42.68583340811979,45.140091841833666,40
1035.64,85.5593,85.15798302622981,79.77487480345854,82.62885755602066,42.52912547020915,45.38310822277127,40
1072.27,85.68840000000002,85.25563169437812,79.70103877817878,82.74696236393918,42.50866933043895,45.55459291619934,40
1108.89,85.7774,85.05826782909398,79.30233516196975,82.42637728442648,42.6318905446675,45.75593266712423,40
1148.44,85.506,85.08325776656886,79.04160388771935,81.98600510292431,43.097252663644554,46.041653878849516,40
1189.45,85.7546,85.37035627344704,79.06296396937738,82.25335723707471,43.116999036372334,46.307392304069666,40
1230.47,86.2032,85.5824218462402,78.98931917486097,82.21902216932612,43.36339967691407,46.59310267137923,40
1274.41,85.6451,85.3824275681083,78.80069606980648,82.18157381181645,43.20085375629185,46.58173149830182,40
1319.82,85.859,85.36519415026939,78.34020530148942,81.7328155802844,43.63237856998499,47.02498884877997,40
1366.7,85.70140000000002,85.1680551398258,77.93506393151189,81.48212650978404,43.68592863004176,47.232991208313905,40
1413.57,86.2205,85.36933781858168,77.51554216651444,81.26267511171561,44.106662706866075,47.85379565206725,40
1463.38,86.1597,85.41579701588061,77.33382696338204,80.99274444520003,44.42305257068058,48.081970052498576,40
1516.11,86.4121,85.6352219516025,77.25915775798757,80.81286079176496,44.82236115983754,48.37606419361494,40
1568.85,85.8565,85.09174729607662,76.85717468190099,80.27476028851841,44.81698700755821,48.23457261417563,40
1624.51,85.64140000000002,84.73582727370786,76.37201376396486,79.62283847648695,45.11298879722091,48.363813509743,40
1681.64,85.6507,85.04878218145281,77.17019949936689,80.15499467653704,44.893787504915764,47.87858268208592,40
1741.7,86.6556,85.96871824725741,77.80559477571389,80.95711134194846,45.01160690530895,48.16312347154353,40
1803.22,86.6603,85.83950813653057,77.70895744868486,80.83611917237205,45.00338896415852,48.13055068784571,40
1866.21,86.0513,85.10749767722753,77.01901997420264,80.26565351292828,44.841844164299246,48.08847770302489,40
1932.13,85.5743,84.49918591770778,76.70727780672304,79.84138861879474,44.65779729891304,47.791908110984735,40
1999.51,86.3638,85.41907306003868,77.11905796429296,80.61687788004961,44.80219517998907,48.30001509574572,40
2069.82,86.8669,85.89316714789067,77.70464476715203,81.05397517299322,44.839191974897446,48.18852238073863,40
2143.07,85.99389999999998,85.23394030679184,77.400982031065,80.60987474200114,44.6240655647907,47.83295827572684,40
2219.24,85.7941,84.98770892475129,77.3233589660646,80.65688524182339,44.3308236829279,47.664349958686685,40
2296.88,86.8508,85.98490027390878,77.80909029538886,81.40756730883385,44.57733296507493,48.17580997851992,40
2378.91,86.5891,85.92613912779373,77.87517027481435,81.38331343948312,44.542825688310614,48.05096885297938,40
2462.4,86.3663,85.56842572115227,77.69142507077349,81.37506140206348,44.193364319088786,47.877000650378776,40
2548.83,86.9397,85.94702155901055,77.92649018988878,81.77106780477556,44.175953754234996,48.02053136912177,40
2639.65,86.3514,85.47553965453803,77.8698404897345,81.67121575047202,43.80432390406601,47.605699164803525,40
2731.93,86.0364,85.17342638309485,77.7721264273872,81.5049903130625,43.66843607003234,47.40129995570764,40
2828.61,86.7073,85.88062610471835,78.11487488278397,81.97077423563123,43.90985186908712,47.76575122193438,40
2928.22,85.9908,85.30858034985067,77.85284388836646,81.73265513212871,43.57592521772196,47.45573646148421,40
3030.76,86.4098,85.6314758852251,77.94997658528747,81.84490829884223,43.78656758638287,47.68149929993763,40
3137.7,86.5148,85.86841533351121,77.96615693828994,81.75702466756694,44.11139066594427,47.90225839522127,40
3249.02,85.966,85.38828212272581,77.45241634618877,81.34391172185816,44.04437040086765,47.93586577653704,40
3363.28,86.14550000000001,85.3917017169884,77.30745979879394,81.36058610864973,44.031115608338666,48.08424191819445,40
3481.93,86.6836,85.63558407166215,77.1361946784547,81.33868989576466,44.29689417589749,48.49938939320745,40
3604.98,86.3703,85.28553360257928,76.73353971869142,81.03371343561655,44.25182016696273,48.55199388388786,40
3732.42,86.6987,85.42362729606857,76.81390158778747,81.056898984879,44.366728311189576,48.609725708281104,40
3864.26,86.5252,85.3408465714902,76.75213997619284,80.89943701234131,44.441409559148894,48.58870659529737,40
4000.49,86.3282,85.2814039558621,76.677464908233,80.93381559559778,44.347588360264325,48.6039390476291,40
4141.11,86.41519999999998,85.26412848752277,76.53181421880696,80.81387352004835,44.45025496747442,48.73231426871581,40
4287.6,86.4979,85.17045750609243,76.40909588537757,80.62852493182997,44.54193257426246,48.761361620714865,40
4438.48,86.35339999999998,84.90594802491161,76.15297520578758,80.31774214870397,44.58820587620764,48.752972819124025,40
4595.21,86.3248,85.18477233602762,76.36325817268822,80.44947363754811,44.73529869847951,48.8215141633394,40
4756.35,86.7951,85.43698632369103,76.30151050842376,80.6890157245298,44.747970599161235,49.13547581526727,40
4924.8,86.6564,85.28974747821492,76.05882913533841,80.43570922015697,44.854038258057955,49.23091834287651,40
5097.66,87.3659,85.65957338331651,76.13449805239493,80.69226497225367,44.967308411062845,49.52507533092158,40
5277.83,86.5221,85.01173154580938,75.81358894906369,80.17939179047185,44.83233975533753,49.1981425967457,40
5463.87,86.8181,85.3248343302631,75.99173710876009,80.3347796711722,44.9900546590909,49.33309722150301,40
5657.23,86.52560000000001,85.08652807147952,75.72251012578258,80.14029316162723,44.94623490985229,49.36401794569694,40
5856.45,86.4918,85.08549428778574,75.80770171704022,80.15995325295266,44.925541034833074,49.27779257074552,40
6062.99,86.11640000000001,84.90810980633738,75.6832401276829,80.12198502789111,44.786124778446265,49.224869678654485,40
6276.86,86.6158,85.34696925043237,75.95069361271526,80.37625432477377,44.9707149256586,49.39627563771711,40
6498.05,86.7907,85.6533165470986,76.10832509069924,80.4730192364412,45.180297310657394,49.54499145639936,40
6726.56,86.5754,85.5214299763965,76.01728161800588,80.40949728134463,45.11193269505188,49.50414835839062,40
6963.87,86.4345,85.6470095741421,76.24220410137983,80.5844431383527,45.06256643578941,49.40480547276228,40
7209.96,86.73529999999998,85.86290975619295,76.42621218183851,80.84383546504081,45.01907429115214,49.43669757435444,40
7464.84,86.7888,85.88620886897723,76.46692442079942,80.95141541445487,44.934793454522364,49.41928444817782,40
7727.05,86.43129999999998,85.76234500743713,76.43053414639428,80.88778536427206,44.87455964316507,49.331810861042854,40
7999.51,86.4894,85.72924224024233,76.30087863380488,80.80980715854197,44.91943508170036,49.42836360643744,40
8282.23,86.3477,85.80871651750992,76.29543529063372,80.79236346302702,45.016353054482906,49.5132812268762,40
8573.73,86.4409,85.91530675401964,76.26224016285822,80.78223673750263,45.13307001651701,49.65306659116142,40
8876.95,86.5715,86.02327965203511,76.34882946731568,80.93646929926207,45.08681035277304,49.67445018471943,40
9188.96,86.52979999999998,85.89106532799157,76.14770620257767,80.76288240123071,45.12818292676086,49.7433591254139,40
9514.16,86.39639999999999,85.69142490331696,75.88698397073887,80.53962357186944,45.151801331447516,49.80444093257809,40
9849.61,86.39400000000002,85.62230638765455,75.69994624393418,80.50272242712528,45.11958396052927,49.92236014372037,40
10196.8,86.6134,85.62679948568938,75.44307176412661,80.30545031475694,45.321349170932436,50.18372772156276,40
10555.7,86.67560000000002,85.57670061654055,75.17429114463889,80.06053393661712,45.51616667992343,50.40240947190166,40
10927.7,86.4691,85.30090251162537,74.83381853360636,79.81603132263673,45.484871188988635,50.467083978019005,40
11313.0,86.4393,85.06911256015596,74.54904026397062,79.65759406366264,45.411518496493315,50.52007229618533,40
11712.9,86.5604,85.0220514286264,74.33027670695843,79.44293778579657,45.579113642829824,50.69177472166797,40
12126.0,86.4176,84.90893191014302,74.24500872305369,79.34276980316271,45.566162106980315,50.66392318708934,40
