Freq "Sound Power"
20.5078 59.420002394218116
21.9727 57.269289270105546
23.4375 59.9415755552793
24.9023 61.86778347407541
26.3672 64.5019698685034
27.832 67.27567327339382
29.2969 69.55258975364262
30.7617 72.52146522621096
32.2266 75.01205565252751
33.6914 76.97419547050863
35.1562 79.01575934113775
36.6211 80.86332203673624
38.0859 82.59156447272355
39.5508 83.15864680436924
41.0156 83.83699518297938
42.4805 84.77144936991021
43.9453 85.43362284899037
45.4102 85.7016434136409
46.875 85.7658397934258
48.3398 85.89195729632837
51.2695 85.94419004123662
52.7344 85.82196154687696
54.1992 85.74283686440413
55.6641 85.65273343234482
58.5938 85.52209818812098
60.0586 85.54980294802651
62.9883 85.42562275960006
64.4531 85.29193565554519
67.3828 85.235202293297
68.8477 85.2373786324395
71.7773 85.32956700018457
74.707 85.32906313210364
77.6367 85.29641905238692
79.1016 85.29074431538459
82.0312 85.35899202781502
84.9609 85.3357752984647
87.8906 85.33812170249882
90.8203 85.34013350373583
95.2148 85.36206476852024
98.1445 85.47373063205846
101.074 85.47076219843052
105.469 85.44449311464201
108.398 85.45824749549625
112.793 85.49606684169537
117.188 85.34498778192082
120.117 85.4107291377922
124.512 85.33418493074183
128.906 85.29157946197823
133.301 85.25342390174843
139.16 85.10073375393718
143.555 85.05087403473873
147.949 85.09557327398025
153.809 85.02619766461062
159.668 85.08292537783366
165.527 85.08960310789124
171.387 84.94440548126475
177.246 84.8770481084968
183.105 84.78928730881064
188.965 84.7629676606517
196.289 84.92182607294343
203.613 84.75121498421257
210.938 84.7137643084758
218.262 84.68424280732044
225.586 84.66002663479858
232.91 84.4508718066108
241.699 84.2732537293394
250.488 84.37188413499493
259.277 84.41116839311842
268.066 84.1252522079556
276.855 84.01274361005649
287.109 84.11382343956274
297.363 84.02014600610836
307.617 83.99204476189647
319.336 83.80341708428244
329.59 83.64874779233934
341.309 83.41254649163122
353.027 83.62027040595737
366.211 83.93742732141767
379.395 83.98845060125934
392.578 83.50855176131094
405.762 83.3591037310329
420.41 83.7261946685265
435.059 83.40205012204636
451.172 83.2187265635717
465.82 83.44426752675923
483.398 83.22117445633043
499.512 83.22305129411426
517.09 82.81923325850764
536.133 82.61907252707745
555.176 82.67510015403066
574.219 82.56981548014332
594.727 82.2810452020854
615.234 81.85178311636996
637.207 81.95125476071144
659.18 81.86467907222799
682.617 82.09677922308735
707.52 81.64381745593242
732.422 81.43098939409249
757.324 81.37443622908145
785.156 80.61731059145701
811.523 81.1370391743674
840.82 80.30770778541975
870.117 80.5896594700928
900.879 80.34158595101171
933.105 80.51902068259626
965.332 80.78106879844292
1000.49 79.92396395697592
1035.64 79.77487480345854
1072.27 79.70103877817878
1108.89 79.30233516196975
1148.44 79.04160388771935
1189.45 79.06296396937738
1230.47 78.98931917486097
1274.41 78.80069606980648
1319.82 78.34020530148942
1366.7 77.93506393151189
1413.57 77.51554216651444
1463.38 77.33382696338204
1516.11 77.25915775798757
1568.85 76.85717468190099
1624.51 76.37201376396486
1681.64 77.17019949936689
1741.7 77.80559477571389
1803.22 77.70895744868486
1866.21 77.01901997420264
1932.13 76.70727780672304
1999.51 77.11905796429296
2069.82 77.70464476715203
2143.07 77.400982031065
2219.24 77.3233589660646
2296.88 77.80909029538886
2378.91 77.87517027481435
2462.4 77.69142507077349
2548.83 77.92649018988878
2639.65 77.8698404897345
2731.93 77.7721264273872
2828.61 78.11487488278397
2928.22 77.85284388836646
3030.76 77.94997658528747
3137.7 77.96615693828994
3249.02 77.45241634618877
3363.28 77.30745979879394
3481.93 77.1361946784547
3604.98 76.73353971869142
3732.42 76.81390158778747
3864.26 76.75213997619284
4000.49 76.677464908233
4141.11 76.53181421880696
4287.6 76.40909588537757
4438.48 76.15297520578758
4595.21 76.36325817268822
4756.35 76.30151050842376
4924.8 76.05882913533841
5097.66 76.13449805239493
5277.83 75.81358894906369
5463.87 75.99173710876009
5657.23 75.72251012578258
5856.45 75.80770171704022
6062.99 75.6832401276829
6276.86 75.95069361271526
6498.05 76.10832509069924
6726.56 76.01728161800588
6963.87 76.24220410137983
7209.96 76.42621218183851
7464.84 76.46692442079942
7727.05 76.43053414639428
7999.51 76.30087863380488
8282.23 76.29543529063372
8573.73 76.26224016285822
8876.95 76.34882946731568
9188.96 76.14770620257767
9514.16 75.88698397073887
9849.61 75.69994624393418
10196.8 75.44307176412661
10555.7 75.17429114463889
10927.7 74.83381853360636
11313.0 74.54904026397062
11712.9 74.33027670695843
12126.0 74.24500872305369
12553.7 74.17946326857977
12996.1 74.3483740776024
13454.6 74.63093383177646
13929.2 74.64524409444715
14419.9 74.99486247248758
14928.2 75.30315299153483
15455.6 75.34602777140141
16000.5 74.8513688604137
16564.5 74.30959111073813
17148.9 74.03633738419794
17752.4 74.05448489325228
18379.4 74.10517876730141
19026.9 73.72309463316223
19697.8 72.71750540170893
19999.5 72.19134237456788
