Freq,Floor Bounce,Ceiling Bounce,Front Wall Bounce,Side Wall Bounce,Rear Wall Bounce,Total Early Reflection
20.5078,58.89760170591988,57.37614899593059,58.39634584088431,58.140301320561335,57.23497472810105,58.05408868763418
21.9727,60.81769941117122,59.53452469852617,60.392958600394465,60.1384035940215,59.316878216000205,60.074980911211966
23.4375,62.24898105530637,61.22428013037241,61.92689843886481,61.68175638054541,60.98320437214049,61.63725999891582
24.9023,63.126343789010704,62.18937981202704,62.83593299320023,62.61194202974798,61.962370388745285,62.56569461390035
26.3672,63.731140896670794,62.79771403508427,63.41574512223873,63.22757823627765,62.73049262020655,63.19692092643261
27.832,64.38303238702059,63.44769238205417,64.03767986591662,63.92406019837492,63.59826416522705,63.890767680850686
29.2969,65.51920668355156,64.67593755419371,65.23015561784291,65.05870493851485,64.66432458406946,65.04213223693601
30.7617,66.19927164141033,65.31972076751755,65.90901847705005,65.71379905658121,65.19380126342996,65.6829939012929
32.2266,66.74100161414356,65.88899066897483,66.45278113000896,66.27792262290411,65.82913788742938,66.25158189979906
33.6914,67.38592365510594,66.55149386564402,67.09200992423199,66.94373374448301,66.60091396496026,66.92602468216985
35.1562,68.09768168130127,67.22696000693789,67.79173420118339,67.63960542518261,67.27813199106312,67.61904562879339
36.6211,68.73289467779952,67.90570133499601,68.42794332377342,68.307366411818,68.0691074715718,68.29812615817865
38.0859,69.13131715526403,68.29625774290184,68.88069302765398,68.64007868391133,68.03192794882843,68.61388980933603
39.5508,69.48319414327428,68.6118567063198,69.19594511227079,68.99602928838111,68.39850814619273,68.95467675513152
41.0156,70.22060830041782,69.32035588524447,69.92064156169288,69.71895429134294,69.11541400957874,69.67753452417091
42.4805,70.60723660297101,69.8144964945407,70.31149000103441,70.2328513341768,70.12204022564856,70.22526574716504
43.9453,70.78766403584012,69.93873817935244,70.47260727601338,70.38514803810533,70.26448802647833,70.37851748782681
45.4102,71.35263928088199,70.57181145668636,71.07388211141826,70.95073549747151,70.71659753660497,70.94176510136067
46.875,71.85864795599059,70.98695380989976,71.56720588149348,71.3736945710626,70.88697497153132,71.34972764064226
48.3398,72.30504038522554,71.45533639375377,71.99138777309413,71.866124954641,71.51575107747117,71.83810996129635
51.2695,72.56732604264614,71.74325912267311,72.18436889834896,72.24921394474724,72.60051115007177,72.27990335662957
52.7344,73.3369584314282,72.54485798082929,73.03312120963024,72.963398998832,73.04907755848119,72.9928796294782
54.1992,74.05940157450712,73.13242436499783,73.83113810109298,73.48489825806134,73.01208313226009,73.52235908762364
55.6641,74.8799930033597,74.01604886860612,74.74924854115251,74.197183853203,72.75547950128085,74.18193006700804
58.5938,74.84341351912592,73.96308553333625,74.5442350107848,74.39277983880956,73.83623311654746,74.33185186998142
60.0586,75.09304758401474,74.33402772941675,74.84044390649693,74.66244813127159,74.1559077228281,74.63031708566506
62.9883,75.67498788576852,74.9084274441403,75.44143704724068,75.21162145887003,74.59607243375108,75.18317339756405
64.4531,75.80885682034497,74.99664825278877,75.5312244440506,75.38177218166406,74.9506130006149,75.34599602491232
67.3828,76.30873428270876,75.44046086842982,75.98487712378692,75.88760594581755,75.68126501777742,75.87040777170772
68.8477,76.57569638155736,75.72050781379438,76.26195397330311,76.1518925970789,75.95652852605488,76.1428736574962
71.7773,77.10081505945607,76.22278960243084,76.79469239946206,76.63229513768015,76.32801657931714,76.62740078037658
74.707,77.53989054231043,76.70563053865123,77.24066850835804,77.10614208458907,76.88095253938643,77.10428773445976
77.6367,77.94833758826519,77.08098229033169,77.6437903275047,77.48315114962683,77.28025985763135,77.4975924315653
79.1016,78.21255032560431,77.31893768223775,77.90503483286359,77.71220023075479,77.42719471858352,77.72730479674064
82.0312,78.79969550843262,77.88859674272523,78.49217593409149,78.27862676671926,77.87420971967866,78.28128907214696
84.9609,78.86259300875052,77.9939290227154,78.55114931115911,78.41396477557225,78.20380891594863,78.41526021504777
87.8906,79.48446684346811,78.49696427487913,79.17273608981901,78.88613169609202,78.53568030064012,78.9316641672979
90.8203,79.78327773174333,78.79022636735661,79.46611026403774,79.19786993162764,78.81600813883811,79.22751696322221
95.2148,80.53266590690514,79.53855073957233,80.22080179380907,79.9199307644636,79.32770819353662,79.9300932850469
98.1445,80.67702164022768,79.80918414677085,80.41132215344908,80.1463797200708,79.69030637315903,80.16239656843292
101.074,80.6900197372652,79.84590148995103,80.45843464755218,80.20667378621384,79.79138658477304,80.21231546260766
105.469,81.03473934993863,80.11747689520853,80.77218776331397,80.49304964639371,80.09499999631778,80.51799408092559
108.398,81.39999003471488,80.48936052076627,81.13932806636437,80.82151014747235,80.31873316004233,80.85219753699262
112.793,81.50540677801237,80.64592986740024,81.25392773959128,80.99561015518282,80.76133738866626,81.04394797951343
117.188,81.96560732751642,80.90748907534832,81.65220214404088,81.29105985928311,80.8869519601211,81.36115903807604
120.117,82.27463941739336,81.25734511568733,81.97349595115439,81.56599430942471,80.93973986182121,81.6287067733353
124.512,82.45351098820333,81.43687425701661,82.15751093804359,81.78335895019988,81.17469940661206,81.82603023278848
128.906,82.67833418083568,81.64552949108106,82.4004948855827,82.0079032610221,81.33735181992587,82.04113862324141
133.301,82.7629648295504,81.72817118352522,82.4804422645398,82.12592388979445,81.47323474527077,82.13978785702521
139.16,82.78273301296139,81.68086540543399,82.4273408534399,82.13524231237116,81.91056512451108,82.2046870669209
143.555,83.1318327646786,81.92078443481972,82.76217447768362,82.32895007864845,81.98850130503502,82.45129846247222
147.949,83.3504973853317,82.06079116671685,83.01756574607899,82.50336324997085,81.83454020392755,82.59060980197457
153.809,83.33068744345842,82.13088061562532,83.04573542888501,82.54168285982492,81.91198100717445,82.62518270795948
159.668,83.46421612105964,82.33531367097378,83.19821226473377,82.70398560021383,82.04995602763141,82.78201098322417
165.527,83.41071768391004,82.28668268494877,83.13045208740738,82.6177173470012,82.13196663494743,82.74307852663873
171.387,83.51121085553925,82.23780064437686,83.18451281359445,82.63044522599164,81.95609598267355,82.74246335021665
177.246,83.45756072131593,82.17378593027992,83.14789858634252,82.59078821368668,81.97840529128007,82.70623363274693
183.105,83.4949835020817,82.23943863687852,83.21197827864253,82.57630185931144,81.86151086064703,82.71882431089287
188.965,83.38111325791577,82.07585218632039,83.11861610466745,82.46618575475286,81.74062245316794,82.60027958730288
196.289,83.59737075846648,82.38420274203418,83.36585442883079,82.62578182452533,81.73387702823041,82.79339612048756
203.613,83.44608113343985,82.21455002939001,83.20494984492261,82.44463592114826,81.57279415468004,82.62930241550312
210.938,83.31251113023346,82.1724038609746,83.12232771613115,82.41606752525969,81.41205108622727,82.54012614137584
218.262,83.26128869574757,81.89935330687126,82.96574968674332,82.16602584404133,81.46374530131457,82.40280313824854
225.586,83.3665696358385,82.00693818629054,83.16322572870486,82.26477371009672,81.18788902972331,82.46951486931864
232.91,83.18352547297012,81.86073952886304,82.9590933874631,82.0815124073666,80.86348343731554,82.26739552418977
241.699,83.07076678267767,81.41971653628688,82.6755561549977,81.84420922483724,80.4765251875785,81.99281108654665
250.488,83.47784426153567,81.3006847193037,83.014882488906,81.88819400478215,80.38237161608576,82.15651562734378
259.277,83.1539762480768,81.40595837373084,82.84271283949849,81.82237643885362,80.34550111080291,82.02925618783159
268.066,82.94671564749427,81.05635257864587,82.6388330613084,81.55522045770128,79.7996302789815,81.7422661243133
276.855,82.86787764380496,81.23378545857726,82.73946128413313,81.70739561170186,79.75793451020236,81.80156172277248
287.109,82.59288268936832,81.17207170782063,82.44086066095251,81.56662152371534,80.00050933157549,81.65258948105169
297.363,82.54369732736991,81.72389596299693,82.6170846977331,81.58372263938709,79.683123290237,81.7493577563546
307.617,82.65314913930767,80.98854847274082,82.24237461265447,81.24447292866144,79.57162125735358,81.46839237945694
319.336,82.2532968009598,80.86159526108956,82.0366961442216,80.90061943025486,79.13654852851236,81.17138805387476
329.59,82.26587962318078,80.49357359301112,81.87770052127134,80.82250402221895,78.93438727732777,81.02922315418853
341.309,82.47582633070719,80.04254708539058,81.96431481731192,80.60755475539882,78.44100191861301,80.93332263001845
353.027,82.07876179418408,79.98762155557655,81.85214321286124,80.85205541343888,78.08707510948314,80.79426748946996
366.211,82.46277068327176,80.63961901254102,82.26288171898214,81.08416116451501,77.87509076390668,81.14090024969407
379.395,82.02029076454723,79.92607708270664,81.55926428888243,80.79099918958109,78.3733677563024,80.71496126476715
392.578,81.25322851632099,79.08645864560154,81.01337550206458,79.991774474926,77.74910213297939,80.00110178631444
405.762,81.54748293799192,79.07914789442167,81.60895454047515,79.61261077353014,77.35712732534815,80.12350532764486
420.41,81.45848363965196,79.77629940975116,81.5576885592249,80.26896832738554,77.45197584509874,80.33453287059704
435.059,81.45542604159236,79.69670142885552,81.51965834081254,80.00518092646071,77.48274286872898,80.26198986202257
451.172,81.94339829349599,79.50535788509681,81.7389473762034,80.39733207567649,76.63335221857685,80.41832430064777
465.82,81.0731481616773,79.15418589117023,81.31903074632807,79.95816546909141,76.74016875306796,79.93059219474573
483.398,81.02742443099363,79.14167395696789,80.95157518406154,79.70566423048099,76.30891591800237,79.72615883372674
499.512,81.63307439761532,79.33390376656249,81.357110850728,79.63442836839367,76.23652941514575,80.01800979743304
517.09,81.33210825037253,78.97017590049627,81.30135612974179,79.50642379422914,76.62621251650408,79.86742611939405
536.133,81.4245035733618,78.68574467889772,81.82512572976817,79.79781766949982,76.03234617021086,80.00435372999775
555.176,81.45753505520182,78.56261013981636,81.54323106074412,80.17185539700615,75.85077261464744,79.97273851079753
574.219,82.30769917081112,79.291699317301,82.23806712261567,80.72931605940464,76.04077854950258,80.65182616740023
594.727,81.95901422430225,79.80897538488698,82.47800839454224,80.64491408778079,76.81936420556043,80.74606575782362
615.234,82.54301153149277,79.88389122656292,82.90678469479826,81.37121110475653,76.88915079439873,81.19408445841832
637.207,83.2428028300913,80.04236561492293,83.25889920509623,81.28170766988418,77.56623252994451,81.55450982053001
659.18,82.98958053133948,80.94076217413544,83.76696557167644,81.68049150729702,77.66674796421063,81.85816204668991
682.617,83.77878741589575,81.17607673962236,84.22375537218568,81.97693218949443,78.01702750149748,82.33137684629844
707.52,83.62065156312354,81.26898854404713,84.39241755824118,81.85056898104345,77.25551417445821,82.28062600306806
732.422,82.93350679887786,81.71658884110478,84.14695021427839,81.44399743506976,77.44095508322982,82.03969958496592
757.324,83.47571286555161,81.61545627238033,83.87533083652639,81.28149527109983,76.96475306991812,82.01833824588057
785.156,82.77361585753587,82.00341063897991,83.54406468734402,80.60220907718583,76.71911105437188,81.67916384051294
811.523,82.79501221788578,82.12900932743761,83.61533710245523,80.50068536237183,76.16743329131359,81.68549090256055
840.82,82.14652842098242,81.90423753687708,83.6252347918288,80.49649543457706,76.03704587494761,81.47147801881928
870.117,81.57035599345177,81.70903414958839,83.75097240675498,80.5653261313442,75.4796666167474,81.32380072482552
900.879,81.95853210646659,81.52689203402396,83.44972414022406,80.69473276708683,74.93959577303876,81.2641917055589
933.105,81.43383371414966,81.45416476638714,83.32336664984867,80.49401238055658,75.46621324619763,81.07950400674068
965.332,80.95341678765394,80.57372199763108,83.25512804945376,80.18103634705498,74.06086932449773,80.6445857366721
1000.49,80.17249936678466,80.56253780038652,82.88115633033257,79.86377887426603,74.64736641387366,80.31884945933297
1035.64,79.53847642437516,80.25294270589659,82.28599739728443,78.86308323258486,72.65366588276468,79.64338848224214
1072.27,78.59767197735447,79.84168159404193,81.6814601168324,78.45942642152541,72.48236739693283,79.07360584394137
1108.89,78.19444430689019,80.13981743867065,81.80468950135617,77.75555019038379,71.46423297322475,78.96997991900328
1148.44,78.0707107305418,79.23216712958386,81.71890333964127,78.28738577218104,71.3838180717999,78.78115973691074
1189.45,78.59033948026006,79.11393449063402,81.80525929737912,78.23359632741922,71.77747676743486,78.8874789221483
1230.47,78.91240464985472,79.41117808403824,81.6682567794148,77.54291018141025,71.52774957035814,78.84239733055814
1274.41,78.0496701437033,79.12572700822878,81.59115499679045,77.6902208125972,71.11967330332281,78.59174687083741
1319.82,77.84015589944173,78.16615379478951,81.12744546238858,77.08977840911801,70.27558617761231,78.03230997491299
1366.7,77.22701608973662,79.50526683477277,80.54298289819235,76.84189774313636,69.86054304810936,77.9708782508205
1413.57,77.7188054541714,79.7146190551674,80.76861817622971,76.81632020739012,69.57180981924266,78.18549369516971
1463.38,77.32482438872195,78.25479167644382,81.43928327167676,77.84182299960675,70.85235189711523,78.23760235978445
1516.11,77.86841370927591,78.45741702893353,81.68665042523796,77.53663219625828,70.63064747520501,78.41417906238799
1568.85,77.3903913860888,78.5737636503365,81.3096795512468,76.80380728017879,70.11635645007975,78.06469932077952
1624.51,76.93640769197089,77.63898890990063,80.56075175707822,76.13715996961598,67.70331563511121,77.29515601721609
1681.64,77.0766498307185,77.22194646584067,80.9370350248516,76.38362934297928,68.61968859025022,77.46015584668795
1741.7,77.30499348590602,75.97844183181974,81.49727959187763,77.29369839178155,69.86886140717039,77.75059269775667
1803.22,77.61179096954699,76.86772790633887,81.98835033487488,77.43971225869939,70.04039529866188,78.19455504442955
1866.21,77.26768260825628,75.68793425769405,80.96700826405521,76.86996827195996,69.61249646358677,77.37323138474116
1932.13,76.46921389508766,74.5487292367329,80.5732102302815,76.72649702980782,68.98711643824362,76.84743927646437
1999.51,76.92455326534306,73.11156876019838,81.2904537809974,77.77936266025,69.513679644639,77.37571790973654
2069.82,76.99272312494179,72.2363256955104,81.32394100386087,78.2138742415243,69.89358077891497,77.45778378979021
2143.07,76.68186580734,73.03992183867304,80.63170288608757,77.84497456220039,69.10641590818852,77.01387635062225
2219.24,76.81439733214863,70.62934772639878,80.8191462830897,77.66914489757553,68.65188058121994,76.92208464691508
2296.88,75.62577270866986,67.02752080100794,81.66891915163815,78.31895835633226,69.40201396476708,77.24343824719858
2378.91,76.0167956600797,67.68478968936674,81.42237548510506,78.45380863995375,69.45985049316816,77.21745306102463
2462.4,75.08931556057219,70.46280387308228,80.86354255963087,78.3958461460218,69.87425635522519,76.88836755333737
2548.83,75.24905061698165,72.47139903570691,81.11200405040702,78.91837138692405,69.46148294253638,77.27743559417573
2639.65,75.18376992440194,73.65676493286486,80.62824575428976,78.58144927117343,69.20584260499528,77.02823039804939
2731.93,75.83635416932928,74.89978988325831,80.79211404463648,78.57797599500798,68.9888537941909,77.31183110738478
2828.61,75.61698303168136,75.69632183926763,81.22352780322684,78.8992856025816,68.98969347036612,77.65892433052358
2928.22,75.7522533902945,76.4522270710125,80.41605416069018,78.11341126656889,68.14308255774968,77.21188574812997
3030.76,76.29968289879514,76.96896491220856,81.29410919519228,78.69820815336406,68.21050680687489,77.89374098059014
3137.7,76.43062481463457,77.47383678293801,81.50244067773731,79.28065596750282,68.66199157616366,78.23831522734379
3249.02,76.81903314386372,78.16559446589329,81.48071208388146,78.99494009059353,67.60219838331632,78.31673605400616
3363.28,76.30668765763855,78.69372501298562,81.39898393306002,79.22600062264854,68.05587674670618,78.38623616823013
3481.93,77.16999717621056,79.69675393842097,81.78946551411383,79.39732912937377,68.81635377408934,78.93230941169189
3604.98,78.9150357293573,80.24958190091739,82.07323244447231,78.94437873850832,68.73651967726423,79.35397701422158
3732.42,80.47861984947167,80.56496189847995,82.41467921940144,79.36941159347963,68.90740069454239,79.94908882648899
3864.26,81.43274996120515,80.51361752263121,82.6557408106376,79.68261055765961,69.64707446071652,80.31917361120612
4000.49,81.57998823501833,79.93719753735397,82.79447447585339,79.90900944281292,69.15146379171937,80.3253773330288
4141.11,82.25071869723011,80.04181783112618,82.67946726949353,80.10140544273673,69.78757192894618,80.53916408000765
4287.6,82.6449028413443,79.84579122551033,82.59340759138017,80.38741259364151,68.9376295454171,80.63879070730998
4438.48,82.8479266087905,80.35985453716128,83.289008000824,80.58022001214256,69.99725591840337,81.0642379301668
4595.21,82.91154549432879,79.81073271069947,83.72778307046407,80.52963430956662,69.13496453266106,81.12826455815848
4756.35,83.0983117158449,80.43711020589886,83.69598044756931,79.90630883412818,68.3837252164327,81.16373560013406
4924.8,83.0141232375564,80.12676574438198,83.16329426119003,79.90319634295845,69.09557918367913,80.90769295527919
5097.66,83.17433424921794,80.11603001418531,84.17678226211294,79.74668194361817,68.54793065067317,81.29382187649185
5277.83,83.27535259470983,80.13592775870502,83.02439902082621,79.79400662326546,69.14476840693045,80.93418930225033
5463.87,83.0441878477152,79.18942404601832,83.25059057202904,80.10701230098338,68.84796471676414,80.83562166550115
5657.23,82.34203106611913,79.35320211595216,83.3918063692049,79.25884883038299,68.54658722511004,80.54972533242241
5856.45,82.24005686147855,79.35661740539574,83.24193839872866,79.96737412360687,69.01962159981548,80.5836142624917
6062.99,82.83504357378789,79.23004527289731,82.93229563784035,79.47626103549852,68.13998141051506,80.5494915685881
6276.86,81.82374947986935,78.92474647340121,82.67586742840741,79.34892102849408,67.82982799541331,80.06531377773298
6498.05,80.25597571729364,78.8007898269404,82.42021484963651,78.94192776911679,67.25216088219821,79.44702589161628
6726.56,79.80326314330311,78.42696447486891,81.75905699216705,78.37650288440078,67.10849631818452,78.91057067913955
6963.87,79.60754234476723,78.42842641305046,80.85996054488292,77.8624221348815,66.81208787782354,78.43634863960968
7209.96,79.17611395292184,78.43909901728132,81.03825467956612,78.0166690897026,66.57388976268165,78.41881235473556
7464.84,79.07260112440507,78.49860765906116,81.81276585909299,78.07997955894417,65.9838201393219,78.71082525218087
7727.05,79.67224305345532,78.54442936550963,82.37467936654852,77.82365769310643,65.17668669691373,79.04068134368906
7999.51,80.15194429305957,78.62585692316922,82.70196323737238,77.53037625662003,63.758967821185806,79.26069417890714
8282.23,80.37665951297159,78.4897952993031,82.82306786845251,76.79227761845047,61.68611923194443,79.24797825080351
8573.73,80.81684635610567,78.42560602312332,82.67648418630746,76.2906290599662,60.17128683764092,79.23342808104051
8876.95,79.9903598610976,78.07520308039724,82.59592933386695,75.84099341921267,59.270300194082594,78.8649133643974
9188.96,80.6288842474182,77.67947486271638,82.28582301090096,75.56570178245694,57.808678695046765,78.80910857773856
9514.16,80.76242784156256,77.39016087925418,82.16620533929826,75.10572303587676,56.88542869564732,78.71085842935713
