Freq "On Axis"
22.4 49.48227848101264
23.0 50.282278481012625
23.6 50.98227848101264
24.0 51.68227848101263
25.0 52.382278481012634
25.8 53.08227848101264
26.5 53.68227848101263
27.2 54.38227848101265
28.0 55.08227848101264
29.0 55.68227848101263
30.0 56.382278481012634
30.7 56.98227848101264
31.5 57.68227848101263
32.5 58.282278481012625
33.5 58.98227848101264
34.5 59.58227848101264
35.5 60.18227848101263
36.5 60.88227848101262
37.5 61.48227848101264
38.7 62.08227848101264
40.0 62.782278481012625
41.2 63.38227848101262
42.5 64.08227848101264
43.7 64.68227848101263
45.0 65.28227848101263
46.2 65.88227848101262
47.5 66.58227848101264
48.7 67.18227848101263
50.0 67.68227848101263
51.5 68.28227848101265
53.0 68.88227848101263
54.5 69.38227848101265
56.0 69.88227848101263
58.0 70.28227848101264
60.0 70.78227848101265
61.5 71.08227848101264
63.0 71.48227848101263
65.0 71.78227848101264
67.0 72.28227848101263
69.0 72.28227848101263
71.0 72.58227848101264
73.0 72.68227848101263
75.0 72.88227848101263
77.5 72.98227848101264
80.0 73.08227848101264
82.5 73.18227848101263
85.0 73.28227848101265
87.5 73.48227848101263
90.0 73.58227848101264
92.5 73.78227848101264
95.0 73.98227848101263
97.5 74.28227848101264
100.0 74.68227848101263
103.0 74.98227848101263
106.0 75.28227848101264
109.0 75.68227848101263
112.0 75.88227848101262
115.0 76.08227848101264
118.0 76.28227848101264
122.0 76.48227848101263
125.0 76.58227848101264
128.0 76.58227848101264
132.0 76.58227848101264
136.0 76.58227848101264
140.0 76.48227848101263
145.0 76.38227848101263
150.0 76.28227848101264
155.0 76.18227848101263
160.0 76.08227848101264
165.0 75.88227848101262
170.0 75.68227848101263
175.0 75.38227848101263
180.0 75.08227848101264
185.0 74.88227848101263
190.0 74.58227848101264
195.0 74.28227848101264
200.0 74.08227848101264
206.0 73.98227848101263
212.0 73.78227848101264
218.0 73.48227848101263
224.0 73.18227848101263
230.0 72.88227848101263
236.0 72.68227848101263
240.0 72.58227848101264
250.0 72.58227848101264
258.0 72.58227848101264
265.0 72.48227848101263
272.0 72.38227848101263
280.0 72.28227848101263
290.0 72.18227848101263
300.0 72.18227848101263
307.0 72.08227848101264
315.0 71.98227848101261
325.0 71.98227848101261
335.0 71.98227848101261
345.0 72.08227848101264
355.0 71.98227848101261
365.0 71.88227848101265
375.0 71.78227848101264
387.0 71.68227848101263
400.0 71.48227848101263
412.0 71.38227848101263
425.0 71.38227848101263
437.0 71.48227848101263
450.0 71.58227848101264
462.0 71.68227848101263
475.0 71.58227848101264
487.0 71.48227848101263
500.0 71.68227848101263
515.0 71.88227848101265
530.0 71.88227848101265
545.0 71.98227848101261
560.0 71.88227848101265
580.0 71.88227848101265
600.0 72.08227848101264
615.0 72.18227848101263
630.0 72.48227848101263
650.0 72.98227848101264
670.0 73.58227848101264
690.0 73.48227848101263
710.0 70.98227848101263
730.0 67.98227848101264
750.0 69.28227848101264
775.0 71.88227848101265
800.0 73.18227848101263
825.0 73.88227848101263
850.0 74.08227848101264
875.0 74.28227848101264
900.0 74.08227848101264
925.0 73.78227848101264
950.0 73.58227848101264
975.0 73.18227848101263
1000.0 72.48227848101263
1030.0 72.48227848101263
1060.0 72.58227848101264
1090.0 71.98227848101261
1120.0 71.18227848101263
1150.0 70.68227848101263
1180.0 70.28227848101264
1220.0 69.68227848101263
1250.0 69.78227848101263
1280.0 70.18227848101263
1320.0 70.58227848101264
1360.0 70.48227848101264
1400.0 70.18227848101263
1450.0 70.18227848101263
1500.0 70.18227848101263
1550.0 70.28227848101264
1600.0 70.78227848101265
1650.0 70.78227848101265
1700.0 71.38227848101263
1750.0 71.78227848101264
1800.0 71.88227848101265
1850.0 71.28227848101264
1900.0 71.68227848101263
1950.0 72.08227848101264
2000.0 71.58227848101264
2060.0 70.88227848101262
2120.0 70.48227848101264
2180.0 69.98227848101263
2240.0 69.68227848101263
2300.0 69.98227848101263
2360.0 70.38227848101263
2400.0 70.28227848101264
2500.0 70.08227848101264
2580.0 69.18227848101263
2650.0 69.58227848101264
2720.0 69.98227848101263
2800.0 71.48227848101263
2900.0 70.38227848101263
3000.0 69.08227848101264
3070.0 68.58227848101264
3150.0 68.98227848101263
3250.0 68.38227848101262
3350.0 68.08227848101264
3450.0 67.78227848101264
3550.0 67.88227848101263
3650.0 69.38227848101265
3750.0 70.58227848101264
3870.0 71.38227848101263
4000.0 71.88227848101265
4120.0 72.48227848101263
4250.0 71.28227848101264
4370.0 71.18227848101263
4500.0 71.78227848101264
4620.0 71.88227848101265
4750.0 72.08227848101264
4870.0 72.18227848101263
5000.0 72.48227848101263
5150.0 72.58227848101264
5300.0 72.78227848101264
5450.0 73.58227848101264
5600.0 73.78227848101264
5800.0 73.68227848101263
6000.0 73.08227848101264
6150.0 71.98227848101261
6300.0 72.08227848101264
6500.0 71.18227848101263
6700.0 72.48227848101263
6900.0 73.68227848101263
7100.0 73.58227848101264
7300.0 72.58227848101264
7500.0 72.18227848101263
7750.0 72.68227848101263
8000.0 73.08227848101264
8250.0 73.68227848101263
8500.0 73.48227848101263
8750.0 73.18227848101263
9000.0 72.88227848101263
9250.0 72.28227848101263
9500.0 71.78227848101264
9750.0 71.38227848101263
10000.0 72.28227848101263
10300.0 71.98227848101261
10600.0 71.08227848101264
10900.0 72.08227848101264
11200.0 73.18227848101263
11500.0 73.68227848101263
11800.0 74.18227848101263
12200.0 73.88227848101263
12500.0 74.08227848101264
12800.0 74.48227848101261
13200.0 75.28227848101264
13600.0 74.78227848101263
14000.0 74.28227848101264
14500.0 74.08227848101264
15000.0 71.58227848101264
15500.0 68.38227848101262
16000.0 68.18227848101263
16500.0 67.58227848101264
17000.0 62.48227848101264
17500.0 58.48227848101264
18000.0 60.18227848101263
18500.0 55.282278481012625
19000.0 56.282278481012625
19500.0 53.48227848101264
