Freq "Floor Bounce"
20.5078 77.9585230360841
21.9727 79.7077750910306
23.4375 81.59629407111336
24.9023 83.64352320072014
26.3672 85.19815368367212
27.832 86.8277972709657
29.2969 88.05756908956238
30.7617 89.42651455276928
32.2266 90.73063842594446
33.6914 91.95434231974384
35.1562 93.28097093370093
36.6211 94.29995200464167
38.0859 95.29621047184604
39.5508 95.92466154918438
41.0156 96.3935763711573
42.4805 96.60475054616563
43.9453 96.66658553513055
45.4102 96.64238279648907
46.875 96.56597652313332
48.3398 96.44555572442877
51.2695 96.31103933300047
52.7344 96.28179559792797
54.1992 96.27435623831077
55.6641 96.2641258241163
58.5938 96.32491618278297
60.0586 96.40720194975552
62.9883 96.53093686190401
64.4531 96.59121506273551
67.3828 96.71875983623724
68.8477 96.73956173613934
71.7773 96.74765189264593
74.707 96.87338615204818
77.6367 96.88715991536054
79.1016 96.93227954405081
82.0312 96.96402457142884
84.9609 97.06265503619888
87.8906 97.14217903167786
90.8203 97.1944125175164
95.2148 97.23577283320118
98.1445 97.22488204675149
101.074 97.28887064402838
105.469 97.39776245588904
108.398 97.2340488313188
112.793 96.93320973012034
117.188 97.25614914267625
120.117 97.25649482177825
124.512 97.41900004842103
128.906 97.17585574435472
133.301 97.27216427414449
139.16 97.20065778317517
143.555 97.23597808294866
147.949 97.0914784410054
153.809 96.72331810225651
159.668 96.38525590969417
165.527 96.67158858797917
171.387 96.84749327250616
177.246 96.4178774366993
183.105 96.56674645379685
188.965 96.76054635934604
196.289 96.57955736777107
203.613 96.38898907632463
210.938 96.43047028316674
218.262 96.55104174731768
225.586 96.3901744150911
232.91 96.30845551412922
241.699 96.40450021617168
250.488 96.18417722743818
259.277 96.70027617385787
268.066 96.80750541405006
276.855 96.51111792947982
287.109 96.40660752379043
297.363 96.47768995917222
307.617 96.77411270485406
319.336 96.55434065853744
329.59 96.53812902923518
341.309 96.60673019736161
353.027 96.69109525857421
366.211 96.34938089880971
379.395 96.63805698582813
392.578 96.25647169247371
405.762 96.75993806103726
420.41 96.27820957339485
435.059 96.44098100106099
451.172 96.27008494456068
465.82 96.41614497795504
483.398 96.5644611391511
499.512 96.29559546429559
517.09 96.5192029940225
536.133 96.40043886321469
555.176 95.8092210799671
574.219 96.58858372301397
594.727 95.03147783717617
615.234 95.55699012689875
637.207 95.60080064820563
659.18 94.96000841609857
682.617 94.63289398507665
707.52 94.82273666437538
732.422 94.46473287884713
757.324 94.94496293954847
785.156 94.29267434529767
811.523 94.20221302550384
840.82 93.81941854705632
870.117 94.20454125004771
900.879 94.41972545279748
933.105 95.07768552902569
965.332 94.79545355727952
1000.49 95.6921739111002
1035.64 94.90082375614978
1072.27 96.02783081887365
1108.89 96.40058142632601
1148.44 96.42030513436342
1189.45 96.19884335746089
1230.47 96.29115862148464
1274.41 95.84549091202607
1319.82 95.98948996426329
1366.7 96.1808310508516
1413.57 96.19328347702229
1463.38 96.13552770348133
1516.11 95.47830791018946
1568.85 94.81105989808827
1624.51 94.81847919250656
1681.64 94.27148363526241
1741.7 92.36661311016059
1803.22 91.96123151505044
1866.21 91.37787420771463
1932.13 89.69288030739996
1999.51 89.14041330537093
2069.82 88.91711731438502
2143.07 88.2417162702526
2219.24 87.38117316814498
2296.88 88.33663157145104
2378.91 88.30314623038483
2462.4 88.4889691389413
2548.83 89.2415123859965
2639.65 90.60861120405498
2731.93 91.13901597439103
2828.61 91.91694715363613
2928.22 92.76279962464106
3030.76 93.33258547064288
3137.7 93.79635003634515
3249.02 94.39114574699089
3363.28 94.8291597624743
3481.93 95.22317389496524
3604.98 94.89137631497864
3732.42 94.66079289020152
3864.26 94.17178475068418
4000.49 94.23897103668419
4141.11 94.06414660630614
4287.6 94.18957352689513
4438.48 94.17322161051783
4595.21 93.86848584004817
4756.35 94.0076864222719
4924.8 94.10378794599725
5097.66 93.4788289425188
5277.83 93.24471663941048
5463.87 93.37954726617808
5657.23 93.59076024919743
5856.45 93.40870692759455
6062.99 93.88412325383571
6276.86 94.17808437568532
6498.05 94.16370927739459
6726.56 94.35775342055766
6963.87 94.61792762244893
7209.96 95.08095207645263
7464.84 95.0177230556347
7727.05 94.73764865898293
7999.51 94.62367517762736
8282.23 94.38750311999617
8573.73 94.21498109704642
8876.95 94.32928797094179
9188.96 94.48192574164077
9514.16 93.99857781285138
9849.61 93.70963217508995
10196.8 93.46647817363
10555.7 93.76270587050841
10927.7 93.49522519841024
11313.0 93.45985618945589
11712.9 93.29699972080314
12126.0 93.16117582748814
12553.7 92.91862389589207
12996.1 92.67039560738856
13454.6 92.30242178514835
13929.2 92.27398226411417
14419.9 92.09218368241572
14928.2 91.79128849265508
15455.6 91.53773453755714
16000.5 90.68736260938529
16564.5 89.12475099838812
17148.9 87.9859333572437
17752.4 88.74942796149396
18379.4 89.45155752762383
19026.9 89.4101776214914
19697.8 89.74809690107153
19999.5 89.97122928235602
