Freq "Floor Bounce"
22.4 28.70324368610285
23.0 30.60324368610283
23.6 32.14071197781486
24.0 33.37872128675231
25.0 34.61727460844331
25.8 36.15057653828602
26.5 37.45637481798208
27.2 38.71727460844333
28.0 40.017274608443316
29.0 41.41727460844332
30.0 43.05057653828602
30.7 44.07872128675227
31.5 45.31231901590861
32.5 46.47460389427475
33.5 47.903243686102854
34.5 49.40078849843053
35.5 50.36468176005154
36.5 51.39405321406585
37.5 52.758716730644196
38.7 53.92390458479154
40.0 54.755838589935266
41.2 55.75583858993525
42.5 56.85362644767122
43.7 57.653626447671215
45.0 58.28909345440691
46.2 59.189093454406915
47.5 59.85757764138873
48.7 60.48982483324595
50.0 61.05362644767122
51.5 61.55362644767122
53.0 62.053626447671206
54.5 62.41795813433045
56.0 62.81795813433047
58.0 63.15125484331243
60.0 63.38281640648556
61.5 63.74819767349736
63.0 63.94819767349736
65.0 64.18051432989866
67.0 64.41333666232302
69.0 64.57974683544303
71.0 64.74666868660354
73.0 64.84666868660354
75.0 65.013336662323
77.5 65.08051432989865
80.0 65.11333666232302
82.5 65.11333666232302
85.0 65.08051432989865
87.5 65.04666868660352
90.0 65.013336662323
92.5 64.97974683544304
95.0 64.97974683544304
97.5 65.07974683544303
100.0 65.24666868660353
103.0 65.54666868660354
106.0 65.94666868660353
109.0 66.44666868660353
112.0 67.01333666232301
115.0 67.48051432989865
118.0 67.88051432989866
122.0 68.24666868660354
125.0 68.613336662323
128.0 69.04666868660354
132.0 69.44666868660354
136.0 69.84666868660354
140.0 70.08051432989865
145.0 70.18051432989866
150.0 70.14666868660355
155.0 70.04666868660352
160.0 69.91409824412806
165.0 69.81409824412806
170.0 69.74819767349736
175.0 69.74819767349736
180.0 69.74819767349736
185.0 69.84819767349735
190.0 69.78281640648557
195.0 69.78281640648557
200.0 69.78281640648557
206.0 69.78281640648557
212.0 69.75125484331242
218.0 69.81795813433045
224.0 70.25125484331241
230.0 70.78665184579762
236.0 71.15583858993524
240.0 71.35583858993525
250.0 71.32551402982772
258.0 71.36194650876608
265.0 71.36194650876608
272.0 71.36194650876608
280.0 71.46194650876608
290.0 71.46194650876608
300.0 71.49891389047058
307.0 71.49891389047058
315.0 71.43235636746522
325.0 71.3323563674652
335.0 71.19891389047056
345.0 71.06194650876608
355.0 70.82873198423854
365.0 70.59201861859923
375.0 70.42257714016277
387.0 70.32257714016278
400.0 70.18665184579764
412.0 70.12257714016278
425.0 70.09201861859921
437.0 70.02873198423855
450.0 70.03641939474355
462.0 70.01727460844332
475.0 69.92873042695145
487.0 69.81520946678985
500.0 69.67212582354104
515.0 69.4223295720732
530.0 69.14111521167068
545.0 68.78472352221111
560.0 68.3847235222111
580.0 67.90850293672618
600.0 67.31444456905201
615.0 66.73974645289293
630.0 66.2090876098596
650.0 66.11727460844331
670.0 66.3956737577101
690.0 67.05424034574743
710.0 67.91939215520306
730.0 68.7542403457474
750.0 69.38961312216634
775.0 69.82551402982774
800.0 70.1323563674652
825.0 70.33235636746521
850.0 70.44071197781487
875.0 70.42289509653739
900.0 70.29567222424286
925.0 70.11670696138673
950.0 69.9315160464853
975.0 69.72366272613542
1000.0 69.58462775465672
1030.0 69.50559727896227
1060.0 69.25498507339053
1090.0 69.05800429248406
1120.0 68.77012567592023
1150.0 68.45544265062543
1180.0 68.23013293372561
1220.0 68.17099556184417
1250.0 68.04214160580742
1280.0 67.81375801947601
1320.0 67.35838326750563
1360.0 66.84883489659246
1400.0 66.36662137239736
1450.0 65.92977600930207
1500.0 65.52977600930207
1550.0 65.04848067080552
1600.0 64.61361142147952
1650.0 64.12106969516488
1700.0 63.77934213241808
1750.0 63.49917283968914
1800.0 63.11744591022752
1850.0 62.754985073390515
1900.0 62.43151974441088
1950.0 62.29639273874764
2000.0 62.37756038881449
2060.0 62.75113164430208
2120.0 63.38894987364034
2180.0 64.15029090857907
2240.0 65.05876653244826
2300.0 65.89077785370942
2360.0 66.66630084363736
2400.0 67.3456041113956
2500.0 67.91974611503048
2580.0 68.39630682861909
2650.0 68.91367879221512
2720.0 69.59176811172114
2800.0 70.32761649274042
2900.0 71.01911448559484
3000.0 71.29844561478386
3070.0 71.3233150196741
3150.0 71.25719284363926
3250.0 71.16992265538059
3350.0 70.97465109005469
3450.0 70.52558073746788
3550.0 69.76180523988388
3650.0 68.84692538086266
3750.0 68.05300119747439
3870.0 67.48369344370953
4000.0 67.01195171872638
4120.0 66.67913954537421
4250.0 66.56910531377089
4370.0 66.38305195292709
4500.0 66.06548287408508
4620.0 65.86734607228522
4750.0 65.8005657809836
4870.0 65.18112418585176
5000.0 64.64845213503438
5150.0 64.26006347708271
5300.0 63.82387571351801
5450.0 63.65879861092101
5600.0 63.58419497253364
5800.0 63.822524586200444
6000.0 64.43138262935982
6150.0 64.86612580445765
6300.0 64.96612580445766
6500.0 64.63053542757415
6700.0 64.32481878371028
6900.0 64.24397998495633
7100.0 64.07055300134347
7300.0 63.72424342964011
7500.0 63.070149050335516
7750.0 62.493536802998946
8000.0 62.198199380739965
8250.0 62.286958564052114
8500.0 62.558867320080935
8750.0 62.46734729833226
9000.0 62.4505095926974
9250.0 62.09670079153561
9500.0 61.34454806127964
9750.0 60.674055533558615
10000.0 60.28448633094851
10300.0 59.899814397904834
10600.0 59.55207920409357
10900.0 60.01585651832279
11200.0 60.78759046915924
11500.0 61.47668387926193
11800.0 62.16179589215258
12200.0 62.70559727896227
12500.0 63.70129549295328
12800.0 64.78695301909029
13200.0 65.66308684536082
13600.0 65.68828804645453
14000.0 65.54944911417314
14500.0 65.44921556407967
15000.0 65.48115857520114
15500.0 65.2479015779311
16000.0 64.4758100122808
16500.0 63.34070412325305
17000.0 61.89882944160895
17500.0 62.09401092422695
18000.0 63.88112575821364
18500.0 64.27657469591324
19000.0 63.689683104445976
19500.0 63.58968310444597
