Freq "Early Reflections DI"
22.4 29.305712275015495
23.0 29.316065742609183
23.6 29.306855399780332
24.0 29.357634420368882
25.0 29.393582525312027
25.8 29.415327413760664
26.5 29.459684639076897
27.2 29.481757276362416
28.0 29.518828986736352
29.0 29.572396836215702
30.0 29.595761386611315
30.7 29.658356928077353
31.5 29.620644128757874
32.5 29.59126346407116
33.5 29.555913343225072
34.5 29.470234892214066
35.5 29.309814707530577
36.5 29.053194651175133
37.5 28.68510698348878
38.7 28.177530172239955
40.0 27.881784667079685
41.2 27.922385052111423
42.5 28.033486359193205
43.7 28.185584645567616
45.0 28.409563485026368
46.2 28.68982766260254
47.5 28.987844155030757
48.7 29.21271108567403
50.0 29.45194460233401
51.5 29.622829439154913
53.0 29.778985594600314
54.5 29.92362946093273
56.0 30.054232565598767
58.0 30.16935109046848
60.0 30.262430330652194
61.5 30.338192038454622
63.0 30.395061616110084
65.0 30.470621395296817
67.0 30.519632247967337
69.0 30.577992289904827
71.0 30.591229048962887
73.0 30.60574188131146
75.0 30.626501880625142
77.5 30.65845788689404
80.0 30.664097524685545
82.5 30.662526681141742
85.0 30.67917561791043
87.5 30.67654133725263
90.0 30.67887180488121
92.5 30.676556713504013
95.0 30.672924290250393
97.5 30.69612094428949
100.0 30.65743396192356
103.0 30.68660762572445
106.0 30.699734788233997
109.0 30.685646672776883
112.0 30.720577706858165
115.0 30.744273196167214
118.0 30.76971924617007
122.0 30.850743181061603
125.0 30.917624063278566
128.0 31.005577755040377
132.0 31.10503113782788
136.0 31.23507983707249
140.0 31.28996103568106
145.0 31.36911574880547
150.0 31.431559958607124
155.0 31.4671742610105
160.0 31.502336890509014
165.0 31.514256225536187
170.0 31.541506848221672
175.0 31.603119034316776
180.0 31.653186444700154
185.0 31.735883145418796
190.0 31.828249020030043
195.0 31.881429379242405
200.0 31.945752404474746
206.0 31.93023456860594
212.0 31.88915842406827
218.0 31.767568079895753
224.0 31.6770416482849
230.0 31.634856748506593
236.0 31.70734491923116
240.0 31.854681849909042
250.0 32.03031024040389
258.0 32.170578756292
265.0 32.26330378337376
272.0 32.2294837315805
280.0 32.38602350112775
290.0 32.89879642331181
300.0 32.998306573253586
307.0 33.073219582909374
315.0 33.1028915499747
325.0 32.88557558305537
335.0 32.329607900643836
345.0 31.64805642409469
355.0 31.305668979229353
365.0 31.43906619794555
375.0 31.88412021682751
387.0 32.463102320849615
400.0 32.81802320509496
412.0 32.75822139169411
425.0 32.460267976834416
437.0 32.45390055475296
450.0 32.67484369554997
462.0 32.88910587503264
475.0 33.062949887588886
487.0 33.1153805624393
500.0 33.07756414543968
515.0 32.9827030873724
530.0 32.87937844233427
545.0 33.043169536281866
560.0 33.32618364636886
580.0 33.51140892798624
600.0 33.51281399784604
615.0 33.2651030632008
630.0 32.80576570818667
650.0 32.84682869447265
670.0 33.704150639219165
690.0 33.8426937715154
710.0 33.45769986415884
730.0 33.42267399219263
750.0 33.59050153487888
775.0 34.384564394571385
800.0 34.261042685180556
825.0 33.796613369392105
850.0 32.76698554463103
875.0 33.64888415429692
900.0 29.56638529204855
925.0 32.01238898904701
950.0 33.183459846698966
975.0 33.161791785163786
1000.0 32.62163556693412
1030.0 32.89044987797381
1060.0 33.44429951410616
1090.0 33.18728671282712
1120.0 33.06434027105168
1150.0 33.318624039314955
1180.0 34.19680319622685
1220.0 33.69082923416258
1250.0 33.34146593690073
1280.0 33.363670644523665
1320.0 32.82201337076887
1360.0 34.41736200565741
1400.0 32.10439531005461
1450.0 33.562298023586294
1500.0 33.863385737607686
1550.0 33.94041439889921
1600.0 34.25832480043299
1650.0 34.227821136642376
1700.0 33.65225166579437
1750.0 33.64037978338928
1800.0 33.72545868442003
1850.0 34.89863782806451
1900.0 34.20309146368061
1950.0 34.65104866490108
2000.0 33.45272497499366
2060.0 34.43772552979233
2120.0 33.569693229108026
2180.0 33.42140748380966
2240.0 33.60596487849193
2300.0 33.31550937750163
2360.0 33.93499734041711
2400.0 34.18577694536961
2500.0 32.99430493410155
2580.0 31.797358409371952
2650.0 31.650508241791414
2720.0 32.54395950530986
2800.0 32.862071158964156
2900.0 33.22662801578767
3000.0 32.74988222279789
3070.0 33.4517808225239
3150.0 31.976064610884023
3250.0 32.44075535327424
3350.0 32.31395935409367
3450.0 32.047723221577584
3550.0 32.569991044094934
3650.0 33.00892976168393
3750.0 32.58022125404739
3870.0 32.7637268290963
4000.0 33.19786296670617
4120.0 34.20923658734105
4250.0 33.47064738402902
4370.0 33.69512906749797
4500.0 33.40763543876906
4620.0 32.49542691674442
4750.0 34.99232907463322
4870.0 33.236156152031384
5000.0 32.46845240309989
5150.0 32.3925126304634
5300.0 33.18623114727495
5450.0 33.03224034066079
5600.0 33.05759876167413
5800.0 33.092767810387826
6000.0 33.28363793535115
6150.0 32.37559495388234
6300.0 32.723638088402154
6500.0 33.3437223018671
6700.0 32.481949382871235
6900.0 33.10238361699261
7100.0 33.04899992257177
7300.0 33.46777209132536
7500.0 32.697657031209644
7750.0 31.91102343579017
8000.0 33.95558089101033
8250.0 34.67779831437451
8500.0 34.80974788855248
8750.0 33.58289533409646
9000.0 33.82783547103773
9250.0 34.02075024585423
9500.0 33.75367888323147
9750.0 34.33396563439952
10000.0 34.79650099528007
10300.0 34.85532843846403
10600.0 35.41601822636878
10900.0 34.76059353943049
11200.0 34.65661104690071
11500.0 34.08484020961221
11800.0 34.71573825847133
12200.0 35.095910442300635
12500.0 35.53588479718877
12800.0 35.23778795487867
13200.0 34.64527960397271
13600.0 35.948583367446545
14000.0 35.70377289605878
14500.0 35.75924627295305
15000.0 35.05482576753657
15500.0 36.07810350917117
16000.0 35.8986569961492
16500.0 36.007520568805774
17000.0 35.94092107306054
17500.0 36.01806831511065
18000.0 36.069146396772524
18500.0 36.15666590976886
19000.0 35.77650023190198
19500.0 35.95152621625
