Freq "Sound Power DI"
22.4 29.484391728762446
23.0 29.503245740762168
23.6 29.494307719027134
24.0 29.559179973642387
25.0 29.59407395629316
25.8 29.608787075106505
26.5 29.66730829760857
27.2 29.682637740110977
28.0 29.71907833078052
29.0 29.771539164831992
30.0 29.820669020122594
30.7 29.825419079942634
31.5 29.668190481425526
32.5 29.52997765667604
33.5 29.3675625839127
34.5 29.117610137806523
35.5 28.776935275229164
36.5 28.3101390202893
37.5 27.680979247167272
38.7 27.036630794043887
40.0 26.699908885740655
41.2 26.833538113798
42.5 27.12831449897861
43.7 27.533817905445048
45.0 27.98588092450001
46.2 28.43820652721172
47.5 28.85909524828459
48.7 29.185874986539886
50.0 29.505738597949403
51.5 29.734302471557896
53.0 29.917126482133156
54.5 30.104258865978053
56.0 30.26384690015034
58.0 30.41864652150366
60.0 30.5555862677533
61.5 30.64357363415411
63.0 30.724047900137435
65.0 30.831134905599342
67.0 30.917993344960962
69.0 31.004299714433486
71.0 31.05641391326651
73.0 31.079506324322253
75.0 31.130396491271142
77.5 31.183180994502408
80.0 31.210507952965457
82.5 31.230042085215516
85.0 31.26896368609208
87.5 31.267365819113195
90.0 31.274355743495207
92.5 31.281190999820637
95.0 31.28882915915571
97.5 31.31077274933233
100.0 31.27069086941536
103.0 31.313962864509804
106.0 31.31310967392602
109.0 31.315352689841035
112.0 31.354678062343723
115.0 31.3954291142189
118.0 31.446012349239766
122.0 31.55700487942653
125.0 31.6667137179696
128.0 31.806143413715944
132.0 31.95739703821654
136.0 32.1455075462094
140.0 32.24151224646917
145.0 32.353157135748745
150.0 32.44268514183911
155.0 32.51085115466253
160.0 32.59071274632197
165.0 32.622261619166935
170.0 32.70508607930691
175.0 32.87379009195922
180.0 33.058215312428516
185.0 33.32251030009628
190.0 33.6341588490251
195.0 33.9320256282103
200.0 34.220100355534186
206.0 34.377045545534585
212.0 34.43478428265213
218.0 34.348335964959205
224.0 34.21548346011092
230.0 34.128699653971296
236.0 34.199539589199816
240.0 34.3926507751337
250.0 34.63125718577065
258.0 34.80026550519439
265.0 34.86246015928411
272.0 34.65516543640348
280.0 34.48983125944757
290.0 35.35116156234365
300.0 35.65729749800502
307.0 35.82681447200771
315.0 35.96580892842704
325.0 35.887160756056474
335.0 35.2365473194194
345.0 34.28306013733267
355.0 33.679202850991544
365.0 33.75575204503407
375.0 34.384051793789766
387.0 35.3323109377626
400.0 36.06234596886928
412.0 35.953392622690885
425.0 35.232602717343624
437.0 35.15702896107035
450.0 35.624144556759916
462.0 36.1619065249412
475.0 36.57683803848272
487.0 36.592802783099444
500.0 36.422886951692945
515.0 36.22716672678074
530.0 36.09398884261526
545.0 36.394010943933495
560.0 36.91594129160343
580.0 37.3488200712078
600.0 37.51499279477383
615.0 37.158286763383586
630.0 36.35411098873723
650.0 36.25738610939979
670.0 37.70676571062239
690.0 38.07959631147766
710.0 37.0515164748567
730.0 36.72391303327929
750.0 36.680529310038594
775.0 37.97477055006004
800.0 38.00229610908278
825.0 36.99251492838023
850.0 34.47202133717565
875.0 35.94017692225884
900.0 30.797662799371423
925.0 34.70774973900566
950.0 36.86932538389952
975.0 37.01276893016366
1000.0 36.12239574317125
1030.0 36.86628874875649
1060.0 37.71256128166513
1090.0 37.29356666644715
1120.0 37.02869382279238
1150.0 37.26728853534382
1180.0 38.47570154091537
1220.0 38.027505266221496
1250.0 37.44738956690402
1280.0 36.87465539992368
1320.0 34.77472352660833
1360.0 38.03321146418203
1400.0 34.36140603882171
1450.0 37.520937624068964
1500.0 38.42226433368093
1550.0 38.357880153230695
1600.0 38.83062053155892
1650.0 38.72712022206717
1700.0 37.97004484488593
1750.0 37.85261715698449
1800.0 37.76976065815799
1850.0 39.78527735508334
1900.0 38.59159631787868
1950.0 38.60409337523332
2000.0 35.91067047327718
2060.0 37.22250332213737
2120.0 37.5579105938761
2180.0 37.575535000781315
2240.0 37.68277723919225
2300.0 37.15827527681587
2360.0 37.82611951112969
2400.0 38.814476905059124
2500.0 36.6742987206638
2580.0 35.57901245795439
2650.0 35.009080450912535
2720.0 36.49351177354883
2800.0 36.94211502373355
2900.0 37.4026495529841
3000.0 36.216553904027506
3070.0 35.92802591465312
3150.0 35.789815937102375
3250.0 36.26404342578118
3350.0 36.14711621909137
3450.0 35.841321186957416
3550.0 36.373072076471274
3650.0 36.86006002305902
3750.0 36.843887135683914
3870.0 37.07777929960798
4000.0 37.737391531483496
4120.0 38.783077637127604
4250.0 38.14161211571259
4370.0 38.193828965528795
4500.0 37.65998421264514
4620.0 36.28429616299566
4750.0 39.26763615293805
4870.0 37.3758246561444
5000.0 36.3276223939945
5150.0 36.00334115978484
5300.0 37.16798138968744
5450.0 37.31577748788101
5600.0 37.39831462119082
5800.0 37.34960670401051
6000.0 37.75964532499033
6150.0 36.52501070639049
6300.0 36.790406704147074
6500.0 37.31105267821472
6700.0 36.247051157382174
6900.0 37.392997928687905
7100.0 37.36184137721699
7300.0 37.99550325837008
7500.0 36.83113090442862
7750.0 36.128744527891826
8000.0 38.31666233471316
8250.0 39.19398504280352
8500.0 39.346634913556
8750.0 38.123236460878275
9000.0 38.29637190149751
9250.0 38.71694096033859
9500.0 38.403003461549176
9750.0 39.11165249186172
10000.0 39.82636101526411
10300.0 39.75063734705874
10600.0 40.606416996263306
10900.0 40.08305170530656
11200.0 39.83755401899904
11500.0 39.402786388923886
11800.0 39.63789915683189
12200.0 40.12899590587132
12500.0 41.014518640061226
12800.0 40.58727823371913
13200.0 39.72536689373314
13600.0 41.42877036442003
14000.0 41.21643143458134
14500.0 41.46860710440521
15000.0 40.658033282001966
15500.0 42.09726740571929
16000.0 41.83651299087278
16500.0 42.00237620906918
17000.0 41.820877168320905
17500.0 42.42804834554151
18000.0 41.8993892373056
18500.0 41.69601689538207
19000.0 42.47067314668779
19500.0 42.382634623285185
