Freq "Estimated In-Room Response"
22.4 15.983852227192045
23.0 16.853796298339574
23.6 17.615547790547396
24.0 18.19912792264043
25.0 18.64750333143084
25.8 18.92209693407679
26.5 19.004229418541826
27.2 18.764784499723504
28.0 18.12326256027137
29.0 17.51686317335458
30.0 18.658018457458837
30.7 22.41476318523999
31.5 26.68031226240879
32.5 29.95085758065997
33.5 32.23065366039998
34.5 34.08137554690123
35.5 35.87639500475984
36.5 37.59023590976207
37.5 39.23737960170692
38.7 40.60784797915926
40.0 41.57926125188871
41.2 42.70748844394021
42.5 45.22282754084944
43.7 48.45986055997909
45.0 50.8249902622147
46.2 52.18523635051628
47.5 53.415402054123035
48.7 55.011840021501996
50.0 56.832520119554346
51.5 58.79070624518991
53.0 60.783279831213335
54.5 62.661985426716086
56.0 64.19181297428486
58.0 65.27678235078231
60.0 66.65568382057418
61.5 68.58918772173439
63.0 70.5914202549819
65.0 72.45663070304059
67.0 74.28974418715757
69.0 76.01082615320128
71.0 77.34822106819378
73.0 78.16610489271136
75.0 78.60230003317466
77.5 79.14799158855183
80.0 79.63902901007621
82.5 79.61337741384673
85.0 79.48356184173011
87.5 79.55926008336758
90.0 79.51665563521047
92.5 79.57169265280885
95.0 79.94682381750394
97.5 80.2374230508214
100.0 80.45249461887072
103.0 80.80043562714502
106.0 80.91987635224075
109.0 81.04420692656797
112.0 81.29067680783761
115.0 80.86035600915555
118.0 79.93908052204571
122.0 79.81897046294088
125.0 80.87620079503172
128.0 81.39466809127988
132.0 80.67010052533644
136.0 80.20514100089478
140.0 80.27049890342103
145.0 80.1957866757034
150.0 80.50477698223227
155.0 80.76217095141908
160.0 80.51614574218584
165.0 80.04493977059286
170.0 80.19136727243215
175.0 80.83951287524518
180.0 81.03798742128546
185.0 81.0500947670789
190.0 81.80645634387253
195.0 82.21882087379049
200.0 81.74373551919399
206.0 81.51954724091479
212.0 81.4823789239906
218.0 81.29996398263656
224.0 81.23124579663781
230.0 81.1293369404349
236.0 80.78560290182907
240.0 80.5111431986879
250.0 80.49254776046116
258.0 80.29354786341086
265.0 80.24138165796273
272.0 80.14425637040685
280.0 80.04459319797635
290.0 80.37096686968013
300.0 80.67110818679762
307.0 80.86769509504822
315.0 80.92689345892302
325.0 80.88355542900779
335.0 80.76114650003996
345.0 80.35663937335498
355.0 79.84172189068364
365.0 79.76962301015823
375.0 79.9313426871791
387.0 80.13648554010692
400.0 80.48322513644285
412.0 80.7255054796269
425.0 80.45784378113208
437.0 79.86974638584465
450.0 79.26175314159114
462.0 78.93558989416948
475.0 79.4089921591198
487.0 80.19495679288221
500.0 80.69134773185189
515.0 80.67209407854376
530.0 80.26108784360721
545.0 79.65070594786971
560.0 79.09942769520858
580.0 78.73653048684601
600.0 78.33880252796082
615.0 77.8468257874791
630.0 77.21607257299866
650.0 76.57201908988974
670.0 76.14373381744419
690.0 76.05820958676946
710.0 76.27396628426827
730.0 76.55476970492805
750.0 76.7600251958699
775.0 76.97702106325086
800.0 77.27502315543168
825.0 77.60835673192265
850.0 77.90438300415073
875.0 78.18342438698357
900.0 78.35958152534486
925.0 78.47750708309844
950.0 78.49838376213637
975.0 78.4578095910137
1000.0 78.33041423775441
1030.0 78.19133807085112
1060.0 78.07299419394252
1090.0 78.03661189878466
1120.0 78.15863099062432
1150.0 78.37390910295558
1180.0 78.63767442420803
1220.0 78.79894630116755
1250.0 78.87645452531784
1280.0 78.81740897343157
1320.0 78.66164837768962
1360.0 78.41896760241033
1400.0 78.16825931535104
1450.0 77.98931789511491
1500.0 77.9573312524169
1550.0 77.94531621212204
1600.0 77.96191714603614
1650.0 77.85235569208564
1700.0 77.57849527509785
1750.0 77.16265906145264
1800.0 76.77409548158316
1850.0 76.46018845373513
1900.0 76.16319932649549
1950.0 75.90113902268419
2000.0 75.80064068028094
2060.0 75.74234607375756
2120.0 75.46899734331724
2180.0 75.02472193171788
2240.0 74.93203410657406
2300.0 75.43529566253538
2360.0 75.91616700932317
2400.0 76.04037939031072
2500.0 76.07598082580431
2580.0 76.03813444379489
2650.0 76.0618408580817
2720.0 76.46180357101801
2800.0 76.97850859552653
2900.0 77.29273440325477
3000.0 77.26799608042809
3070.0 77.07533727244629
3150.0 76.77917550984668
3250.0 76.51547886719555
3350.0 76.4459925234225
3450.0 76.55770099006126
3550.0 76.83545150975309
3650.0 77.25060734886448
3750.0 77.79582418175784
3870.0 78.25770286548544
4000.0 78.4371584542987
4120.0 78.23178958063228
4250.0 77.81062019758285
4370.0 76.96996984768663
4500.0 76.05293071655971
4620.0 75.54843114431712
4750.0 75.63670362402988
4870.0 75.82303628482683
5000.0 76.05785230201025
5150.0 76.43009301016986
5300.0 76.72956685378627
5450.0 76.7864658145609
5600.0 76.71214464260002
5800.0 76.79370341351532
6000.0 76.89213318273748
6150.0 76.72457704331293
6300.0 76.30778989944173
6500.0 75.71833233843385
6700.0 75.38364922213763
6900.0 75.64299215594876
7100.0 76.45882150803618
7300.0 77.29960399020312
7500.0 77.77479898523588
7750.0 77.91639563656516
8000.0 77.88820021220181
8250.0 78.05395251233296
8500.0 78.38182520257604
8750.0 78.42094565699563
9000.0 78.12382194771484
9250.0 77.83642890092099
9500.0 77.66172367168471
9750.0 77.49269801697534
10000.0 77.55363045151196
10300.0 78.06191787755257
10600.0 78.44103661850897
10900.0 78.50623409495425
11200.0 78.56195373520993
11500.0 78.7624676698259
11800.0 78.36033148706589
12200.0 77.54651140407412
12500.0 77.89649659455655
12800.0 77.64493241713942
13200.0 75.38135462204562
13600.0 73.41980642922636
14000.0 73.98318784962962
14500.0 75.21562892630132
15000.0 76.64111606049805
15500.0 77.01968081238931
16000.0 76.03280035996907
16500.0 75.5651213696744
17000.0 75.93731748878852
17500.0 75.62513583782587
18000.0 74.28816356395535
18500.0 73.86840474232389
19000.0 73.01889425716683
19500.0 71.39014263162558
