Freq,On Axis,Listening Window,Sound Power,Early Reflections,Early Reflections DI,Sound Power DI,DI offset
20.5078,60.492515151515136,60.65322488924079,65.53246962249106,63.78698303569132,36.86624185354947,35.120755266749725,40
21.9727,64.76581515151514,64.86229162115632,68.44226804824801,67.050032940233,37.81225868092332,36.420023572908306,40
23.4375,67.53131515151514,67.60832765411365,70.83797391993095,69.54872424036452,38.05960341374913,36.770353734182706,40
24.9023,70.54041515151513,70.61518716352035,73.51862389827029,72.33050846313397,38.28467870038638,37.096563265250055,40
26.3672,73.80161515151511,73.8541731795693,76.0972842200505,75.1342173475189,38.7199558320504,37.756888959518804,40
27.832,76.21191515151514,76.27746964163111,78.5841718768947,77.59419425138874,38.68327539024237,37.693297764736414,40
29.2969,78.55311515151513,78.61014925558592,80.55609304812111,79.69947797806101,38.91067127752491,38.05405620746481,40
30.7617,80.57681515151512,80.62937544776737,82.33431982728555,81.57311769309071,39.056257754676665,38.29505562048182,40
32.2266,82.06271515151514,82.11157649821158,83.6447469309753,82.94746717608227,39.164109322129306,38.466829567236275,40
33.6914,83.18961515151511,83.23537402439656,84.62448569260938,83.98404721870251,39.25132680569405,38.61088833178718,40
35.1562,84.28161515151513,84.32486167891722,85.5719567808527,84.98968922241981,39.3351724564974,38.752904898064514,40
36.6211,85.03411515151512,85.07413195219998,86.18924557758831,85.66220457559987,39.411927376600104,38.88488637461167,40
38.0859,85.58681515151513,85.62413851953113,86.63038206696977,86.14959292246377,39.47454559706736,38.99375645256136,40
39.5508,85.91031515151514,85.94508434996939,86.84851597212892,86.41194599276774,39.53313835720165,39.09656837784047,40
41.0156,86.12801515151513,86.16080432617746,86.98713330430726,86.58312380279925,39.577680523378206,39.17367102187019,40
42.4805,86.36051515151513,86.39098218672791,87.12924620005325,86.765062311082,39.625919875645906,39.261735986674665,40
43.9453,86.55111515151513,86.57971296739875,87.2492406370767,86.91537962728376,39.66433334011499,39.33047233032205,40
45.4102,86.75911515151513,86.78658033225044,87.40182083598499,87.09267287608564,39.693907456164794,39.384759496265445,40
46.875,86.85611515151513,86.88285542509071,87.45391385948433,87.16399071185913,39.71886471323158,39.42894156560638,40
48.3398,86.96881515151513,86.9926013558158,87.47859042146777,87.22771582230538,39.76488553351041,39.51401093434802,40
51.2695,87.10811515151512,87.1279168925851,87.50586108910802,87.30312086068267,39.82479603190244,39.62205580347708,40
52.7344,87.17681515151513,87.19540709467765,87.53549801793034,87.34988971523487,39.84551737944278,39.65990907674731,40
54.1992,87.27921515151513,87.295642476889,87.57427563290682,87.41785006995971,39.87779240692929,39.72136684398218,40
55.6641,87.26601515151512,87.28178786538211,87.53215216492515,87.3898263666152,39.89196149876692,39.74963570045696,40
58.5938,87.40191515151514,87.41602697895063,87.61364686381754,87.49572042761665,39.92030655133398,39.80238011513309,40
60.0586,87.47681515151513,87.48897343890673,87.6441501944442,87.54627974488879,39.94269369401793,39.84482324446253,40
62.9883,87.58871515151513,87.5981185216343,87.69705964572478,87.62400805422048,39.97411046741382,39.90105887590953,40
64.4531,87.62861515151513,87.63663761146198,87.70485880365324,87.6458158620537,39.99082174940828,39.93177880780874,40
67.3828,87.64281515151512,87.65035088491224,87.70744308975306,87.65137518050021,39.99897570441203,39.942907795159186,40
68.8477,87.72741515151515,87.73445725280092,87.7908062015802,87.73380488314464,40.00065236965628,39.943651051220726,40
71.7773,87.89931515151514,87.90264682723893,87.88427227868618,87.86346314328499,40.03918368395394,40.01837454855274,40
74.707,87.95941515151513,87.96214466267426,87.93143951502672,87.91908518561942,40.04305947705484,40.03070514764754,40
77.6367,88.04341515151513,88.04327898113843,87.96690187834913,87.97439849170239,40.06888048943604,40.076377102789294,40
79.1016,88.05221515151513,88.05093033686477,87.95893233718694,87.97317812977539,40.077752207089375,40.09199799967783,40
82.0312,88.08511515151514,88.08194593844948,87.96091363282112,87.98792755151347,40.094018386936014,40.12103230562836,40
84.9609,88.12641515151513,88.1219781113652,87.98117990823478,88.01587852026113,40.10609959110407,40.140798203130416,40
87.8906,88.13271515151513,88.12606876418485,87.95865897952046,88.00515936350874,40.12090940067611,40.167409784664386,40
90.8203,88.07661515151514,88.06876981412358,87.88832780837582,87.93932892587414,40.12944088824945,40.180442005747764,40
95.2148,88.04221515151512,88.03019580473908,87.78515312723557,87.86555815318263,40.16463765155645,40.245042677503506,40
98.1445,87.93811515151513,87.92685957109595,87.71363298147364,87.7774000438595,40.149459527236445,40.21322658962231,40
101.074,87.74081515151514,87.72757928863793,87.51429148121466,87.57711253911064,40.15046674952728,40.21328780742327,40
105.469,87.72181515151513,87.69632100767512,87.25959032319089,87.43737308052907,40.25894792714605,40.43673068448423,40
108.398,87.73401515151512,87.70856097445746,87.2089387242945,87.42234216192662,40.286218812530834,40.49962225016296,40
112.793,87.71261515151514,87.68705514445138,87.23558886875713,87.42269873610618,40.26435640834519,40.451466275694244,40
117.188,87.57911515151513,87.55132648251518,87.10039596921186,87.28528113943655,40.26604534307863,40.45093051330332,40
120.117,87.49011515151514,87.46117122093816,86.97798633706869,87.1807501979754,40.280421022962756,40.48318488386947,40
124.512,87.34481515151512,87.31246759383605,86.83579078589192,87.0257393738238,40.28672822001225,40.47667680794413,40
128.906,87.26751515151513,87.23148434175762,86.70555390498674,86.92183406704197,40.30965027471565,40.52593043677088,40
133.301,87.26731515151513,87.2250013643749,86.5903508360369,86.8602344159944,40.364766948380506,40.634650528338,40
139.16,87.15011515151512,87.10180826630341,86.41196718753284,86.70082310318588,40.400985163117525,40.68984107877057,40
143.555,87.02151515151513,86.97141218876351,86.25831236438867,86.5544020054526,40.41701018331091,40.71309982437484,40
147.949,86.83801515151512,86.78527134706661,86.08852040938417,86.36608289665583,40.419188450410786,40.69675093768244,40
153.809,86.78201515151511,86.71299530453531,85.84474241939517,86.2017501073428,40.51124519719251,40.86825288514014,40
159.668,86.99521515151513,86.92579917504341,85.98944639750712,86.3952185357617,40.53058063928171,40.936352777536285,40
165.527,86.80821515151513,86.73568493226252,85.81707767602141,86.2086952487241,40.52698968353842,40.9186072562411,40
171.387,86.87001515151513,86.78998282285647,85.67711837497171,86.17537374950082,40.61460907335565,41.11286444788476,40
177.246,86.65301515151513,86.5730929627386,85.44212189719943,85.94875218804543,40.62434077469317,41.13097106553917,40
183.105,86.51971515151513,86.43335538105639,85.2925893648182,85.79338608543462,40.63996929562177,41.14076601623819,40
188.965,86.68341515151513,86.58758098488762,85.36053551593845,85.90023292363455,40.687348061253076,41.22704546894917,40
196.289,86.67421515151513,86.56281405208594,85.22414416904289,85.80676368741626,40.756050364669676,41.33866988304305,40
203.613,86.97621515151513,86.84673219359819,85.0296575773524,85.90109830831453,40.945633885283655,41.81707461624579,40
210.938,86.67251515151513,86.56742604287375,84.84748343496531,85.67982208787004,40.88760395500371,41.719942607908436,40
218.262,86.42231515151514,86.30324682573858,84.73191380473781,85.45772973452688,40.845517091211704,41.57133302100077,40
225.586,86.92031515151513,86.78440824107035,84.93113056981929,85.79858832052147,40.98581992054888,41.853277671251064,40
232.91,87.11121515151513,86.96279606585563,84.76451197476098,85.84831299131699,41.11448307453864,42.19828409109465,40
241.699,86.67251515151513,86.54752768941378,84.38121726741727,85.45596606645826,41.091561622955524,42.16631042199651,40
250.488,87.32661515151513,87.16950121612271,84.77769031028834,85.96744606573218,41.202055150390535,42.391810905834376,40
259.277,87.32811515151514,87.17762163282133,84.75249088378345,85.96421513641141,41.21340649640992,42.425130749037876,40
268.066,86.73871515151512,86.59744867993899,84.30089320065487,85.40671142360864,41.19073725633035,42.29655547928412,40
276.855,86.56101515151514,86.44668052383443,84.19904046299618,85.2917044580629,41.154976065771535,42.24764006083825,40
287.109,86.68411515151513,86.52204645657483,84.10138994935203,85.29241103622115,41.229635420353674,42.4206565072228,40
297.363,87.36381515151513,87.19571580836354,84.08243235153,85.63777352675274,41.557942281610806,43.11328345683354,40
307.617,87.43681515151513,87.29962480901258,84.28334968813289,85.8791213665976,41.42050344241498,43.0162751208797,40
319.336,87.41641515151511,87.25127416694264,84.07753856671572,85.76343908322146,41.48783508372118,43.17373560022692,40
329.59,87.24241515151513,87.12837376333655,83.99727588265144,85.65628068615345,41.472093077183104,43.13109788068512,40
341.309,87.11711515151512,86.97744951283862,83.72206154561982,85.39238563863881,41.585063874199804,43.255387967218795,40
353.027,86.74171515151511,86.68956297709097,83.77045235850488,85.3481517282873,41.34141124880367,42.91911061858609,40
366.211,86.89291515151513,86.8162654309415,83.83906423981398,85.4643309592841,41.3519344716574,42.97720119112752,40
379.395,87.13311515151513,87.05935806124924,84.13154706867552,85.82608816656924,41.23326989468001,42.927810992573725,40
392.578,86.34161515151513,86.29991288257034,83.79296617049562,85.29036955720446,41.00954332536588,42.50694671207472,40
405.762,86.47731515151513,86.31325881979352,83.43740328899501,85.06361195742595,41.24964686236757,42.8758555307985,40
420.41,86.64501515151511,86.48759747749524,83.39719168654308,85.09099199909946,41.396605478395784,43.09040579095216,40
435.059,86.70831515151512,86.56181382415171,83.6206821737219,85.2350520584298,41.32676176572191,42.94113165042981,40
451.172,86.01911515151511,85.86811671649588,83.20528831403607,84.89012751403075,40.977989202465125,42.66282840245981,40
465.82,86.78301515151513,86.46852646645502,83.10688184834666,84.99822173421097,41.470304732244045,43.36164461810836,40
483.398,86.58181515151513,86.33080905869255,82.8004223161035,84.600508351971,41.73030070672155,43.53038674258906,40
499.512,88.06781515151513,87.76616268803946,83.62675904013487,85.68129444249377,42.08486824554569,44.13940364790459,40
517.09,87.65081515151513,87.40165248611945,83.66455846164502,85.46670074620877,41.93495173991067,43.73709402447443,40
536.133,87.67221515151513,87.39993278412368,83.213449718092,85.25457024539048,42.145362538733195,44.186483066031684,40
555.176,87.36781515151513,87.11611454901794,82.8108910359694,84.97909381908273,42.1370207299352,44.30522351304853,40
574.219,87.22361515151513,86.91791466613135,82.81936631822728,85.07123708880923,41.846677577322126,44.09854834790407,40
594.727,87.13541515151513,86.80140954989045,82.35544631793802,84.69829005749553,42.103119492394924,44.44596323195243,40
615.234,86.60141515151514,86.33156740510196,82.02906833485707,84.22455570895693,42.10701169614504,44.30249907024489,40
637.207,87.24741515151513,86.87744234485523,82.55075135882888,84.79813228435638,42.07931006049884,44.32669098602635,40
659.18,86.92001515151513,86.68135689421231,82.14738416078745,84.55030009642805,42.13105679778427,44.53397273342486,40
682.617,86.85801515151513,86.4914507483865,82.01685839078033,84.4051036488701,42.0863470995164,44.47459235760617,40
707.52,86.75841515151512,86.40503176094373,82.26793550809249,84.6756755645691,41.729356196374624,44.13709625285124,40
732.422,86.57781515151513,86.20485564990801,81.75531483020053,84.27540233624718,41.92945331366083,44.44954081970748,40
757.324,86.57471515151514,86.24441107123594,81.68052740270868,84.1749794616697,42.06943160956625,44.56388366852727,40
785.156,87.14141515151513,86.7439263082391,81.98611495382941,84.31769497856806,42.42623132967104,44.75781135440968,40
811.523,87.41751515151513,86.95086624200336,81.88667961589412,84.41223258866829,42.53863365333507,45.06418662610923,40
840.82,87.91581515151513,87.50963827070217,82.28553878574257,85.01226720498467,42.4973710657175,45.224099484959595,40
870.117,88.36911515151513,87.91032979327176,82.61764260395539,85.28974042433589,42.62058936893587,45.29268718931637,40
900.879,88.34061515151512,87.93737019614703,82.83674159427682,85.66367857291341,42.27369162323362,45.10062860187021,40
933.105,88.57681515151513,88.03767584826026,82.23125257563157,85.26779755941782,42.76987828884245,45.80642327262869,40
965.332,88.09061515151512,87.63793899182495,82.00590463740618,84.78252861660395,42.855410375221,45.63203435441878,40
1000.49,87.38591515151514,86.99898690745235,81.53438786976632,84.65778568129187,42.34120122616048,45.46459903768603,40
1035.64,86.84871515151511,86.67531758072482,81.37604800449486,84.39692308391848,42.27839449680634,45.29926957622996,40
1072.27,86.34991515151513,85.9430369479577,80.92970964742557,84.06541910643375,41.87761784152394,45.013327300532126,40
1108.89,86.46581515151513,85.87251996134887,80.533200382771,83.7105044467502,42.162015514598664,45.33931957857787,40
1148.44,86.12371515151514,85.55471545293926,79.82497550616065,83.40462850228309,42.150086950656174,45.72973994677861,40
1189.45,86.41951515151513,85.67190245095958,79.60091271009837,82.97038722920766,42.70151522175192,46.07098974086121,40
1230.47,86.80611515151513,86.14821665168148,79.4113228857314,83.30839403837899,42.83982261330249,46.736893765950086,40
1274.41,86.58061515151513,85.97117102572504,79.11760403919162,83.10753734382251,42.86363368190253,46.85356698653342,40
1319.82,86.91961515151513,86.0627176148404,79.17893688035228,83.09379248994554,42.96892512489485,46.88378073448811,40
1366.7,87.92081515151514,86.81824932791005,79.35833836762637,83.37506330635617,43.443186021553885,47.45991096028368,40
1413.57,87.91661515151513,86.95037547144075,79.1652459947617,83.28602574717912,43.664349724261626,47.785129476679046,40
1463.38,86.75371515151512,86.05686404285058,78.69969347081579,82.86356054212467,43.193303500725904,47.35717057203479,40
1516.11,85.84481515151515,85.14447866168678,78.11041382340058,82.07404931243423,43.07042934925255,47.0340648382862,40
1568.85,85.56411515151513,84.87110778692919,77.51420855154333,81.22957022933004,43.64153755759915,47.35689923538585,40
1624.51,86.29211515151513,85.32335820669114,77.5911692407235,81.39480930711085,43.92854889958029,47.73218896596764,40
1681.64,86.83091515151513,86.08424248307578,78.02701983766283,81.67443278724777,44.40980969582802,48.05722264541295,40
1741.7,86.86731515151513,86.03625136664525,78.07467656181142,81.80096172423842,44.235289642406826,47.96157480483383,40
1803.22,86.40251515151513,85.47804860389463,77.6189290660484,81.3783900438197,44.09965856007493,47.85911953784624,40
1866.21,84.88871515151513,84.19607879110822,76.9983274548257,80.61970913703831,43.57636965406991,47.19775133628252,40
1932.13,84.36221515151513,83.70587999983621,76.75382899041767,80.05784537546035,43.64803462437587,46.95205100941854,40
1999.51,85.06431515151513,84.28856804421326,76.9935831950246,80.32752880456121,43.96103923965205,47.294984849188666,40
2069.82,85.66331515151514,84.96528497886163,77.58084359888785,81.10858861334995,43.85669636551168,47.38444137997378,40
2143.07,85.87131515151513,85.16836888656007,77.87585531351121,81.36399541909736,43.80437346746271,47.292513573048865,40
2219.24,85.13301515151512,84.48084954929021,77.48076901763939,80.82223763059599,43.65861191869422,47.00008053165082,40
2296.88,85.27891515151512,84.50362510609969,77.83755102953438,81.30682013563494,43.196804970464754,46.66607407656531,40
2378.91,86.96721515151515,85.94660821889384,78.65381839871887,82.07216803382505,43.87444018506879,47.292789820174974,40
2462.4,88.83611515151512,87.67850529441463,79.76727245329215,83.37956315231256,44.29894214210208,47.911232841122484,40
2548.83,88.75881515151512,87.68160222960542,79.96269455521174,83.54471357931843,44.13688865028699,47.71890767439368,40
2639.65,87.15571515151512,86.40196506260321,79.50129923624311,82.97618521268254,43.42577984992067,46.9006658263601,40
2731.93,86.60441515151513,85.98792511680202,79.16629449553125,82.61133855372424,43.37658656307778,46.82163062127077,40
2828.61,87.48661515151512,86.75781530988753,79.48495814624246,83.03481803887254,43.72299727101499,47.27285716364507,40
2928.22,88.17891515151513,87.49103548379851,79.95534054557714,83.5543545927029,43.93668089109562,47.53569493822137,40
3030.76,88.14081515151511,87.52456521135046,80.04103376777542,83.63993116283235,43.88463404851811,47.483531443575046,40
3137.7,87.96131515151512,87.40109903485677,79.86797708544572,83.4380907480843,43.963008286772464,47.533121949411054,40
3249.02,87.56411515151513,86.98843115646478,79.53096516615574,83.15300096164165,43.83543019482313,47.457465990309046,40
3363.28,87.37751515151513,87.01078497023138,79.44348056262632,83.04946239439126,43.96132257584013,47.567304407605064,40
3481.93,87.35711515151513,86.89319662055583,79.57538096303391,83.02916385775814,43.86403276279769,47.31781565752192,40
3604.98,88.02941515151512,87.27755212623678,80.13050255703652,83.51274701792649,43.7648051083103,47.14704956920026,40
3732.42,88.21661515151513,87.91693509346896,80.32044140674601,83.90555142389749,44.01138366957147,47.59649368672295,40
3864.26,87.13511515151512,86.89100107528073,79.64925648367513,83.5846952422289,43.30630583305182,47.241744591605595,40
4000.49,87.75511515151513,86.9661001426828,79.61212086053405,83.4859126724691,43.48018747021371,47.35397928214876,40
4141.11,87.87821515151514,87.31981447403192,79.85144608280159,83.66899745408523,43.650817019946686,47.46836839123033,40
4287.6,87.65421515151513,87.07646764437949,79.7379478839149,83.41832007172482,43.65814757265467,47.33851976046459,40
4438.48,87.57401515151511,86.91873391449559,79.64184441709286,83.31862539959569,43.6001085148999,47.276889497402735,40
4595.21,86.74071515151513,86.34743391318733,79.07814169299606,82.68321055159566,43.66422336159167,47.269292220191275,40
4756.35,87.64501515151514,87.12072455062314,79.54471432240064,83.23334077553264,43.8873837750905,47.5760102282225,40
4924.8,87.10111515151513,86.79211656173543,79.45976664641961,83.14782323442148,43.644293327313946,47.33234991531582,40
5097.66,86.96081515151513,86.6707568698566,79.21729136021455,83.08630013007962,43.58445673977698,47.45346550964206,40
5277.83,86.91971515151513,86.61730697649959,79.35597953477905,83.1124042466155,43.504902729884094,47.26132744172054,40
5463.87,86.72401515151513,86.48302812169052,79.25640700700603,83.17061796721542,43.3124101544751,47.22662111468449,40
5657.23,86.71991515151512,86.39785502702097,79.07989736738676,83.01751821726613,43.38033680975484,47.3179576596342,40
5856.45,86.16151515151512,86.03354130002081,78.6619645516018,82.53018374821063,43.50335755181018,47.37157674841902,40
6062.99,86.55661515151513,86.3451845817022,78.80440383921413,82.7863367818579,43.5588477998443,47.54078074248807,40
6276.86,86.38011515151513,85.8923342418102,78.42133263106683,82.40814965677579,43.48418458503441,47.47100161074337,40
6498.05,86.53071515151512,86.28821101819783,78.7229162801721,82.73140384933122,43.55680716886661,47.56529473802573,40
6726.56,86.51311515151512,86.33979428457971,78.60437732380879,82.62690972347279,43.71288456110692,47.73541696077092,40
6963.87,86.98781515151515,86.41864385706607,78.61500349725526,82.80817759731087,43.6104662597552,47.803640359810814,40
7209.96,87.20211515151513,86.81871430769974,79.00180126620073,83.067885539272,43.75082876842774,47.81691304149901,40
7464.84,86.91801515151514,86.43566913749115,78.74870980094857,82.98124863708559,43.45442050040556,47.68695933654257,40
7727.05,87.56831515151512,87.02703932489968,79.11524468312233,83.40276662735356,43.62427269754612,47.91179464177735,40
7999.51,87.16211515151511,86.57151196225388,78.77816315076808,82.96887848188113,43.602633480372745,47.7933488114858,40
