Freq "Listening Window"
20.5078 60.42460973772566
21.9727 64.63367646964119
23.4375 67.37971250259854
24.9023 70.38657201200522
26.3672 73.62555802805419
27.832 76.04885449011599
29.2969 78.3815341040708
30.7617 80.40076029625226
32.2266 81.88296134669645
33.6914 83.00675887288143
35.1562 84.09624652740209
36.6211 84.84551680068486
38.0859 85.395523368016
39.5508 85.71646919845426
41.0156 85.93218917466233
42.4805 86.16236703521277
43.9453 86.35109781588362
45.4102 86.55796518073531
46.875 86.65424027357557
48.3398 86.76398620430066
51.2695 86.89930174106998
52.7344 86.96679194316253
54.1992 87.06702732537389
55.6641 87.053172713867
58.5938 87.1874118274355
60.0586 87.2603582873916
62.9883 87.36950337011916
64.4531 87.40802245994684
67.3828 87.4217357333971
68.8477 87.50584210128581
71.7773 87.67403167572378
74.707 87.73352951115913
77.6367 87.8146638296233
79.1016 87.82231518534965
82.0312 87.85333078693435
84.9609 87.89336295985005
87.8906 87.89745361266972
90.8203 87.84015466260846
95.2148 87.80158065322394
98.1445 87.69824441958082
101.074 87.4989641371228
105.469 87.46770585616
108.398 87.47994582294233
112.793 87.45843999293623
117.188 87.32271133100005
120.117 87.23255606942303
124.512 87.08385244232092
128.906 87.00286919024248
133.301 86.99638621285978
139.16 86.87319311478826
143.555 86.74279703724838
147.949 86.55665619555147
153.809 86.48438015302017
159.668 86.6971840235283
165.527 86.50706978074739
171.387 86.56136767134134
177.246 86.34447781122347
183.105 86.20474022954124
188.965 86.3589658333725
196.289 86.33419890057081
203.613 86.61811704208307
210.938 86.33881089135862
218.262 86.07463167422345
225.586 86.55579308955521
232.91 86.7341809143405
241.699 86.31891253789867
250.488 86.9408860646076
259.277 86.94900648130621
268.066 86.36883352842385
276.855 86.21806537231929
287.109 86.29343130505968
297.363 86.96710065684842
307.617 87.07100965749747
319.336 87.02265901542752
329.59 86.89975861182143
341.309 86.7488343613235
353.027 86.46094782557584
366.211 86.58765027942637
379.395 86.83074290973411
392.578 86.07129773105521
405.762 86.08464366827839
420.41 86.25898232598013
435.059 86.33319867263658
451.172 85.63950156498075
465.82 86.23991131493989
483.398 86.10219390717741
499.512 87.53754753652433
517.09 87.17303733460432
536.133 87.17131763260855
555.176 86.88749939750282
574.219 86.68929951461622
594.727 86.57279439837532
615.234 86.10295225358684
637.207 86.6488271933401
659.18 86.45274174269719
682.617 86.26283559687135
707.52 86.17641660942861
732.422 85.97624049839288
757.324 86.0157959197208
785.156 86.51531115672395
811.523 86.72225109048821
840.82 87.28102311918704
870.117 87.68171464175661
900.879 87.70875504463189
933.105 87.80906069674515
965.332 87.40932384030981
1000.49 86.7703717559372
1035.64 86.44670242920972
1072.27 85.71442179644258
1108.89 85.64390480983373
1148.44 85.32610030142413
1189.45 85.44328729944445
1230.47 85.91960150016635
1274.41 85.7425558742099
1319.82 85.83410246332527
1366.7 86.58963417639492
1413.57 86.72176031992561
1463.38 85.82824889133543
1516.11 84.91586351017165
1568.85 84.64249263541406
1624.51 85.09474305517601
1681.64 85.85562733156067
1741.7 85.8076362151301
1803.22 85.2494334523795
1866.21 83.96746363959309
1932.13 83.4772648483211
1999.51 84.05995289269813
2069.82 84.7366698273465
2143.07 84.93975373504493
2219.24 84.25223439777507
2296.88 84.27500995458455
2378.91 85.7179930673787
2462.4 87.4498901428995
2548.83 87.4529870780903
2639.65 86.17334991108808
2731.93 85.7593099652869
2828.61 86.5292001583724
2928.22 87.2624203322834
3030.76 87.29595005983535
3137.7 87.17248388334166
3249.02 86.75981600494966
3363.28 86.78216981871624
3481.93 86.6645814690407
3604.98 87.04893697472167
3732.42 87.68831994195384
3864.26 86.6623859237656
4000.49 86.73748499116769
4141.11 87.09119932251677
4287.6 86.84785249286436
4438.48 86.69011876298046
4595.21 86.1188187616722
4756.35 86.89210939910801
4924.8 86.56350141022031
5097.66 86.44214171834146
5277.83 86.38869182498446
5463.87 86.2544129701754
5657.23 86.16923987550584
5856.45 85.80492614850567
6062.99 86.11656943018707
6276.86 85.66371909029507
6498.05 86.0595958666827
6726.56 86.1111791330646
6963.87 86.19002870555094
7209.96 86.5900991561846
7464.84 86.20705398597602
7727.05 86.79842417338455
7999.51 86.34289681073876
8282.23 86.45525606463599
8573.73 86.29257716890791
8876.95 86.18110528329257
9188.96 85.75318889803803
9514.16 85.72541231984468
9849.61 85.46827492393581
10196.8 85.44325465796132
10555.7 85.18075706169765
10927.7 84.92843732154996
11313.0 84.84967768052755
11712.9 84.8435043368383
12126.0 85.01734915661666
12553.7 84.9857911823089
12996.1 85.12289921942039
13454.6 85.2339017414498
13929.2 85.52604949159817
14419.9 85.73943741726771
14928.2 85.94362789121868
15455.6 86.07412422880809
16000.5 86.17592697243737
16564.5 86.27543019658012
17148.9 86.3325848456879
17752.4 85.99718848271075
18379.4 85.52201506993264
19026.9 85.10512003545132
19697.8 84.8347726653202
19999.5 84.89189587161141
