Freq,Floor Bounce,Ceiling Bounce,Front Wall Bounce,Side Wall Bounce,Rear Wall Bounce,Total Early Reflection
20.0,40.0994575946103,40.45917076262526,39.763708828216835,40.91355764647318,42.80934020535301,40.9519786842784
20.2909,40.67754182836936,41.02825201648716,40.34344168467675,41.50105570624223,43.37396061529711,41.52645123329748
20.586,41.45098331440718,41.8080770534865,41.11574917447385,42.296293034299595,44.14954121077784,42.305854570658056
20.8855,42.191582300171945,42.52824044472922,41.83680158337884,43.05738702152462,44.88739868987261,43.04311235347461
21.1893,42.83965797957353,43.19247227568826,42.49486417085808,43.75738702152461,45.55579743485404,43.712238231072035
21.4975,43.41511660189215,43.75666867959936,43.069839519359334,44.29694654175748,46.1035893406393,44.26993422993212
21.8102,43.8173404497922,44.14397789403097,43.461942019516954,44.68524960378409,46.48355955883531,44.65838811311309
22.1274,44.29895154180815,44.61373401715059,43.95174628427688,45.19072313425298,46.947004826788344,45.13843675261117
22.4492,44.76936316815781,45.05954509456595,44.430781220643354,45.6751708256694,47.38986933160538,45.60032270458814
22.7758,45.37054308494166,45.622584522398085,45.00959248126932,46.25004790468796,47.96680137418062,46.17869059710583
23.1071,45.920107014438344,46.18525047097634,45.588425931693195,46.816712172769286,48.52803807595012,46.74204116729709
23.4432,46.60138626597711,46.84896053405893,46.26729151650801,47.496475429174524,49.16493519212918,47.40619994063866
23.7841,47.08237343136918,47.33864732082941,46.71741144914549,47.99647542917455,49.636538395697556,47.88506619401619
24.1301,47.56606361848873,47.8384679999096,47.24321049791186,48.49647542917455,50.1039699784136,48.37656210138758
24.4811,48.04771895780604,48.27908018842433,47.72794271632171,48.99647542917455,50.55301148894253,48.84556235095948
24.8372,48.42912005392833,48.63669517787292,48.10682514245494,49.36050222871543,50.92224474122281,49.21520297017602
25.1984,48.92570552814283,49.129732917903425,48.578494529890804,49.85265667300547,51.3870420708941,49.69699238256766
25.5649,49.57923120522818,49.79862137558359,49.25538740138131,50.5392322132343,52.05781145954015,50.368779615241124
25.9368,50.404234367514135,50.586376734966336,50.07886041665566,51.3361134186039,52.79271248009269,51.154722101199354
26.3141,51.511625398602064,51.685036494196424,51.16673494979992,52.436113418603895,53.856501786411286,52.243310194287744
26.6968,52.695055691416,52.85170837217083,52.36362125718429,53.61683138634359,55.023213656463895,53.42049250053165
27.0851,53.79323186044539,53.94803206380732,53.463621257184286,54.693567738079025,56.07371676711554,54.50040125127566
27.4791,54.59454339992985,54.71011507406615,54.24409363398081,55.467113029149516,56.83939538611844,55.275498047135585
27.8788,55.537224879954806,55.57562526518825,55.17711699444385,56.38099896319568,57.69320103603343,56.17175989005548
28.2843,56.13722487995483,56.17458994931437,55.777116994443844,56.980998963195674,58.2724115242454,56.76568700608033
28.6957,56.82369304964479,56.87327082890417,56.47711699444383,57.68099896319566,58.92341667197164,57.44930285896476
29.1131,57.49980904633472,57.57327082890416,57.1670658562347,58.37035864697043,59.56821323718225,58.12586340786538
29.5365,58.399809046334724,58.45070939064317,58.07996002054017,59.24560928314284,60.43491705392597,59.00947215583025
29.9661,59.154072932254564,59.15565209591597,58.82186295542675,59.955028966041795,61.119146568449935,59.724225759308865
30.402,59.84493381578909,59.80455266654667,59.50756007453538,60.63622689279771,61.7719025928381,60.394374600961754
30.8442,60.5629308079246,60.50455266654666,60.211880267960055,61.330266103356394,62.39485734174892,61.07598515370724
31.2929,61.162930807924596,61.10471045685206,60.82733962037095,61.910480064804105,62.96746916965644,61.666957755019695
31.748,61.67585971831812,61.60533184964147,61.327339620370935,62.410480064804105,63.438513167127994,62.16158245406348
32.2098,62.4166956475199,62.3365841657311,62.02733962037095,63.09048218797889,64.08561191727254,62.856098903137735
32.6783,63.02263414421887,62.90533184964147,62.63568051821362,63.69969858590423,64.63846804706957,63.44250658609741
33.1536,63.83688830612523,63.70533184964148,63.46229217423624,64.48313116965534,65.40075346009161,64.23612762657316
33.6359,64.35307195562783,64.20533184964147,63.979257031206004,64.96145431559094,65.85444671529493,64.72529371825999
34.1251,64.96799705471228,64.7995238193705,64.61167280147055,65.5576617265964,66.41013204202493,65.32024911288246
34.6215,65.51955203167216,65.27327082890417,65.11167280147055,66.06611369450333,66.86894201002342,65.8164177539613
35.125,66.1455589319545,65.88127082890415,65.734075054668,66.68138370541233,67.44104552850884,66.42267173509003
35.6359,66.85909174839446,66.57327082890416,66.44748706411625,67.3448300602907,68.06505644132567,67.09925960436975
36.1543,67.67368651732316,67.3501819048235,67.24748706411626,68.11188754459275,68.82337497738588,67.88059789092428
36.6802,68.3827008578136,68.07710626821623,67.96800749819529,68.80613495450892,69.49298900715175,68.58191791670035
37.2137,68.97316447359023,68.67710626821624,68.586235329422,69.41619104336178,70.02786166295122,69.16942622203041
37.755,69.57804489157785,69.27710626821624,69.1993509180008,69.99567171446215,70.59074646620908,69.75930452260768
38.3041,70.29078762040106,69.97710626821625,69.91825565965598,70.67712956796089,71.23157801091308,70.44692473844135
38.8613,71.00213142490058,70.63795524197683,70.61825565965597,71.35476274808173,71.87882546576947,71.12479614254615
39.4265,71.62179442646035,71.21064293731655,71.23216411888095,71.91444058398429,72.43242819264972,71.70675828267696
40.0,72.17964079451394,71.71064293731656,71.73939438250255,72.40968260758284,72.88465925580203,72.20724966712007
40.5818,72.79798751507198,72.31064293731654,72.31184513881254,72.97397460851059,73.4129369150111,72.78181782259142
41.1721,73.2023294863892,72.71064293731655,72.72753554007811,73.3696390781179,73.76666087804972,73.17395221072553
41.771,73.69026965313166,73.21664293731655,73.23260856904221,73.8539771556086,74.20786352761108,73.65683039493854
42.3785,74.2759165584395,73.78857941957793,73.8122266626853,74.42707590289498,74.76028040346893,74.22875028442557
42.9949,74.8728543903778,74.38006754458495,74.43438975642252,75.00434615799927,75.28572624479492,74.80913366283976
43.6203,75.29271946792772,74.71064293731655,74.83075447817072,75.3595114793262,75.63095459516926,75.1784419752469
44.2548,75.75672189952958,75.21064293731655,75.30156792899581,75.82745971300264,76.05352468647598,75.64186434515723
44.8985,76.1817245209113,75.61064293731656,75.71538727666147,76.19784227385448,76.40616437150723,76.03304604571375
45.5515,76.7148275147042,76.11906754458494,76.24481384986143,76.68136648508974,76.86599962351053,76.53481270123731
46.2141,77.16770076752339,76.53784300541356,76.67707230508204,77.1157228353779,77.26328647244301,76.96184488090378
46.8863,77.5662549512874,76.91064293731655,77.07707230508204,77.49142436365273,77.58254465885993,77.33436636691195
47.5683,77.82037048856385,77.21064293731655,77.34878405375382,77.73583418047699,77.81675862759562,77.59395481189594
48.2602,78.22037048856384,77.54469476816604,77.73041658863448,78.09454972499893,78.14808367372979,77.95550139309294
48.9621,78.48192972223542,77.81064293731656,77.9872832414749,78.33522944900315,78.36167469339381,78.20267027377558
49.6743,78.81448975170751,78.13951932552635,78.32336243623699,78.63397898465666,78.6447225719211,78.51803552507891
50.3968,79.03688678576187,78.32352173913134,78.53466106245666,78.84700445803783,78.79986863307583,78.7155702804508
51.1299,79.24007280610563,78.53751932552636,78.75705864768699,79.00900445803782,78.97987780922844,78.91125786318212
51.8736,79.44083290551627,78.69967485709778,78.94710046662328,79.19786877933129,79.13027438753846,79.09024025542782
52.6281,79.67455828669665,78.94651932552634,79.18595736483066,79.40756422561952,79.29365640612122,79.30833537783361
53.3936,79.85676772097412,79.07551932552634,79.3717618806642,79.55161213518977,79.43012036174443,79.46459039043175
54.1702,80.08884862589281,79.31231335133253,79.60191117492978,79.76794853136785,79.62596368500144,79.68677715878006
54.9581,80.3475811586686,79.57069546243113,79.82682979744519,80.00028891732197,79.83439290851453,79.92355861911068
55.7575,80.30506754458494,79.49182026350319,79.7816574753864,79.936483533962,79.74915084956845,79.86114818050443
56.5685,80.52706754458492,79.73905600872824,80.03705644815719,80.17904217809954,79.97463743188503,80.09922491844459
57.3914,80.63003252774178,79.8163277382424,80.11228808549912,80.25901334188214,80.01247263231913,80.17470212641851
58.2261,80.74170926573102,79.9068370145335,80.22238056724561,80.35901334188213,80.0913493325912,80.27348517341647
59.073,80.86498307082647,80.01965127309627,80.32238056724562,80.44616364999226,80.17671759870467,80.3756234495662
59.9323,80.88496061024338,80.02975502796697,80.34201371893184,80.43213214827458,80.1509918522251,80.37810862098998
60.804,80.97522467553475,80.10879891657534,80.44925002119535,80.52011956059025,80.20719254843836,80.46277244513928
61.6884,81.08365209591597,80.23631473468383,80.5904074229196,80.64373489470323,80.3181567313131,80.58481724137192
62.5857,81.16430405548502,80.26567000455572,80.60224557061117,80.66982817973259,80.31381407450628,80.6152730602785
63.496,81.24470908854653,80.34593227546785,80.70488856027153,80.75299949175732,80.39793260706836,80.70134730930458
64.4196,81.20677003597478,80.31064609169111,80.70488856027153,80.70383433094162,80.35136529721085,80.66764572845253
65.3566,81.33493988791722,80.42051495750063,80.81737069731172,80.80348462149401,80.44405615137129,80.77694820997738
66.3073,81.37020125786164,80.44259152307698,80.83337763143446,80.83744982915063,80.45402789210263,80.80095934253951
67.2717,81.4737910847416,80.55099002671538,80.95281448741648,80.935028674168,80.54088569571637,80.90433916478435
68.2502,81.48305386314964,80.56297498177821,80.9527267877412,80.94915998727961,80.53620623543948,80.91063461702417
69.2429,81.47630419378173,80.57363658535077,80.9641329276833,80.9380777892964,80.53750839338159,80.91137841630092
70.2501,81.49383219347355,80.55964181406372,80.97430240652739,80.95041066786574,80.5236953470048,80.91480812586477
71.2719,81.70533184964147,80.77096875231726,81.18893534584662,81.15806716809996,80.71117042109844,81.1217554914659
72.3086,81.8096911134902,80.87096875231725,81.27618093013307,81.25525273465466,80.80593299649024,81.21864542637665
73.3603,81.87221614043641,80.94789764765315,81.36969852138341,81.33323362738322,80.87968424459604,81.29528193743349
74.4274,82.05162526518825,81.12119907524018,81.50293341035257,81.49329162944602,81.05076998877692,81.45878361561496
75.5099,82.05662526518826,81.09108482745012,81.50572208664624,81.49725052802117,81.00577052899268,81.44757445056018
76.6083,82.07562526518825,81.07716595993298,81.51633200381892,81.49600719003762,81.00367151307294,81.45091715400707
77.7226,82.11156276209752,81.1784729639727,81.59470251177959,81.556863896207,81.0893637602035,81.52153909405276
78.8531,82.1795627620975,81.18240168822108,81.64690492052807,81.62023504204996,81.12292620453842,81.56737795196443
80.0,82.24803206380736,81.30379108474162,81.72881041429831,81.7008072056549,81.22425945862074,81.65669327604672
81.1636,82.25990491226274,81.26173060480023,81.72017003740126,81.68923504204997,81.22043734917123,81.64690689632857
82.3442,82.24803206380736,81.30379108474162,81.74418903811588,81.72917148271205,81.24938129080657,81.67011616965144
83.5419,82.40501109306979,81.43309622359652,81.86751640178481,81.85959337410927,81.3773693206193,81.80453311886252
84.757,82.36775225839668,81.40379108474161,81.8285321003602,81.8205655356759,81.3526291919126,81.7702990813344
85.9899,82.48503649419644,81.50379108474161,81.97452968640187,81.9517830986057,81.50320017168468,81.89913043773191
87.2406,82.60057926524246,81.62252494676981,82.08364086983768,82.08894487606102,81.6291294277988,82.020230691498
88.5096,82.52257926524247,81.60379108474163,82.0163320038189,82.05178309860571,81.57951804825339,81.96875479961597
89.797,82.66066347396222,81.70379108474162,82.1564205505545,82.15591295566396,81.69729068472658,82.0896377153746
91.1031,82.66066347396222,81.73712310902215,82.2026552781358,82.17159337410928,81.74661471599838,82.1173666671597
92.4282,82.76066347396221,81.83712310902213,82.30265527813577,82.27924096090848,81.882476124876,82.22552176884696
93.7726,82.79929209943418,81.83712310902213,82.30265527813577,82.3114010891065,81.90342060738652,82.24467363874342
95.1366,82.79929209943418,81.83712310902213,82.30265527813577,82.3114010891065,81.90342060738652,82.24467363874342
96.5204,82.89929209943419,81.93712310902214,82.37251116705731,82.4114010891065,82.00342060738652,82.33858067042281
97.9243,82.83846799990958,81.92372888292215,82.37251116705731,82.3917719753166,82.00761632434732,82.31914788048465
99.3486,82.93846799990958,81.96110041186057,82.43124867114882,82.47205373947405,82.10910606798306,82.39569244060603
100.794,82.99189005811672,82.03712310902215,82.50265527813579,82.55269746392759,82.19938796889974,82.46929079859103
102.26,82.93846799990958,82.03712310902215,82.47251116705732,82.54799822951082,82.1907897856731,82.44863868020548
103.747,83.10808856077557,82.16076089933101,82.63124867114882,82.69269906174382,82.37615329221833,82.60562177930306
105.256,83.03846799990959,82.13712310902214,82.57251116705731,82.66526395819292,82.3660042626082,82.56644146390512
106.787,83.10808856077557,82.16372888292216,82.61322335574684,82.741541044871,82.43064057838656,82.6229285660573
108.34,83.11291657810236,82.23712310902214,82.67251116705732,82.75745284510862,82.49797882135883,82.66529328994935
109.916,83.10808856077557,82.20379108474161,82.64284968899324,82.75703128848826,82.49797882135883,82.65217822856475
111.515,83.20808856077556,82.30379108474162,82.71498403473407,82.87529709820274,82.59229283808219,82.74928740280527
113.137,83.20808856077556,82.33712310902214,82.7446158491633,82.87529709820274,82.65513770115012,82.77337082871274
114.783,83.23082281850047,82.33712310902214,82.7888646779815,82.90777477353072,82.68637387357978,82.79994048421966
116.452,83.3483906763858,82.50379108474162,82.91498403473408,83.03578381785476,82.81138869302193,82.93166581977094
118.146,83.37819391001754,82.50379108474162,82.92551848388192,83.07809030191106,82.86588780374433,82.95963824912985
119.865,83.29876957826602,82.40379108474163,82.84284968899324,82.97809030191107,82.79666331664555,82.87364888824445
121.608,83.30808856077556,82.40379108474163,82.8835740306009,82.99861872133891,82.79977191377557,82.88863261828033
123.377,83.3384679999096,82.44446262343752,82.88561220270307,83.00203317440845,82.80541885945127,82.90484218326361
125.171,83.31846799990959,82.48379108474163,82.87397005208058,82.99157215024591,82.82464855957676,82.9068537692533
126.992,83.47564390716579,82.60379108474163,83.03427442834362,83.17956804889899,82.9447553670704,83.05699283849519
128.839,83.48129209943419,82.61989647091458,83.04124096116054,83.16156804889897,82.93823569689664,83.05756688680421
130.713,83.46296580986896,82.53986645177224,83.0276257492198,83.07956804889898,82.87450048427782,83.00724557491682
132.615,83.4992920994342,82.60533184964146,83.0708591185559,83.13498013977257,82.88864309516626,83.04980481153825
134.543,83.46066347396221,82.54348283291114,83.02772458009652,83.06297257153057,82.80171619868369,82.99000032690901
136.5,83.56690873510074,82.63789647091457,83.12495777537819,83.13991934890802,82.8381874160883,83.07304033609472
138.486,83.68257926524247,82.72555453090388,83.20829972006305,83.19991934890803,82.87378542653545,83.15070662691323
140.5,83.61615887948108,82.67252120375939,83.1570457194922,83.1332933031393,82.76200307913275,83.08128655904724
142.544,83.59529412877718,82.64021614043641,83.17110673450424,83.11996373101924,82.68717292176147,83.05703792895821
144.617,83.72803206380735,82.7202161404364,83.2682036957628,83.2190231660159,82.70778507794584,83.14560123874675
146.721,83.65335472353648,82.65082116997033,83.25206725277926,83.14229870834492,82.58477705886332,83.07489846163406
148.855,83.78507585014626,82.73952120375941,83.3571074024779,83.23506084104604,82.59798879645223,83.16434347167717
151.02,83.78467767143987,82.70716179384162,83.35694702586805,83.1906636493527,82.51048915407318,83.13408002691654
153.217,83.74439066444808,82.6733057287577,83.34260421364253,83.15313904241079,82.3962616784359,83.08829280302244
155.445,83.77199520107727,82.65165679653126,83.3474431386326,83.13586969294747,82.33766234574557,83.07839926391227
157.706,83.85942139747893,82.73475762118971,83.46194910867335,83.23284474135959,82.3636783500308,83.16247462969022
160.0,83.85215263785607,82.70263560139631,83.47347952376522,83.21310373666154,82.2913366596544,83.14145060064182
162.327,83.75334200945085,82.5960121646975,83.38519082140618,83.11208556627281,82.13014972614,83.03285932686417
164.688,83.85308125097342,82.67965982200192,83.50455227165247,83.21910433853876,82.19184647597567,83.12928845271162
167.084,83.86029796358281,82.66803314077004,83.51698838298873,83.22333916047175,82.15888480087405,83.12718894979378
169.514,83.95532464889233,82.75403314077002,83.6255018767829,83.32667747376937,82.2289311595621,83.22126330779668
171.98,83.96964616322008,82.76384297167004,83.6623486752237,83.34971686467287,82.22693146232733,83.23892664314779
174.481,83.98016635990581,82.75106196800522,83.6854459061348,83.36278856503029,82.22417373035123,83.24647995864963
177.019,83.98886059423654,82.76341032149375,83.70319990264419,83.39000651821958,82.22423557238713,83.2602806819157
179.594,83.9787315111094,82.73930970088045,83.70284865668798,83.38682121925987,82.21233241669735,83.25098382856505
182.206,83.99502205307873,82.73943170650443,83.73896151472567,83.4212097282119,82.2396890439816,83.27429600653771
184.856,84.0074064298191,82.75821139940555,83.7605756043777,83.42448061645972,82.25219150929692,83.2880036270363
187.545,84.10707763801369,82.84356758565218,83.86859794276528,83.5471818477448,82.37047233208628,83.39470722946771
190.273,84.11586133377565,82.8346962794208,83.87454131944736,83.53862316714515,82.3760523986878,83.39565548003148
193.041,84.24021614043642,82.95298406183646,83.99752983149553,83.67629581783811,82.50733486051398,83.52249230124035
195.849,84.20267853248811,82.94333184964148,83.97854399439979,83.63434315177766,82.49046505612012,83.49636056036384
198.697,84.2181780961928,82.90533184964147,83.97077783536719,83.61206292370261,82.48164229694933,83.4856185745805
201.587,84.23144600503808,82.90533184964147,83.98495657315374,83.61735066286258,82.50010599289462,83.49595456015503
204.52,84.21760073574815,82.90533184964147,83.97077783536719,83.61735066286258,82.48454473444147,83.48703194837408
207.494,84.33865209591598,83.00533184964148,84.05671575372259,83.68961608556542,82.55552554411204,83.57858888270874
210.512,84.33865209591598,82.98028125418672,84.05671575372259,83.64152835630057,82.5187781744552,83.55857022914373
213.574,84.34250352991384,82.97327082890416,84.05671575372259,83.61735066286258,82.46533417502977,83.5449683913183
216.681,84.38496875231726,83.00802136044402,84.08300463746633,83.61760014483697,82.46039072982117,83.56650072167622
219.833,84.26602594884766,82.89097670223754,83.95446027291925,83.47087347359849,82.29132386064947,83.43237414332957
223.03,84.38612310902214,83.01180050338547,84.0277578394804,83.52587312544844,82.32374733831419,83.51555878176168
226.274,84.39395819896487,83.00835000243585,84.02137400724878,83.48696246137229,82.24847319347444,83.49627376240082
229.565,84.33299787132971,82.95561016993584,83.97608290144393,83.39432157395862,82.10716660406888,83.42206197324495
232.905,84.33834803981374,82.94206926150565,83.94939795005487,83.3411666223954,81.99188402333354,83.38746358033863
236.292,84.32492032099971,82.94770926573104,83.93694041544161,83.29428623826661,81.88601710028308,83.3578164932609
