Freq "Rear Wall Bounce"
20.0 42.93813894749137
20.2909 43.502759357435465
20.586 44.2783399529162
20.8855 45.01619743201097
21.1893 45.6845961769924
21.4975 46.23238808277766
21.8102 46.61235830097367
22.1274 47.0758035689267
22.4492 47.51866807374374
22.7758 48.09560011631898
23.1071 48.65683681808848
23.4432 49.293733934267536
23.7841 49.765337137835914
24.1301 50.23276872055196
24.4811 50.68181023108089
24.8372 51.05104348336117
25.1984 51.515840813032455
25.5649 52.186610201678505
25.9368 52.92151122223105
26.3141 53.985300528549644
26.6968 55.15201239860225
27.0851 56.2025155092539
27.4791 56.9681941282568
27.8788 57.82199977817179
28.2843 58.40121026638376
28.6957 59.052215414109995
29.1131 59.69701197932061
29.5365 60.56371579606433
29.9661 61.24794531058829
30.402 61.90070133497646
30.8442 62.523656083887275
31.2929 63.0962679117948
31.748 63.56731190926635
32.2098 64.2144106594109
32.6783 64.76726678920792
33.1536 65.52955220222997
33.6359 65.98324545743328
34.1251 66.53893078416328
34.6215 66.99774075216177
35.125 67.5698442706472
35.6359 68.19385518346402
36.1543 68.95217371952424
36.6802 69.6217877492901
37.2137 70.15666040508958
37.755 70.71954520834744
38.3041 71.36037675305144
38.8613 72.00762420790782
39.4265 72.56122693478808
40.0 73.01345799794039
40.5818 73.54173565714946
41.1721 73.89545962018808
41.771 74.33666226974944
42.3785 74.88907914560728
42.9949 75.41452498693327
43.6203 75.75975333730761
44.2548 76.18232342861434
44.8985 76.53496311364559
45.5515 76.99479836564889
46.2141 77.39208521458137
46.8863 77.71134340099829
47.5683 77.94555736973398
48.2602 78.27688241586814
48.9621 78.49047343553217
49.6743 78.77352131405945
50.3968 78.92866737521419
51.1299 79.1086765513668
51.8736 79.25907312967682
52.6281 79.42245514825957
53.3936 79.55891910388279
54.1702 79.7547624271398
54.9581 79.96319165065289
55.7575 79.87794959170681
56.5685 80.10343617402339
57.3914 80.14127137445749
58.2261 80.22014807472955
59.073 80.30551634084303
59.9323 80.27979059436346
60.804 80.33599129057671
61.6884 80.44695547345145
62.5857 80.44261281664464
63.496 80.52673134920671
64.4196 80.4801640393492
65.3566 80.57285489350964
66.3073 80.58282663424099
67.2717 80.66968443785473
68.2502 80.66500497757784
69.2429 80.66630713551994
70.2501 80.65249408914316
71.2719 80.8399691632368
72.3086 80.9347317386286
73.3603 81.00848298673439
74.4274 81.17956873091528
75.5099 81.13456927113104
76.6083 81.1324702552113
77.7226 81.21816250234185
78.8531 81.25172494667677
80.0 81.3530582007591
81.1636 81.34923609130959
82.3442 81.37818003294493
83.5419 81.50616806275765
84.757 81.48142793405096
85.9899 81.63199891382304
87.2406 81.75792816993716
88.5096 81.70831679039175
89.797 81.82608942686494
91.1031 81.87541345813673
92.4282 82.01127486701436
93.7726 82.03221934952488
95.1366 82.03221934952488
96.5204 82.13221934952487
97.9243 82.13641506648568
99.3486 82.23790481012142
100.794 82.3281867110381
102.26 82.31958852781146
103.747 82.50495203435669
105.256 82.49480300474656
106.787 82.55943932052492
108.34 82.62677756349719
109.916 82.62677756349719
111.515 82.72109158022054
113.137 82.78393644328848
114.783 82.81517261571814
116.452 82.94018743516028
118.146 82.99468654588269
119.865 82.9254620587839
121.608 82.92857065591393
123.377 82.93421760158962
125.171 82.95344730171512
126.992 83.07355410920876
128.839 83.067034439035
130.713 83.00329922641617
132.615 83.01744183730462
134.543 82.93051494082205
136.5 82.96698615822666
138.486 83.0025841686738
140.5 82.89080182127111
142.544 82.81597166389983
144.617 82.8365838200842
146.721 82.71357580100168
148.855 82.72678753859059
151.02 82.63928789621154
153.217 82.52506042057426
155.445 82.46646108788393
157.706 82.49247709216915
160.0 82.42013540179276
162.327 82.25894846827836
164.688 82.32064521811402
167.084 82.2876835430124
169.514 82.35772990170045
171.98 82.35573020446569
174.481 82.35297247248958
177.019 82.35303431452549
179.594 82.34113115883571
182.206 82.36848778611996
184.856 82.38099025143528
187.545 82.49927107422464
190.273 82.50485114082616
193.041 82.63613360265234
195.849 82.61926379825847
198.697 82.61044103908769
201.587 82.62890473503298
204.52 82.61334347657983
207.494 82.6843242862504
210.512 82.64757691659356
213.574 82.59413291716812
216.681 82.58918947195953
219.833 82.42012260278783
223.03 82.45254608045255
226.274 82.3772719356128
229.565 82.23596534620724
232.905 82.1206827654719
236.292 82.01481584242144
239.729 81.96542813808509
243.216 81.83491035299907
246.754 81.59281198930994
250.343 81.66718788200336
253.984 81.51635602332512
257.678 81.4497216972091
261.426 81.25087091490155
265.229 81.29339195305091
269.087 81.19173588004546
273.001 81.10712045074318
276.972 81.1306384344057
281.0 81.18894710443443
285.088 81.20983749651658
289.234 81.18059021975618
293.441 81.22401590228291
297.709 81.26539807873436
302.04 81.28481672647136
306.433 81.2681475295016
310.89 81.24619316831436
315.412 81.16226803266305
320.0 81.13022103710087
324.655 81.02853066444763
329.377 80.91086348070094
334.168 80.61711296911514
339.028 80.43813882444137
343.959 80.27685978805363
348.962 80.16830313224781
354.038 80.09274951738307
359.188 79.99902560365449
364.412 79.85022919162127
369.713 79.83303636720693
375.09 79.84429094452378
380.546 79.9220803794793
386.081 79.89761224025752
391.697 79.92706373333449
397.394 79.90374975361898
403.175 79.88163574887895
409.039 79.72834463862036
414.989 79.69094956632227
421.025 79.57607376595367
427.149 79.33043293182516
433.362 79.172501605105
439.665 78.9288651886461
446.06 78.84517625323386
452.548 78.66823256308997
459.131 78.60531203026015
465.809 78.4625377925161
472.584 78.46474747398581
479.458 78.41443198914608
486.432 78.47640921111642
493.507 78.38848207655883
500.686 78.2936971541488
507.968 78.28415246091977
515.357 78.18729264723342
522.853 78.11979080781892
530.458 78.10987300487608
538.174 77.93997172622231
546.002 77.80583721065884
553.943 77.70979508573477
562.001 77.60910951660726
570.175 77.63096068709295
578.469 77.53394310531905
586.883 77.4604538476376
595.419 77.36909519347529
604.08 77.28107302719691
612.866 77.30062212010232
621.78 77.23737199676576
630.824 77.17329924436133
640.0 77.16716304789554
649.309 77.17306256650662
658.753 77.20685456399418
668.335 77.32816033219802
678.056 77.31851000497217
687.919 77.23522566260509
697.925 77.19619795818595
708.077 76.99529496685696
718.376 76.79605411966135
728.825 76.64830646012535
739.426 76.4419535587382
750.181 76.42886271996618
761.093 76.3084760273268
772.163 76.28330661490453
783.394 76.14325987697359
794.789 76.01979906456212
806.349 75.8298895771657
818.078 75.54218798468794
829.977 75.40238766111482
842.05 75.34999785034717
854.298 75.39889161024989
866.724 75.52287238999982
879.33 75.58442218786017
892.12 75.72298858201475
905.097 75.75995807307103
918.262 75.69327714200865
931.618 75.49212178461364
945.169 75.1002942678365
958.917 74.65542688021773
972.864 74.03770436041452
987.015 73.49754056833714
1001.37 73.17364644970392
1015.94 73.0870688155971
1030.71 73.09434067701496
1045.71 73.16746589343894
1060.92 73.0400729141217
1076.35 72.85515123619508
1092.0 72.8295774301274
1107.89 72.7956924627313
1124.0 72.76744979749297
1140.35 72.75646602545531
1156.94 72.58442091881062
1173.77 72.51866715874878
1190.84 72.45891573511797
1208.16 72.25144073159117
1225.73 72.03056539728888
1243.56 71.79287809630932
1261.65 71.85648173231611
1280.0 71.8970985279615
1298.62 71.59825242191171
1317.51 71.2461534769611
1336.67 71.06359087313646
1356.11 71.07247603459156
1375.84 71.2043812497453
1395.85 71.24787485049688
1416.15 71.26948440011896
1436.75 71.43428891390376
1457.65 71.37348640879732
1478.85 71.02074300176493
1500.36 70.88530349379526
1522.19 70.94743980733395
1544.33 70.8803554514362
1566.79 70.84771065680835
1589.58 70.79934701200943
1612.7 70.58281427574643
1636.16 70.36220475876863
1659.95 70.43761548006354
1684.1 70.53458010196918
1708.6 70.53170596348208
1733.45 70.26279045535036
1758.66 70.17428050071327
1784.24 70.01057530896806
1810.19 69.88484521040398
1836.52 69.88490642980351
1863.24 70.25623036121937
1890.34 70.31463527486532
1917.83 70.43295129460682
1945.73 70.67144303783697
1974.03 70.75151134949947
2002.74 70.74207750613238
2031.87 70.94909559977087
2061.43 70.84309260493023
2091.41 70.5965905055771
2121.83 70.34524438807925
2152.69 70.24439201381308
2184.01 70.32629232103504
2215.77 70.23308256314813
2248.0 70.13988583100165
2280.7 70.0803003096761
2313.87 69.95412507581132
2347.53 69.83309995005061
2381.68 69.7898500319206
2416.32 69.92109092198676
2451.46 69.98240762925019
2487.12 69.91440678375984
2523.3 70.03777885951276
2560.0 69.9732563281992
2597.24 69.68047342917475
2635.01 69.56683569916514
2673.34 69.64317418742371
2712.23 69.86771492879963
2751.68 70.03115098096058
2791.7 70.02347959051708
2832.31 70.07243079512635
2873.5 70.13289010144224
2915.3 70.2062598769854
2957.7 70.52602180726802
3000.72 70.66694786303205
3044.37 70.65248070155128
3088.65 70.75692448672649
3133.58 70.87171376548434
3179.16 70.98492949579943
3225.4 70.8667551670598
3272.31 70.82341370313496
3319.91 70.96405534062082
3368.2 70.93822956223742
3417.19 70.94327058670129
3466.89 70.8224511730265
3517.32 70.72466545983848
3568.48 70.7684808972627
3620.39 70.8366638232471
3673.05 70.9502917053593
3726.47 70.83590118857641
3780.67 70.75715608860096
3835.67 70.8366608729319
3891.46 70.9863710841693
3948.06 70.96965012040967
4005.49 70.88565022544608
4063.75 70.88444452145711
4122.86 70.92238467650323
4182.82 70.78300802394158
4243.66 70.65660297233696
4305.39 70.56916945786382
4368.01 70.47810615734542
4431.55 70.21844545523716
4496.01 69.98591730816844
4561.4 69.65442192459713
4627.75 69.38883439335885
4695.06 69.07439138199459
4763.35 68.52248310501038
4832.64 68.33125986609325
4902.93 68.29149030658554
4974.24 68.06082653257685
5046.6 68.18509177258748
5120.0 68.6152697441956
5194.47 68.6471379608801
5270.03 68.85150958767528
5346.68 68.95504361933006
5424.45 68.91387647775312
5503.35 68.86437449358154
5583.4 68.73969027512736
5664.61 68.45954755888427
5747.01 68.16348415600983
5830.6 67.95042249398286
5915.41 67.56224602943833
6001.45 67.35675949088457
6088.74 67.29027366161601
6177.3 66.93913079091858
6267.15 66.8866927638942
6358.31 66.57075412467718
6450.8 66.20164188051513
6544.62 66.01587705587995
6639.82 65.86313599154633
6736.4 65.69813868893189
6834.38 65.53149606136502
6933.79 65.09169463538315
7034.64 64.74969490551926
7136.96 64.34495551936611
7240.77 64.21757511345787
7346.09 64.4439188471418
7452.94 64.64159318011419
7561.35 64.78728069503411
7671.33 64.60398054818566
7782.91 64.1681032231074
7896.12 63.49331036650126
8010.97 62.97421800600597
8127.49 62.56429668934594
8245.71 62.475230700697594
8365.65 62.26598828111305
8487.33 62.13478253363478
8610.78 61.83827730309308
8736.03 61.48129280320771
8863.09 61.126183057363804
8992.01 60.814742274898876
9122.8 60.41429868523524
9255.5 59.95144765998536
9390.12 59.49264628066014
9526.7 59.00524898302426
9665.27 58.42679530877241
9805.86 57.97261467698475
9948.49 57.76210716202699
10093.2 57.661533739933205
10240.0 57.631642145485145
10388.9 57.460969895866484
10540.1 57.169829846362134
10693.4 56.729577181115715
10848.9 56.50659522826005
11006.7 56.16855006916542
11166.8 55.75534945523874
11329.2 55.40029893328541
11494.0 55.314069666829724
11661.2 55.693404678111776
11830.8 56.39725399352601
12002.9 57.225725333705256
12177.5 57.87944034453595
12354.6 58.06115878016912
12534.3 58.07555775914712
12716.6 58.23740383031456
12901.6 58.791624255683374
13089.2 59.53180722983713
13279.6 60.42657019309989
13472.8 61.39905236950479
13668.8 62.26491821917453
13867.6 62.679209316126915
14069.3 62.43068278202382
14273.9 61.93194939258062
14481.5 61.238419592811454
14692.2 60.49679288246942
14905.9 59.923577975994036
15122.7 59.16164118654051
15342.7 58.181047444128055
15565.8 56.792305478756944
15792.2 55.11041896084966
16021.9 53.32684048304692
16255.0 51.682635630162466
16491.4 49.95279472665813
16731.3 48.422499659628656
16974.7 47.16257328136946
17221.6 45.90730657251059
17472.1 44.08922505943595
17726.2 42.55683905959249
17984.0 41.72912250877904
18245.6 40.47268924487268
18511.0 39.76912451815083
18780.2 40.51445148975192
19053.4 43.027705838323286
19330.5 45.44174870070303
19611.7 46.46604108077439
19897.0 47.42830350609553
