Freq "Rear Wall Bounce"
20.0 42.93813894749138
20.2909 43.50275935743548
20.586 44.27833995291621
20.8855 45.01619743201098
21.1893 45.684596176992414
21.4975 46.232388082777646
21.8102 46.61235830097365
22.1274 47.075803568926716
22.4492 47.518668073743754
22.7758 48.09560011631896
23.1071 48.65683681808849
23.4432 49.29373393426755
23.7841 49.7653371378359
24.1301 50.232768720551974
24.4811 50.6818102310809
24.8372 51.051043483361155
25.1984 51.51584081303247
25.5649 52.18661020167852
25.9368 52.92151122223103
26.3141 53.98530052854966
26.6968 55.15201239860227
27.0851 56.202515509253885
27.4791 56.96819412825681
27.8788 57.8219997781718
28.2843 58.40121026638377
28.6957 59.05221541411001
29.1131 59.69701197932062
29.5365 60.563715796064315
29.9661 61.24794531058829
30.402 61.900701334976475
30.8442 62.523656083887275
31.2929 63.09626791179481
31.748 63.56731190926635
32.2098 64.2144106594109
32.6783 64.76726678920792
33.1536 65.52955220222997
33.6359 65.98324545743328
34.1251 66.53893078416328
34.6215 66.99774075216177
35.125 67.5698442706472
35.6359 68.19385518346402
36.1543 68.95217371952424
36.6802 69.62178774929012
37.2137 70.15666040508958
37.755 70.71954520834743
38.3041 71.36037675305144
38.8613 72.00762420790781
39.4265 72.5612269347881
40.0 73.01345799794039
40.5818 73.54173565714945
41.1721 73.89545962018806
41.771 74.33666226974944
42.3785 74.88907914560727
42.9949 75.41452498693327
43.6203 75.75975333730761
44.2548 76.18232342861432
44.8985 76.53496311364559
45.5515 76.99479836564889
46.2141 77.39208521458137
46.8863 77.7113434009983
47.5683 77.94555736973398
48.2602 78.27688241586813
48.9621 78.49047343553218
49.6743 78.77352131405945
50.3968 78.92866737521419
51.1299 79.1086765513668
51.8736 79.2590731296768
52.6281 79.42245514825959
53.3936 79.55891910388279
54.1702 79.7547624271398
54.9581 79.9631916506529
55.7575 79.87794959170681
56.5685 80.10343617402339
57.3914 80.14127137445749
58.2261 80.22014807472955
59.073 80.30551634084303
59.9323 80.27979059436346
60.804 80.33599129057671
61.6884 80.44695547345145
62.5857 80.44261281664464
63.496 80.52673134920671
64.4196 80.4801640393492
65.3566 80.57285489350964
66.3073 80.58282663424099
67.2717 80.66968443785473
68.2502 80.66500497757784
69.2429 80.66630713551993
70.2501 80.65249408914316
71.2719 80.8399691632368
72.3086 80.93473173862861
73.3603 81.00848298673439
74.4274 81.17956873091528
75.5099 81.13456927113104
76.6083 81.1324702552113
77.7226 81.21816250234187
78.8531 81.25172494667677
80.0 81.35305820075911
81.1636 81.34923609130959
82.3442 81.37818003294493
83.5419 81.50616806275764
84.757 81.48142793405097
85.9899 81.63199891382305
87.2406 81.75792816993716
88.5096 81.70831679039173
89.797 81.82608942686494
91.1031 81.87541345813673
92.4282 82.01127486701436
93.7726 82.0322193495249
95.1366 82.0322193495249
96.5204 82.13221934952489
97.9243 82.13641506648568
99.3486 82.23790481012144
100.794 82.3281867110381
102.26 82.31958852781146
103.747 82.50495203435668
105.256 82.49480300474656
106.787 82.55943932052493
108.34 82.62677756349717
109.916 82.62677756349717
111.515 82.72109158022053
113.137 82.78393644328848
114.783 82.81517261571813
116.452 82.94018743516028
118.146 82.99468654588267
119.865 82.92546205878392
121.608 82.92857065591394
123.377 82.93421760158962
125.171 82.95344730171512
126.992 83.07355410920876
128.839 83.067034439035
130.713 83.00329922641617
132.615 83.01744183730462
134.543 82.93051494082206
136.5 82.96698615822666
138.486 83.00258416867379
140.5 82.89080182127113
142.544 82.81597166389983
144.617 82.8365838200842
146.721 82.71357580100168
148.855 82.7267875385906
151.02 82.63928789621153
153.217 82.52506042057425
155.445 82.46646108788393
157.706 82.49247709216915
160.0 82.42013540179276
162.327 82.25894846827836
164.688 82.32064521811401
167.084 82.28768354301242
169.514 82.35772990170045
171.98 82.35573020446569
174.481 82.35297247248957
177.019 82.35303431452549
179.594 82.34113115883571
182.206 82.36848778611996
184.856 82.38099025143526
187.545 82.49927107422464
190.273 82.50485114082618
193.041 82.63613360265234
195.849 82.61926379825847
198.697 82.61044103908769
201.587 82.62890473503296
204.52 82.61334347657983
207.494 82.68432428625039
210.512 82.64757691659358
213.574 82.59413291716811
216.681 82.58918947195951
219.833 82.42012260278783
223.03 82.45254608045255
226.274 82.37727193561281
229.565 82.23596534620725
232.905 82.12068276547191
236.292 82.01481584242144
239.729 81.96542813808509
243.216 81.83491035299907
246.754 81.59281198930995
250.343 81.66718788200336
253.984 81.5163560233251
257.678 81.4497216972091
261.426 81.25087091490157
265.229 81.29339195305091
269.087 81.19173588004547
273.001 81.10712045074318
276.972 81.1306384344057
281.0 81.18894710443442
285.088 81.20983749651657
289.234 81.18059021975617
293.441 81.22401590228291
297.709 81.26539807873436
302.04 81.28481672647136
306.433 81.26814752950162
310.89 81.24619316831436
315.412 81.16226803266305
320.0 81.13022103710085
324.655 81.02853066444763
329.377 80.91086348070093
334.168 80.61711296911515
339.028 80.43813882444138
343.959 80.27685978805363
348.962 80.16830313224783
354.038 80.09274951738306
359.188 79.99902560365447
364.412 79.85022919162125
369.713 79.83303636720692
375.09 79.84429094452378
380.546 79.92208037947931
386.081 79.89761224025752
391.697 79.92706373333448
397.394 79.90374975361898
403.175 79.88163574887895
409.039 79.72834463862037
414.989 79.69094956632227
421.025 79.57607376595367
427.149 79.33043293182517
433.362 79.172501605105
439.665 78.9288651886461
446.06 78.84517625323387
452.548 78.66823256308996
459.131 78.60531203026014
465.809 78.46253779251612
472.584 78.4647474739858
479.458 78.41443198914608
486.432 78.47640921111642
493.507 78.38848207655883
500.686 78.2936971541488
507.968 78.28415246091977
515.357 78.18729264723342
522.853 78.11979080781892
530.458 78.10987300487608
538.174 77.93997172622231
546.002 77.80583721065885
553.943 77.70979508573475
562.001 77.60910951660728
570.175 77.63096068709294
578.469 77.53394310531907
586.883 77.4604538476376
595.419 77.3690951934753
604.08 77.28107302719691
612.866 77.3006221201023
621.78 77.23737199676576
630.824 77.17329924436133
640.0 77.16716304789554
649.309 77.17306256650662
658.753 77.20685456399418
668.335 77.32816033219804
678.056 77.31851000497215
687.919 77.2352256626051
697.925 77.19619795818593
708.077 76.99529496685696
718.376 76.79605411966136
728.825 76.64830646012535
739.426 76.44195355873819
750.181 76.42886271996616
761.093 76.30847602732682
772.163 76.28330661490452
783.394 76.14325987697359
794.789 76.01979906456212
806.349 75.82988957716572
818.078 75.54218798468794
829.977 75.4023876611148
842.05 75.34999785034717
854.298 75.39889161024988
866.724 75.5228723899998
879.33 75.58442218786017
892.12 75.72298858201475
905.097 75.75995807307103
918.262 75.69327714200867
931.618 75.49212178461363
945.169 75.1002942678365
958.917 74.65542688021773
972.864 74.03770436041452
987.015 73.49754056833714
1001.37 73.17364644970392
1015.94 73.08706881559712
1030.71 73.09434067701494
1045.71 73.16746589343896
1060.92 73.04007291412168
1076.35 72.85515123619508
1092.0 72.82957743012742
1107.89 72.7956924627313
1124.0 72.76744979749296
1140.35 72.75646602545531
1156.94 72.58442091881062
1173.77 72.51866715874878
1190.84 72.45891573511798
1208.16 72.25144073159117
1225.73 72.03056539728888
1243.56 71.79287809630932
1261.65 71.85648173231611
1280.0 71.89709852796152
1298.62 71.59825242191171
1317.51 71.2461534769611
1336.67 71.06359087313646
1356.11 71.07247603459156
1375.84 71.2043812497453
1395.85 71.24787485049688
1416.15 71.26948440011896
1436.75 71.43428891390376
1457.65 71.37348640879732
1478.85 71.02074300176493
1500.36 70.88530349379525
1522.19 70.94743980733395
1544.33 70.8803554514362
1566.79 70.84771065680836
1589.58 70.79934701200943
1612.7 70.58281427574641
1636.16 70.36220475876863
1659.95 70.43761548006356
1684.1 70.53458010196918
1708.6 70.5317059634821
1733.45 70.26279045535037
1758.66 70.17428050071328
1784.24 70.01057530896806
1810.19 69.884845210404
1836.52 69.88490642980352
1863.24 70.25623036121937
1890.34 70.31463527486532
1917.83 70.43295129460684
1945.73 70.67144303783697
1974.03 70.75151134949947
2002.74 70.74207750613238
2031.87 70.94909559977087
2061.43 70.84309260493023
2091.41 70.59659050557711
2121.83 70.34524438807925
2152.69 70.24439201381307
2184.01 70.32629232103503
2215.77 70.23308256314812
2248.0 70.13988583100166
2280.7 70.08030030967612
2313.87 69.95412507581132
2347.53 69.83309995005062
2381.68 69.7898500319206
2416.32 69.92109092198677
2451.46 69.98240762925019
2487.12 69.91440678375984
2523.3 70.03777885951276
2560.0 69.9732563281992
2597.24 69.68047342917475
2635.01 69.56683569916513
2673.34 69.64317418742371
2712.23 69.86771492879963
2751.68 70.03115098096058
2791.7 70.0234795905171
2832.31 70.07243079512634
2873.5 70.13289010144224
2915.3 70.20625987698541
2957.7 70.52602180726802
3000.72 70.66694786303205
3044.37 70.65248070155127
3088.65 70.75692448672649
3133.58 70.87171376548434
3179.16 70.98492949579943
3225.4 70.86675516705981
3272.31 70.82341370313496
3319.91 70.96405534062082
3368.2 70.93822956223742
3417.19 70.94327058670129
3466.89 70.82245117302648
3517.32 70.72466545983848
3568.48 70.76848089726269
3620.39 70.83666382324711
3673.05 70.95029170535932
3726.47 70.83590118857641
3780.67 70.75715608860098
3835.67 70.8366608729319
3891.46 70.98637108416929
3948.06 70.96965012040967
4005.49 70.88565022544608
4063.75 70.88444452145711
4122.86 70.92238467650324
4182.82 70.78300802394158
4243.66 70.65660297233696
4305.39 70.56916945786382
4368.01 70.47810615734542
4431.55 70.21844545523716
4496.01 69.98591730816844
4561.4 69.65442192459713
4627.75 69.38883439335886
4695.06 69.07439138199459
4763.35 68.52248310501038
4832.64 68.33125986609323
4902.93 68.29149030658554
4974.24 68.06082653257687
5046.6 68.18509177258747
5120.0 68.61526974419561
5194.47 68.64713796088012
5270.03 68.85150958767528
5346.68 68.95504361933006
5424.45 68.91387647775312
5503.35 68.86437449358154
5583.4 68.73969027512734
5664.61 68.45954755888427
5747.01 68.16348415600983
5830.6 67.95042249398284
5915.41 67.56224602943831
6001.45 67.35675949088458
6088.74 67.29027366161601
6177.3 66.93913079091857
6267.15 66.88669276389419
6358.31 66.57075412467718
6450.8 66.20164188051513
6544.62 66.01587705587994
6639.82 65.86313599154633
6736.4 65.69813868893189
6834.38 65.531496061365
6933.79 65.09169463538316
7034.64 64.74969490551926
7136.96 64.34495551936611
7240.77 64.21757511345787
7346.09 64.44391884714179
7452.94 64.64159318011417
7561.35 64.7872806950341
7671.33 64.60398054818566
7782.91 64.16810322310738
7896.12 63.49331036650126
8010.97 62.97421800600597
8127.49 62.56429668934592
8245.71 62.475230700697594
8365.65 62.26598828111305
8487.33 62.13478253363476
8610.78 61.83827730309308
8736.03 61.48129280320771
8863.09 61.126183057363804
8992.01 60.81474227489886
9122.8 60.41429868523525
9255.5 59.95144765998538
9390.12 59.492646280660125
9526.7 59.005248983024245
9665.27 58.4267953087724
9805.86 57.97261467698476
9948.49 57.76210716202701
10093.2 57.66153373993319
10240.0 57.63164214548513
10388.9 57.46096989586647
10540.1 57.16982984636215
10693.4 56.7295771811157
10848.9 56.50659522826004
11006.7 56.168550069165434
11166.8 55.75534945523873
11329.2 55.40029893328543
11494.0 55.31406966682974
11661.2 55.69340467811179
11830.8 56.39725399352602
12002.9 57.22572533370524
12177.5 57.879440344535965
12354.6 58.06115878016911
12534.3 58.0755577591471
12716.6 58.23740383031455
12901.6 58.79162425568336
13089.2 59.53180722983711
13279.6 60.426570193099906
13472.8 61.39905236950479
13668.8 62.26491821917453
13867.6 62.67920931612693
14069.3 62.43068278202382
14273.9 61.93194939258062
14481.5 61.238419592811454
14692.2 60.496792882469435
14905.9 59.92357797599402
15122.7 59.16164118654049
15342.7 58.18104744412807
15565.8 56.79230547875693
15792.2 55.11041896084964
16021.9 53.32684048304694
16255.0 51.68263563016245
16491.4 49.95279472665814
16731.3 48.42249965962867
16974.7 47.162573281369475
17221.6 45.907306572510606
17472.1 44.08922505943593
17726.2 42.556839059592505
17984.0 41.72912250877903
18245.6 40.4726892448727
18511.0 39.76912451815082
18780.2 40.514451489751934
19053.4 43.0277058383233
19330.5 45.441748700703045
19611.7 46.4660410807744
19897.0 47.428303506095546
