Freq "Estimated In-Room Response"
20.5078 48.972784167135146
21.9727 50.18577213707805
23.4375 52.437721657579615
24.9023 52.786934587199184
26.3672 54.85738755782735
27.832 56.52910495599623
29.2969 57.90606865971334
30.7617 58.857089618958824
32.2266 60.77831788307965
33.6914 62.36841338178418
35.1562 63.26083860189861
36.6211 64.24770146906809
38.0859 65.39052390107658
39.5508 66.45988091283469
41.0156 67.52237432508879
42.4805 68.47452575126555
43.9453 69.40159961506876
45.4102 70.16196442044418
46.875 70.97850112201571
48.3398 71.7392131118964
51.2695 73.08668751527455
52.7344 73.60766857035668
54.1992 73.98677575315874
55.6641 74.37948704478428
58.5938 75.20580726106267
60.0586 75.5293178579069
62.9883 76.12045466335034
64.4531 76.4120492712811
67.3828 76.83605931267603
68.8477 77.03364247315079
71.7773 77.37684592773691
74.707 77.73780854110207
77.6367 78.02945181946772
79.1016 78.19850006077733
82.0312 78.46163683154468
84.9609 78.71341205151374
87.8906 78.98638181673904
90.8203 79.23652262587055
95.2148 79.55766863264141
98.1445 79.77759444200416
101.074 80.00225465792283
105.469 80.32360828319958
108.398 80.4953949073394
112.793 80.74565039467997
117.188 80.97689698837384
120.117 81.21457293674564
124.512 81.45973840009474
128.906 81.68354580182643
133.301 81.8748575543619
139.16 82.04588897270042
143.555 82.16947817775772
147.949 82.37311030880478
153.809 82.48616274322629
159.668 82.49262259485515
165.527 82.35383671404851
171.387 82.47834599961598
177.246 82.52768611468906
183.105 82.64231446540505
188.965 82.690564111104
196.289 82.71593995153775
203.613 82.55180071953329
210.938 82.5781976022537
218.262 82.68645311568783
225.586 82.51106405200984
232.91 82.52411265726634
241.699 82.29041250531593
250.488 82.33437337669095
259.277 82.4050453122364
268.066 82.38140073148307
276.855 82.15409209049584
287.109 82.2555876229837
297.363 82.41605350790888
307.617 82.3412612686637
319.336 81.88713107426084
329.59 81.9518849901159
341.309 82.17873464678317
353.027 82.11733337665113
366.211 82.15056601480968
379.395 82.05914577259055
392.578 82.01619409612921
405.762 81.75741176079737
420.41 82.18144930704034
435.059 82.22515908942181
451.172 81.59139298939458
465.82 81.76743911149103
483.398 81.8429483717564
499.512 81.90097663929312
517.09 81.69631289727145
536.133 81.65864459230049
555.176 81.46002317878505
574.219 81.3496239506243
594.727 81.66111558639298
615.234 81.64142156777068
637.207 81.7107782588759
659.18 81.34776272877595
682.617 80.88275441931087
707.52 81.06646817267757
732.422 80.50391580433057
757.324 80.20187160207927
785.156 80.33757030952505
811.523 79.81330586577052
840.82 80.15300946052294
870.117 79.89151115254018
900.879 80.0183848462165
933.105 80.07373861424507
965.332 79.97345469688939
1000.49 79.81589512673601
1035.64 79.87168081623065
1072.27 80.33391612642511
1108.89 80.47956433230478
1148.44 80.5384326436395
1189.45 79.88529556017805
1230.47 79.54819303425799
1274.41 79.02067197784784
1319.82 78.72168727334716
1366.7 78.91097490010878
1413.57 78.62097133067378
1463.38 77.95574858307829
1516.11 77.52813808039447
1568.85 77.5719875467743
1624.51 77.9590863351746
1681.64 78.25995382024358
1741.7 78.09183846924317
1803.22 78.16015879314408
1866.21 78.58367976420686
1932.13 78.45580335950483
1999.51 78.06528628589751
2069.82 78.62097808015382
2143.07 79.29852380082819
2219.24 78.8353440900075
2296.88 78.60851492424884
2378.91 79.10387414089082
2462.4 78.99443105740971
2548.83 78.39231873182213
2639.65 78.47107862475464
2731.93 78.0605024497308
2828.61 77.91964759206783
2928.22 77.77111509793188
3030.76 78.37566263666055
3137.7 78.66486253596739
3249.02 79.6226110782062
3363.28 79.64420060067752
3481.93 80.00398123236975
3604.98 79.66085676282786
3732.42 79.78471595728773
3864.26 79.21484418848219
4000.49 79.36420642060085
4141.11 79.08718434587361
4287.6 79.19633532743542
4438.48 79.16553552563022
4595.21 79.10526632610774
4756.35 78.95989011239001
4924.8 78.6546009722067
5097.66 78.55955516715707
5277.83 78.20194070825768
5463.87 78.21276091989488
5657.23 78.20033127856432
5856.45 78.05220584052306
6062.99 77.95381279439005
6276.86 77.76725643933476
6498.05 77.58681338031069
6726.56 77.35729686809752
6963.87 76.97927397798352
7209.96 76.66490020114168
7464.84 76.69151180195756
7727.05 77.18873599184049
7999.51 77.84533316931999
8282.23 78.25090787420646
8573.73 78.41900199344012
8876.95 78.34760285485814
9188.96 78.166513925826
9514.16 77.93294851266528
9849.61 77.74835430891655
10196.8 77.28945843462006
10555.7 76.76959560911499
10927.7 76.38670335898554
11313.0 76.17614871134329
11712.9 76.2011768237697
12126.0 76.29700811988036
12553.7 76.57006264894724
12996.1 76.66575665256609
13454.6 76.8733815584457
13929.2 77.58606551622064
14419.9 77.85857303214154
14928.2 77.66308272684061
15455.6 77.01382828466778
16000.5 76.23307494893506
16564.5 75.41473296311905
17148.9 74.66506243747143
17752.4 73.97030024834584
18379.4 73.27119710431566
19026.9 72.5436090402353
19697.8 71.94843673892478
19999.5 71.49312307617394
