Freq "Estimated In-Room Response"
20.5078 49.45197204592304
21.9727 50.664960015865944
23.4375 52.91690953636751
24.9023 53.26612246598708
26.3672 55.33657543661525
27.832 57.00829283478413
29.2969 58.38525653850124
30.7617 59.33627749774672
32.2266 61.25750576186755
33.6914 62.84760126057208
35.1562 63.74002648068651
36.6211 64.72688934785599
38.0859 65.86971177986447
39.5508 66.93906879162259
41.0156 68.00156220387669
42.4805 68.95371363005344
43.9453 69.88078749385666
45.4102 70.64115229923208
46.875 71.45768900080361
48.3398 72.2184009906843
51.2695 73.56587539406245
52.7344 74.08685644914458
54.1992 74.46596363194664
55.6641 74.85867492357218
58.5938 75.68499513985057
60.0586 76.0085057366948
62.9883 76.59964254213824
64.4531 76.891237150069
67.3828 77.31524719146392
68.8477 77.51283035193869
71.7773 77.8560338065248
74.707 78.21699641988997
77.6367 78.50863969825562
79.1016 78.67768793956523
82.0312 78.94082471033258
84.9609 79.19259993030164
87.8906 79.46556969552694
90.8203 79.71571050465845
95.2148 80.0368565114293
98.1445 80.25678232079206
101.074 80.48144253671073
105.469 80.80279616198747
108.398 80.9745827861273
112.793 81.22483827346787
117.188 81.45608486716174
120.117 81.69376081553354
124.512 81.93892627888263
128.906 82.16273368061432
133.301 82.35404543314979
139.16 82.52507685148832
143.555 82.64866605654562
147.949 82.85229818759268
153.809 82.96535062201418
159.668 82.97181047364305
165.527 82.83302459283641
171.387 82.95753387840388
177.246 83.00687399347696
183.105 83.12150234419295
188.965 83.16975198989189
196.289 83.19512783032565
203.613 83.03098859832119
210.938 83.05738548104159
218.262 83.16564099447572
225.586 82.99025193079774
232.91 83.00330053605424
241.699 82.76960038410382
250.488 82.81356125547885
259.277 82.8842331910243
268.066 82.86058861027097
276.855 82.63327996928373
287.109 82.7347755017716
297.363 82.89524138669678
307.617 82.8204491474516
319.336 82.36631895304873
329.59 82.4310728689038
341.309 82.65792252557107
353.027 82.59652125543903
366.211 82.62975389359758
379.395 82.53833365137845
392.578 82.49538197491711
405.762 82.23659963958526
420.41 82.66063718582824
435.059 82.7043469682097
451.172 82.07058086818247
465.82 82.24662699027893
483.398 82.3221362505443
499.512 82.38016451808102
517.09 82.17550077605935
536.133 82.13783247108839
555.176 81.93921105757295
574.219 81.8288118294122
594.727 82.14030346518088
615.234 82.12060944655857
637.207 82.1899661376638
659.18 81.82695060756384
682.617 81.36194229809877
707.52 81.54565605146547
732.422 80.98310368311847
757.324 80.68105948086716
785.156 80.81675818831295
811.523 80.29249374455841
840.82 80.63219733931084
870.117 80.37069903132807
900.879 80.4975727250044
933.105 80.55292649303297
965.332 80.45264257567729
1000.49 80.2950830055239
1035.64 80.35086869501855
1072.27 80.813104005213
1108.89 80.95875221109267
1148.44 81.01762052242739
1189.45 80.36448343896595
1230.47 80.02738091304589
1274.41 79.49985985663574
1319.82 79.20087515213505
1366.7 79.39016277889668
1413.57 79.10015920946168
1463.38 78.43493646186619
1516.11 78.00732595918237
1568.85 78.05117542556219
1624.51 78.4382742139625
1681.64 78.73914169903148
1741.7 78.57102634803107
1803.22 78.63934667193197
1866.21 79.06286764299476
1932.13 78.93499123829272
1999.51 78.54447416468541
2069.82 79.10016595894172
2143.07 79.77771167961609
2219.24 79.3145319687954
2296.88 79.08770280303673
2378.91 79.58306201967872
2462.4 79.47361893619761
2548.83 78.87150661061003
2639.65 78.95026650354254
2731.93 78.5396903285187
2828.61 78.39883547085573
2928.22 78.25030297671978
3030.76 78.85485051544845
3137.7 79.14405041475528
3249.02 80.1017989569941
3363.28 80.12338847946542
3481.93 80.48316911115765
3604.98 80.14004464161576
3732.42 80.26390383607563
3864.26 79.69403206727009
4000.49 79.84339429938875
4141.11 79.5663722246615
4287.6 79.67552320622332
4438.48 79.64472340441812
4595.21 79.58445420489564
4756.35 79.43907799117791
4924.8 79.13378885099459
5097.66 79.03874304594497
5277.83 78.68112858704558
5463.87 78.69194879868277
5657.23 78.67951915735222
5856.45 78.53139371931096
6062.99 78.43300067317794
6276.86 78.24644431812266
6498.05 78.06600125909858
6726.56 77.83648474688542
6963.87 77.45846185677142
7209.96 77.14408807992957
7464.84 77.17069968074546
7727.05 77.66792387062839
7999.51 78.32452104810788
8282.23 78.73009575299436
8573.73 78.89818987222802
8876.95 78.82679073364604
9188.96 78.64570180461389
9514.16 78.41213639145317
9849.61 78.22754218770444
10196.8 77.76864631340796
10555.7 77.24878348790288
10927.7 76.86589123777344
11313.0 76.65533659013118
11712.9 76.6803647025576
12126.0 76.77619599866826
12553.7 77.04925052773514
12996.1 77.14494453135399
13454.6 77.3525694372336
13929.2 78.06525339500854
14419.9 78.33776091092943
14928.2 78.14227060562851
15455.6 77.49301616345568
16000.5 76.71226282772295
16564.5 75.89392084190695
17148.9 75.14425031625933
17752.4 74.44948812713373
18379.4 73.75038498310356
19026.9 73.0227969190232
19697.8 72.42762461771268
19999.5 71.97231095496184
