Freq,Floor Bounce,Ceiling Bounce,Front Wall Bounce,Side Wall Bounce,Rear Wall Bounce,Total Early Reflection
20.5078,56.393476486811124,54.96108644796061,55.82056639192972,55.73199614993189,55.46661687066474,55.69991725402666
21.2402,57.26250805306813,55.771685250331345,56.666915769409755,56.580205176524444,56.31675825364836,56.546689493891236
21.9727,57.79820644650836,56.358711930181,57.218620852325145,57.14211536367695,56.91382596943407,57.11125040276188
22.7051,58.04080818150766,56.569164492469994,57.45189450257824,57.36191137317668,57.09935303588516,57.33107743647622
23.4375,58.78075350672364,57.34196618008326,58.19837776250999,58.12884591384392,57.92186502894337,58.099070611453044
24.1699,59.18232620694258,57.7367257682655,58.59607901909129,58.529304179716505,58.33135945170322,58.50000568355544
25.6348,59.858056365386105,58.3920874832279,59.26549860096972,59.192574911789336,58.97957974056992,59.163238505973226
26.3672,60.19697977846836,58.722338851852,59.601083506929015,59.526732785280515,59.31117759635403,59.49766315528366
27.0996,60.55003681865152,59.078626133097075,59.95504340564629,59.8802616430591,59.66517988811697,59.851721771384604
27.832,60.88840078596904,59.40525465210928,60.29102190675391,60.20845568290581,59.97147984616505,60.179457029411665
29.2969,61.49667434480571,60.007934371233006,60.89739091187141,60.81328482494557,60.57149575365793,60.78413684005322
30.0293,61.92808103551346,60.44335589618326,61.3276410430597,61.25121265030454,61.02808905966542,61.22209760609488
31.4941,62.41071159107662,60.941342030795354,61.81111965089637,61.747419131764005,61.56710444035072,61.72103515078376
32.2266,62.6453158168553,61.1693252400684,62.04379153754137,61.97804474571393,61.79735076499678,61.952497004638644
33.6914,63.152762253247616,61.646492883613305,62.54176870449878,62.463955417565,62.25408944520825,62.43887090483756
34.4238,63.4706600096913,61.96317369396529,62.857635846892194,62.783827199371174,62.584756338872324,62.75899778819863
35.8887,64.00754174685235,62.507487136228534,63.3929985013652,63.33047572680161,63.165830820702965,63.30729338234143
37.3535,64.43099642387013,62.91547063743049,63.81005415421352,63.74892776589378,63.59381079465075,63.72674386176631
38.8184,64.8068812248646,63.331265544055455,64.19779765683232,64.1447630958458,64.0183290081197,64.1251498640601
39.5508,64.9501365551209,63.47939623558956,64.34141399703724,64.28745650986869,64.16711584170467,64.27025807532463
41.0156,65.3861983594291,63.830348882929215,64.75048830041833,64.67432203065728,64.49646602370969,64.65610112868889
42.4805,65.85519237233454,64.29010503219908,65.22027207013748,65.13482759548664,64.92421971986828,65.11410071410698
43.9453,66.21284018778961,64.64887495413332,65.57856993218152,65.48894181259678,65.26871956785655,65.46884335010584
45.4102,66.62836223413892,65.0576558205624,65.99514412899244,65.89374978886576,65.63749409222974,65.87241874471204
47.6074,67.12216916235066,65.57552274771116,66.49089594542588,66.40622213318905,66.19523974078304,66.38654177097595
49.0723,67.40421159224874,65.85114006172618,66.76669890162282,66.68868404406892,66.50614828180167,66.67186741461579
50.5371,67.69551889111237,66.10964919984113,67.04664665539087,66.96285120316996,66.7711101005378,66.94692466923767
52.7344,68.17955883202582,66.59891474894303,67.53338382689249,67.449017182437,67.25394206172348,67.43257373917888
54.1992,68.413322002898,66.8465238977556,67.77058318782188,67.68450271235594,67.49137547488459,67.6703784790537
56.3965,68.83155023798476,67.24731056636195,68.17884129758134,68.09445979766359,67.91009401667269,68.0821199394029
58.5938,69.24083904511477,67.65188398742184,68.58187470130832,68.50615740472365,68.35389637596722,68.49649403296131
60.0586,69.3926848205232,67.79080747988945,68.72713694699428,68.65012914446821,68.50972852202199,68.64406633895871
62.2559,69.72749396253116,68.09371291882358,69.05561051094637,68.95838573198516,68.76874976117423,68.9524108760042
64.4531,70.05041530022153,68.40227336187625,69.37724549663376,69.26503214189808,69.03681427367235,69.25898075287752
66.6504,70.3420981440836,68.6867800512503,69.6713479085201,69.54091253912345,69.25516929203697,69.53297133217573
69.5801,70.67526928265232,68.99656831526872,69.98889006945845,69.87336006394928,69.62047561084731,69.8649889912609
71.7773,70.87441488618929,69.21747685642757,70.19031417738222,70.08678437586336,69.88225439029485,70.08292817522776
73.9746,71.11925134425523,69.47652502123474,70.43526360106104,70.3341408229379,70.15146703667567,70.33528665713449
76.9043,71.35601900023445,69.69429907177972,70.65871291064894,70.56100778781641,70.40539838653045,70.56753970004024
79.834,71.7029716742374,69.98811358736775,70.99006663777563,70.87273196026503,70.68545281711009,70.88276034518879
82.7637,71.9661660562941,70.24878486463312,71.25986238041126,71.114906540642,70.86004452414541,71.12590625507042
85.6934,72.06365142346245,70.323830472979,71.33596462862322,71.21520990780988,71.01149665833861,71.2261113992922
88.623,72.25862107279598,70.5047533549568,71.51835273747815,71.40740927232777,71.25760754046809,71.42546329724236
91.5527,72.38641796670862,70.60223662321648,71.63461313134412,71.51006291566638,71.36530605294902,71.53713713432333
94.4824,72.5682442317591,70.68372296296113,71.78877562327627,71.63134267968867,71.45739094335768,71.66800388737656
98.1445,72.88881694767734,71.04575825407385,72.13078358504976,71.95186692235548,71.65087573378166,71.9757459150763
101.807,72.95258275389018,71.07915053307055,72.1718255124324,72.00347370668239,71.78835915067197,72.0413096478207
105.469,73.05451847838559,71.13139898916418,72.25467708007697,72.0727256951561,71.85690014465233,72.11860102200062
109.131,73.3151390582238,71.32231885558754,72.49673861556725,72.28308170905417,71.9950200346281,72.331486321402
112.793,73.51842077386418,71.52213273506219,72.69613871122979,72.48565244613529,72.21487718629535,72.53634534334377
116.455,73.594107423251,71.53591545870698,72.74480572135856,72.5292092316623,72.2976479853178,72.59165129264818
120.85,73.80880047918795,71.78406716736326,72.98203376224737,72.72129681412454,72.42908894609045,72.79642452211907
125.244,73.87177502563262,71.74920766613546,73.01073143502104,72.71808688139488,72.30859253978316,72.7904763471994
129.639,73.94520621539202,71.83049786515453,73.08336946054102,72.79866206926792,72.37037006320921,72.86430166962948
134.033,73.95281446518815,71.83653016639228,73.06161153358569,72.80588877306339,72.49101083012592,72.88584882431383
138.428,73.89918802023703,71.67983005316036,72.95365959952281,72.69937888478198,72.5375889453384,72.81312898482598
143.555,74.02248874563246,71.57337244794412,73.016480095842,72.66713391025174,72.33855903732133,72.79932242134159
148.682,74.21915890987661,71.58526328833078,73.18020368394981,72.77178632422611,72.28330703218242,72.89904766838838
153.809,74.40931527813862,71.7437303358516,73.37770438541114,72.94339793008,72.34087370637381,73.05974737697761
159.668,74.52288326947316,71.80719054420335,73.47140291574759,73.05218237681771,72.52289593753345,73.17245339120795
164.795,74.56418563393201,71.88416349974527,73.54288440433398,73.10345981482415,72.54916234327105,73.22481907246672
170.654,74.55195844523884,71.93473108809272,73.53755354506886,73.08155678612651,72.61146925203339,73.23430256211516
176.514,74.52309916855494,71.81167092281616,73.46407094598824,72.96378319636412,72.46108256500965,73.1439108975323
183.105,74.59314678141611,71.54761178129371,73.4486816064355,72.86222156833554,72.19650364999772,73.05833712756815
189.697,74.71877966091209,71.67788907649168,73.6126825326391,72.9908163523195,72.18491772621344,73.17145496463097
196.289,74.80961227486155,71.80621339301605,73.70623764238424,73.0481758822044,72.31510861327347,73.26812927179414
202.881,74.88479298489632,71.71281663470431,73.73284880414182,73.00006803712671,72.0413563664309,73.23060258816217
210.205,74.84489179292108,71.57642702436746,73.70486806354764,72.95773585077399,71.90000443380762,73.16413257584337
217.529,74.79282309246962,71.51700535153789,73.59879455319843,72.86762892056154,71.95405468778107,73.10772137734291
225.586,74.92588908198763,71.31838996567039,73.69365902290997,72.82978906121593,71.94901454217941,73.13413255316506
232.91,75.15514174101534,71.55833678756771,73.97836255047129,72.98225520454054,71.64519086827438,73.28624718102147
241.699,75.09494851220724,71.3502767958612,73.82695701772121,72.81764423151326,71.27344863789867,73.12370872295257
249.756,75.43207585095941,71.09091701844285,74.09076766901676,72.9858257783284,71.15982996762095,73.27908291814965
258.545,75.49433107922964,71.76700235254349,74.35903488269754,73.30525078976315,71.36202770632092,73.53450648931096
268.066,75.27171288603567,70.90919568567173,73.89684812429103,72.74318064321314,70.77520140884049,73.06569140870023
277.588,75.41026547128764,71.26098251702739,74.27066491506217,73.19796706378867,70.93669704370278,73.35053081294575
287.109,75.07365744607513,71.2934111746918,73.9636849919392,72.93386408894693,71.020489361038,73.13202316017804
297.363,75.44196088698969,71.25935131803818,74.25261976989947,73.0644237372149,70.66182310307215,73.29985527075763
307.617,75.36247671260486,71.67523680386509,74.22651209623284,73.15232459200259,70.99619243390359,73.37615776983283
318.604,75.10892245161678,70.94179163004644,73.8843294583301,72.69694987613063,70.34759016520135,72.95555191893523
329.59,75.11889105787587,71.13430133411423,73.91128150738142,72.80027167108287,70.72507230371461,73.0521724477831
341.309,74.89120694994732,70.02783559872913,73.44073241171915,71.9821063913048,71.21249938832982,72.64784064926361
353.76,75.41253553371864,70.19379600674824,74.2518973721127,72.42223101308748,69.98498933318989,72.9789970805371
366.211,75.64213433038006,70.56739970031765,74.60343675810492,72.86914209743482,69.55562473574874,73.234929283715
378.662,75.64403002690875,71.347054366405,74.79246956232903,73.11374040247468,69.9489025554526,73.45674266004333
392.578,75.12292323186963,71.28792700008789,74.40826545348922,72.94024235869558,69.15487840447067,73.07449755542605
405.762,74.58603850778498,70.36725640577193,73.73549507334263,72.16599148577785,69.10466744931549,72.44862246645368
420.41,75.11212540928676,71.03614793988662,74.4268719997784,72.8111586702267,67.6436338582329,72.9125196920947
435.059,74.39276768267506,70.89583027119657,73.8758319609026,72.41593511777857,68.45121004783117,72.4866202503593
450.439,74.38980968920443,71.07530173037763,73.94562207027069,72.5478601394238,67.63016639351534,72.49774656581204
466.553,73.88270675584484,71.02374926706396,73.61304891238707,72.25980513981322,67.72885955691508,72.19265471217973
482.666,73.50489338502351,70.66392175294492,73.143076720548,71.67670461409637,66.77421887330873,71.71170784835098
500.244,73.52582217838624,70.69560237205361,73.18893214487208,71.77076301865534,66.99103418782794,71.76861783521568
517.822,73.06785645407997,70.20215406953629,72.76172790655232,71.64788582310082,66.73345494301552,71.39620357074523
536.133,72.733040917865,69.95811695190274,72.80567427132102,71.20045530922438,66.19473173395761,71.14572365255748
554.443,72.74607140379173,70.1476476840519,72.72763557085042,71.27637353724845,65.782599768746,71.14665346659052
574.219,73.19571375435807,70.21641844074985,73.25109849706828,71.67963975062705,65.90409917753504,71.5314119593591
594.727,72.84979101950131,70.48624698682917,72.81663255124153,70.99783771204518,66.29936571445143,71.23426365917477
615.234,72.84645969531654,70.91883749449796,73.24329347797347,70.96567319806907,65.24524359213451,71.37063528630394
637.207,73.76674301346772,70.24645690729002,73.74170013012048,71.02974213427729,66.59211878177878,71.77802221333526
659.912,72.82863757355722,70.76940373471793,73.64333444428756,71.13375584768632,64.84762174480403,71.47945670038551
683.35,72.71749055177865,71.33195097202871,73.90559810650389,70.99589167827128,66.2162500555936,71.68059290082759
706.787,72.95297175695428,70.97010394416192,74.39279271311564,71.10866878311874,66.22845961000701,71.86626238957147
731.689,72.38964558470376,71.52920760127925,74.30282401252619,71.17868191667947,65.30306672966195,71.76085617877399
758.057,71.6120736513478,71.32907127957338,74.01555432542487,70.65565149602608,65.38461660276225,71.35886525305717
784.424,71.52103717631202,71.76359407544963,73.9455944296191,70.87116684323244,64.21136392433719,71.3904634767806
812.256,71.13699121644416,70.7296340693399,73.68015291911836,70.46675312211026,64.23133178375716,70.93011311329225
840.82,70.32541167660894,70.96897895808789,73.30007627087265,70.26399402726373,63.37838678027717,70.60405796673082
870.85,69.93226349412775,70.6363721174266,73.23818094885256,70.32405126206503,63.26880056264106,70.44525231286862
901.611,70.06012321696754,70.39509466147098,73.1935344858505,70.36195082398588,62.705713513994056,70.38916970472845
933.105,69.90344260058761,70.48460305580862,73.31061393637995,70.5612546425602,62.77460723585946,70.46623487141137
966.064,69.77758256247911,70.34379813649018,73.24754299830452,70.82715251302223,62.57514292452586,70.44185738142326
999.756,70.23049664549895,71.03641895048459,73.34658039175197,70.56791889372981,63.61140700562895,70.68515608163759
1034.91,70.32480916874194,71.49605719318639,72.83862802271116,69.64657649771553,63.13196269378541,70.44455432166846
1071.53,70.11484186184862,72.16468854403278,72.2295194771328,68.65530916966841,62.69282575698527,70.22302311583788
1109.62,70.31447975724029,72.17076532571397,71.55250775319426,68.01101855343754,61.938747224971664,69.94941508735994
1148.44,70.33618695329228,72.97091253558784,71.1466611895707,67.95983185236817,61.363560198949784,70.10861728896724
1189.45,71.26517786805853,73.61144461340083,72.3424211762358,68.94544586068054,62.09996197473065,71.00136646118996
1231.2,71.89688534629464,73.6924116877085,73.31029077593341,69.19998522915851,62.45063127053497,71.48507368820312
1274.41,72.23501781188004,74.2138916217543,73.11097963796706,68.79816701887482,62.832644311397374,71.64879925161082
1319.82,73.30355650057605,73.93418125837488,73.34103598169534,69.04593037611917,62.43264570700212,71.90328482398816
1365.97,73.77976161153074,73.74750937465096,72.86254757472973,69.09445622750964,61.881852205906426,71.85078757313292
1414.31,73.82027022911807,74.15279657987412,72.56136001171583,69.15626324310524,61.81487358876477,71.92610767106363
1464.11,73.74239376117386,73.0511950508924,72.73015709662359,69.62304517573882,61.671783462603045,71.65839070966784
1515.38,74.12605827457527,73.13211689781642,73.55954318486549,70.14557196581823,61.8300621711666,72.09454888713172
1568.85,73.93330383903177,74.1794157289409,73.5657658165039,70.52140095431734,62.689828128195444,72.39432155369337
1624.51,74.06966757121917,72.46274646571807,73.53384422123108,70.77905836775194,62.781312612095945,72.01836171297998
1681.64,74.60055348621077,73.11603191277008,72.67920098636073,70.70277510013298,62.844678296240275,72.12456284423176
1740.97,73.70151102853578,72.45627934897159,73.33872612589383,71.0981875003785,62.78785536648394,71.89790558116032
1802.49,74.04433376590596,72.93004956792528,73.83814686541791,71.63817359130712,62.921811053727524,72.34274538416643
1866.21,73.4618206845299,72.33914124715541,73.8872861666233,72.04982751633887,63.04890434166994,72.14061719089086
1932.13,73.27973391988999,71.88717119944678,73.1883760915682,71.480231046975,63.0612563379637,71.68170390151342
2000.24,72.7295181747735,72.5588009509219,73.67682805992233,71.83675374979605,62.27635669232208,71.87768137467712
2070.56,72.9942719753865,72.14083126517959,74.56958147513176,72.65645372453376,62.56974044487042,72.31361530394558
2143.8,73.08835455562341,71.88447194396944,74.48131004450222,72.56039201296136,62.51810808791156,72.23630422490943
2219.24,72.43318003323235,71.94962727420108,73.57851362788774,71.95731155396898,61.97427884882357,71.65793229421794
2297.61,71.86441498966902,72.0145482462332,74.04596101597939,71.8532662773047,61.521766770917836,71.66678877367643
2378.17,72.36752021059017,71.60764555651717,74.87657053119982,72.29659954295668,61.51342705192398,72.08716126487765
2462.4,72.22994830467967,71.28050587330138,74.5183330954854,72.08225059201027,60.80400695789534,71.80689480910904
2548.83,71.905568308468,71.24103039854242,74.25793263178818,71.7633313491523,60.98605078315394,71.56760357502013
2638.92,71.78939770535324,69.7780721561783,74.6148480422332,71.99362420388594,61.003343711165584,71.49989678272243
2731.93,71.88691864306693,68.82601625472377,74.67473970377321,71.99257809592943,60.430191133479184,71.42013034889668
2828.61,71.73110023547395,68.94324155453974,74.64210827045378,72.03942018065916,60.4628466526009,71.39657102903635
2928.22,71.86334763798513,68.35670680541214,74.89393984841156,72.38968531174241,60.78885642065687,71.55964364639341
3031.49,71.60227435561953,68.16127929147004,74.54840420580756,71.93749772428441,60.57951602438821,71.22380989963399
3138.43,71.09530068786204,67.37196556597542,74.17884420565902,71.52408884667712,59.85810789424414,70.76824415856004
3249.02,70.51157810168304,66.94753666490783,73.94906447507334,71.44937150344025,59.661032364467346,70.48553611084546
3363.28,70.07253559089882,66.21340350031392,73.28291883991052,70.90550494188257,59.49557615913501,69.89933102898131
3481.93,69.53636555968643,65.18472043741349,72.97219653615535,70.6848892607559,59.08139080562495,69.50656399834942
3604.98,69.32499175727717,65.26551968728968,73.17255486439096,70.75113411738357,58.64973296271093,69.57170356342618
3732.42,69.05967105118201,65.65899319352113,72.65937488498058,70.36216462250326,58.30394452241708,69.21452147365018
3863.53,68.95641613712554,65.96332071581399,72.77852525627887,70.31793501133662,57.80208973838889,69.25668460978359
3999.76,69.16931034230747,66.23113449796945,72.96061841230507,70.37377673474063,58.02821006079783,69.42148095284135
4141.11,68.946650864947,66.50394021980105,73.03826058970945,70.58145906178908,57.56150897632365,69.48895493091214
4286.87,69.06627869417562,67.1206786285351,73.44885396801467,70.58217128137665,57.97590978136752,69.76859658401447
4438.48,69.21399886805507,67.5262933518016,73.95956333972893,71.09406618653266,57.578509701942366,70.19744464170174
4594.48,69.885357523912,68.0046795759902,74.3356956977364,71.19113366279169,58.519899694886576,70.57363420325605
4757.08,70.54675397743055,67.86693696014636,74.7342011966009,71.6302875156695,58.26033489383572,70.96435338754297
4924.8,71.1782685731093,67.75642450757466,74.99273946638,71.5876896949463,58.78121479166781,71.19394138209077
5098.39,71.63422329659004,67.54700850821757,75.0556155388323,71.7515593031186,58.82308398447691,71.336286575854
5277.83,72.3883610902032,67.1548667359417,75.18226249629033,71.66748858000214,58.559764307120176,71.51688412942748
5463.87,72.41498701290476,66.64409468858152,74.71429763890242,71.07101340735126,58.38372434019335,71.14951490186398
5656.49,72.13650712594394,66.25059763762835,74.27895545953066,70.55591748117891,57.079250760244136,70.73599535486403
5856.45,71.85088019274609,66.62996147945933,74.11465572172064,69.93265093087632,56.38026494502229,70.49124980580636
6062.99,71.59092796983673,66.28653305086418,74.54054961166683,69.73273496899195,55.58979498506122,70.56069082494515
6276.86,71.2835560800406,65.39679572795488,75.05471410157789,70.24239844220311,55.59623245875058,70.78195213936925
6498.05,71.23139227816058,64.13060885319437,75.57486479496232,70.74166936961825,55.88293425413126,71.08665262901698
6727.29,71.3536903585641,63.11692981390898,76.23359095039376,71.18645931141276,56.739382148571664,71.54310077430715
6964.6,71.223265416464,62.211496592974456,76.29593931552719,71.44552620743316,56.653237023463404,71.5804558337441
7209.96,71.44335999925526,61.25768749882572,76.29232525334861,71.31105162013664,57.09273572981711,71.57739999125546
7464.11,71.61825443605105,60.01088812494426,75.58816021089484,70.79054682624742,56.72367516437407,71.08521348153137
7727.78,71.13087109774591,58.48109147857201,74.51250166240791,69.62174525301258,55.67439459422299,70.12664993194961
