Freq "Ceiling Bounce"
20.5078 54.9610864479606
21.2402 55.77168525033136
21.9727 56.358711930181016
22.7051 56.56916449246998
23.4375 57.341966180083276
24.1699 57.73672576826549
25.6348 58.39208748322791
26.3672 58.722338851852015
27.0996 59.07862613309709
27.832 59.40525465210928
29.2969 60.00793437123299
30.0293 60.44335589618325
31.4941 60.94134203079537
32.2266 61.16932524006839
33.6914 61.64649288361329
34.4238 61.9631736939653
35.8887 62.50748713622852
37.3535 62.91547063743049
38.8184 63.33126554405544
39.5508 63.47939623558955
41.0156 63.83034888292923
42.4805 64.29010503219907
43.9453 64.64887495413332
45.4102 65.05765582056239
47.6074 65.57552274771116
49.0723 65.85114006172618
50.5371 66.10964919984112
52.7344 66.59891474894302
54.1992 66.84652389775562
56.3965 67.24731056636193
58.5938 67.65188398742184
60.0586 67.79080747988947
62.2559 68.09371291882358
64.4531 68.40227336187625
66.6504 68.6867800512503
69.5801 68.99656831526872
71.7773 69.21747685642755
73.9746 69.47652502123474
76.9043 69.69429907177972
79.834 69.98811358736775
82.7637 70.24878486463312
85.6934 70.32383047297901
88.623 70.5047533549568
91.5527 70.60223662321648
94.4824 70.68372296296111
98.1445 71.04575825407386
101.807 71.07915053307055
105.469 71.13139898916418
109.131 71.32231885558754
112.793 71.52213273506217
116.455 71.53591545870698
120.85 71.78406716736326
125.244 71.74920766613545
129.639 71.83049786515453
134.033 71.8365301663923
138.428 71.67983005316036
143.555 71.57337244794411
148.682 71.58526328833078
153.809 71.74373033585161
159.668 71.80719054420334
164.795 71.88416349974527
170.654 71.93473108809275
176.514 71.81167092281618
183.105 71.5476117812937
189.697 71.6778890764917
196.289 71.80621339301605
202.881 71.71281663470431
210.205 71.57642702436748
217.529 71.51700535153789
225.586 71.31838996567039
232.91 71.5583367875677
241.699 71.35027679586122
249.756 71.09091701844285
258.545 71.76700235254349
268.066 70.90919568567172
277.588 71.2609825170274
287.109 71.29341117469178
297.363 71.2593513180382
307.617 71.67523680386508
318.604 70.94179163004645
329.59 71.13430133411423
341.309 70.02783559872913
353.76 70.19379600674823
366.211 70.56739970031764
378.662 71.34705436640499
392.578 71.2879270000879
405.762 70.36725640577194
420.41 71.0361479398866
435.059 70.89583027119657
450.439 71.07530173037763
466.553 71.02374926706396
482.666 70.66392175294493
500.244 70.69560237205363
517.822 70.20215406953629
536.133 69.95811695190275
554.443 70.14764768405192
574.219 70.21641844074983
594.727 70.48624698682917
615.234 70.91883749449796
637.207 70.24645690729001
659.912 70.76940373471793
683.35 71.3319509720287
706.787 70.97010394416192
731.689 71.52920760127923
758.057 71.3290712795734
784.424 71.76359407544963
812.256 70.7296340693399
840.82 70.9689789580879
870.85 70.63637211742662
901.611 70.39509466147099
933.105 70.48460305580863
966.064 70.34379813649016
999.756 71.03641895048459
1034.91 71.49605719318639
1071.53 72.16468854403278
1109.62 72.17076532571399
1148.44 72.97091253558783
1189.45 73.61144461340082
1231.2 73.69241168770851
1274.41 74.21389162175431
1319.82 73.93418125837489
1365.97 73.74750937465096
1414.31 74.1527965798741
1464.11 73.0511950508924
1515.38 73.13211689781642
1568.85 74.1794157289409
1624.51 72.46274646571807
1681.64 73.11603191277007
1740.97 72.45627934897159
1802.49 72.93004956792527
1866.21 72.33914124715542
1932.13 71.88717119944677
2000.24 72.5588009509219
2070.56 72.14083126517959
2143.8 71.88447194396944
2219.24 71.94962727420109
2297.61 72.01454824623322
2378.17 71.60764555651716
2462.4 71.2805058733014
2548.83 71.24103039854243
2638.92 69.77807215617831
2731.93 68.82601625472378
2828.61 68.94324155453974
2928.22 68.35670680541214
3031.49 68.16127929147005
3138.43 67.37196556597542
3249.02 66.94753666490784
3363.28 66.21340350031392
3481.93 65.18472043741347
3604.98 65.2655196872897
3732.42 65.65899319352114
3863.53 65.96332071581398
3999.76 66.23113449796945
4141.11 66.50394021980104
4286.87 67.12067862853509
4438.48 67.52629335180161
4594.48 68.00467957599021
4757.08 67.86693696014636
4924.8 67.75642450757465
5098.39 67.54700850821756
5277.83 67.1548667359417
5463.87 66.64409468858152
5656.49 66.25059763762836
5856.45 66.62996147945931
6062.99 66.28653305086418
6276.86 65.3967957279549
6498.05 64.13060885319437
6727.29 63.11692981390897
6964.6 62.211496592974456
7209.96 61.25768749882573
7464.11 60.01088812494426
7727.78 58.481091478572026
8000.24 58.929692022239735
8282.23 57.4223540229862
8574.46 54.75794347942771
8876.22 54.75490651529584
9189.7 50.85292211986537
9513.43 52.34026203914509
9848.88 51.924343451839704
10196.8 52.427287280134664
10556.4 50.41815567458873
10928.5 49.44410154807797
11313.7 52.570169509868265
11712.9 56.48025601274608
12126.0 57.611250228267224
12553.7 57.66574336825943
12996.1 58.503245949705146
13454.6 58.43413815981138
13928.5 58.07142087373262
14419.9 58.41860616851635
14928.2 58.941475359316044
15454.8 59.50546948787104
15999.8 59.231760948809
16564.5 57.82760219338823
17148.2 56.54471113217129
17753.2 55.67500498760029
18379.4 55.73402050511014
19027.6 52.23782748853084
19698.5 50.47287759937869
19999.5 50.507407936261544
