Freq "Rear Wall Bounce"
20.5078 55.46661687066474
21.2402 56.316758253648345
21.9727 56.913825969434086
22.7051 57.099353035885144
23.4375 57.92186502894336
24.1699 58.33135945170322
25.6348 58.9795797405699
26.3672 59.31117759635404
27.0996 59.66517988811695
27.832 59.97147984616507
29.2969 60.57149575365791
30.0293 61.02808905966543
31.4941 61.56710444035072
32.2266 61.79735076499678
33.6914 62.254089445208265
34.4238 62.584756338872324
35.8887 63.16583082070298
37.3535 63.593810794650736
38.8184 64.0183290081197
39.5508 64.16711584170467
41.0156 64.49646602370969
42.4805 64.92421971986828
43.9453 65.26871956785654
45.4102 65.63749409222976
47.6074 66.19523974078304
49.0723 66.50614828180166
50.5371 66.7711101005378
52.7344 67.25394206172349
54.1992 67.49137547488458
56.3965 67.91009401667269
58.5938 68.35389637596724
60.0586 68.50972852202197
62.2559 68.76874976117423
64.4531 69.03681427367235
66.6504 69.25516929203697
69.5801 69.62047561084732
71.7773 69.88225439029485
73.9746 70.15146703667565
76.9043 70.40539838653044
79.834 70.68545281711008
82.7637 70.8600445241454
85.6934 71.01149665833863
88.623 71.25760754046807
91.5527 71.36530605294901
94.4824 71.4573909433577
98.1445 71.65087573378165
101.807 71.78835915067198
105.469 71.85690014465234
109.131 71.99502003462808
112.793 72.21487718629537
116.455 72.2976479853178
120.85 72.42908894609046
125.244 72.30859253978315
129.639 72.37037006320922
134.033 72.49101083012592
138.428 72.53758894533838
143.555 72.33855903732132
148.682 72.2833070321824
153.809 72.34087370637381
159.668 72.52289593753343
164.795 72.54916234327104
170.654 72.6114692520334
176.514 72.46108256500966
183.105 72.19650364999771
189.697 72.18491772621346
196.289 72.31510861327348
202.881 72.0413563664309
210.205 71.90000443380761
217.529 71.95405468778108
225.586 71.9490145421794
232.91 71.64519086827437
241.699 71.27344863789865
249.756 71.15982996762096
258.545 71.36202770632092
268.066 70.77520140884049
277.588 70.93669704370276
287.109 71.020489361038
297.363 70.66182310307215
307.617 70.9961924339036
318.604 70.34759016520134
329.59 70.72507230371461
341.309 71.2124993883298
353.76 69.9849893331899
366.211 69.55562473574874
378.662 69.94890255545262
392.578 69.15487840447067
405.762 69.1046674493155
420.41 67.64363385823292
435.059 68.45121004783117
450.439 67.63016639351532
466.553 67.72885955691508
482.666 66.77421887330871
500.244 66.99103418782794
517.822 66.73345494301553
536.133 66.19473173395762
554.443 65.78259976874598
574.219 65.90409917753503
594.727 66.29936571445144
615.234 65.24524359213451
637.207 66.59211878177878
659.912 64.84762174480402
683.35 66.21625005559359
706.787 66.228459610007
731.689 65.30306672966196
758.057 65.38461660276224
784.424 64.21136392433719
812.256 64.23133178375717
840.82 63.378386780277154
870.85 63.26880056264106
901.611 62.70571351399404
933.105 62.77460723585945
966.064 62.57514292452586
999.756 63.61140700562896
1034.91 63.131962693785425
1071.53 62.692825756985286
1109.62 61.938747224971664
1148.44 61.363560198949784
1189.45 62.09996197473065
1231.2 62.450631270534956
1274.41 62.83264431139739
1319.82 62.43264570700212
1365.97 61.881852205906426
1414.31 61.81487358876478
1464.11 61.67178346260306
1515.38 61.8300621711666
1568.85 62.68982812819543
1624.51 62.78131261209596
1681.64 62.84467829624026
1740.97 62.78785536648395
1802.49 62.921811053727524
1866.21 63.04890434166994
1932.13 63.061256337963684
2000.24 62.27635669232207
2070.56 62.56974044487043
2143.8 62.51810808791154
2219.24 61.97427884882356
2297.61 61.52176677091785
2378.17 61.51342705192397
2462.4 60.804006957895325
2548.83 60.98605078315393
2638.92 61.00334371116557
2731.93 60.43019113347917
2828.61 60.462846652600916
2928.22 60.78885642065687
3031.49 60.57951602438821
3138.43 59.85810789424413
3249.02 59.66103236446733
3363.28 59.49557615913503
3481.93 59.08139080562496
3604.98 58.64973296271093
3732.42 58.30394452241708
3863.53 57.80208973838889
3999.76 58.02821006079783
4141.11 57.56150897632365
4286.87 57.97590978136752
4438.48 57.578509701942366
4594.48 58.519899694886576
4757.08 58.26033489383572
4924.8 58.78121479166781
5098.39 58.82308398447692
5277.83 58.559764307120176
5463.87 58.38372434019337
5656.49 57.079250760244136
5856.45 56.38026494502229
6062.99 55.58979498506122
6276.86 55.59623245875056
6498.05 55.88293425413126
6727.29 56.73938214857165
6964.6 56.65323702346339
7209.96 57.09273572981712
7464.11 56.723675164374086
7727.78 55.67439459422299
8000.24 54.455571622214805
8282.23 53.40341941231192
8574.46 54.241906815902865
8876.22 55.3587468382261
9189.7 56.31219115401527
9513.43 57.438249647664676
9848.88 56.20105358978124
10196.8 55.235733632593906
10556.4 55.420765980619876
10928.5 56.581713658600606
11313.7 57.72593266684585
11712.9 58.009772612851506
12126.0 56.77976853934186
12553.7 55.4437767501684
12996.1 55.50618866563461
13454.6 55.93494784017658
13928.5 55.54044381377925
14419.9 54.66771852134488
14928.2 54.469186354503066
15454.8 54.63215899549289
15999.8 55.181659364623314
16564.5 55.43431663949886
17148.2 55.33486808038808
17753.2 55.32575235115597
18379.4 55.846358987607616
19027.6 55.91010696478483
19698.5 55.90410382786877
19999.5 56.03843268820971
