Freq "Early Reflections"
20.6 53.802094920091534
21.2 54.7919969250908
21.8 55.75492539031181
22.4 56.72713762517405
23.0 57.714254065745834
23.6 58.67305700749732
24.3 59.67282435844143
25.0 60.58220769343784
25.8 61.14420929057955
26.5 61.67882833831956
27.2 62.42314298646721
28.0 63.27581843661518
29.0 64.40843738019261
30.0 65.5205109455203
30.7 66.2823905309698
31.5 66.7012317148505
32.5 67.30936799236002
33.5 68.27139506811025
34.5 69.18918204493242
35.5 70.06609291085277
36.5 70.89510058284172
37.5 71.65181785900468
38.7 72.51949147995408
40.0 73.41262137323638
41.2 74.18374675761339
42.5 74.93285097437148
43.7 75.5570392737195
45.0 76.17197058822684
46.2 76.68131257319031
47.5 77.17867687990763
48.7 77.6013423346534
50.0 78.03805095346071
51.5 78.52744597122548
53.0 78.98481216799424
54.5 79.36113290937983
56.0 79.66188688712792
58.0 79.92380845141665
60.0 80.22424187407749
61.5 80.51507119701452
63.0 80.80086106562273
65.0 81.04044066580902
67.0 81.17670764596518
69.0 81.25772742672096
71.0 81.52585751777436
73.0 81.72176856798532
75.0 81.82981718999204
77.5 81.66019781522398
80.0 81.68383824747112
82.5 81.88027572306505
85.0 81.97250102238247
87.5 81.69947331233404
90.0 81.63023933194494
92.5 81.65489359298414
95.0 81.70595568266836
97.5 81.56868653274725
100.0 81.52728678230825
103.0 81.4956319405147
106.0 81.44904554919621
109.0 81.40984382278444
112.0 81.39967535706899
115.0 81.32566352772635
118.0 81.24862595684507
122.0 81.16304141956324
125.0 81.06463739596859
128.0 80.992271468911
132.0 80.9404839499983
136.0 80.9194535737991
140.0 80.8760465619918
145.0 80.6789284295697
150.0 80.52082845059921
155.0 80.46805433387418
160.0 80.56191423711235
165.0 80.48607210631567
170.0 80.55059373599032
175.0 80.42144222937824
180.0 80.19345031824281
185.0 80.0412480996673
190.0 80.09131123277977
195.0 80.33628928637843
200.0 80.25565113855268
206.0 80.02972833143448
212.0 79.82951992159934
218.0 79.72552996705463
224.0 79.65646620573374
230.0 79.93494147331833
236.0 79.992053012364
243.0 79.75961569563717
250.0 79.8179757191591
258.0 79.8932175799065
265.0 79.93785206816698
272.0 79.65847655600622
280.0 79.3157286847145
290.0 79.44311740372592
300.0 79.56849601137958
307.0 79.38600015146069
315.0 79.57738302647526
325.0 79.57709001805874
335.0 79.66732167157231
345.0 79.93758900909664
355.0 80.04632305091943
365.0 79.93515710060078
375.0 80.09672400806242
387.0 80.39765893907736
400.0 80.547629733498
412.0 80.2568998986892
425.0 79.95426173633221
437.0 80.08132846535132
450.0 79.68277212730308
462.0 79.49910110944087
475.0 79.47274239746785
487.0 79.4596786027324
500.0 79.33319215918229
515.0 79.52730858794034
530.0 79.67165095453959
545.0 79.53784382591701
560.0 79.41337245299515
580.0 79.58596398662189
600.0 79.37804527833774
615.0 79.48239831095358
630.0 79.37732324199135
650.0 79.3820443186608
670.0 79.36920769152226
690.0 79.45342380344425
710.0 79.74062288878963
730.0 79.4331852104963
750.0 79.70068783553623
775.0 79.13329001306306
800.0 79.07068148212946
825.0 79.10122510779023
850.0 78.70207527558053
875.0 78.5170366055843
900.0 79.13654461126066
925.0 79.02600785666738
950.0 78.97671558331906
975.0 78.96403382978802
1000.0 78.93193777721154
1030.0 78.7329461485463
1060.0 78.65237463397666
1090.0 78.58891628404618
1120.0 78.54421354581997
1150.0 78.57396564675743
1180.0 78.71963286113454
1220.0 78.6684791851775
1250.0 78.4991409066025
1280.0 78.34076775241184
1320.0 78.41211365292627
1360.0 78.6093816618335
1400.0 78.44048774838977
1450.0 78.41382931448918
1500.0 78.27749098429042
1550.0 77.94033872762766
1600.0 77.70833170888274
1650.0 77.83453733657775
1700.0 78.08960873593894
1750.0 78.13871913648251
1800.0 78.0193313761843
1850.0 77.51868784549319
1900.0 77.3002873200721
1950.0 77.32971446267919
2000.0 77.51848139692389
2060.0 77.67336021468702
2120.0 77.53225572917759
2180.0 77.34494746422949
2240.0 77.29733100500424
2300.0 77.51612806812827
2360.0 77.25312284789888
2430.0 77.47596514175193
2500.0 77.74882357485215
2580.0 77.70470520877105
2650.0 77.3654119329382
2720.0 77.35101232890113
2800.0 77.81243301092667
2900.0 77.51701715797317
3000.0 77.06835569527989
3070.0 77.05060014452565
3150.0 77.18704134992795
3250.0 77.03124815047329
3350.0 76.79803443265388
3450.0 76.7043420303784
3550.0 76.66980078127185
3650.0 76.62892124960801
3750.0 76.5493087758291
3870.0 76.4492671521126
4000.0 76.82834802530122
4120.0 76.65763882590296
4250.0 76.72883950106488
4370.0 76.65083266983406
4500.0 76.58822152488167
4620.0 76.6174872555297
4750.0 76.62856603492892
4870.0 76.49506839855641
5000.0 76.25517393870392
5150.0 76.07730955188087
5300.0 76.18423926443933
5450.0 76.33794196104188
5600.0 76.48306704880834
5800.0 76.40175953614867
6000.0 76.42502493072311
6150.0 76.47717138312427
6300.0 76.53172007832107
6500.0 76.71407776145155
6700.0 76.58197129445577
6900.0 76.4292933331438
7100.0 76.43258972329433
7300.0 76.44081807781846
7500.0 76.37103863945886
7750.0 76.34759514117542
8000.0 76.37634565479617
8250.0 76.27326522959551
8500.0 76.20418718175391
8750.0 76.19154040595036
9000.0 76.16889513701894
9250.0 76.08787857426992
9500.0 75.92028149620087
9750.0 75.8434476439488
10000.0 75.81409335117267
10300.0 75.82027542125856
10600.0 75.85341259239372
10900.0 75.93411235987107
11200.0 75.9867501086684
11500.0 75.94336665230901
11800.0 75.84310438722905
12200.0 75.68239619682822
12500.0 75.46552690939619
12800.0 75.27841862120407
13200.0 75.13420537129535
13600.0 75.0515493846997
14000.0 74.91755909547362
14500.0 74.66728122302649
15000.0 74.39924479765843
15500.0 74.0812470736066
16000.0 74.00747498083213
16500.0 74.06381024749139
17000.0 74.03851179334829
17500.0 73.96964875356566
18000.0 73.77107585279299
18500.0 73.51813400748608
19000.0 73.4554029931093
19500.0 73.59542183234872
