Freq "Listening Window"
20.6 50.52195477656089
21.2 51.49114037269278
21.8 52.433525807297016
22.4 53.783237289808014
23.0 55.26987394523992
23.6 56.54794514377251
24.3 57.471365862787295
25.0 58.312137016537335
25.8 58.85317907205558
26.5 59.39991760530309
27.2 60.29746460965343
28.0 61.33264212978041
29.0 62.757906017132214
30.0 64.02849356341665
30.7 64.86190397121752
31.5 65.40466582552074
32.5 66.15028930920714
33.5 67.20299635667395
34.5 68.21698000410161
35.5 69.17983896871317
36.5 70.07765198222619
37.5 70.88786993847974
38.7 71.80741005101247
40.0 72.74624275539642
41.2 73.55644701752985
42.5 74.34473703677034
43.7 74.99834565875169
45.0 75.64305611009632
46.2 76.17601183482937
47.5 76.6959149600273
48.7 77.13820948994437
50.0 77.59591159451072
51.5 78.10810196118992
53.0 78.58495753596664
54.5 78.978216221166
56.0 79.29359617166315
58.0 79.57039344300837
60.0 79.89335025021799
61.5 80.20542533499405
63.0 80.51177734615793
65.0 80.77243164002854
67.0 80.92547390206975
69.0 81.02062659255562
71.0 81.30166575081493
73.0 81.51134994151614
75.0 81.63373572869358
77.5 81.48293939902291
80.0 81.52646372539523
82.5 81.74501661265795
85.0 81.8577333699392
87.5 81.59988590736025
90.0 81.55585323598758
92.5 81.5986588073148
95.0 81.66340869865955
97.5 81.53681833585826
100.0 81.50433114413627
103.0 81.48150816053456
106.0 81.44471250572464
109.0 81.42515837329793
112.0 81.44157817050367
115.0 81.37005027257116
118.0 81.29589595764024
122.0 81.24165244162674
125.0 81.16241867513156
128.0 81.10371099279865
132.0 81.09064279841809
136.0 81.09525468979064
140.0 81.05873936144005
145.0 80.83880664918628
150.0 80.70748516360153
155.0 80.70048328156598
160.0 80.82454873606287
165.0 80.79142341490044
170.0 80.87624300001052
175.0 80.71146521364119
180.0 80.48762697774613
185.0 80.40435367270179
190.0 80.52638340647522
195.0 80.76291367942717
200.0 80.6736008574369
206.0 80.4582768014486
212.0 80.30330268295702
218.0 80.261992632158
224.0 80.27949202200678
230.0 80.6250664486722
236.0 80.65759315586557
243.0 80.34456500172465
250.0 80.49248327657307
258.0 80.64248644917627
265.0 80.61940759971215
272.0 80.28848868163651
280.0 80.01686311077744
290.0 80.31456325512495
300.0 80.41618278596783
307.0 80.19688697614181
315.0 80.43326951797839
325.0 80.51382372464585
335.0 80.62771086952456
345.0 80.89826708929832
355.0 81.06580775585813
365.0 81.057014798679
375.0 81.42846812836075
387.0 81.85135760329769
400.0 81.88357456471286
412.0 81.48767997499213
425.0 81.25074295906039
437.0 81.47009426937143
450.0 80.86003126894906
462.0 80.9164756712806
475.0 80.91481366203301
487.0 80.83736361602867
500.0 80.70309917143445
515.0 80.92294163411701
530.0 81.15940429453605
545.0 81.10827731785156
560.0 81.12359530068399
580.0 81.4929276880928
600.0 81.1590389249961
615.0 81.32137165206403
630.0 81.35430470882697
650.0 81.48176463265753
670.0 81.58040331654753
690.0 81.76695374029903
710.0 82.13557229416098
730.0 82.0152538019667
750.0 82.18983691748711
775.0 81.58764077381028
800.0 81.6330296541916
825.0 81.73113912420307
850.0 81.32152732678536
875.0 81.16874155557451
900.0 81.96817643269254
925.0 81.7465560749168
950.0 81.72106628588544
975.0 81.75520132541358
1000.0 81.71255899974535
1030.0 81.43996289172271
1060.0 81.50417355803827
1090.0 81.50313234887881
1120.0 81.56925235754957
1150.0 81.90416435624033
1180.0 82.1061314899611
1220.0 82.22517384204733
1250.0 82.13531147117281
1280.0 81.97817032391035
1320.0 81.8067056028483
1360.0 81.91308715595197
1400.0 81.66984394488439
1450.0 81.88092149419649
1500.0 81.71768939290983
1550.0 81.20528674298741
1600.0 80.93582220392454
1650.0 80.98444228937714
1700.0 81.19052927106561
1750.0 81.38492070279956
1800.0 81.32506776559485
1850.0 80.62893903075447
1900.0 80.40480924296705
1950.0 80.52246367631247
2000.0 80.82337348352443
2060.0 81.09003191238313
2120.0 80.89035668339424
2180.0 80.51568959285903
2240.0 80.35447968048308
2300.0 80.66173820321215
2360.0 80.54074184729228
2430.0 80.70091101260023
2500.0 80.61505227092555
2580.0 80.25664620860216
2650.0 80.0446535466203
2720.0 79.8646795732528
2800.0 80.54336567052862
2900.0 79.91981072578957
3000.0 79.13772111373459
3070.0 79.15028438362462
3150.0 79.43701742512089
3250.0 79.17132918851341
3350.0 78.94850100599987
3450.0 79.00172995430971
3550.0 79.09523326150554
3650.0 79.16865806328524
3750.0 79.1693242161923
3870.0 78.91571212818593
4000.0 79.49503558345579
4120.0 79.03932493340446
4250.0 79.20632367743453
4370.0 78.98509864978234
4500.0 78.8375075703316
4620.0 78.99246892499959
4750.0 79.01471723878099
4870.0 78.89203725744314
5000.0 78.68454508594094
5150.0 78.51975361450519
5300.0 78.60518067768295
5450.0 78.75541148019927
5600.0 79.15637146304289
5800.0 79.01941044162302
6000.0 79.21156761930878
6150.0 79.42982765457684
6300.0 79.60664337300852
6500.0 79.96742061997301
6700.0 79.98524297067264
6900.0 79.83186575726727
7100.0 79.92419598208404
7300.0 79.99195395162108
7500.0 79.90621842198178
7750.0 79.98078085150301
8000.0 80.19925511396781
8250.0 80.10623380029561
8500.0 80.05159140359264
8750.0 80.0770095522189
9000.0 80.07791420130253
9250.0 79.99070554637487
9500.0 79.80698131960662
9750.0 79.7167398612481
10000.0 79.6858621246371
10300.0 79.72532145596331
10600.0 79.85064711312495
10900.0 80.09628868829274
11200.0 80.3743805032574
11500.0 80.5058517918395
11800.0 80.52630577568785
12200.0 80.45853852132132
12500.0 80.28968790130892
12800.0 80.08709937334449
13200.0 79.9139620349806
13600.0 79.84956833996124
14000.0 79.7725384266768
14500.0 79.53123529036792
15000.0 79.3078675557836
15500.0 78.94975884579678
16000.0 78.88866315868277
16500.0 79.03787531067837
17000.0 79.05723446990989
17500.0 79.03824922619488
18000.0 78.86676653699313
18500.0 78.58315719782159
19000.0 78.39778395980365
19500.0 78.45396154738906
