Freq "On Axis"
20.6 50.27844441772153
21.2 51.23133941772154
21.8 52.15763841772154
22.4 53.501575417721526
23.0 54.98653441772153
23.6 56.26607741772155
24.3 57.20091741772153
25.0 58.04596841772154
25.8 58.54443541772153
26.5 59.06014141772154
27.2 59.950479417721525
28.0 60.97945841772152
29.0 62.40574541772153
30.0 63.66665241772155
30.7 64.49033141772153
31.5 65.04523441772153
32.5 65.80110641772153
33.5 66.84591741772154
34.5 67.85457141772153
35.5 68.81310241772154
36.5 69.70728241772153
37.5 70.51415941772153
38.7 71.42973441772153
40.0 72.36438641772155
41.2 73.17118441772153
42.5 73.95702641772154
43.7 74.60849441772153
45.0 75.25134241772153
46.2 75.78277141772153
47.5 76.30122141772154
48.7 76.74245441772153
50.0 77.19934241772154
51.5 77.71063341772154
53.0 78.18670341772153
54.5 78.57925741772154
56.0 78.89390441772153
58.0 79.16926641772153
60.0 79.49195241772152
61.5 79.80454141772154
63.0 80.11140741772154
65.0 80.37250341772153
67.0 80.52578341772153
69.0 80.62104941772154
71.0 80.90216141772153
73.0 81.11210541772154
75.0 81.23491241772153
77.5 81.08498041772154
80.0 81.12959341772155
82.5 81.34954541772153
85.0 81.46366041772153
87.5 81.20697441772154
90.0 81.16509841772154
92.5 81.20940541772153
95.0 81.27523641772153
97.5 81.14985241772153
100.0 81.11848041772153
103.0 81.09702941772153
106.0 81.06184541772153
109.0 81.04499841772154
112.0 81.06450441772155
115.0 80.99370541772153
118.0 80.92058041772154
122.0 80.87074641772153
125.0 80.79395141772154
128.0 80.73747541772153
132.0 80.72938441772153
136.0 80.73610641772153
140.0 80.69967441772154
145.0 80.47961341772154
150.0 80.35360041772154
155.0 80.35304141772151
160.0 80.48071941772153
165.0 80.45343941772153
170.0 80.53773841772153
175.0 80.37086641772153
180.0 80.15182641772154
185.0 80.07880141772154
190.0 80.20843441772153
195.0 80.44457141772153
200.0 80.35634341772153
206.0 80.14434541772154
212.0 79.99546641772153
218.0 79.96315141772153
224.0 79.99386141772153
230.0 80.33593441772153
236.0 80.36293141772154
243.0 80.05021241772154
250.0 80.20906741772153
258.0 80.36339241772153
265.0 80.32988841772153
272.0 80.00474141772152
280.0 79.75225541772153
290.0 80.05850341772152
300.0 80.15816841772153
307.0 79.94970841772154
315.0 80.18866741772153
325.0 80.29027541772153
335.0 80.41630141772153
345.0 80.68797341772155
355.0 80.87058941772153
365.0 80.87842941772153
375.0 81.24398941772154
387.0 81.65547841772154
400.0 81.64639841772153
412.0 81.24531141772154
425.0 81.02532241772154
437.0 81.21837041772154
450.0 80.60866041772154
462.0 80.71513841772152
475.0 80.71685341772154
487.0 80.62461141772154
500.0 80.48418341772154
515.0 80.75458041772153
530.0 80.99633541772154
545.0 80.96893341772152
560.0 81.03000441772154
580.0 81.43630541772153
600.0 81.08285541772153
615.0 81.30089541772153
630.0 81.34943441772154
650.0 81.49462141772153
670.0 81.58685041772152
690.0 81.76947541772154
710.0 82.16453741772153
730.0 82.02941741772153
750.0 82.16419441772153
775.0 81.52104041772154
800.0 81.53986541772153
825.0 81.64956741772151
850.0 81.23269341772153
875.0 81.02022441772154
900.0 81.86428441772154
925.0 81.62228041772154
950.0 81.57681441772154
975.0 81.62561341772154
1000.0 81.64963141772154
1030.0 81.41482641772153
1060.0 81.62127541772153
1090.0 81.68870741772155
1120.0 81.78593941772154
1150.0 82.19117341772153
1180.0 82.41112341772153
1220.0 82.48641041772153
1250.0 82.36988941772155
1280.0 82.19081541772154
1320.0 81.95998641772154
1360.0 82.04126041772153
1400.0 81.81630041772154
1450.0 82.06643141772153
1500.0 81.97179141772155
1550.0 81.43522241772153
1600.0 81.18435841772155
1650.0 81.22121741772153
1700.0 81.38541141772153
1750.0 81.63327441772155
1800.0 81.64194341772152
1850.0 80.96267641772154
1900.0 80.76276841772153
1950.0 80.86567241772151
2000.0 81.06787341772153
2060.0 81.38110841772153
2120.0 81.06794741772153
2180.0 80.64493641772152
2240.0 80.47414441772153
2300.0 80.72864741772153
2360.0 80.48251741772154
2430.0 80.61344541772154
2500.0 80.38387841772153
2580.0 79.88791441772153
2650.0 79.76876041772154
2720.0 79.45183641772154
2800.0 79.78756441772153
2900.0 79.28457841772153
3000.0 78.35749541772152
3070.0 78.30540941772153
3150.0 78.62609841772154
3250.0 78.08109541772153
3350.0 78.14268641772152
3450.0 78.35345241772153
3550.0 78.51508041772153
3650.0 78.69280941772153
3750.0 78.86706041772153
3870.0 78.78025641772153
4000.0 79.61603741772153
4120.0 79.34543541772153
4250.0 79.58402841772153
4370.0 79.56690041772153
4500.0 79.54586641772154
4620.0 79.71378341772153
4750.0 80.01307441772154
4870.0 79.72141141772153
5000.0 79.32200941772153
5150.0 79.10638241772153
5300.0 79.38508241772153
5450.0 79.49803041772154
5600.0 79.73619241772154
5800.0 79.20245141772153
6000.0 78.92446041772153
6150.0 79.12611941772154
6300.0 79.49078641772154
6500.0 79.95350341772154
6700.0 80.22175541772154
6900.0 80.14116041772154
7100.0 80.35164641772154
7300.0 80.53275541772153
7500.0 80.52593841772153
7750.0 80.74053241772154
8000.0 81.15209641772155
8250.0 80.96836141772154
8500.0 80.79098841772154
8750.0 80.80953841772153
9000.0 80.76936741772154
9250.0 80.51441841772153
9500.0 80.03218841772154
9750.0 79.82371241772154
10000.0 79.66269841772153
10300.0 79.55915541772153
10600.0 79.64796441772154
10900.0 80.13226441772153
11200.0 80.74078741772153
11500.0 81.05968041772154
11800.0 81.28896641772154
12200.0 81.76846741772154
12500.0 81.77293441772153
12800.0 81.48900541772153
13200.0 81.14752041772154
13600.0 80.91459141772154
14000.0 80.67674541772153
14500.0 80.45456041772154
15000.0 80.56584441772152
15500.0 80.21639641772155
16000.0 80.32213241772153
16500.0 80.51066441772153
17000.0 80.45137241772154
17500.0 80.31328041772153
18000.0 80.09351741772153
18500.0 79.75901941772153
19000.0 79.26674041772152
19500.0 78.76872041772152
