Freq "On Axis"
20.6 50.646069
21.2 51.59896400000001
21.8 52.52526300000001
22.4 53.86919999999999
23.0 55.354158999999996
23.6 56.633701999999985
24.3 57.568541999999994
25.0 58.413593000000006
25.8 58.91206
26.5 59.427766000000005
27.2 60.31810399999999
28.0 61.34708300000001
29.0 62.77337
30.0 64.034277
30.7 64.857956
31.5 65.41285899999998
32.5 66.168731
33.5 67.213542
34.5 68.222196
35.5 69.180727
36.5 70.07490699999998
37.5 70.881784
38.7 71.797359
40.0 72.732011
41.2 73.538809
42.5 74.324651
43.7 74.976119
45.0 75.61896699999998
46.2 76.150396
47.5 76.668846
48.7 77.110079
50.0 77.56696699999999
51.5 78.078258
53.0 78.554328
54.5 78.946882
56.0 79.26152899999998
58.0 79.53689099999998
60.0 79.85957700000002
61.5 80.172166
63.0 80.479032
65.0 80.74012799999998
67.0 80.893408
69.0 80.988674
71.0 81.269786
73.0 81.47973
75.0 81.602537
77.5 81.45260499999999
80.0 81.497218
82.5 81.71717
85.0 81.831285
87.5 81.57459899999999
90.0 81.532723
92.5 81.57703
95.0 81.642861
97.5 81.517477
100.0 81.486105
103.0 81.464654
106.0 81.42947
109.0 81.412623
112.0 81.432129
115.0 81.36133
118.0 81.288205
122.0 81.238371
125.0 81.161576
128.0 81.10509999999998
132.0 81.097009
136.0 81.103731
140.0 81.067299
145.0 80.84723799999999
150.0 80.72122499999999
155.0 80.72066600000001
160.0 80.84834399999998
165.0 80.82106400000002
170.0 80.905363
175.0 80.738491
180.0 80.519451
185.0 80.446426
190.0 80.576059
195.0 80.812196
200.0 80.723968
206.0 80.51197
212.0 80.363091
218.0 80.330776
224.0 80.361486
230.0 80.703559
236.0 80.730556
243.0 80.417837
250.0 80.576692
258.0 80.731017
265.0 80.697513
272.0 80.37236600000001
280.0 80.11988
290.0 80.42612800000002
300.0 80.52579299999998
307.0 80.317333
315.0 80.556292
325.0 80.6579
335.0 80.783926
345.0 81.055598
355.0 81.238214
365.0 81.246054
375.0 81.611614
387.0 82.023103
400.0 82.014023
412.0 81.612936
425.0 81.392947
437.0 81.585995
450.0 80.976285
462.0 81.08276300000001
475.0 81.084478
487.0 80.992236
500.0 80.851808
515.0 81.122205
530.0 81.36396
545.0 81.33655800000001
560.0 81.397629
580.0 81.80393
600.0 81.45048
615.0 81.66851999999999
630.0 81.71705899999999
650.0 81.862246
670.0 81.95447500000002
690.0 82.13709999999999
710.0 82.532162
730.0 82.39704199999998
750.0 82.531819
775.0 81.888665
800.0 81.90749
825.0 82.01719200000001
850.0 81.600318
875.0 81.387849
900.0 82.23190899999999
925.0 81.989905
950.0 81.944439
975.0 81.993238
1000.0 82.017256
1030.0 81.782451
1060.0 81.98889999999999
1090.0 82.056332
1120.0 82.153564
1150.0 82.558798
1180.0 82.778748
1220.0 82.854035
1250.0 82.737514
1280.0 82.55844
1320.0 82.327611
1360.0 82.408885
1400.0 82.183925
1450.0 82.434056
1500.0 82.339416
1550.0 81.802847
1600.0 81.551983
1650.0 81.588842
1700.0 81.753036
1750.0 82.000899
1800.0 82.00956800000002
1850.0 81.330301
1900.0 81.130393
1950.0 81.23329700000001
2000.0 81.435498
2060.0 81.748733
2120.0 81.435572
2180.0 81.01256100000002
2240.0 80.841769
2300.0 81.09627199999998
2360.0 80.850142
2430.0 80.98107
2500.0 80.751503
2580.0 80.25553899999998
2650.0 80.136385
2720.0 79.819461
2800.0 80.155189
2900.0 79.652203
3000.0 78.72512000000002
3070.0 78.673034
3150.0 78.993723
3250.0 78.44872
3350.0 78.51031100000002
3450.0 78.721077
3550.0 78.882705
3650.0 79.060434
3750.0 79.234685
3870.0 79.147881
4000.0 79.983662
4120.0 79.71306
4250.0 79.951653
4370.0 79.934525
4500.0 79.913491
4620.0 80.081408
4750.0 80.380699
4870.0 80.089036
5000.0 79.689634
5150.0 79.474007
5300.0 79.752707
5450.0 79.865655
5600.0 80.103817
5800.0 79.570076
6000.0 79.292085
6150.0 79.493744
6300.0 79.858411
6500.0 80.321128
6700.0 80.58938
6900.0 80.508785
7100.0 80.719271
7300.0 80.90038
7500.0 80.89356299999999
7750.0 81.108157
8000.0 81.519721
8250.0 81.335986
8500.0 81.15861299999999
8750.0 81.177163
9000.0 81.136992
9250.0 80.882043
9500.0 80.399813
9750.0 80.191337
10000.0 80.030323
10300.0 79.92678
10600.0 80.01558899999999
10900.0 80.499889
11200.0 81.108412
11500.0 81.427305
11800.0 81.656591
12200.0 82.136092
12500.0 82.14055899999998
12800.0 81.85662999999998
13200.0 81.515145
13600.0 81.282216
14000.0 81.04437
14500.0 80.822185
15000.0 80.93346900000002
15500.0 80.584021
16000.0 80.689757
16500.0 80.87828899999998
17000.0 80.818997
17500.0 80.680905
18000.0 80.46114199999998
18500.0 80.12664399999998
19000.0 79.63436500000002
19500.0 79.13634500000002
