Freq "Sound Power"
20.5078 74.68686070205746
21.9727 77.65681090372597
23.4375 79.30548731995441
24.9023 81.92922292530214
26.3672 84.71741080246048
27.832 87.3808583002906
29.2969 89.69292361266157
30.7617 90.87016654186377
32.2266 91.02578404683447
33.6914 91.01477128952504
35.1562 91.18898685157669
36.6211 91.6636861419903
38.0859 92.52644629274226
39.5508 93.64160763610012
41.0156 95.0622528893675
42.4805 96.2950419795985
43.9453 97.3284669257354
45.4102 97.90337680842691
46.875 98.07867567903824
48.3398 97.91672317472572
51.2695 97.28627743755908
52.7344 97.05613268572857
54.1992 96.87945543649877
55.6641 96.77679369867488
58.5938 96.77283769592516
60.0586 96.81701856815104
62.9883 96.94891344357654
64.4531 97.00973350564965
67.3828 97.1045137467905
68.8477 97.14537663273862
71.7773 97.23477618874867
74.707 97.2798297175648
77.6367 97.23413008978073
79.1016 97.18756030413091
82.0312 97.06341200063608
84.9609 96.8908661926524
87.8906 96.69329886434541
90.8203 96.47078038538274
95.2148 96.09024638919777
98.1445 95.85150220739655
101.074 95.60186755683621
105.469 95.25228246166091
108.398 95.31690973609648
112.793 95.27813036288336
117.188 95.11671388128416
120.117 95.09157689579982
124.512 95.02409343053566
128.906 94.97180447032103
133.301 94.89424678558882
139.16 94.79339583359486
143.555 94.73192975397345
147.949 94.69449257833273
153.809 94.70904249216008
159.668 94.79501597427631
165.527 95.00979105169853
171.387 95.06284617121096
177.246 95.13060106532919
183.105 94.5833473340505
188.965 93.62831461584676
196.289 93.6601883376787
203.613 93.85683585086544
210.938 93.87714286235664
218.262 93.61094584195104
225.586 93.64349637275456
232.91 93.76554727037491
241.699 93.8778785941025
250.488 93.9339525695094
259.277 94.12733302888824
268.066 93.87551302062181
276.855 93.57894955658293
287.109 93.34074912354907
297.363 93.50047180524766
307.617 93.89234181921074
319.336 93.58756360076671
329.59 93.40126009389684
341.309 93.23201716535723
353.027 92.69756354814196
366.211 92.52284450029268
379.395 93.03508990469497
392.578 93.76187476123926
405.762 93.17725517865063
420.41 92.81816882110103
435.059 92.60211978791008
451.172 92.59507944636377
465.82 93.10922867218909
483.398 92.9603890689165
499.512 92.96968279179632
517.09 92.98649784056906
536.133 92.84331787533742
555.176 92.66949101902962
574.219 92.48188598554373
594.727 92.34963267221409
615.234 92.39799483467412
637.207 91.55120172212025
659.18 91.39700770511362
682.617 91.0356077687872
707.52 92.19482224400406
732.422 92.55523571847651
757.324 92.17018788746921
785.156 91.81546705105713
811.523 91.96105658186413
840.82 91.73828471618268
870.117 91.64361490479418
900.879 91.8181979275304
933.105 92.37844135396332
965.332 91.67713391453947
1000.49 92.08072895674684
1035.64 91.8408469306121
1072.27 91.56717898804885
1108.89 91.45267395246654
1148.44 91.02763333009928
1189.45 90.68504073769893
1230.47 90.5309543852329
1274.41 90.96431687707333
1319.82 91.77701099798051
1366.7 92.51146222140287
1413.57 92.24716703962673
1463.38 91.82484863588282
1516.11 91.08653697352693
1568.85 90.47563703478309
1624.51 90.12925267052242
1681.64 89.43281458910036
1741.7 89.29132882800346
1803.22 89.42712301313915
1866.21 90.08011137014259
1932.13 89.85035303253528
1999.51 89.66797958835376
2069.82 89.34165063301425
2143.07 89.128197714431
2219.24 88.41218493397237
2296.88 87.67641085137288
2378.91 86.87206478045383
2462.4 87.05038314256953
2548.83 87.44653227022985
2639.65 87.218946405135
2731.93 86.44955677627684
2828.61 86.54080143674624
2928.22 87.28568128872179
3030.76 87.64297079894537
3137.7 87.6422099194659
3249.02 87.42746026312669
3363.28 87.24805601577657
3481.93 87.09455545638153
3604.98 87.30401933197594
3732.42 87.23641762372577
3864.26 87.0171636622975
4000.49 86.23368503827285
4141.11 85.99502521946052
4287.6 85.52792021697813
4438.48 85.50359198493209
4595.21 85.76083807380063
4756.35 86.647293660124
4924.8 87.27122534142988
5097.66 87.6213111486615
5277.83 87.30004022806138
5463.87 87.64898112132245
5657.23 87.53049545351587
5856.45 87.45229397720725
6062.99 87.52977740492683
6276.86 87.27646507010152
6498.05 86.89492949940885
6726.56 87.38432246220214
6963.87 87.27767664450904
7209.96 87.72387676429068
7464.84 87.78750153385295
7727.05 87.68511405005957
7999.51 88.01305117076751
8282.23 87.98958437598368
8573.73 88.41080234757494
8876.95 88.18695081692606
9188.96 88.25932550869676
9514.16 88.03892167824819
9849.61 88.22630547018105
10196.8 88.36061572138348
10555.7 88.20916043893557
10927.7 88.07465511794683
11313.0 87.91183157756112
11712.9 88.00695938714556
12126.0 87.82205599348248
12553.7 87.5355901272397
12996.1 86.90525239737553
13454.6 86.32002007309879
13929.2 85.83889009863447
14419.9 85.52643372877301
14928.2 84.96109646430527
15455.6 84.1010365293057
16000.5 83.00192045193612
16564.5 82.4572754708564
17148.9 82.86041338847852
17752.4 82.68828288012178
18379.4 82.02101949200123
19026.9 81.08289795792398
19697.8 79.97725222099606
19999.5 79.44655109231218
