Freq "Floor Bounce"
20.5078 50.52189937499347
21.2402 53.52069044935706
21.9727 54.54662343690299
22.7051 55.923230600686395
23.4375 56.10652676693715
24.1699 56.513539365429665
25.6348 57.831961221885734
26.3672 58.8017169389382
27.0996 59.69693443407684
27.832 60.815972164836495
29.2969 62.58610357873178
30.0293 63.46439200143081
31.4941 64.96508867774007
32.2266 65.96437804724171
33.6914 67.47451683878091
34.4238 68.29398698939563
35.8887 69.78911188558456
37.3535 71.14765455026132
38.8184 72.43620341148439
39.5508 73.11285057638767
41.0156 73.98946861550135
42.4805 75.22034203485993
43.9453 76.15063427387256
45.4102 76.95460585039513
47.6074 77.98531642339607
49.0723 78.58223850532133
50.5371 79.09454473951055
52.7344 79.76459071931708
54.1992 80.12836819313779
56.3965 80.59268170803374
58.5938 80.8875664439369
60.0586 81.14379533217168
62.2559 81.54988611469477
64.4531 81.8086955748025
66.6504 82.06654389600303
69.5801 82.36616815781281
71.7773 82.50961208858494
73.9746 82.72052965669141
76.9043 82.89601521121675
79.834 83.06533857686192
82.7637 83.40795036515232
85.6934 83.58382949260661
88.623 83.53101486026156
91.5527 83.44766833423844
94.4824 83.8808162125924
98.1445 84.0014930953447
101.807 84.09315297893336
105.469 84.19903333856325
109.131 84.4373166458204
112.793 84.59631611054704
116.455 84.63844543837254
120.85 84.74366857182898
125.244 84.93346413918262
129.639 84.93557768972335
134.033 84.87629920409233
138.428 84.96171434703096
143.555 85.09519546212013
148.682 85.17957284928151
153.809 85.20148186406739
159.668 85.46388475857694
164.795 85.41399615004032
170.654 85.32469098427225
176.514 85.30378964818334
183.105 85.35258512784299
189.697 85.36357996791864
196.289 85.41883045121986
202.881 85.43661434593216
210.205 85.3965585128908
217.529 85.36395186913305
225.586 85.41126436114308
232.91 85.60898393011136
241.699 85.4517952803752
249.756 85.69804123141283
258.545 85.48867047274845
268.066 85.27714532847263
277.588 84.90952026426262
287.109 84.90164556975742
297.363 85.55842361033949
307.617 85.55848531070404
318.604 85.50547933059588
329.59 85.35675903704725
341.309 84.24883536774938
353.76 83.52468011502353
366.211 86.01028345992705
378.662 87.58805203684292
392.578 87.03326380378547
405.762 87.06588717853
420.41 87.21211843754126
435.059 86.53412454338323
450.439 86.38562466555847
466.553 86.06498974425628
482.666 85.82986784990446
500.244 85.71338336709339
517.822 85.19940346793109
536.133 85.3574378454456
554.443 85.40891031598157
574.219 85.6058857485048
594.727 84.60373779862357
615.234 84.20955311884791
637.207 84.93626923448983
659.912 87.38479601289731
683.35 87.01660608391893
706.787 87.63291995791894
731.689 87.13261141223576
758.057 86.92254538716222
784.424 86.75477088543707
812.256 86.12572414363537
840.82 85.23514904657898
870.85 85.72315065646407
901.611 85.91695786802103
933.105 86.40936786908878
966.064 85.65817898108129
999.756 85.20219940013084
1034.91 84.47586198939102
1071.53 84.49395965448211
1109.62 84.45826312168688
1148.44 84.6041896456484
1189.45 84.79619242802957
1231.2 84.79128263546336
1274.41 86.81555942920912
1319.82 87.67543000489661
1365.97 86.5672530672186
1414.31 86.79001694553327
1464.11 86.38100100700827
1515.38 85.99760255663637
1568.85 85.84849860320693
1624.51 85.4677815959752
1681.64 85.26283092356532
1740.97 85.13104645008086
1802.49 84.91335580541701
1866.21 84.69354334254415
1932.13 83.89597236216
2000.24 82.80372569642603
2070.56 82.7084931977412
2143.8 82.00390177655977
2219.24 81.70006548000202
2297.61 81.2644077356951
2378.17 80.69863185269932
2462.4 79.15378330904127
2548.83 78.37918712587904
2638.92 77.95848888942511
2731.93 78.43967322471637
2828.61 78.38998592309281
2928.22 78.4453625813143
3031.49 78.84722877398042
3138.43 79.3694380303944
3249.02 80.12055532130064
3363.28 80.37443256937891
3481.93 80.75215348508962
3604.98 82.00280149048314
3732.42 81.92476624725593
3863.53 81.44364473553537
3999.76 81.9709532630605
4141.11 82.09012849189799
4286.87 81.44645836410128
4438.48 81.88516891863999
4594.48 82.61459158832284
4757.08 82.5600894394114
4924.8 83.05987380706131
5098.39 83.08273445422694
5277.83 82.94712190733209
5463.87 83.0062283391284
5656.49 83.21976038163778
5856.45 83.1305206232788
6062.99 82.66906754960071
6276.86 82.11186283863697
6498.05 81.44717402195664
6727.29 80.73488758177847
6964.6 80.33997670841356
7209.96 80.42018720129221
7464.11 80.5159310966486
7727.78 80.10647571391496
8000.24 79.01456061454967
8282.23 77.92735956720298
8574.46 77.7910191954147
8876.22 79.32022927058534
9189.7 80.36226474548775
9513.43 80.3913309906525
9848.88 79.78105063609435
10196.8 79.1700718534339
10556.4 78.54420357528228
10928.5 77.83991291915841
11313.7 76.93161442860055
11712.9 76.16466204916307
12126.0 75.08154612752963
12553.7 74.30720947261989
12996.1 73.64862598538771
13454.6 73.19605161855051
13928.5 72.6969250875745
14419.9 71.81402839267975
14928.2 71.16244426898098
15454.8 70.8402023639164
15999.8 70.36356719918253
16564.5 69.41393636931696
17148.2 68.63609975770828
17753.2 67.64927609879442
18379.4 66.15392319006935
19027.6 64.37392733719194
19698.5 63.109639007181514
19999.5 63.18054098014217
