Freq "Early Reflections"
20.5078 57.37384172268362
21.9727 59.07001788685788
23.4375 60.38378746570005
24.9023 61.66413158309349
26.3672 62.56407479991135
27.832 64.34992690605729
29.2969 65.30285902449965
30.7617 66.58587825195177
32.2266 67.88725883516493
33.6914 69.19395174767233
35.1562 70.39753310374205
36.6211 71.56363844405936
38.0859 72.59094035706165
39.5508 73.66788964893333
41.0156 74.65500793118146
42.4805 75.61580285209948
43.9453 76.48954982885576
45.4102 77.34707147440385
46.875 78.15569114968734
48.3398 78.87101843688843
51.2695 80.26179735379024
52.7344 80.90975374937393
54.1992 81.48027407055366
55.6641 82.02572605059883
58.5938 82.97711417620272
60.0586 83.40846314196484
62.9883 84.23052722699927
64.4531 84.57313314040404
67.3828 85.17742623922369
68.8477 85.43726761081643
71.7773 85.83097682078586
74.707 86.19206480512646
77.6367 86.50854015031422
79.1016 86.61647153568832
82.0312 86.74738416242448
84.9609 86.8841932485661
87.8906 87.01781076573076
90.8203 87.16363324619243
95.2148 87.23954981565642
98.1445 87.27278367680326
101.074 87.28113872419031
105.469 87.24654297384642
108.398 87.19665384172363
112.793 87.04160449949305
117.188 86.86688136830257
120.117 86.96847819301446
124.512 87.08430309764788
128.906 86.89785029551946
133.301 86.74491070693948
139.16 86.68662265273399
143.555 86.69422900958688
147.949 87.02475509532738
153.809 87.14076423149444
159.668 86.82882112888181
165.527 86.6827218825278
171.387 86.65895369285188
177.246 86.54495005036908
183.105 86.41664657941745
188.965 86.52737606703268
196.289 86.28534233662883
203.613 86.09789914802883
210.938 85.96140942285936
218.262 85.95098923901402
225.586 85.53732995899249
232.91 85.34797692928397
241.699 85.40767573908882
250.488 86.96933561382944
259.277 86.26056662004898
268.066 86.35366186833225
276.855 86.29676122988103
287.109 85.86130264088929
297.363 85.67782661401458
307.617 85.46871642253048
319.336 85.58115209381309
329.59 85.69546905535816
341.309 85.08240471549824
353.027 84.82546902722467
366.211 85.04688310518924
379.395 85.25134079035574
392.578 86.05172365640422
405.762 85.40099760970979
420.41 85.4221181158694
435.059 84.76708429628162
451.172 83.5907919681656
465.82 84.8035998977134
483.398 85.58565731739996
499.512 86.01931548542632
517.09 84.53505313909635
536.133 85.18919307340461
555.176 85.2465292330856
574.219 85.06793452659183
594.727 85.07187976188966
615.234 84.80569600481313
637.207 84.99375616133705
659.18 85.11937397818214
682.617 84.34277943292308
707.52 84.85297497948089
732.422 85.49018087712271
757.324 86.39124572144291
785.156 85.79351440835325
811.523 85.25763363205452
840.82 85.98713036418638
870.117 85.50042118690023
900.879 84.46667573812958
933.105 84.92533942838666
965.332 84.7263692934542
1000.49 84.34251928553066
1035.64 84.49903265880694
1072.27 84.68297397892498
1108.89 84.27598242571202
1148.44 83.91344058975903
1189.45 83.2895783038391
1230.47 83.54221329071541
1274.41 83.00403556646984
1319.82 83.12268230953285
1366.7 82.43040440957897
1413.57 82.63609622767461
1463.38 81.96752980625868
1516.11 81.66056803669183
1568.85 81.64452262996798
1624.51 81.88471347513135
1681.64 82.46876896785834
1741.7 82.62411819737159
1803.22 82.14967371080273
1866.21 81.8063639788232
1932.13 81.4471000847845
1999.51 81.85579734669503
2069.82 81.69180881574093
2143.07 80.73630804928464
2219.24 80.69029112103532
2296.88 81.17497866498842
2378.91 81.35251173993971
2462.4 80.5354748641299
2548.83 80.2970949463007
2639.65 80.86985167774685
2731.93 80.64272460116386
2828.61 80.32645652350689
2928.22 79.72667361247672
3030.76 80.27834821425452
3137.7 80.96099795369089
3249.02 80.7659597709617
3363.28 81.48803858108799
3481.93 81.49980041620373
3604.98 81.27445341575698
3732.42 81.38492073057866
3864.26 81.39990202106874
4000.49 82.03238431662034
4141.11 82.13265511074646
4287.6 82.24547768455788
4438.48 82.56324262293656
4595.21 82.50918869233274
4756.35 82.62521497066696
4924.8 82.69126041353023
5097.66 82.90663484085258
5277.83 83.1147704309388
5463.87 83.26390933132123
5657.23 83.35142253273214
5856.45 83.41301455062364
6062.99 83.33902219850337
6276.86 83.14687911593903
6498.05 82.99025859234155
6726.56 83.2305859549714
6963.87 83.35071212497097
7209.96 83.51466239426793
7464.84 83.50144470433277
7727.05 83.24829193681984
7999.51 83.12748654058909
8282.23 83.13857143253405
8573.73 83.54748122269164
8876.95 84.23278021169509
9188.96 84.49216844086475
9514.16 84.39297392642767
9849.61 84.19043054290971
10196.8 83.86199507919649
10555.7 83.66253389873616
10927.7 83.43605534749973
11313.0 83.26633528902808
11712.9 83.2800790321914
12126.0 83.3091351803506
12553.7 83.32181991748185
12996.1 83.19570098874694
13454.6 83.10482893643906
13929.2 83.20330774705887
14419.9 83.29087108795667
14928.2 83.23713048882335
15455.6 83.20803561030795
16000.5 83.1508292703465
16564.5 83.16667937539468
17148.9 83.23661789041672
17752.4 83.26931817727866
18379.4 83.47807862213914
19026.9 83.77581172669488
19697.8 84.83917411081255
19999.5 85.58274013787154
