Freq "Sound Power"
20.5078 57.656954919668706
21.9727 59.20166151048504
23.4375 60.43690845390795
24.9023 61.65025599793974
26.3672 62.5464565642515
27.832 64.16669931271964
29.2969 65.01828503683338
30.7617 66.23350559630715
32.2266 67.50160445006281
33.6914 68.78128274160868
35.1562 69.95574136029059
36.6211 71.08860848105813
38.0859 72.10002568856112
39.5508 73.16708614759865
41.0156 74.14007821850326
42.4805 75.08704928009952
43.9453 75.94606357925011
45.4102 76.79321913745157
46.875 77.60861720200761
48.3398 78.30985776611168
51.2695 79.68415602239126
52.7344 80.33335691401398
54.1992 80.89779714324217
55.6641 81.43740912869325
58.5938 82.3687948680935
60.0586 82.79352568951877
62.9883 83.61341256799852
64.4531 83.95523632325862
67.3828 84.55539196746388
68.8477 84.81406300324561
71.7773 85.20343035321643
74.707 85.55670815819919
77.6367 85.86554641940448
79.1016 85.9666420194206
82.0312 86.08734271562507
84.9609 86.22790529812215
87.8906 86.35870065950276
90.8203 86.49426236926615
95.2148 86.5566400115914
98.1445 86.57687553002303
101.074 86.5772762853638
105.469 86.52816773590568
108.398 86.47372304640082
112.793 86.28465005275011
117.188 86.05327005511806
120.117 86.09258345319438
124.512 86.26998381038509
128.906 86.07242302989214
133.301 85.86373359989655
139.16 85.76674662470097
143.555 85.72222450352261
147.949 86.03516150956413
153.809 86.17579583731218
159.668 85.89337300682577
165.527 85.63234200569845
171.387 85.54196334201798
177.246 85.51259343612125
183.105 85.27882730777422
188.965 85.33828502476865
196.289 85.1826854415075
203.613 84.98755757355089
210.938 84.74047840483776
218.262 84.714782455975
225.586 84.36530832967613
232.91 83.91417196601276
241.699 83.35855153001077
250.488 84.99821059872225
259.277 84.90025111308081
268.066 84.86370316703257
276.855 84.97719271333223
287.109 84.36092736486468
297.363 84.09277485567912
307.617 83.99547012072539
319.336 83.38009410695248
329.59 84.14224635100616
341.309 83.67704057023478
353.027 83.24744943982502
366.211 82.9849503219241
379.395 83.1130125798893
392.578 83.8494628192484
405.762 83.33846280323495
420.41 83.27920303964002
435.059 82.85267598427627
451.172 81.94765325906401
465.82 82.368417101739
483.398 83.14496840326314
499.512 83.74478269961072
517.09 82.76130729941187
536.133 82.92288005712025
555.176 82.82427116614173
574.219 82.74553414481167
594.727 82.80517268516257
615.234 82.59122607052392
637.207 82.34681466295451
659.18 82.40512683957434
682.617 82.15783581469077
707.52 82.11663245203961
732.422 82.65497174679352
757.324 82.91292063679806
785.156 82.74975466421671
811.523 82.0399791260403
840.82 82.82993329492463
870.117 82.17067896757446
900.879 81.39871709298818
933.105 81.62328115765001
965.332 81.2795998209468
1000.49 81.06814951421086
1035.64 81.1500741346358
1072.27 80.9375758703214
1108.89 80.76313432793663
1148.44 80.29698041791704
1189.45 79.58417254130983
1230.47 79.8407965642342
1274.41 79.32538657825715
1319.82 79.61159007504837
1366.7 78.91794712906639
1413.57 79.20135789987698
1463.38 78.534066309213
1516.11 78.61901040402618
1568.85 78.4590218448127
1624.51 78.66361803138119
1681.64 79.06676955650406
1741.7 79.19429285856155
1803.22 78.98169695185999
1866.21 78.85557001313076
1932.13 78.57455290716851
1999.51 78.81103006354554
2069.82 78.65114614307045
2143.07 78.24670602666514
2219.24 78.31659612040634
2296.88 78.55143997552616
2378.91 78.63731808971869
2462.4 78.01923039717883
2548.83 77.72444026659684
2639.65 78.2365808463097
2731.93 77.78365925376187
2828.61 77.48424691899389
2928.22 76.8126809506263
3030.76 77.09950895230524
3137.7 77.68112871977324
3249.02 77.53844421616499
3363.28 77.85765813272171
3481.93 77.90536918865904
3604.98 77.77222032064805
3732.42 77.93986508584713
3864.26 78.12654718932247
4000.49 78.69070389988504
4141.11 78.7825930802703
4287.6 78.70526411447761
4438.48 78.87217200273541
4595.21 78.8653291179158
4756.35 78.9109045406825
4924.8 79.29657164579005
5097.66 79.38237004410978
5277.83 79.7564123413081
5463.87 79.84164970628805
5657.23 79.79383555955668
5856.45 79.8528871972608
6062.99 79.57623284942515
6276.86 79.62981106909173
6498.05 79.47571151427955
6726.56 79.75962095706515
6963.87 79.9113283064508
7209.96 80.212401509228
7464.84 80.24723573991442
7727.05 79.95061329831937
7999.51 79.84007936651471
8282.23 79.51467483114648
8573.73 79.45548955804132
8876.95 79.87471005625575
9188.96 80.129900212527
9514.16 80.00923854787203
9849.61 79.82602050605989
10196.8 79.59199497064806
10555.7 79.38074321203895
10927.7 79.216711648493
11313.0 78.92882516607774
11712.9 78.77957866890674
12126.0 78.59752828637619
12553.7 78.43882057348067
12996.1 78.22723514904142
13454.6 78.0165517764001
13929.2 77.97762331327888
14419.9 78.00230831984952
14928.2 77.9219400649273
15455.6 77.67505869032638
16000.5 77.54185667617284
16564.5 77.53682941422137
17148.9 77.57786221353085
17752.4 77.55163004144742
18379.4 77.71642715791181
19026.9 78.04846732906752
19697.8 79.20294310807778
19999.5 79.99952306769858
