Freq "On Axis"
22.4 22.721518987341753
23.0 22.62151898734176
23.6 22.42151898734177
24.0 22.221518987341753
25.0 21.92151898734177
25.8 21.721518987341753
26.5 21.42151898734177
27.2 21.021518987341764
28.0 20.821518987341776
29.0 20.42151898734177
30.0 20.12151898734176
30.7 19.821518987341776
31.5 19.62151898734176
32.5 19.521518987341764
33.5 19.62151898734176
34.5 19.821518987341776
35.5 20.12151898734176
36.5 20.62151898734176
37.5 21.42151898734177
38.7 22.221518987341753
40.0 23.221518987341753
41.2 24.321518987341776
42.5 25.42151898734177
43.7 26.721518987341753
45.0 28.021518987341764
46.2 29.021518987341764
47.5 29.92151898734177
48.7 30.92151898734177
50.0 31.92151898734177
51.5 32.821518987341776
53.0 33.72151898734178
54.5 34.62151898734176
56.0 35.521518987341764
58.0 36.321518987341776
60.0 37.021518987341764
61.5 37.821518987341776
63.0 38.62151898734176
65.0 39.42151898734177
67.0 40.321518987341776
69.0 41.321518987341776
71.0 42.321518987341776
73.0 43.12151898734176
75.0 44.021518987341764
77.5 45.021518987341764
80.0 45.92151898734177
82.5 46.92151898734177
85.0 47.821518987341776
87.5 48.521518987341764
90.0 49.22151898734177
92.5 49.92151898734177
95.0 50.62151898734176
97.5 51.321518987341776
100.0 51.821518987341776
103.0 52.42151898734177
106.0 53.12151898734176
109.0 53.72151898734178
112.0 54.22151898734177
115.0 54.72151898734177
118.0 55.22151898734175
122.0 55.62151898734176
125.0 56.021518987341764
128.0 56.42151898734177
132.0 56.821518987341776
136.0 57.12151898734176
140.0 57.42151898734177
145.0 57.62151898734176
150.0 57.62151898734176
155.0 57.62151898734176
160.0 57.62151898734176
165.0 57.42151898734177
170.0 57.22151898734177
175.0 56.92151898734177
180.0 56.72151898734177
185.0 56.62151898734176
190.0 56.521518987341764
195.0 56.42151898734177
200.0 56.22151898734178
206.0 56.021518987341764
212.0 55.821518987341776
218.0 55.62151898734176
224.0 55.42151898734177
230.0 55.22151898734175
236.0 55.12151898734176
240.0 55.021518987341764
250.0 54.821518987341776
258.0 54.62151898734176
265.0 54.321518987341776
272.0 53.92151898734177
280.0 53.72151898734178
290.0 53.521518987341764
300.0 53.42151898734177
307.0 53.42151898734177
315.0 53.22151898734177
325.0 53.021518987341764
335.0 52.821518987341776
345.0 52.62151898734176
355.0 52.62151898734176
365.0 52.62151898734176
375.0 52.62151898734176
387.0 52.62151898734176
400.0 52.62151898734176
412.0 52.521518987341764
425.0 52.62151898734176
437.0 52.62151898734176
450.0 52.62151898734176
462.0 52.62151898734176
475.0 52.72151898734175
487.0 52.821518987341776
500.0 52.92151898734177
515.0 52.92151898734177
530.0 52.92151898734177
545.0 52.92151898734177
560.0 53.22151898734177
580.0 53.42151898734177
600.0 53.72151898734178
615.0 53.821518987341776
630.0 53.92151898734177
650.0 54.021518987341764
670.0 54.22151898734177
690.0 54.62151898734176
710.0 54.72151898734177
730.0 54.92151898734177
750.0 55.021518987341764
775.0 55.22151898734175
800.0 55.22151898734175
825.0 55.321518987341776
850.0 55.42151898734177
875.0 55.521518987341764
900.0 55.821518987341776
925.0 56.12151898734176
950.0 56.42151898734177
975.0 56.821518987341776
1000.0 57.12151898734176
1030.0 57.321518987341776
1060.0 57.42151898734177
1090.0 57.62151898734176
1120.0 57.62151898734176
1150.0 57.521518987341764
1180.0 57.42151898734177
1220.0 57.321518987341776
1250.0 57.42151898734177
1280.0 57.72151898734175
1320.0 58.021518987341764
1360.0 58.321518987341776
1400.0 58.42151898734177
1450.0 58.22151898734177
1500.0 58.12151898734176
1550.0 58.22151898734177
1600.0 58.22151898734177
1650.0 58.42151898734177
1700.0 58.42151898734177
1750.0 58.22151898734177
1800.0 57.92151898734177
1850.0 57.521518987341764
1900.0 57.22151898734177
1950.0 57.12151898734176
2000.0 56.72151898734177
2060.0 56.42151898734177
2120.0 56.42151898734177
2180.0 57.021518987341764
2240.0 57.42151898734177
2300.0 57.62151898734176
2360.0 57.321518987341776
2400.0 56.62151898734176
2500.0 56.521518987341764
2580.0 56.321518987341776
2650.0 56.021518987341764
2720.0 55.321518987341776
2800.0 54.62151898734176
2900.0 54.22151898734177
3000.0 54.321518987341776
3070.0 54.62151898734176
3150.0 54.521518987341764
3250.0 54.521518987341764
3350.0 54.521518987341764
3450.0 54.62151898734176
3550.0 54.72151898734177
3650.0 54.72151898734177
3750.0 54.521518987341764
3870.0 54.321518987341776
4000.0 54.021518987341764
4120.0 53.92151898734177
4250.0 54.021518987341764
4370.0 54.021518987341764
4500.0 54.021518987341764
4620.0 54.021518987341764
4750.0 54.021518987341764
4870.0 54.021518987341764
5000.0 53.92151898734177
5150.0 53.72151898734178
5300.0 53.42151898734177
5450.0 52.821518987341776
5600.0 52.021518987341764
5800.0 51.22151898734178
6000.0 50.22151898734175
6150.0 49.42151898734177
6300.0 48.92151898734177
6500.0 48.92151898734177
6700.0 49.42151898734177
6900.0 49.92151898734177
7100.0 50.72151898734177
7300.0 51.42151898734177
7500.0 51.521518987341764
7750.0 51.62151898734176
8000.0 51.22151898734178
8250.0 50.821518987341776
8500.0 50.42151898734177
8750.0 50.12151898734176
9000.0 50.021518987341764
9250.0 50.22151898734175
9500.0 50.821518987341776
9750.0 51.521518987341764
10000.0 52.12151898734176
10300.0 52.42151898734177
10600.0 52.22151898734177
10900.0 51.92151898734177
11200.0 51.72151898734177
11500.0 51.62151898734176
11800.0 51.821518987341776
12200.0 52.021518987341764
12500.0 52.021518987341764
12800.0 52.021518987341764
13200.0 51.821518987341776
13600.0 51.72151898734177
14000.0 51.821518987341776
14500.0 51.92151898734177
15000.0 52.021518987341764
15500.0 52.22151898734177
16000.0 52.821518987341776
16500.0 54.22151898734177
17000.0 56.12151898734176
17500.0 57.821518987341776
18000.0 58.021518987341764
18500.0 54.92151898734177
19000.0 51.92151898734177
19500.0 49.92151898734177
