Freq,Floor Bounce,Ceiling Bounce,Front Wall Bounce,Side Wall Bounce,Rear Wall Bounce,Total Early Reflection
20.5078,58.36564928665507,56.874986016871986,57.75364006623593,57.78083542823856,58.81142297675069,57.96572940362785
21.9727,60.21167313379195,62.49226340769508,60.9781051759534,61.31992107937208,62.3487966181514,61.55351404267341
23.4375,66.06980251092475,67.11280693883413,66.32065670578925,66.77085394908693,67.90286180713494,66.8841572151984
24.9023,71.20458902972405,71.74884353769917,71.26987318655941,71.72066097366712,72.81355055689792,71.79132367121326
26.3672,74.76039720680873,75.25148306035172,74.81386588898704,75.24682774959692,76.32286269992147,75.31695125290506
27.832,78.12384382006505,78.53595360499202,78.1560450398043,78.5652683523856,79.58346430233469,78.6264298860959
29.2969,80.67332227328684,81.11711814848705,80.70932973219344,81.13843027145705,82.22799523844554,81.21131788829567
30.7617,83.27861320602392,83.72366080072345,83.31652140635671,83.73664205966982,84.80147961529123,83.80778259953487
32.2266,85.72150634751645,86.16390487862917,85.76082632488387,86.17176861453152,87.22244117902615,86.24337546452017
33.6914,87.86555638060796,88.332643216072,87.91428772809347,88.32048217724896,89.36549603694665,88.39463621250466
35.1562,89.85822208169502,90.32744536912695,89.90736714354158,90.3105311569891,91.35904680710956,90.38750437976364
36.6211,91.53491853791552,92.00577219698455,91.58507427316673,91.98395498137937,93.03049472454371,92.06274838367514
38.0859,92.8140486785462,93.29403037312565,92.86638445245497,93.26268414543765,94.31516499660667,93.34537824961151
39.5508,93.70728880962145,94.18341229692398,93.75586783984376,94.15118944966412,95.21047851013594,94.23677311225903
41.0156,94.25378130793496,94.73416148952907,94.30505921871863,94.69280184374409,95.74271820577437,94.7800715649546
42.4805,94.51164576084922,94.99392921381371,94.56319572880172,94.94585021903993,95.99641475925539,95.03637778940586
43.9453,94.58380821608674,95.07592086660549,94.6379332064688,95.01699793709759,96.06994645763565,95.1110933090962
45.4102,94.59187170734454,95.09646706313782,94.64884557924572,95.02655383253781,96.09090175480198,95.12565529815647
46.875,94.59420348137871,95.10398038648995,94.65204235585321,95.02572523765902,96.09013533853735,95.12778090405925
48.3398,94.58880516600124,95.1025071989831,94.64609684730573,95.01805291611429,96.09180140136773,95.12438580354777
51.2695,94.64850649612198,95.14098860024819,94.6985181804093,95.0499736067627,96.10013864030685,95.16034203180085
52.7344,94.6682074241281,95.15908758379521,94.7164920619237,95.06223744799122,96.11812981107667,95.17753949630969
54.1992,94.73864322720604,95.23880937496706,94.78753706557211,95.13648679988265,96.21539758774844,95.25735382798594
55.6641,94.78612108706807,95.28600231941772,94.83066913146047,95.18483573680139,96.2908703928795,95.3111636207789
58.5938,94.98906880832408,95.48356784278646,95.03623609809696,95.35512784132162,96.40084212186693,95.48403371565685
60.0586,95.05243401814832,95.53990648003531,95.09721365135232,95.40595925806255,96.45091919866509,95.53985051667809
62.9883,95.16807569920509,95.65708758379522,95.20818580866614,95.51200997089614,96.57560858980823,95.65533350498924
64.4531,95.2365463938765,95.71616148952907,95.27239177088315,95.56953733061735,96.63287288706634,95.71626880336449
67.3828,95.28132447828683,95.73837242738867,95.30662515593934,95.58749787381902,96.64976294629719,95.74256877404258
68.8477,95.28046991465511,95.72332121140767,95.29812019901263,95.57354366985452,96.64303046035756,95.73351987480557
71.7773,95.21785557669689,95.63109196711494,95.2219891826758,95.48284968784833,96.5540139981677,95.65064149466886
74.707,95.14077529453029,95.53022080022028,95.13271011767884,95.38075071490441,96.45970662936605,95.55756664519959
77.6367,95.17698014785566,95.55998344748298,95.16352500134067,95.39555532644198,96.47425647648623,95.58208261479038
79.1016,95.21564446957215,95.59690766597406,95.20084721712303,95.4230590590644,96.4976689174768,95.61427722370195
82.0312,95.40168891570167,95.77584407019815,95.3800179065918,95.58801241567858,96.67290675879325,95.79097561759276
84.9609,95.66629140776652,96.04929117481056,95.6424614897214,95.83566227029927,96.9243136702378,96.05048914803774
87.8906,95.96214225875266,96.36491479017305,95.94296631820632,96.11535558563105,97.18849045095355,96.34035779313116
90.8203,96.24817316989959,96.64153904642278,96.22523191521168,96.37857749756384,97.42835025637307,96.60828780340586
95.2148,96.42549071875902,96.84039806783443,96.40632138873961,96.53461842810651,97.5617148269583,96.77604779687218
98.1445,96.43314909834405,96.85058954566365,96.41273484914508,96.51507500935861,97.5036944927038,96.76319122939941
101.074,96.34752979468887,96.78337273169649,96.33260681343295,96.40924200813015,97.35432021993904,96.66350579910564
105.469,96.18957236081714,96.64072338225705,96.17983417524468,96.21400321861559,97.06095170077603,96.47126382654838
108.398,96.06349467164385,96.50242458371288,96.05193458509908,96.05180122247363,96.81551406982499,96.30839976565228
112.793,95.8022099160889,96.23818035044062,95.79227092609648,95.73792576138416,96.36087725932826,95.9941182114336
117.188,95.54330886209624,96.02005201704337,95.55828327016721,95.43269415285955,95.84307517535572,95.68497901444184
120.117,95.47100160618851,95.95710797569994,95.50694900142753,95.31523426715654,95.52570767230777,95.56057099056626
124.512,95.40438685908627,95.914433821577,95.47886600526007,95.19031101581477,95.09156987100695,95.42546059633759
128.906,95.38105552960573,95.97587120172571,95.51094292775366,95.12428299642428,94.69651777790403,95.35833194908513
133.301,95.30540763990157,95.96023483126817,95.47787881688721,95.00596527620357,94.23877082518825,95.23435205179908
139.16,95.09919093067327,95.79617233342626,95.32327849530026,94.72241662852326,93.47597292394262,94.95082946883807
143.555,94.89536077632758,95.71242960561739,95.19940725505234,94.49033830951706,92.8396595682326,94.73017158158379
147.949,95.04903386982323,95.8998882283063,95.40633180124621,94.61439058664519,92.59948917350515,94.84984286592125
153.809,95.20181701690443,96.03147209599189,95.59410319758055,94.69017846335544,92.12373010325538,94.92028476705727
159.668,95.00888794517687,95.87964362697309,95.45894852012111,94.40479008493787,91.2419209382814,94.66692064493459
165.527,94.82690683141863,95.85364527443404,95.38248421268075,94.185650695121,90.32928131912523,94.48447813537044
171.387,94.99122924816291,96.046397480964,95.58450739272156,94.36904408305509,90.26607079720523,94.6524682619535
177.246,95.02187259266621,96.08161015555879,95.62844765096483,94.4188079139721,90.45909077464142,94.70326854285396
183.105,94.6526645975649,95.81355424996542,95.31880332710799,94.07888232939567,90.29721207924625,94.39803022049051
188.965,94.31657443843483,95.28290613393116,94.95677469319016,93.57081740867363,90.05188670119468,93.97782299425354
196.289,94.0543603194128,94.99767639752147,94.75089654880854,93.19686865753076,89.23040675247569,93.66068214618097
203.613,93.85294719506288,94.64245176568829,94.48973614597577,92.93507115354544,88.70004702414175,93.36832652380195
210.938,93.78640361499133,94.64345201934374,94.44932966477657,92.8772070851812,88.82172808018093,93.34135067016628
218.262,94.06853831765619,94.84427162075876,94.66864163665578,93.15929777053498,89.09235854741625,93.58464877661648
225.586,93.78487117717944,94.48110682904215,94.38636649042395,92.8691885400285,89.7512365893204,93.35362636143284
232.91,93.27378702324296,94.3839838368861,94.17047418964935,92.34306043707942,89.5044840348302,93.04876855459503
241.699,93.74260693788395,94.80950110775412,94.60797227312204,92.77098735042992,89.12010684113078,93.42130931475047
250.488,94.24571180449996,95.29941553931235,95.11439806243617,93.35868468787126,88.25163150491217,93.84833861380956
259.277,94.4116019489515,95.41854361003197,95.19408085158214,93.7989148751954,89.93572162211191,94.12767710546242
268.066,94.38288259890848,95.37410549021338,95.21415665988306,93.73353125477908,90.23300075946969,94.12621373739954
276.855,94.44087567349612,95.43223510204135,95.24199076850884,93.84464990838669,90.90955228639032,94.24017322982637
287.109,93.97319301222808,95.26525793433721,94.90703416902569,93.42197953522636,90.59352047587277,93.90881482816877
297.363,94.06887248348029,95.32289914947552,95.00406955491815,93.56802263884425,89.55927587229314,93.9097735516841
307.617,94.15207038225405,95.18796732830702,95.00006798236583,93.74309768913484,90.1282282345559,93.96668263401733
319.336,93.77969879550557,95.08740073017847,94.77368930781165,93.34290252656952,89.3174718745248,93.66597595269008
329.59,94.00725263823567,94.95357035534691,94.74290889211699,93.78063920593084,89.56581021968447,93.77243186852425
341.309,93.12549175734898,94.28865493762143,93.90212482100242,92.91370900599799,90.08785075605546,93.08377605321475
353.027,92.63409550470104,94.06687862456016,93.64137865067909,92.23661121285605,90.25500768625176,92.75625570605365
366.211,92.60495156606119,93.78707665975259,93.81969476055008,92.15313854488268,89.51728376146482,92.62915933576619
379.395,93.03198837683414,94.18833997043112,94.36286792607335,92.57088898042028,89.69886108864578,93.05547519019363
392.578,94.92063410836859,95.28650131476252,95.75333540110736,94.40736524679673,89.88752813713634,94.46460707467182
405.762,94.5668472241102,94.4976572590025,95.27666311119438,93.88359926324577,89.94874491659957,93.97347883331042
420.41,94.64928250707607,94.31018594106516,95.40855024239976,94.22684022407165,88.95067189717689,93.9866667629795
435.059,93.78555633704877,92.89231741212296,94.35670523995881,93.6126237953386,90.11481984606856,93.17582921864876
451.172,93.3452872608964,92.67470680744563,94.35031227446498,92.54941058162963,90.0542577459394,92.8083970563771
465.82,94.6249132819174,93.77045466841707,95.42123750485352,93.0407893885315,89.71310378628924,93.69873214183332
483.398,94.66301200032662,93.90951595776578,95.48240205601678,93.41164735716202,89.63644294471524,93.81418097104176
499.512,94.58032903184593,93.8290293450369,95.62650370335002,93.42549076827638,89.4314879980963,93.80821240259117
517.09,94.49469151602615,92.28097398206395,95.74903851653035,93.81985364050499,89.01929097645665,93.60630928931778
536.133,94.68212506759166,93.52330709327353,95.63914378534875,93.14683715452854,89.69550605579025,93.74736410912043
555.176,95.0185502480414,93.94177638724668,95.95541380716024,93.06179862861939,88.84953473464137,93.93953901964309
574.219,94.78514140459596,93.50345394487725,95.66193181468785,93.22974743521578,88.63477709721589,93.71695139801959
594.727,94.976684451139,92.91528768452733,95.55034039276559,92.85698998405955,87.93786426091239,93.51958221003414
615.234,93.68580476161924,91.94907413465307,94.36364158329624,91.45328995516849,87.7292421239938,92.36764504625508
637.207,93.50355575147567,91.75162892582189,94.4447196178001,91.41017674267835,87.85480255192535,92.31159637143273
659.18,94.63167779149921,92.20033075725858,95.53061547240286,92.29015451212035,87.04629830449659,93.15510616763765
682.617,94.0239447737871,91.24695115869793,94.5918393711446,91.45224712477544,85.72990493705129,92.30866171454096
707.52,93.47337410401227,89.79889350202565,93.42298713980195,90.61095809061835,85.5528760589102,91.39209713326672
732.422,94.76890560860062,90.6959466060176,94.83065685904266,91.9570454822968,87.15455446748513,92.6961532159527
757.324,95.0870388220257,90.92265022258402,95.63589625722827,92.10896855681435,86.88241278257941,93.11197287271446
785.156,95.48208953533162,89.58993715185706,95.28046824707184,92.65679972699837,85.0279254267118,93.0009927384544
811.523,95.03853188733355,89.13615440408233,94.9513060690921,91.30989146594328,85.97544369327008,92.49687697514078
840.82,94.71489444822113,90.75273315952303,94.7823145827071,91.80130089508019,86.11309952889405,92.59159024684135
870.117,95.59310935762551,91.16921826253079,95.52538338244713,92.13282250672877,85.01059763706033,93.20313207051925
900.879,96.30625140748488,90.92636177218913,95.68767803655112,91.95110595268014,84.43388818659227,93.44755891862278
933.105,96.11481267727335,92.07401793621486,95.18235084759873,92.14930744051756,84.62413359590407,93.39573776295525
965.332,97.07470899169502,93.09933540000323,95.28296408342669,91.82955526886084,85.5292120210774,93.94330496433376
1000.49,96.93811623833862,93.34846586234372,95.12634438444594,91.4750977819606,83.51546665104229,93.79764975173924
1035.64,97.25114168638282,92.94185540469772,94.82657057976719,91.253428328848,84.29545953851654,93.77339001165426
1072.27,96.93571209695641,94.95895413961132,93.99886160851932,89.82485192558094,83.03653685561872,93.70833951290291
1108.89,96.137540499022,94.66651042617823,93.8646006707274,89.58184846526845,81.50787716174257,93.23136868208468
1148.44,95.52434788560066,95.57837083109186,93.48853089655526,89.4466064455702,82.77165361104461,93.21528371341395
1189.45,94.8961329206596,95.27592235057598,93.59815010225212,88.66810911474647,81.55450516128676,92.84478970161356
1230.47,94.1958646172616,95.59542140884525,93.63833864252784,89.64145255246862,82.53596286267108,92.86275168327705
1274.41,95.85550267854236,96.87055972114663,95.34737594112028,90.63752041775338,83.28067798003545,94.31751668077825
1319.82,96.19678038890436,97.44111490550588,95.77307485028916,91.74607104870304,84.18782452218167,94.84267226998394
1366.7,96.33192397692989,97.89654032747617,95.32884378604192,91.18196371146232,82.76935062799575,94.87741384434793
1413.57,95.0917506890817,97.64257729355643,95.17038809566617,91.03892906504967,83.23293495640769,94.4123872557565
1463.38,94.71837788050907,96.9195458624416,95.75353425392788,90.98782106160549,83.21785952174373,94.18640286918206
1516.11,93.93396486949649,95.86744183933719,96.30290536544769,91.8957866305343,83.03591680792744,93.92785706876275
1568.85,93.58420838929415,95.88754188401681,96.32460006013413,91.9985175243402,83.1704168473101,93.88944467786101
1624.51,93.31110968845765,94.79964015334298,95.89829618753818,91.69294160223667,82.86596420262171,93.31315273287737
1681.64,92.84202827500064,93.42858254891848,95.35442168156389,91.40112048706104,82.88740813858035,92.61620985449193
1741.7,91.4227659765825,92.9804245808461,95.72354838537476,91.47778815699334,81.92312578725637,92.39075193556573
1803.22,92.32078811398782,92.99329684174695,96.62710935103563,92.34950409107988,82.59583717449891,93.0952747397559
1866.21,92.91169546194635,93.54599721593992,97.24159520937555,93.2855076859056,83.38687326229022,93.75304927840499
1932.13,92.69611103566046,92.57963841540044,96.41609741764981,92.59176738418094,82.79339850843039,93.0360592149512
1999.51,92.09416651367995,92.67223117070958,96.53341913983422,92.53681503494586,82.1853933149854,92.97979787108112
2069.82,91.79933423454068,92.28773838492545,96.48224881731915,92.3404115249924,82.01613686879963,92.8005907252048
2143.07,91.30990381713389,91.38506508416256,95.41460321479033,91.44189391561336,80.3675716645079,91.88046737007816
2219.24,90.45028874474937,90.38492890015591,94.69514168384725,90.6432694329961,78.94762233204179,91.06392765823145
2296.88,89.58304701354702,89.84773319294428,95.16356206029681,90.65995361015246,78.50206335972058,91.06706937193198
2378.91,88.7733495115669,89.47376569476519,94.68827213611382,89.76317454100541,77.20748160176089,90.47864247260749
2462.4,88.12113646284753,88.24204698529445,93.2561913567263,87.88587318834726,76.07650538029255,89.12492048933815
2548.83,86.74485604252165,87.83297918808807,93.6280130766594,87.79905321652002,74.12944431472698,89.04579555897865
2639.65,86.0830357835486,87.00057698042485,94.08026330084596,87.72980924466246,73.97210736037003,89.12077898174653
2731.93,85.76001111506905,87.75495919595024,93.3735621999866,87.15271832590021,74.23231891481214,88.68427590959466
2828.61,84.39873316937505,88.76503585533891,93.86763657913568,86.85961005513131,73.43254800684778,88.99996496533592
2928.22,84.59944060774905,88.70300479064326,94.29423078956586,86.94569184036388,73.55927832417004,89.27965940651129
3030.76,85.01955396107661,88.97876138341658,94.45395819203448,87.00570637139668,73.9773996233912,89.46806261248781
3137.7,85.771793767704,88.73271611724988,94.05560400399031,86.75052341210551,74.30619538772191,89.21068097948658
3249.02,85.95000379463156,88.55495623684278,94.32335385411236,86.81311868838799,74.93461204701376,89.37295891675595
3363.28,87.22428242167399,88.17983259309477,94.20785837423568,87.42563493685624,75.56380025066765,89.45391251496746
3481.93,87.9254451894975,87.83215124470541,94.16071997978669,87.41386133806857,75.93198465493322,89.46877560803232
3604.98,87.71174804664554,87.45919408191693,93.79090136602997,87.40548276387787,74.86397113188652,89.16160772759545
3732.42,87.71228673157204,86.35938764730471,93.78663767740531,87.95388859322858,75.67271370241457,89.11226102145076
3864.26,87.77835295777254,85.17560079029339,93.034431337456,87.88239049975854,74.76417480759147,88.55402219971803
4000.49,87.09369653248066,84.08248701871764,92.91077950018033,87.9367622824639,74.07898627046634,88.28689454735918
4141.11,86.62416825729163,83.63054201161958,92.58135018904193,87.72694217968916,73.60731156807064,87.948644648842
4287.6,86.93214362650822,82.87392538419653,92.2056540516767,87.26528345508096,72.3806083653044,87.6328421684788
4438.48,87.11400976989141,81.82339802498927,92.1382086141032,86.87641127138579,71.82930426577798,87.48993459586205
4595.21,88.3670698362385,82.68921934569336,92.70112478504595,86.9102402006321,71.59401023286463,88.11614017754503
4756.35,89.40928299812546,82.67316322240661,93.13333657928966,86.69409785552013,71.62477222859135,88.56970016671407
4924.8,90.07430312453451,83.38549568594951,93.34338564224397,87.17490970994099,71.30187258148442,88.95423621799944
5097.66,90.54017394077785,84.26120719100999,93.54138685557426,87.05814170059058,71.86928452296189,89.22485070799569
5277.83,90.46111946980602,84.91240593221633,93.22300917375416,87.17494400502524,73.11495732708269,89.10048109380631
5463.87,90.10602037624093,85.38802557899922,93.20848841786345,87.21817549528606,72.64847942329492,89.04097255917787
5657.23,89.88768418718475,85.31885986627375,93.61542009564769,87.78827479754852,73.3604215548851,89.28028894077453
5856.45,90.62624608330533,85.43807859064674,93.71687628333953,88.00636405488606,73.03950618328435,89.5523323983219
6062.99,90.55970550911456,85.689410744086,93.72148473249824,88.07900149369584,73.6956744944331,89.57127627064447
6276.86,90.12464968366194,86.15931883199954,94.02903823642433,88.5713001309302,74.17001774065918,89.7466127782535
6498.05,89.32388556050645,85.91637061093176,94.32650088861783,89.36052806847864,74.79045304433164,89.86554270685353
6726.56,89.2835827524428,85.21159357936763,94.6237260781539,88.58671525796143,72.37605285703202,89.84012079205463
6963.87,89.85715729554269,85.81927511303286,94.58904519226905,88.17826476144165,71.71297418241889,89.91094981775113
7209.96,89.9019561739077,86.1694541546873,94.68927847329402,88.08536129564511,70.73378228232599,89.99207119221873
7464.84,89.49476694807831,86.32190498352621,94.4441386936361,88.11849949844908,70.3119961920651,89.78676445329191
7727.05,89.17893641723204,85.7007070068976,94.44316332582926,88.06614240304353,70.26416919740021,89.6683054308642
7999.51,88.8706035071144,84.43181578012272,94.4848951146817,88.14394277243355,70.97211094529425,89.56339909239604
8282.23,88.21346219227411,83.844871206623,94.62196298563805,88.22162258962456,70.93362856104616,89.523237262659
8573.73,87.78784101450219,83.63985591229586,94.84119161199698,88.16719817425565,71.20481807450003,89.5901508937343
8876.95,88.03688386659285,83.43044776078459,95.07180213012336,88.03031341688134,71.22227538530137,89.74997353320887
9188.96,88.29040048683837,82.6247699093414,95.16439268792121,88.15222050207845,71.0636135906501,89.83004740953321
9514.16,88.3726033738619,82.00824226014741,95.21310182357497,88.20403817967733,70.72023372509966,89.85938039034352
