Freq "Front Wall Bounce"
20.5078 57.75364006623593
21.9727 60.9781051759534
23.4375 66.32065670578925
24.9023 71.26987318655941
26.3672 74.81386588898704
27.832 78.1560450398043
29.2969 80.70932973219344
30.7617 83.31652140635671
32.2266 85.76082632488387
33.6914 87.91428772809347
35.1562 89.90736714354158
36.6211 91.58507427316673
38.0859 92.86638445245497
39.5508 93.75586783984376
41.0156 94.30505921871863
42.4805 94.56319572880172
43.9453 94.6379332064688
45.4102 94.64884557924572
46.875 94.65204235585321
48.3398 94.64609684730573
51.2695 94.6985181804093
52.7344 94.7164920619237
54.1992 94.78753706557211
55.6641 94.83066913146047
58.5938 95.03623609809696
60.0586 95.09721365135232
62.9883 95.20818580866614
64.4531 95.27239177088315
67.3828 95.30662515593934
68.8477 95.29812019901263
71.7773 95.2219891826758
74.707 95.13271011767884
77.6367 95.16352500134067
79.1016 95.20084721712303
82.0312 95.3800179065918
84.9609 95.6424614897214
87.8906 95.94296631820632
90.8203 96.22523191521168
95.2148 96.40632138873961
98.1445 96.41273484914508
101.074 96.33260681343295
105.469 96.17983417524468
108.398 96.05193458509908
112.793 95.79227092609648
117.188 95.55828327016721
120.117 95.50694900142753
124.512 95.47886600526007
128.906 95.51094292775366
133.301 95.47787881688721
139.16 95.32327849530026
143.555 95.19940725505234
147.949 95.40633180124621
153.809 95.59410319758055
159.668 95.45894852012111
165.527 95.38248421268075
171.387 95.58450739272156
177.246 95.62844765096483
183.105 95.31880332710799
188.965 94.95677469319016
196.289 94.75089654880854
203.613 94.48973614597577
210.938 94.44932966477657
218.262 94.66864163665578
225.586 94.38636649042395
232.91 94.17047418964935
241.699 94.60797227312204
250.488 95.11439806243617
259.277 95.19408085158214
268.066 95.21415665988306
276.855 95.24199076850884
287.109 94.90703416902569
297.363 95.00406955491815
307.617 95.00006798236583
319.336 94.77368930781165
329.59 94.74290889211699
341.309 93.90212482100242
353.027 93.64137865067909
366.211 93.81969476055008
379.395 94.36286792607335
392.578 95.75333540110736
405.762 95.27666311119438
420.41 95.40855024239976
435.059 94.35670523995881
451.172 94.35031227446498
465.82 95.42123750485352
483.398 95.48240205601678
499.512 95.62650370335002
517.09 95.74903851653035
536.133 95.63914378534875
555.176 95.95541380716024
574.219 95.66193181468785
594.727 95.55034039276559
615.234 94.36364158329624
637.207 94.4447196178001
659.18 95.53061547240286
682.617 94.5918393711446
707.52 93.42298713980195
732.422 94.83065685904266
757.324 95.63589625722827
785.156 95.28046824707184
811.523 94.9513060690921
840.82 94.7823145827071
870.117 95.52538338244713
900.879 95.68767803655112
933.105 95.18235084759873
965.332 95.28296408342669
1000.49 95.12634438444594
1035.64 94.82657057976719
1072.27 93.99886160851932
1108.89 93.8646006707274
1148.44 93.48853089655526
1189.45 93.59815010225212
1230.47 93.63833864252784
1274.41 95.34737594112028
1319.82 95.77307485028916
1366.7 95.32884378604192
1413.57 95.17038809566617
1463.38 95.75353425392788
1516.11 96.30290536544769
1568.85 96.32460006013413
1624.51 95.89829618753818
1681.64 95.35442168156389
1741.7 95.72354838537476
1803.22 96.62710935103563
1866.21 97.24159520937555
1932.13 96.41609741764981
1999.51 96.53341913983422
2069.82 96.48224881731915
2143.07 95.41460321479033
2219.24 94.69514168384725
2296.88 95.16356206029681
2378.91 94.68827213611382
2462.4 93.2561913567263
2548.83 93.6280130766594
2639.65 94.08026330084596
2731.93 93.3735621999866
2828.61 93.86763657913568
2928.22 94.29423078956586
3030.76 94.45395819203448
3137.7 94.05560400399031
3249.02 94.32335385411236
3363.28 94.20785837423568
3481.93 94.16071997978669
3604.98 93.79090136602997
3732.42 93.78663767740531
3864.26 93.034431337456
4000.49 92.91077950018033
4141.11 92.58135018904193
4287.6 92.2056540516767
4438.48 92.1382086141032
4595.21 92.70112478504595
4756.35 93.13333657928966
4924.8 93.34338564224397
5097.66 93.54138685557426
5277.83 93.22300917375416
5463.87 93.20848841786345
5657.23 93.61542009564769
5856.45 93.71687628333953
6062.99 93.72148473249824
6276.86 94.02903823642433
6498.05 94.32650088861783
6726.56 94.6237260781539
6963.87 94.58904519226905
7209.96 94.68927847329402
7464.84 94.4441386936361
7727.05 94.44316332582926
7999.51 94.4848951146817
8282.23 94.62196298563805
8573.73 94.84119161199698
8876.95 95.07180213012336
9188.96 95.16439268792121
9514.16 95.21310182357497
9849.61 95.53212307137227
10196.8 95.68945287799835
10555.7 95.74421193793037
10927.7 95.68819550354264
11313.0 95.73316489936667
11712.9 96.04567737343565
12126.0 96.24652623559098
12553.7 96.0737919884047
12996.1 95.73751798056772
13454.6 95.4081771133958
13929.2 95.3660600110033
14419.9 95.34641505788964
14928.2 95.08543660383326
15455.6 94.36701698319179
16000.5 93.5981431592597
16564.5 92.77596707957095
17148.9 92.99711010438253
17752.4 93.26107582996435
18379.4 92.86361394749783
19026.9 91.8746528367836
19697.8 90.89742876593412
19999.5 90.6262086331006
