Freq "Front Wall Bounce"
20.5078 57.86777339956927
21.9727 61.092238509286716
23.4375 66.43479003912256
24.9023 71.38400651989275
26.3672 74.92799922232038
27.832 78.27017837313763
29.2969 80.82346306552675
30.7617 83.43065473969003
32.2266 85.8749596582172
33.6914 88.02842106142678
35.1562 90.0215004768749
36.6211 91.69920760650004
38.0859 92.98051778578831
39.5508 93.87000117317709
41.0156 94.41919255205195
42.4805 94.67732906213506
43.9453 94.75206653980214
45.4102 94.76297891257903
46.875 94.76617568918655
48.3398 94.76023018063907
51.2695 94.81265151374262
52.7344 94.83062539525702
54.1992 94.90167039890545
55.6641 94.9448024647938
58.5938 95.1503694314303
60.0586 95.21134698468566
62.9883 95.32231914199949
64.4531 95.38652510421647
67.3828 95.42075848927269
68.8477 95.41225353234596
71.7773 95.33612251600914
74.707 95.24684345101215
77.6367 95.27765833467399
79.1016 95.31498055045637
82.0312 95.49415123992513
84.9609 95.75659482305471
87.8906 96.05709965153963
90.8203 96.33936524854501
95.2148 96.52045472207293
98.1445 96.52686818247841
101.074 96.44674014676627
105.469 96.293967508578
108.398 96.1660679184324
112.793 95.9064042594298
117.188 95.67241660350055
120.117 95.62108233476087
124.512 95.59299933859342
128.906 95.62507626108699
133.301 95.59201215022054
139.16 95.43741182863357
143.555 95.31354058838568
147.949 95.52046513457954
153.809 95.7082365309139
159.668 95.57308185345444
165.527 95.4966175460141
171.387 95.6986407260549
177.246 95.74258098429816
183.105 95.4329366604413
188.965 95.0709080265235
196.289 94.86502988214187
203.613 94.6038694793091
210.938 94.5634629981099
218.262 94.7827749699891
225.586 94.50049982375728
232.91 94.2846075229827
241.699 94.72210560645536
250.488 95.22853139576948
259.277 95.30821418491549
268.066 95.32828999321639
276.855 95.35612410184216
287.109 95.021167502359
297.363 95.11820288825149
307.617 95.11420131569916
319.336 94.887822641145
329.59 94.85704222545031
341.309 94.01625815433573
353.027 93.75551198401241
366.211 93.93382809388339
379.395 94.47700125940666
392.578 95.86746873444068
405.762 95.3907964445277
420.41 95.52268357573308
435.059 94.47083857329214
451.172 94.46444560779832
465.82 95.53537083818684
483.398 95.59653538935011
499.512 95.74063703668337
517.09 95.86317184986368
536.133 95.75327711868208
555.176 96.06954714049357
574.219 95.77606514802119
594.727 95.66447372609893
615.234 94.47777491662957
637.207 94.55885295113342
659.18 95.6447488057362
682.617 94.70597270447792
707.52 93.53712047313529
732.422 94.94479019237599
757.324 95.75002959056158
785.156 95.39460158040518
811.523 95.06543940242543
840.82 94.89644791604043
870.117 95.63951671578047
900.879 95.80181136988443
933.105 95.29648418093204
965.332 95.39709741676002
1000.49 95.24047771777927
1035.64 94.94070391310053
1072.27 94.11299494185266
1108.89 93.97873400406071
1148.44 93.60266422988859
1189.45 93.71228343558545
1230.47 93.75247197586117
1274.41 95.4615092744536
1319.82 95.88720818362249
1366.7 95.44297711937526
1413.57 95.28452142899951
1463.38 95.86766758726122
1516.11 96.417038698781
1568.85 96.43873339346746
1624.51 96.01242952087149
1681.64 95.46855501489722
1741.7 95.8376817187081
1803.22 96.74124268436896
1866.21 97.35572854270887
1932.13 96.53023075098312
1999.51 96.64755247316756
2069.82 96.59638215065246
2143.07 95.52873654812367
2219.24 94.80927501718057
2296.88 95.27769539363015
2378.91 94.80240546944715
2462.4 93.37032469005963
2548.83 93.74214640999271
2639.65 94.19439663417928
2731.93 93.48769553331991
2828.61 93.98176991246899
2928.22 94.4083641228992
3030.76 94.5680915253678
3137.7 94.16973733732364
3249.02 94.43748718744568
3363.28 94.32199170756903
3481.93 94.27485331312
3604.98 93.9050346993633
3732.42 93.90077101073864
3864.26 93.14856467078933
4000.49 93.02491283351367
4141.11 92.69548352237527
4287.6 92.31978738501002
4438.48 92.25234194743652
4595.21 92.81525811837929
4756.35 93.24746991262299
4924.8 93.4575189755773
5097.66 93.65552018890762
5277.83 93.33714250708749
5463.87 93.32262175119676
5657.23 93.72955342898102
5856.45 93.83100961667287
6062.99 93.83561806583155
6276.86 94.14317156975765
6498.05 94.44063422195116
6726.56 94.73785941148722
6963.87 94.70317852560238
7209.96 94.80341180662734
7464.84 94.55827202696945
7727.05 94.5572966591626
7999.51 94.59902844801502
8282.23 94.73609631897136
8573.73 94.9553249453303
8876.95 95.1859354634567
9188.96 95.27852602125455
9514.16 95.3272351569083
9849.61 95.64625640470561
10196.8 95.80358621133166
10555.7 95.85834527126369
10927.7 95.80232883687596
11313.0 95.84729823270001
11712.9 96.15981070676898
12126.0 96.36065956892432
12553.7 96.18792532173802
12996.1 95.85165131390104
13454.6 95.52231044672911
13929.2 95.48019334433663
14419.9 95.46054839122299
14928.2 95.19956993716657
15455.6 94.48115031652513
16000.5 93.71227649259303
16564.5 92.89010041290427
17148.9 93.11124343771584
17752.4 93.37520916329768
18379.4 92.97774728083115
19026.9 91.98878617011692
19697.8 91.01156209926745
19999.5 90.74034196643392
