Freq "Side Wall Bounce"
20.5078 57.78083542823856
21.9727 61.31992107937208
23.4375 66.77085394908693
24.9023 71.72066097366712
26.3672 75.24682774959692
27.832 78.5652683523856
29.2969 81.13843027145705
30.7617 83.73664205966982
32.2266 86.17176861453152
33.6914 88.32048217724896
35.1562 90.3105311569891
36.6211 91.98395498137937
38.0859 93.26268414543765
39.5508 94.15118944966412
41.0156 94.69280184374409
42.4805 94.94585021903993
43.9453 95.01699793709759
45.4102 95.02655383253781
46.875 95.02572523765902
48.3398 95.01805291611429
51.2695 95.0499736067627
52.7344 95.06223744799122
54.1992 95.13648679988265
55.6641 95.18483573680139
58.5938 95.35512784132162
60.0586 95.40595925806255
62.9883 95.51200997089614
64.4531 95.56953733061735
67.3828 95.58749787381902
68.8477 95.57354366985452
71.7773 95.48284968784833
74.707 95.38075071490441
77.6367 95.39555532644198
79.1016 95.4230590590644
82.0312 95.58801241567858
84.9609 95.83566227029927
87.8906 96.11535558563105
90.8203 96.37857749756384
95.2148 96.53461842810651
98.1445 96.51507500935861
101.074 96.40924200813015
105.469 96.21400321861559
108.398 96.05180122247363
112.793 95.73792576138416
117.188 95.43269415285955
120.117 95.31523426715654
124.512 95.19031101581477
128.906 95.12428299642428
133.301 95.00596527620357
139.16 94.72241662852326
143.555 94.49033830951706
147.949 94.61439058664519
153.809 94.69017846335544
159.668 94.40479008493787
165.527 94.185650695121
171.387 94.36904408305509
177.246 94.4188079139721
183.105 94.07888232939567
188.965 93.57081740867363
196.289 93.19686865753076
203.613 92.93507115354544
210.938 92.8772070851812
218.262 93.15929777053498
225.586 92.8691885400285
232.91 92.34306043707942
241.699 92.77098735042992
250.488 93.35868468787126
259.277 93.7989148751954
268.066 93.73353125477908
276.855 93.84464990838669
287.109 93.42197953522636
297.363 93.56802263884425
307.617 93.74309768913484
319.336 93.34290252656952
329.59 93.78063920593084
341.309 92.91370900599799
353.027 92.23661121285605
366.211 92.15313854488268
379.395 92.57088898042028
392.578 94.40736524679673
405.762 93.88359926324577
420.41 94.22684022407165
435.059 93.6126237953386
451.172 92.54941058162963
465.82 93.0407893885315
483.398 93.41164735716202
499.512 93.42549076827638
517.09 93.81985364050499
536.133 93.14683715452854
555.176 93.06179862861939
574.219 93.22974743521578
594.727 92.85698998405955
615.234 91.45328995516849
637.207 91.41017674267835
659.18 92.29015451212035
682.617 91.45224712477544
707.52 90.61095809061835
732.422 91.9570454822968
757.324 92.10896855681435
785.156 92.65679972699837
811.523 91.30989146594328
840.82 91.80130089508019
870.117 92.13282250672877
900.879 91.95110595268014
933.105 92.14930744051756
965.332 91.82955526886084
1000.49 91.4750977819606
1035.64 91.253428328848
1072.27 89.82485192558094
1108.89 89.58184846526845
1148.44 89.4466064455702
1189.45 88.66810911474647
1230.47 89.64145255246862
1274.41 90.63752041775338
1319.82 91.74607104870304
1366.7 91.18196371146232
1413.57 91.03892906504967
1463.38 90.98782106160549
1516.11 91.8957866305343
1568.85 91.9985175243402
1624.51 91.69294160223667
1681.64 91.40112048706104
1741.7 91.47778815699334
1803.22 92.34950409107988
1866.21 93.2855076859056
1932.13 92.59176738418094
1999.51 92.53681503494586
2069.82 92.3404115249924
2143.07 91.44189391561336
2219.24 90.6432694329961
2296.88 90.65995361015246
2378.91 89.76317454100541
2462.4 87.88587318834726
2548.83 87.79905321652002
2639.65 87.72980924466246
2731.93 87.15271832590021
2828.61 86.85961005513131
2928.22 86.94569184036388
3030.76 87.00570637139668
3137.7 86.75052341210551
3249.02 86.81311868838799
3363.28 87.42563493685624
3481.93 87.41386133806857
3604.98 87.40548276387787
3732.42 87.95388859322858
3864.26 87.88239049975854
4000.49 87.9367622824639
4141.11 87.72694217968916
4287.6 87.26528345508096
4438.48 86.87641127138579
4595.21 86.9102402006321
4756.35 86.69409785552013
4924.8 87.17490970994099
5097.66 87.05814170059058
5277.83 87.17494400502524
5463.87 87.21817549528606
5657.23 87.78827479754852
5856.45 88.00636405488606
6062.99 88.07900149369584
6276.86 88.5713001309302
6498.05 89.36052806847864
6726.56 88.58671525796143
6963.87 88.17826476144165
7209.96 88.08536129564511
7464.84 88.11849949844908
7727.05 88.06614240304353
7999.51 88.14394277243355
8282.23 88.22162258962456
8573.73 88.16719817425565
8876.95 88.03031341688134
9188.96 88.15222050207845
9514.16 88.20403817967733
9849.61 88.29815159141125
10196.8 88.05960002825795
10555.7 87.65712889587411
10927.7 87.50063769050323
11313.0 87.44219703462213
11712.9 88.03498260294768
12126.0 88.014151350151
12553.7 87.6704250911297
12996.1 87.29848956515961
13454.6 87.04360605069404
13929.2 86.92288028805204
14419.9 86.37685480147222
14928.2 85.03989202785462
15455.6 82.49850004278623
16000.5 79.53481084051903
16564.5 77.19717939435799
17148.9 75.5051493585135
17752.4 74.66625936968668
18379.4 73.45066015642601
19026.9 71.1010067137417
19697.8 68.09272815267306
19999.5 67.09012670402313
