Freq,Floor Bounce,Ceiling Bounce,Front Wall Bounce,Side Wall Bounce,Rear Wall Bounce,Total Early Reflection
20.0,63.573650027721555,64.87502764419645,62.606866609695516,65.11108320194239,67.93323850066852,65.21914269002787
20.2909,63.752315056487745,65.02434735759718,62.79432116911721,65.26501612195867,68.07465237386499,65.37463689917199
20.586,63.93033704871826,65.17377106866175,62.98255700497285,65.41888007101494,68.21671634537407,65.53043779003833
20.8855,64.08605406353988,65.2988119764378,63.14897778464598,65.54870505619463,68.33683868082397,65.66346382301741
21.1893,64.24113965770313,65.42388672057542,63.31694759055256,65.67883906131503,68.45722158029562,65.79680172346018
21.4975,64.39632564309302,65.54866293298392,63.485054979563586,65.80905305375732,68.57792675294378,65.9303128809188
21.8102,64.55200384939167,65.67375902187602,63.654053171643326,65.93934726560776,68.69857236466078,66.06411221097564
22.1274,64.70772162163277,65.79888791270926,63.82420294049973,66.06971999715537,68.81925723992165,66.19815273246354
22.4492,64.86359594055921,65.9243997636439,63.99465071394833,66.20017712501381,68.94033326482823,66.33254814402473
22.7758,65.01918181946851,66.0495640375108,64.1658234047232,66.33071515860185,69.06114918111058,66.46691453942107
23.1071,65.17520132023851,66.17442815832302,64.33778827763311,66.46148038755348,69.18251093084555,66.60169594964391
23.4432,65.33237234754249,66.30061532615451,64.51180755271929,66.59360735041483,69.30481178970962,66.73780460661237
23.7841,65.5531585445362,66.493152354579,64.74363722675398,66.79002566343196,69.48548070906855,66.93563838343124
24.1301,65.77336010319216,66.68508200013075,64.97592547726175,66.98692893180657,69.66634749405453,67.13357301234876
24.4811,65.99431314228913,66.87733589785965,65.20920081920035,67.18362419311879,69.84727330670334,67.33185378770149
24.8372,66.21534985179974,67.06960774506896,65.44240264460663,67.38044853792698,70.02849374346955,67.53034910280279
25.1984,66.4358021663835,67.2612178010762,65.67642493087533,67.57755079300917,70.20965940918606,67.72885308183378
25.5649,66.65700655228133,67.45352584641975,65.91069898279802,67.77430698771428,70.3910080849245,67.92770308940223
25.9368,66.87829502528369,67.64585179300619,66.14527611766202,67.97169781128152,70.57229897159604,68.12678982448301
26.3141,67.09899926913026,67.83788507969996,66.3808161431952,68.16900071596271,70.7538892316677,68.32602835703649
26.6968,67.34011070618635,68.05599122175664,66.63384561785415,68.38995666669817,70.9570135057672,68.5474103578487
27.0851,67.58366814229831,68.27779969631796,66.89026758633675,68.61514254873128,71.1638058139811,68.77242370128188
27.4791,67.82727235148059,68.49962103645629,67.14660500780342,68.84042346633777,71.37064860124984,68.99753964763771
27.8788,68.07126078066352,68.72176759882629,67.40348944595634,69.06547269012084,71.57747717636843,69.22286320975554
28.2843,68.31495877385323,68.94361507656758,67.66042730853508,69.29082385682871,71.78457013644987,69.44831461889424
28.6957,68.55870367718776,69.16547538305609,67.91762499120722,69.5159923945873,71.99146931220606,69.67377810689594
29.1131,68.80247450593893,69.38734850598465,68.17501210867799,69.74135943515194,72.19864488271114,69.89947596623092
29.5365,69.04745414143835,69.61392029459557,68.43340989271292,69.9700932461494,72.40902088231186,70.12813551556467
29.9661,69.2928862253409,69.84286475295212,68.69212722455188,70.20082753289373,72.6217196485488,70.35856215021444
30.402,69.53834229691478,70.07250479856353,68.95091013682422,70.43143894290347,72.83472315446606,70.58926125280708
30.8442,69.7838057401932,70.3017952830084,69.21034469774271,70.6622639956272,73.04754685126576,70.82002757523105
31.2929,70.02931084138879,70.53145547069178,69.46904555692109,70.89350439712082,73.26027705483037,71.05087195436018
31.748,70.27515614712097,70.76076756355707,69.72872499203842,71.12436838820686,73.47323625505533,71.28190649790548
32.2098,70.52073198769425,70.99076398909375,69.98821107041422,71.35542055185104,73.68638265930277,71.51314980790141
32.6783,70.75974007519756,71.21746509793029,70.2409780911233,71.58198837785744,73.89665177651818,71.74005679904553
33.1536,70.99879430981206,71.44449286265873,70.49350583215269,71.80879420866405,74.1068225250552,71.96705684661903
33.6359,71.23817890339197,71.67188600305363,70.74711018343999,72.03535293019031,74.31707894112378,72.19435734925726
34.1251,71.47725602086767,71.89893404999165,71.0001005820278,72.26177713824771,74.52732892848314,72.42148070102007
34.6215,71.71633443684459,72.12599259419927,71.25285628771915,72.4884073339177,74.73778363398695,72.64872684656874
35.125,71.95508619672549,72.3530965630977,71.50613414772631,72.71505033792138,74.94808819644618,72.8760064062086
35.6359,72.18360585883518,72.57250503583742,71.7478166474847,72.93216537923641,75.15123159874297,73.09447436938592
36.1543,72.41145238419094,72.79127618085309,71.98941480663694,73.14826859700898,75.35374852950578,73.31235154039791
36.6802,72.6389818170519,73.01005726497067,72.23064745763854,73.3644050302371,75.55642145301434,73.53022114593391
37.2137,72.86651593193871,73.22849844686105,72.4717927662451,73.580744527381,75.75895077225866,73.74805088073597
37.755,73.09470875683584,73.44763205117471,72.71312783743926,73.79711522922109,75.96158333166007,73.96621786877193
38.3041,73.31692884422533,73.66177656816932,72.94908776958036,74.00889496198099,76.16080544768397,74.17979108106553
38.8613,73.53220184462803,73.86991839688304,73.17623960278124,74.21234547429128,76.3542042116114,74.38642638794619
39.4265,73.74712437571941,74.07808439907934,73.40300310016777,74.41659070264353,76.54779234148788,74.59319197112693
40.0,73.96205556370757,74.28592730984879,73.63023472135427,74.62047579784563,76.74119455940131,74.79987526247504
40.5818,74.17765745742732,74.49443466643979,73.85707496120918,74.82452893703152,76.9345274379396,75.00676854619635
41.1721,74.38926095859327,74.69963298938012,74.08024422404515,75.02525381919278,77.12576369809032,75.21058662376007
41.771,74.59256704287559,74.89682729767954,74.29271726304205,75.21723114190434,77.31067646158866,75.40634127958057
42.3785,74.79587410913149,75.09471109426006,74.50508262808032,75.40941031599212,77.49534427923044,75.60218615438264
42.9949,74.99918215747991,75.29192584796263,74.71704145311739,75.60101153699055,77.6803026458791,75.7978494071921
43.6203,75.20281579916224,75.48949276930702,74.92960331439178,75.79320959309247,77.86519306692648,75.99383784212321
44.2548,75.40181987660343,75.68304917548762,75.13532810933268,75.98050625419481,78.04698406286009,76.18539969681922
44.8985,75.59580627446559,75.87163777999012,75.33348294848997,76.16261490802971,78.22509366840609,76.37194481055944
45.5515,75.78981241484715,76.0602176983165,75.53209589314872,76.3447694925927,78.4034082593467,76.55864852887622
46.2141,75.98381962238908,76.24880330331935,75.73028817514174,76.52711506069579,78.58133069009048,76.74521667910857
46.8863,76.17781832476632,76.43741331696671,75.92836035814695,76.70909812614272,78.75956455578961,76.93180795427159
47.5683,76.36550418775234,76.61967531446389,76.11583141631604,76.88437868458838,78.9330536534636,77.11181378228834
48.2602,76.55285771529549,76.80160354315504,76.3023126030229,77.05967349115946,79.10668056835534,77.29159929956896
48.9621,76.74054616082498,76.98421255084891,76.48908398801069,77.23497563693067,79.2804466797845,77.47166060756766
49.6743,76.92823602528644,77.16648879776461,76.67644546233055,77.41034122876596,79.45420924165083,77.65177577850348
50.3968,77.11226182682694,77.34510117162048,76.85632682373901,77.58212301673481,79.62574891156868,77.82807573945955
51.1299,77.29594282491013,77.52303842843129,77.03476966158921,77.75278685633171,79.79691391180464,78.0036472444591
51.8736,77.47930179637986,77.70165321676497,77.21335509273959,77.92403714829285,79.9679662203149,78.1793902132498
52.6281,77.66265455348746,77.87927017795562,77.39166550193792,78.09552149990371,80.13901396816661,78.35495721865784
53.3936,77.84400265757827,78.05554600426436,77.5663439308033,78.26464172275276,80.30928432560506,78.5286848591135
54.1702,78.0246667202115,78.23117231757493,77.7395834226478,78.43379926657865,80.47908048482147,78.70181682128394
54.9581,78.20533785309071,78.40678951081482,77.91310385494978,78.6027396546358,80.64866555260333,78.87489302059014
55.7575,78.38600294910796,78.582420137284,78.08620761570441,78.77213915802713,80.81848886855843,79.04806574641043
56.5685,78.5646414429311,78.75706003340046,78.25782493549,78.94047321146626,80.98748976225775,79.22003054425214
57.3914,78.74328029575426,78.93170368968303,78.42916988397137,79.10885433020748,81.15658452140698,79.39199268003992
58.2261,78.92191950754159,79.10635110382502,78.60052084943823,79.27742516735435,81.32569496171423,79.56399994514211
59.073,79.09886309577085,79.28001984965482,78.77271762954899,79.44553440518477,81.49447649942691,79.73549169641763
59.9323,79.27513638092884,79.45369398936987,78.94420355831429,79.6142392846649,81.66312927985418,79.90682975482602
60.804,79.4514060109365,79.62738014337988,79.11612257055312,79.78272624106603,81.83177005481815,80.07819642711303
61.6884,79.62634180129447,79.80074292829964,79.28791030386776,79.9513780825647,82.00037158960765,80.24927368657967
62.5857,79.79925158239264,79.97346271968327,79.46042365807361,80.1198745985075,82.168395816094,80.41979975043347
63.496,79.97216561113656,80.14585321409969,79.63337297797845,80.28817248589282,82.3364828117181,80.59031993356331
64.4196,80.14509422714036,80.31858259419695,79.80605046312647,80.45729092089299,82.50464417124391,80.76103666776906
65.3566,80.31466699625848,80.4896654240532,79.97916833931527,80.62559248692904,82.67187567237659,80.93051510746878
66.3073,80.48392004224937,80.66142826105047,80.15229510640553,80.79365363068183,82.83944984363377,81.10012089737599
67.2717,80.65284355330806,80.83252258942612,80.3257170064884,80.961958699196,83.0071664576143,81.26968508334177
68.2502,80.8184417994851,81.00164108199512,80.49771651438596,81.12927758155398,83.17361912920833,81.43752616784766
69.2429,80.98370002120254,81.17078588822486,80.66914918892006,81.29659711116096,83.3400919907118,81.60522888127748
70.2501,81.14897481162265,81.34025548854137,80.84129899735166,81.46369253138106,83.5064835965392,81.77304397198455
71.2719,81.30993516648918,81.50673333173151,81.0104486379848,81.62869478753863,83.67189334343135,81.93840464737892
72.3086,81.47122728742937,81.67321058878204,81.17845630606514,81.79347060928616,83.83692809887293,82.10348538595956
73.3603,81.63185690063781,81.83938345475175,81.34717834583648,81.9576635391832,84.00211323703874,82.26844935714024
74.4274,81.78917451154021,82.00286264940675,81.51146552290841,82.11864816103258,84.16549086059325,82.43050088883746
75.5099,81.94615935935826,82.16601280181493,81.67560893911723,82.28002482865418,84.32906357659058,82.59254462599907
76.6083,82.10248545255371,82.32814346250066,81.83775274711803,82.43959345592862,84.49186752133458,82.75340170653693
77.7226,82.25582556307118,82.48792662651911,81.99674823845699,82.59622921181953,84.65380976601423,82.91200786085444
78.8531,82.40949586807687,82.64804834990576,82.15531775802714,82.75322877730218,84.81561429344391,83.07069170877446
80.0,82.56085141414528,82.80511237940127,82.31059702796864,82.90628993104701,84.97651972952562,83.22689167233695
81.1636,82.71254606702927,82.96216086067392,82.46487739820567,83.05859981709881,85.13695684746247,83.38270839966327
82.3442,82.86258083111933,83.11786416262129,82.61730292097798,83.20974848100636,85.29713075497796,83.5374049893943
83.5419,83.01129898749768,83.27118923478233,82.76701494624542,83.35772124994867,85.45673645716705,83.69025024424997
84.757,83.1596832527084,83.42487792922431,82.91701652173566,83.50532471669888,85.61628876938533,83.84307209549075
85.9899,83.30708968297162,83.5761500241485,83.06387888816484,83.65017265392703,85.77533759944751,83.99412560810634
87.2406,83.4534910492351,83.72678541537931,83.21060484885015,83.79463128746498,85.93443360219737,84.14481968623917
88.5096,83.5998977272894,83.87674118890752,83.3549103254472,83.9373330987237,86.09348201337278,84.29467106843732
89.797,83.74530972057272,84.0250052517374,83.49822572645482,84.07824456113234,86.25238556712678,84.44352301252698
91.1031,83.88971241543064,84.17263096127395,83.63997665507122,84.21899388344319,86.41120076443008,84.5917906694218
92.4282,84.03310857593193,84.3189245105285,83.7790216338708,84.35772848045579,86.5697221816347,84.7387650436913
93.7726,84.17650242231115,84.46453859198154,83.91836182265276,84.49646485851815,86.72877082626209,84.88583950138994
95.1366,84.31786046267905,84.60785977357092,84.05298938475417,84.63264365603362,86.88674851363886,85.03062038735054
96.5204,84.45889263445028,84.75084748695244,84.18820010346903,84.76901575820865,87.04490077908946,85.17548708356983
97.9243,84.5972240118714,84.89086306385394,84.3156610695726,84.90278818733105,87.20213687866328,85.31739036119806
99.3486,84.73522931124467,85.03089137311085,84.44226244693371,85.03640507451848,87.35935956360623,85.4591000731015
100.794,84.86755563486187,85.16493496617794,84.55996702305993,85.16485777303302,87.51206794147714,85.59505240368249
102.26,84.99888277513922,85.29799127439483,84.67580144567356,85.29191243341235,87.66458707115117,85.73008698702087
103.747,85.13221073232985,85.43304863165243,84.79435173383058,85.42081536220384,87.82040459214437,85.86765205382606
105.256,85.26619753362685,85.56912299316726,84.9134667603229,85.55034133179805,87.97741739926992,86.00612970462196
106.787,85.39885978195633,85.70319403759953,85.03243797670142,85.6781110438779,88.13502012120102,86.1439135686459
108.34,85.53085616663847,85.83728283739619,85.15126693894005,85.80572091958763,88.29249271347578,86.28154363341991
109.916,85.6605212266901,85.96904961645791,85.27051746772781,85.9305800014299,88.4506667017651,86.41820728116117
111.515,85.78986238377074,86.10013613000362,85.38963157628979,86.05484234135935,88.60892271535704,86.55464652248243
113.137,85.91719647585484,86.22923611618731,85.5091770974167,86.1765783240563,88.76754470725866,86.69018219269633
114.783,86.04287262590375,86.35735076540553,85.62929355084921,86.29712369044793,88.92596599490349,86.82513532120998
116.452,86.1658834453286,86.48281644737187,85.74955939890555,86.4155092863428,89.08480338974871,86.95900915001332
118.146,86.28588577721521,86.6056344941999,85.86940486856034,86.53130389060672,89.242671641988,87.09114285891577
119.865,86.40388857020736,86.72682134341755,85.98925529880268,86.64612136173389,89.40027968149977,87.22247323498156
121.608,86.51555735509066,86.8426994690355,86.10611943439115,86.75630140121558,89.55620211561822,87.3500745613641
123.377,86.62490829416934,86.95758579785894,86.22155965403323,86.86495258056259,89.7114397199517,87.4765035802655
125.171,86.72758383941718,87.06651607140574,86.33186988598248,86.96931705855135,89.8634974074368,87.59830350935844
126.992,86.82527620994856,87.17214174654563,86.43732262500602,87.07070629630196,90.0131144955063,87.71675216397401
128.839,86.9189757049499,87.27475877459563,86.53806594380858,87.16907864614048,90.16095143956865,87.83231473609499
130.713,87.0047006504578,87.37169723682479,86.62937864256266,87.26143734267491,90.30338352169906,87.94143644891373
132.615,87.08775947381727,87.46664330333932,86.71583211827337,87.35075310644828,90.44310955777364,88.04774520073981
134.543,87.16684011660975,87.55857523104746,86.79656484140381,87.43649705991191,90.57961488139844,88.15046186365397
136.5,87.24195417450177,87.64744935621958,86.86786199163167,87.51638838391987,90.71057427742205,88.24784283357648
138.486,87.31639870782308,87.73566032567052,86.93543716264935,87.59328280527323,90.83871574440157,88.34310602863697
140.5,87.3892162574648,87.82285419173628,86.99843716264934,87.66620729670866,90.96309791117723,88.43541347967307
142.544,87.46071153694105,87.9093842772715,87.05528687687847,87.7335115267097,91.08240500416103,88.52389701258556
144.617,87.53221408216818,87.99458454612437,87.10942287409037,87.79680533338473,91.1984930697076,88.6100724520097
146.721,87.60339368752446,88.0801442149073,87.16012357943275,87.85674710717254,91.31211526964884,88.69445937030578
148.855,87.67356711693009,88.16442107578038,87.20796432860483,87.9124779718184,91.42183483620525,88.77608041874866
151.02,87.7437588525503,88.24839457561472,87.25351965913235,87.96424131155007,91.53017161749878,88.856311042698
153.217,87.81326180574443,88.33178165580154,87.29764120999324,88.01426141944478,91.63715529214689,88.93549056821772
155.445,87.88343307007878,88.41448784336724,87.34162524791995,88.06191267324466,91.74350028095213,89.0141565855279
157.706,87.9532605811558,88.49725471183481,87.38574962806095,88.1080099569439,91.8504691792742,89.09292952613374
160.0,88.02440591972606,88.57934111930092,87.43058838541994,88.15322045403789,91.95891601692261,89.17245192700261
162.327,88.09650607624198,88.66146325793794,87.47700164936805,88.1977345516442,92.06906842770782,89.25303503859314
164.688,88.16925922100774,88.74359695551131,87.52484911751023,88.2411788396584,92.18142518768448,89.33475409460817
167.084,88.24299728678665,88.82465521496812,87.57255009170011,88.28312404789516,92.295824611634,89.4171515408162
169.514,88.31503875861779,88.90407910662324,87.61811137082888,88.3220206210498,92.4117967165515,89.4990663336289
171.98,88.38541745760277,88.98142181000779,87.65981359494405,88.35723273609833,92.52821629778848,89.57970239925629
174.481,88.45181459346638,89.05610239640353,87.6953702160607,88.38836205465076,92.64387350787169,89.65781313471365
177.019,88.51422971284268,89.12742520177812,87.72349617018665,88.4145302342385,92.7579678022928,89.73270550170436
179.594,88.57066321637471,89.19475343996848,87.74219706160638,88.43477417519362,92.86808973074696,89.802647270644
182.206,88.62015002464565,89.25745160952201,87.75061511941824,88.4478083751084,92.97322018728342,89.86671185469879
184.856,88.66067764070688,89.31285522341122,87.74689788017685,88.4513584969821,93.07104220122312,89.92266849205687
187.545,88.68925177469806,89.35936196331288,87.72947372103374,88.44261396918964,93.16062185689361,89.96885712897003
190.273,88.70287455137085,89.39264495797549,87.69534554482135,88.4184192415493,93.23979560706195,90.00243491978446
193.041,88.69923438969425,89.41211153326667,87.64322381385698,88.37944216078317,93.30958523915044,90.0234069247081
195.849,88.67898209825371,89.41740801256515,87.57340357960938,88.3266056420729,93.37196495528144,90.03291747012645
198.697,88.64316311450833,89.41162037652217,87.48872814433165,88.26482776087364,93.43039270756387,90.03426750950112
201.587,88.59738618518313,89.39836066554322,87.39249865878318,88.19996963149289,93.4882272187763,90.03165471258413
204.52,88.54800025260896,89.38430718231199,87.29254981317874,88.13886709531423,93.54987543933098,90.03097172872795
207.494,88.50226478706186,89.37619111906398,87.19403545996215,88.08673441001687,93.61784232478027,90.03683471812658
210.512,88.46547334283497,89.37723702969511,87.10293456239503,88.04633126286812,93.69378502031383,90.05228528001597
213.574,88.43990772524104,89.38884286835199,87.02054599278969,88.0162512327976,93.77529384779943,90.07667429764189
216.681,88.42317701093346,89.40726330182802,86.9460134666554,87.99217650074841,93.85999673115282,90.10721654459854
219.833,88.41099695594704,89.42708566843027,86.87462778947852,87.96889237045679,93.94392949333712,90.13935655192118
223.03,88.39671446075047,89.44169292548293,86.80153541788822,87.9404068184044,94.02361362277543,90.16817164718064
226.274,88.37709051313321,89.44974904856939,86.72073747718733,87.90343325340761,94.0985834723522,90.19183041698018
229.565,88.35190101590486,89.4520861765039,86.62977866620271,87.85870394675537,94.16815538507726,90.2100133101749
232.905,88.3228582433403,89.45278458603644,86.52651465320253,87.80575875751535,94.23520039514955,90.22487456170556
236.292,88.2933679377815,89.45644045678885,86.40892620696843,87.7481087187661,94.30123137940043,90.23871353993664
239.729,88.26354100607517,89.46504005829838,86.27631268055164,87.6884988023721,94.3690494426057,90.25367479127513
