Freq "Floor Bounce"
20.0 66.69222235476556
20.2909 66.87088738353177
20.586 67.04890937576225
20.8855 67.20462639058388
21.1893 67.35971198474715
21.4975 67.51489797013704
21.8102 67.67057617643567
22.1274 67.82629394867679
22.4492 67.9821682676032
22.7758 68.13775414651252
23.1071 68.29377364728253
23.4432 68.45094467458648
23.7841 68.67173087158022
24.1301 68.89193243023617
24.4811 69.11288546933315
24.8372 69.33392217884375
25.1984 69.5543744934275
25.5649 69.77557887932535
25.9368 69.99686735232771
26.3141 70.21757159617427
26.6968 70.45868303323034
27.0851 70.70224046934231
27.4791 70.94584467852458
27.8788 71.18983310770753
28.2843 71.43353110089724
28.6957 71.67727600423177
29.1131 71.92104683298292
29.5365 72.16602646848234
29.9661 72.4114585523849
30.402 72.6569146239588
30.8442 72.90237806723721
31.2929 73.14788316843278
31.748 73.39372847416499
32.2098 73.63930431473824
32.6783 73.87831240224156
33.1536 74.11736663685606
33.6359 74.35675123043598
34.1251 74.59582834791168
34.6215 74.8349067638886
35.125 75.0736585237695
35.6359 75.30217818587917
36.1543 75.53002471123493
36.6802 75.7575541440959
37.2137 75.9850882589827
37.755 76.21328108387985
38.3041 76.43550117126935
38.8613 76.65077417167205
39.4265 76.86569670276343
40.0 77.08062789075157
40.5818 77.29622978447131
41.1721 77.50783328563729
41.771 77.71113936991961
42.3785 77.9144464361755
42.9949 78.11775448452391
43.6203 78.32138812620624
44.2548 78.52039220364742
44.8985 78.7143786015096
45.5515 78.90838474189115
46.2141 79.10239194943307
46.8863 79.29639065181033
47.5683 79.48407651479636
48.2602 79.6714300423395
48.9621 79.859118487869
49.6743 80.04680835233043
50.3968 80.23083415387094
51.1299 80.41451515195415
51.8736 80.59787412342385
52.6281 80.78122688053146
53.3936 80.96257498462228
54.1702 81.14323904725552
54.9581 81.3239101801347
55.7575 81.50457527615198
56.5685 81.68321376997511
57.3914 81.86185262279825
58.2261 82.04049183458561
59.073 82.21743542281484
59.9323 82.39370870797283
60.804 82.56997833798049
61.6884 82.74491412833848
62.5857 82.91782390943666
63.496 83.09073793818058
64.4196 83.26366655418437
65.3566 83.4332393233025
66.3073 83.60249236929337
67.2717 83.77141588035207
68.2502 83.9370141265291
69.2429 84.10227234824654
70.2501 84.26754713866667
71.2719 84.4285074935332
72.3086 84.58979961447338
73.3603 84.75042922768183
74.4274 84.9077468385842
75.5099 85.06473168640228
76.6083 85.22105777959771
77.7226 85.37439789011519
78.8531 85.52806819512087
80.0 85.6794237411893
81.1636 85.83111839407327
82.3442 85.98115315816332
83.5419 86.1298713145417
84.757 86.27825557975243
85.9899 86.42566201001561
87.2406 86.57206337627912
88.5096 86.71847005433341
89.797 86.86388204761673
91.1031 87.00828474247464
92.4282 87.15168090297595
93.7726 87.29507474935514
95.1366 87.43643278972306
96.5204 87.57746496149429
97.9243 87.71579633891542
99.3486 87.85380163828867
100.794 87.98612796190588
102.26 88.11745510218324
103.747 88.25078305937384
105.256 88.38476986067084
106.787 88.51743210900035
108.34 88.64942849368249
109.916 88.7790935537341
111.515 88.90843471081476
113.137 89.03576880289884
114.783 89.16144495294776
116.452 89.28445577237261
118.146 89.40445810425923
119.865 89.52246089725138
121.608 89.63412968213467
123.377 89.74348062121334
125.171 89.8461561664612
126.992 89.94384853699256
128.839 90.03754803199391
130.713 90.12327297750181
132.615 90.20633180086126
134.543 90.28541244365374
136.5 90.36052650154576
138.486 90.4349710348671
140.5 90.50778858450879
142.544 90.57928386398504
144.617 90.65078640921219
146.721 90.72196601456847
148.855 90.79213944397411
151.02 90.86233117959429
153.217 90.93183413278845
155.445 91.00200539712277
157.706 91.0718329081998
160.0 91.14297824677007
162.327 91.215078403286
164.688 91.28783154805174
167.084 91.36156961383067
169.514 91.4336110856618
171.98 91.50398978464676
174.481 91.57038692051036
177.019 91.63280203988667
179.594 91.6892355434187
182.206 91.73872235168967
184.856 91.7792499677509
187.545 91.80782410174207
190.273 91.82144687841486
193.041 91.81780671673825
195.849 91.7975544252977
198.697 91.76173544155235
201.587 91.71595851222715
204.52 91.66657257965295
207.494 91.62083711410588
210.512 91.58404566987899
213.574 91.55848005228503
216.681 91.54174933797745
219.833 91.52956928299106
223.03 91.51528678779447
226.274 91.4956628401772
229.565 91.47047334294886
232.905 91.44143057038431
236.292 91.41194026482552
239.729 91.38211333311918
243.216 91.34934668110867
246.754 91.3108040923579
250.343 91.26487152650438
253.984 91.21116394495364
257.678 91.15073745983945
261.426 91.08318375483326
265.229 91.01125925684806
269.087 90.94084700420368
273.001 90.8786159933901
276.972 90.83221351132877
281.0 90.79822095124965
285.088 90.76419733089803
289.234 90.70906741483688
293.441 90.59691913451151
297.709 90.39200354527853
302.04 90.15814672837863
306.433 90.07342097195723
310.89 90.11433604544328
315.412 90.24112497430502
320.0 90.38984130149882
324.655 90.4897667812162
329.377 90.47116424853931
334.168 90.30636326454456
339.028 89.97086372988258
343.959 89.5048418677059
348.962 88.94879560194245
354.038 88.34945493399759
359.188 87.7686914633071
364.412 87.27651135671047
369.713 86.94470646222727
375.09 86.81312930388312
380.546 86.84648143028605
386.081 86.93372095108374
391.697 86.97614816573714
397.394 86.92104348172423
403.175 86.76667606738164
409.039 86.52942279113606
414.989 86.2273403387417
421.025 85.87801018225169
427.149 85.49233843167445
433.362 85.0740884601701
439.665 84.63192085850099
446.06 84.19582319105916
452.548 83.81067285886219
459.131 83.50038298813999
465.809 83.2599125200407
472.584 83.06697859050091
479.458 82.88863777710694
486.432 82.69278665993828
493.507 82.47129885466688
500.686 82.2706187566243
507.968 82.16873182354769
515.357 82.21095469838663
522.853 82.35034500824408
530.458 82.51836431382459
538.174 82.62988642079516
546.002 82.65788441131629
553.943 82.66270494073788
562.001 82.76447877562647
570.175 83.0291659320985
578.469 83.3809298826004
586.883 83.6604445260332
595.419 83.74532198073975
604.08 83.67581327289605
612.866 83.62833448334774
621.78 83.76605337067127
630.824 84.11948302839511
640.0 84.58309845277891
649.309 84.96014047986918
658.753 85.09693403472066
668.335 84.97581563442341
678.056 84.76359636175744
687.919 84.73024202524998
697.925 85.0184265703538
708.077 85.52319574792828
718.376 85.76619704216665
728.825 85.8206104985533
739.426 85.6895321596251
750.181 85.5956700278231
761.093 85.70484835115516
772.163 85.9588925572156
783.394 86.16962294998797
794.789 86.21116066543058
806.349 86.10204060907829
818.078 85.94158172954795
829.977 85.81132512900615
842.05 85.71535566166958
854.298 85.60601561125326
866.724 85.4579034611864
879.33 85.32704546065634
892.12 85.32409952466853
905.097 85.52101146667877
918.262 85.91892877086234
931.618 86.32443066955787
945.169 86.72736646988805
958.917 87.0496312839695
972.864 87.30751652745155
987.015 87.56830531174396
1001.37 87.83522488432776
1015.94 87.9620720986036
1030.71 87.81488568953097
1045.71 87.47283060041478
1060.92 87.09982996881988
1076.35 86.65575565272415
1092.0 86.04153793950503
1107.89 85.31772275202991
1124.0 84.47680733560284
1140.35 83.72238806144406
1156.94 83.39648253638462
1173.77 83.63577274274344
1190.84 84.4518863881361
1208.16 85.67906290581168
1225.73 86.90954566069726
1243.56 87.85210603447374
1261.65 88.66660828855788
1280.0 89.44484948485442
1298.62 89.80561799829597
1317.51 89.75784856182007
1336.67 89.62255101069276
1356.11 89.43349784780878
1375.84 89.17048153113437
1395.85 88.89234652963026
1416.15 88.63226516638642
1436.75 88.31593791626344
1457.65 87.98744378529969
1478.85 87.94150261406514
1500.36 88.05123304900421
1522.19 87.99133929243524
1544.33 87.88656932769172
1566.79 87.91450408731546
1589.58 87.89205274375216
1612.7 87.48875901432332
1636.16 86.92891979460147
1659.95 86.42388310485464
1684.1 85.93951622525108
1708.6 85.62362303508232
1733.45 85.49399113852104
1758.66 85.40960315276077
1784.24 85.25384739417946
1810.19 85.28278059063372
1836.52 85.67857231013767
1863.24 86.07827031804365
1890.34 86.0481457110482
1917.83 85.6357113975528
1945.73 85.27517158044427
1974.03 84.70433331344141
2002.74 83.59102444725238
2031.87 82.43328851507184
2061.43 81.53649318942993
2091.41 81.07613059032704
2121.83 81.21477608420832
2152.69 81.68404681430853
2184.01 82.17437838158067
2215.77 82.5097360862202
2248.0 82.59340363265113
2280.7 82.5535223760819
2313.87 82.5893939913269
2347.53 82.69837953456906
2381.68 83.10880889951744
2416.32 83.77804523718981
2451.46 84.02094381318311
2487.12 83.27848082506861
2523.3 81.52792880957709
2560.0 79.94312592428116
2597.24 79.34967176304828
2635.01 80.09183856596697
2673.34 82.04504900587992
2712.23 83.42175294558828
2751.68 84.23982303135688
2791.7 84.55873760424655
2832.31 84.67653229740884
2873.5 84.44727022694926
2915.3 83.67702884842548
2957.7 82.90751473297055
3000.72 82.72045910398494
3044.37 82.91379209684291
3088.65 82.94445162908804
3133.58 82.37036821558657
3179.16 81.50639632128858
3225.4 80.55122170923066
3272.31 79.71097982704374
3319.91 79.31761987783608
3368.2 79.21841425477263
3417.19 79.3334939519525
3466.89 79.19729281467681
3517.32 79.23443894955798
3568.48 79.36174327105161
3620.39 79.37382738497983
3673.05 79.09253387314781
3726.47 78.10907584384312
3780.67 76.96784820663535
3835.67 76.46480278123991
3891.46 76.86226081371198
3948.06 77.16595135472798
4005.49 77.13352192528002
4063.75 77.19728561796643
4122.86 77.07664182271535
4182.82 76.75333495031471
4243.66 76.59151115726006
4305.39 76.62911422190075
4368.01 76.4614275158853
4431.55 75.88499130655539
4496.01 75.08335773326658
4561.4 74.44712435696835
4627.75 74.51140531316364
4695.06 74.34692786286746
4763.35 73.81385840134578
4832.64 73.2973624213071
4902.93 73.28809265819858
4974.24 73.697577112064
5046.6 73.9202602148612
5120.0 74.46655446665054
5194.47 75.3942423041482
5270.03 76.18500976271801
5346.68 76.85533862200865
5424.45 77.04727658460027
5503.35 76.15589423807558
5583.4 74.90992372957888
5664.61 74.4441650613422
5747.01 74.01149117288591
5830.6 73.29025885361214
5915.41 73.21765553184184
6001.45 72.98458295170764
6088.74 72.26965119944421
6177.3 72.08137392719274
6267.15 72.43109677817758
6358.31 72.47804081127583
6450.8 71.76380204489246
6544.62 71.19766700590775
6639.82 70.791067054146
6736.4 69.6645861571942
6834.38 68.25326313484
6933.79 68.73264153041742
7034.64 70.1755467960987
7136.96 70.72482033899445
7240.77 70.76708599650114
7346.09 70.6294074409649
7452.94 70.06376798337153
7561.35 69.39069048689058
7671.33 69.0304135354731
7782.91 69.0333315724177
7896.12 68.64245593900893
8010.97 67.90390225503117
8127.49 66.95551402596624
8245.71 64.71918671124274
8365.65 63.91260391305062
8487.33 65.35980632215256
8610.78 66.54370879909446
8736.03 65.955791778771
8863.09 68.27354567608775
8992.01 72.69119572684627
9122.8 75.10387183158944
9255.5 75.04503249070278
9390.12 73.69227485499731
9526.7 71.94769712572159
9665.27 69.81484808469628
9805.86 69.99465962515517
9948.49 72.0368341428143
10093.2 72.60014259028206
10240.0 72.91034730263756
10388.9 73.52127834785871
10540.1 72.87504181374831
10693.4 70.00163166629515
10848.9 66.3423460457706
11006.7 65.53290340175013
11166.8 65.02522427770496
11329.2 64.5614325519269
11494.0 64.50098902800687
11661.2 66.16352033204001
11830.8 68.04776762728781
12002.9 68.42524068918263
12177.5 67.48771309494225
12354.6 65.63099251937759
12534.3 63.3923376257592
12716.6 61.97667172008926
12901.6 61.84087727936702
13089.2 62.38046237149507
13279.6 62.64907135763352
13472.8 63.59295001761018
13668.8 66.22288618367236
13867.6 68.72330965739943
14069.3 70.16333169685979
14273.9 70.72299587526506
14481.5 69.5416389091977
14692.2 66.91552869004857
14905.9 65.50691150643524
15122.7 65.95620161401169
15342.7 66.01254400717096
15565.8 63.929519068342785
15792.2 60.94218262131233
16021.9 59.67764770480207
16255.0 59.113703091265876
16491.4 58.92958903981261
16731.3 58.51048127975952
16974.7 57.66908695992015
17221.6 58.52218261874046
17472.1 60.64285726263597
17726.2 61.997504908592134
17984.0 61.05639229173531
18245.6 58.94398993009335
18511.0 57.805436681327365
18780.2 58.304717070233636
19053.4 58.70192669007943
19330.5 58.314237498460244
19611.7 57.94141349082756
19897.0 58.063109327203364
