Freq "Sound Power"
22.4 48.22894032440729
23.0 50.131993815125156
23.6 52.287446636873824
24.0 54.33399701972115
25.0 56.419933024933385
25.8 58.454279971308665
26.5 60.106616030423936
27.2 61.610880266816935
28.0 62.88844629762329
29.0 64.53953708227442
30.0 66.20416752703673
30.7 67.84030749138759
31.5 69.47011616727575
32.5 71.08872910834329
33.5 72.68138318703816
34.5 74.21756339075435
35.5 75.75673862236548
36.5 77.25738950742661
37.5 78.45914765884426
38.7 79.50403871589921
40.0 80.46504146488509
41.2 81.42799930895599
42.5 82.13330885334837
43.7 82.5827740508678
45.0 83.11071939200086
46.2 83.68221266006782
47.5 84.16324462543335
48.7 84.60692078125712
50.0 85.48205581908482
51.5 85.20242850671013
53.0 85.0949865198715
54.5 85.57978040238899
56.0 86.17736198662345
58.0 86.75317256079558
60.0 87.33964932668104
61.5 87.8349321167407
63.0 88.37220026314314
65.0 88.91443943782669
67.0 89.57673271086826
69.0 90.28675882206991
71.0 91.0063853623433
73.0 91.73625064356827
75.0 92.36262504538374
77.5 92.85182883752239
80.0 93.1867535122283
82.5 93.35857750508289
85.0 93.61517322016006
87.5 93.57415419208246
90.0 93.61703849579496
92.5 93.61595190717468
95.0 93.27924066236906
97.5 92.98699148896537
100.0 92.95102199899817
103.0 92.95729690558645
106.0 92.8473153949306
109.0 92.61705191822912
112.0 92.3651922671296
115.0 92.41441029284974
118.0 92.54576898869817
122.0 92.48046458448474
125.0 92.2471546532822
128.0 92.22332036134425
132.0 91.88608066923238
136.0 91.57662375090194
140.0 91.55985911134061
145.0 91.5198855159922
150.0 91.51619878106133
155.0 91.34327694938767
160.0 91.25394346354466
165.0 91.2500066073696
170.0 91.15315695854781
175.0 91.14021354340062
180.0 90.82206324967626
185.0 90.45642434435048
190.0 90.27310256912777
195.0 90.12279713581452
200.0 90.00052089730431
206.0 89.81531460937703
212.0 89.47052512940957
218.0 89.02974438717717
224.0 88.90342829882623
230.0 88.50550911998553
236.0 87.9016153552557
240.0 87.41231167236617
250.0 86.91824107160438
258.0 86.13697474066906
265.0 85.39400984818221
272.0 85.0296717125837
280.0 84.92414443067685
290.0 84.844585892422
300.0 84.60649865601256
307.0 84.2042961729638
315.0 83.72317758155705
325.0 83.45143659623801
335.0 83.71634129174677
345.0 84.35087795269192
355.0 85.10573135759279
365.0 85.82562435950045
375.0 86.31843571560852
387.0 86.539578435858
400.0 86.44296266852129
412.0 86.01848684364394
425.0 85.36879698177628
437.0 84.61789575644232
450.0 83.79488527290823
462.0 83.15155400315655
475.0 82.90484167116533
487.0 83.1832421214749
500.0 83.83529584084954
515.0 84.54040480580257
530.0 84.99315185876631
545.0 84.91848374299553
560.0 84.46868538271939
580.0 84.00236341265133
600.0 83.72819308728748
615.0 83.39703296035677
630.0 82.86547741999453
650.0 82.25833482017453
670.0 81.75775287162618
690.0 81.38393528764507
710.0 81.15701726213327
730.0 80.97679200055939
750.0 80.72034275087482
775.0 80.20269464166414
800.0 79.52183815061773
825.0 78.79187592181808
850.0 78.08216936452659
875.0 77.59426732220497
900.0 77.27376180408069
925.0 77.03509712598667
950.0 76.82708115552383
975.0 76.71309436000917
1000.0 76.97255696529335
1030.0 77.58224273396272
1060.0 78.02259655147432
1090.0 78.14560422437786
1120.0 78.14472444231029
1150.0 78.26816404910836
1180.0 78.37817333384048
1220.0 78.42111026779621
1250.0 78.14921580920509
1280.0 77.51087650003036
1320.0 76.90010731225921
1360.0 76.36196227089279
1400.0 75.99425857775033
1450.0 75.6355939683792
1500.0 75.22901354938358
1550.0 75.2530740347359
1600.0 75.64382854578078
1650.0 75.93848541235019
1700.0 75.99157934460202
1750.0 75.44299898075744
1800.0 74.9532400902092
1850.0 74.81841694315793
1900.0 74.79518315100628
1950.0 74.61731703423688
2000.0 74.31254797758501
2060.0 73.89099697957401
2120.0 73.43216739149065
2180.0 72.90018747185809
2240.0 72.45820664276562
2300.0 72.67579864220141
2360.0 73.49232590509475
2400.0 74.29083129988707
2500.0 74.4044658231104
2580.0 73.95750026521064
2650.0 73.79954847995528
2720.0 74.0995753422252
2800.0 74.61207315158458
2900.0 74.87484710116827
3000.0 74.99995768905865
3070.0 74.78121388749345
3150.0 74.26617840753579
3250.0 74.17400857289927
3350.0 75.16169939603131
3450.0 75.79464397177092
3550.0 75.25010804876992
3650.0 74.16623858755989
3750.0 73.20303256361211
3870.0 73.20518762342812
4000.0 74.10935645723968
4120.0 74.56417327346999
4250.0 74.34377792515039
4370.0 73.85809766458144
4500.0 73.55283231823014
4620.0 74.1691158986889
4750.0 74.382652868359
4870.0 74.13961309600225
5000.0 73.8439378369053
5150.0 73.87161471379052
5300.0 74.44982589101296
5450.0 74.10560314184089
5600.0 73.14558531626926
5800.0 72.3078281520693
6000.0 71.84167088316562
6150.0 71.56780093657329
6300.0 71.65172360462986
6500.0 72.1882789358018
6700.0 71.92090299988104
6900.0 71.84496880525899
7100.0 72.30763240472123
7300.0 72.4867322263667
7500.0 72.24276157937118
7750.0 72.23504215021231
8000.0 71.96494449937272
8250.0 71.51748294006042
8500.0 71.79613971738057
8750.0 71.97326453431037
9000.0 71.40165192743639
9250.0 70.95581201392314
9500.0 70.76873767291787
9750.0 70.67151459015065
10000.0 69.52395138087678
10300.0 69.96260406446766
10600.0 70.04494938708613
10900.0 70.17872616526472
11200.0 71.18159600419348
11500.0 72.14365187772133
11800.0 71.99694093953676
12200.0 72.1786679688699
12500.0 71.42629768876539
12800.0 72.31535723058747
13200.0 73.11436054466066
13600.0 73.36837915044296
14000.0 72.6875016709046
14500.0 72.72853028309505
15000.0 71.45818504223928
15500.0 71.08240918605424
16000.0 70.46190085804156
16500.0 69.50432214344085
17000.0 68.56999987981956
17500.0 69.72551586756441
18000.0 68.21605529547833
18500.0 69.99756292607461
19000.0 70.01483790720684
19500.0 70.28502356811302
