Freq,On Axis,Listening Window,Sound Power,Early Reflections,Early Reflections DI,Sound Power DI,DI offset
22.4,45.69999999999999,48.56713096307101,46.62007312763856,48.025475101213885,50.54165586185712,51.947057835432446,50
23.0,46.0,49.1982649233872,47.393663896817486,48.67286828712,50.5253966362672,51.80460102656971,50
23.6,46.5,49.869395570497375,48.24877157694331,49.33296405977276,50.53643151072461,51.62062399355406,50
24.0,47.099999999999994,50.48262206768132,49.1410229478779,49.93969645213599,50.54292561554533,51.34159911980342,50
25.0,47.599999999999994,50.736889098863,49.893766652332545,50.294478491379806,50.4424106074832,50.84312244653046,50
25.8,48.099999999999994,50.56831102018464,50.3931599406165,50.41498952398416,50.153321496200476,50.17515107956814,50
26.5,48.80000000000001,50.203673946927154,50.82283748996426,50.50894433794238,49.69472960898477,49.380836456962896,50
27.2,49.5,49.80307186141991,51.1586959109126,50.614078994479,49.18899286694091,48.64437595050731,50
28.0,50.599999999999994,49.78490145466688,51.70448325642329,51.02069300318814,48.76420845147874,48.08041819824359,50
29.0,51.599999999999994,50.08935199348127,52.26946386432002,51.55121186136574,48.53814013211553,47.81988812916126,50
30.0,52.400000000000006,50.56272667768215,52.69590855133552,52.01795123311439,48.54477544456776,47.86681812634663,50
30.7,53.19999999999999,51.23951639491332,53.208309571489025,52.59389362042043,48.64562277449289,48.0312068234243,50
31.5,54.19999999999999,52.29896169247465,53.846864812449866,53.36085967103628,48.93810202143837,48.45209688002478,50
32.5,55.30000000000001,53.580896644537944,54.55471282336447,54.24560645724304,49.3352901872949,49.026183821173476,50
33.5,56.400000000000006,54.8873865834594,55.27423819964406,55.16549382036334,49.721892763096065,49.61314838381534,50
34.5,57.400000000000006,56.216051781294595,56.021479722316144,56.11708822316842,50.09896355812617,50.19457205897845,50
35.5,58.599999999999994,57.52088481695324,56.840205269588694,57.1433020886804,50.37758272827284,50.68067954736455,50
36.5,59.69999999999999,58.80494547380593,57.71547901445956,58.203410948851115,50.601534524954815,51.08946645934637,50
37.5,60.80000000000001,60.06647091524775,58.64200825367618,59.28350033091357,50.78297058433418,51.42446266157157,50
38.7,61.900000000000006,61.274570088876686,59.67598115905639,60.42725703526929,50.847313053607394,51.598588929820295,50
40.0,63.099999999999994,62.622654938568616,60.8274051850579,61.67638643877797,50.94626849979065,51.79524975351072,50
41.2,64.4,63.9947090125292,62.12858764871814,63.040070615417505,50.954638397111694,51.86612136381106,50
42.5,65.5,65.13557564051175,63.257731053185864,64.17692435835656,50.95865128215519,51.87784458732588,50
43.7,66.6,66.37670708174414,64.5078016355088,65.4306932348855,50.94601384685865,51.868905446235345,50
45.0,67.69999999999999,67.45242197248302,65.65357340910165,66.5469942975067,50.90542767497632,51.79884856338137,50
46.2,68.69999999999999,68.56199357943768,66.7750197622338,67.66175612869284,50.90023745074484,51.78697381720389,50
47.5,69.9,69.73818202452384,68.02618597070648,68.87859147163684,50.859590552887,51.71199605381736,50
48.7,71.0,70.84856757452995,69.20949160285828,70.03242335183519,50.81614422269476,51.63907597167167,50
50.0,72.0,71.89281329520846,70.28843637233643,71.08799291556313,50.80482037964532,51.60437692287202,50
51.5,72.9,72.80330777523784,71.25806580039276,72.02292701189171,50.78038076334613,51.545241974845084,50
53.0,73.69999999999999,73.63717873051064,72.15771453692449,72.8927284913427,50.744450239167946,51.47946419358615,50
54.5,74.5,74.45890536322388,73.01701759438977,73.7335957980485,50.72530956517538,51.44188776883411,50
56.0,75.3,75.30255805872011,73.88616050592175,74.57395118886357,50.728606869856534,51.41639755279836,50
58.0,76.19999999999999,76.20255805872011,74.86101466862512,75.52294819768693,50.679609861033185,51.341543390095,50
60.0,77.20000000000002,77.15686156553042,75.86147892593311,76.49707088989949,50.65979067563093,51.29538263959731,50
61.5,78.1,78.03512468018192,76.77009309803613,77.38737523237435,50.64774944780757,51.265031582145795,50
63.0,79.0,78.96768934561612,77.70894037831818,78.30698557802833,50.66070376758779,51.25874896729795,50
65.0,80.1,80.07849019712911,78.86365313965211,79.44355008795515,50.63494010917397,51.214837057477,50
67.0,81.19999999999999,81.13409756292211,79.96786874977423,80.5231396159631,50.610957946959005,51.16622881314788,50
69.0,82.20000000000002,82.18951489542683,81.06114626480326,81.60002567881213,50.589489216614695,51.12836863062357,50
71.0,83.2,83.18951489542683,82.07395065578899,82.60325638144909,50.58625851397774,51.115564239637834,50
73.0,84.0,83.93358982687998,82.86074400989453,83.3707385440469,50.56285128283308,51.07284581698545,50
75.0,84.6,84.60051167804048,83.53774951728049,84.04032332524716,50.56018835279332,51.06276216075999,50
77.5,85.6,85.51173585711585,84.44362385422241,84.95226733526383,50.559468521852025,51.06811200289344,50
80.0,86.4,86.37849019712911,85.30154757837201,85.81198405961537,50.56650613751374,51.0769426187571,50
82.5,87.20000000000002,87.08977136039705,85.94212675015801,86.47624451079139,50.61352684960566,51.14764461023904,50
85.0,87.6,87.48977136039706,86.2780193875735,86.8443057096635,50.645465650733556,51.21175197282356,50
87.5,87.7,87.60102329580306,86.37422076076894,86.96061950507732,50.64040379072574,51.226802535034125,50
90.0,88.30000000000001,88.12370048271504,86.81688285006429,87.43482490305308,50.68887557966195,51.30681763265075,50
92.5,89.0,88.8795068701197,87.45896838902235,88.11776043785198,50.761746432267714,51.42053848109735,50
95.0,89.70000000000002,89.5795068701197,88.12059050101544,88.8004319909154,50.7790748792043,51.45891636910426,50
97.5,90.3,90.17950687011968,88.68589759245714,89.38652608702145,50.79298078309823,51.49360927766254,50
100.0,91.1,90.91377695707035,89.35672200567652,90.08199871195265,50.831778245117704,51.55705495139384,50
103.0,91.7,91.51377695707033,89.88738429584036,90.65292567656817,50.86085128050216,51.62639266122997,50
106.0,92.1,91.91377695707035,90.24663542771256,91.03622588208066,50.8775510749897,51.66714152935779,50
109.0,92.29999999999998,92.11377695707034,90.44591199096672,91.24756852358809,50.86620843348226,51.66786496610362,50
112.0,92.6,92.4025580587201,90.7098140239771,91.52279665819856,50.879761400521545,51.692744034743,50
115.0,92.7,92.46997382606371,90.7890399148153,91.60030455329343,50.86966927277028,51.6809339112484,50
118.0,92.7,92.49281329520848,90.80034214588996,91.60777823943778,50.8850350557707,51.69247114931852,50
122.0,92.7,92.49281329520848,90.81489943743989,91.61520770372093,50.87760559148755,51.67791385776859,50
125.0,92.7,92.51377695707035,90.83123202301513,91.63496578504156,50.87881117202879,51.682544934055215,50
128.0,92.6,92.4483026337217,90.71277201036,91.52801973005256,50.92028290366913,51.7355306233617,50
132.0,92.6,92.39281329520847,90.58537666635556,91.43774115166909,50.95507214353938,51.80743662885291,50
136.0,92.4,92.2275053668239,90.3673910670097,91.26332543481972,50.964179932004186,51.8601142998142,50
140.0,92.29999999999998,92.07222859343949,90.10394710802842,91.0631480158596,51.009080577579894,51.96828148541107,50
145.0,92.1,91.90458656127426,89.80649909913245,90.82953476372678,51.075051797547474,52.098087462141805,50
150.0,92.1,91.85056867750987,89.60295326113017,90.71073306899262,51.139835608517245,52.2476154163797,50
155.0,92.1,91.83025654958246,89.43751225975973,90.63824343721144,51.192013112371015,52.39274428982273,50
160.0,92.0,91.73025654958244,89.1237526267305,90.43945319115943,51.290803358423005,52.60650392285194,50
165.0,92.0,91.65411147883569,88.83738742935441,90.27526756201091,51.37884391682478,52.81672404948128,50
170.0,92.0,91.71031457573001,88.70119626207915,90.25721210842755,51.45310246730246,53.00911831365086,50
175.0,92.0,91.71031457573001,88.49586382012545,90.18101923628747,51.52929533944254,53.21445075560456,50
180.0,92.20000000000002,91.83427899178497,88.39699147843572,90.19815055027345,51.63612844151152,53.43728751334925,50
185.0,92.20000000000002,91.86917009623946,88.32024021710822,90.2048307619102,51.664339334329256,53.54892987913124,50
190.0,92.29999999999998,91.94594053370734,88.22916771535839,90.20336862506062,51.742571908646724,53.71677281834896,50
195.0,92.29999999999998,91.91481005368297,88.08525783615757,90.13739076448137,51.7774192892016,53.8295522175254,50
200.0,92.29999999999998,91.91481005368297,87.96619219885048,90.09192349798334,51.822886555699625,53.94861785483249,50
206.0,92.20000000000002,91.79336199265938,87.75511381679863,89.9342743260068,51.859087666652584,54.03824817586076,50
212.0,92.0,91.63820627595418,87.46232616001258,89.72141093615191,51.91679533980226,54.175880115941595,50
218.0,91.8,91.3933619926594,87.13064275506571,89.44465132371994,51.948710668939455,54.262719237593686,50
224.0,91.7,91.26202399355363,86.85219688230569,89.2507675168915,52.011256476662126,54.409827111247935,50
230.0,91.6,91.14312061170452,86.58099106975035,89.05624410985665,52.08687650184787,54.562129541954164,50
236.0,91.6,91.11008565434437,86.36302285487761,88.94510195248176,52.16498370186261,54.74706279946676,50
240.0,91.6,91.0913907639167,86.1729419245849,88.85962638953853,52.23176437437817,54.9184488393318,50
250.0,91.6,91.0913907639167,85.99991210235235,88.79400815927173,52.29738260464498,55.09147866156435,50
258.0,91.6,91.07304334183365,85.84027940597828,88.73605085920587,52.33699248262778,55.232763935855374,50
265.0,91.7,91.17304334183365,85.73211040830621,88.738394881142,52.43464846069165,55.440932933527435,50
272.0,91.8,91.18571487077814,85.59125369968477,88.69531571854236,52.49039915223578,55.59446117109337,50
280.0,91.8,91.16776245471696,85.41550338366733,88.61829076689082,52.54947168782614,55.752259071049636,50
290.0,91.7,91.11603415244919,85.18352351401023,88.46457502445438,52.65145912799481,55.932510638438956,50
300.0,91.6,91.01603415244918,84.93715490254586,88.30747551171655,52.70855864073263,56.07887924990332,50
307.0,91.6,90.96572952141966,84.73855709363342,88.19136482845855,52.774364692961115,56.22717242778624,50
315.0,91.7,91.02406371097072,84.64782986294878,88.17931139236211,52.84475231860861,56.37623384802194,50
325.0,91.8,91.14850746743355,84.61294319145962,88.20643530540988,52.94207216202366,56.535564275973925,50
335.0,91.9,91.1734052805324,84.51174371094075,88.18571763930683,52.98768764122558,56.66166156959166,50
345.0,91.7,91.0107336515951,84.17117494666999,87.92241398856018,53.08831966303492,56.83955870492511,50
355.0,91.4,90.62817611057743,83.62608909009948,87.45083384557637,53.17734226500106,57.002087020477944,50
365.0,91.3,90.49099343283676,83.3280217787301,87.2162028833012,53.27479054953557,57.162971654106656,50
375.0,91.4,90.59099343283677,83.24366590826035,87.1945256831905,53.39646774964626,57.347327524576414,50
387.0,91.3,90.43466548681317,82.9067891959047,86.9221458829534,53.51251960385977,57.52787629090848,50
400.0,90.9,90.0593460410872,82.32071305986928,86.37444724633438,53.68489879475281,57.73863298121792,50
412.0,90.6,89.71116313454098,81.7930013078471,85.90493714283303,53.80622599170795,57.918161826693876,50
425.0,90.5,89.60801561820283,81.50681293149445,85.65150667742309,53.95650894077974,58.101202686708376,50
437.0,90.6,89.68108557784768,81.40557516886876,85.5769389580876,54.10414661976009,58.27551040897892,50
450.0,90.7,89.70624666370388,81.2969725478205,85.47957337867251,54.22667328503137,58.40927411588338,50
462.0,90.9,89.91825662980449,81.40361184965502,85.59839938320472,54.31985724659977,58.51464478014947,50
475.0,91.19999999999999,90.27818426491478,81.65744768388282,85.87225791105891,54.405926353855875,58.62073658103196,50
487.0,91.6,90.54541300998947,81.88622339416526,86.0445997401431,54.500813269846375,58.65918961582422,50
500.0,91.7,90.71941357489621,82.09727595860147,86.15870466088388,54.560708914012324,58.62213761629474,50
515.0,91.8,90.80898644156184,82.35989002389738,86.29985335519711,54.50913308636473,58.449096417664464,50
530.0,91.6,90.77697864726846,82.69366940974335,86.47139172697854,54.305586920289926,58.083309237525114,50
545.0,91.4,90.6958414409545,83.0496009132373,86.71865181063819,53.9771896303163,57.6462405277172,50
560.0,91.3,90.70854414336686,83.40707197545046,87.01639240047706,53.692151742889806,57.3014721679164,50
580.0,91.0,90.5462300416922,83.62645881487542,87.15443873415062,53.39179130754158,56.91977122681678,50
600.0,90.6,90.30509783474935,83.72300730365794,87.14592155324088,53.159176281508465,56.58209053109141,50
615.0,90.3,90.11275652700277,83.75948713681501,87.10238282213423,53.01037370486854,56.35326939018776,50
630.0,90.0,89.82394914498047,83.64400309252842,86.93197621615333,52.891972928827144,56.17994605245205,50
650.0,89.6,89.43511299152682,83.37747617252724,86.64264668406936,52.79246630745746,56.05763681899958,50
670.0,89.3,89.05889934695256,83.05124329062141,86.33768278255458,52.72121656439798,56.00765605633114,50
690.0,89.2,88.75040561628586,82.66310121486683,86.02993802577933,52.72046759050653,56.08730440141903,50
710.0,89.2,88.59861350039958,82.29075954483797,85.78453708655907,52.81407641384051,56.30785395556161,50
730.0,89.4,88.54848010079476,81.93422923162989,85.5926019393888,52.95587816140596,56.61425086916488,50
750.0,89.6,88.63512196371792,81.64820488665924,85.4840952467956,53.15102671692232,56.98691707705868,50
775.0,89.79999999999998,88.78164585001001,81.46398766763915,85.44456435152648,53.33708149848353,57.31765818237086,50
800.0,90.0,88.88316086742029,81.30921228510721,85.39686545085841,53.48629541656187,57.57394858231308,50
825.0,90.0,88.93501044268484,81.19888429726473,85.33843115544398,53.59657928724086,57.736126145420116,50
850.0,90.1,88.99583292788421,81.1339056167363,85.29973528509281,53.6960976427914,57.86192731114791,50
875.0,90.1,88.95026288384535,80.9517668474818,85.13893511128812,53.811327772557235,57.99849603636355,50
900.0,90.1,88.8776103959035,80.74745052995883,84.95882414054257,53.91878625536093,58.13015986594468,50
925.0,90.1,88.85788517259364,80.59214468417139,84.8353952703204,54.022489902273236,58.26574048842225,50
950.0,90.1,88.9499993299825,80.61681756504461,84.88980323168593,54.06019609829657,58.33318176493789,50
975.0,90.2,89.15975266157969,80.93123762808085,85.15571586372366,54.00403679785603,58.22851503349884,50
1000.0,90.2,89.42162694692702,81.47117902536206,85.59120786068839,53.830419086238635,57.95044792156496,50
1030.0,90.1,89.62247194348717,82.05566361955484,86.02690864278378,53.59556330070339,57.566808323932335,50
1060.0,89.9,89.68403977103074,82.44309000562438,86.3100838023971,53.37395596863364,57.240949765406356,50
1090.0,89.9,89.68205403479423,82.5465093924845,86.4075012780165,53.27455275677774,57.13554464230974,50
1120.0,90.0,89.57101806288978,82.26745006431418,86.24018911847377,53.33082894441601,57.3035679985756,50
1150.0,90.2,89.33737841938989,81.64372828722409,85.81107505778633,53.52630336160357,57.6936501321658,50
1180.0,90.2,88.94453703367299,80.83060780626737,85.22246212331748,53.7220749103555,58.11392922740562,50
1220.0,90.0,88.54962753303532,80.15186749700314,84.71872804460976,53.83089948842556,58.39776003603218,50
1250.0,89.79999999999998,88.27976296005684,79.75689026780663,84.41261384245917,53.86714911759768,58.52287269225022,50
1280.0,89.70000000000002,88.11471797269111,79.65280862950948,84.33156096260117,53.78315701008994,58.46190934318163,50
1320.0,89.5,88.06564297202611,79.67443402695451,84.34752638328312,53.71811658874299,58.3912089450716,50
1360.0,89.5,88.10126352669641,79.6843580602943,84.37534213131835,53.725921395378066,58.41690546640211,50
1400.0,89.6,88.30299924335519,79.75453881621978,84.48462503253236,53.818374210822824,58.54846042713541,50
1450.0,89.6,88.53715715266742,79.89887207059132,84.63745309058551,53.89970406208191,58.638285082076095,50
1500.0,89.6,88.60688190081044,79.90203079781158,84.62809805987968,53.97878384093076,58.70485110299886,50
1550.0,89.4,88.38416913974591,79.67019962272515,84.39928605547172,53.98488308427419,58.71396951702076,50
1600.0,89.4,88.059985291503,79.20798641190187,83.98135138416156,54.07863390734144,58.851998879601126,50
1650.0,89.5,87.66189672361975,78.55457726014737,83.40147126689035,54.26042545672939,59.10731946347238,50
1700.0,89.6,87.39472883612085,78.00805506582398,82.87025399914549,54.52447483697536,59.386673770296866,50
1750.0,89.6,87.26094669401814,77.68461082516407,82.51531760346288,54.74562909055527,59.57633586885407,50
1800.0,89.70000000000002,87.44445122851904,77.87861384666078,82.66770154493157,54.77674968358747,59.56583738185826,50
1850.0,89.70000000000002,87.88370099423408,78.67169743988403,83.3499114725388,54.53378952169527,59.21200355435005,50
1900.0,89.70000000000002,88.27498713132647,79.53504286569202,84.04283408443551,54.23215304689096,58.73994426563445,50
1950.0,89.70000000000002,88.35780197986102,79.9442289980328,84.28966515149995,54.06813682836108,58.413572981828224,50
2000.0,89.6,88.0641931356534,79.71744876196763,83.94803233145694,54.116160804196454,58.346744373685766,50
2060.0,89.4,87.63631681179714,79.26857888561096,83.48418675591587,54.15213005588127,58.36773792618618,50
2120.0,89.4,87.33894360049594,78.87911972429575,83.20063375934944,54.138309841146494,58.45982387620019,50
2180.0,89.4,87.44660108384655,78.74168677956317,83.210046529263,54.23655455458355,58.70491430428338,50
2240.0,89.3,87.74044502389144,78.86478315878662,83.40804661725511,54.33239840663633,58.87566186510482,50
2300.0,89.2,87.87579668521663,78.8837763695305,83.46292796921219,54.41286871600444,58.99202031568613,50
2360.0,89.1,87.61231361288307,78.45614122406634,83.13288040415053,54.479433208732544,59.15617238881673,50
2400.0,89.1,87.16727535361309,77.76504581286468,82.57580381866464,54.591471534948454,59.40222954074841,50
2500.0,89.2,86.91955696804311,77.1965106714848,82.13005332631566,54.78950364172745,59.72304629655831,50
2580.0,89.5,87.06897769060265,76.9936785823447,82.02213974054975,55.046837950052904,60.07529910825795,50
2650.0,89.70000000000002,87.40299974074848,77.09747627979775,82.18948470981094,55.21351503093754,60.30552346095074,50
2720.0,89.5,87.43944100003564,77.15378156615964,82.26983592608268,55.169605073952965,60.285659433876006,50
2800.0,89.3,87.15428866556663,76.96330275686304,82.04988392775375,55.10440473781287,60.19098590870358,50
2900.0,89.3,86.8809565077204,76.69128228214313,81.73114043892926,55.14981606879114,60.189674225577264,50
3000.0,89.4,87.00149802588099,76.94005861126834,81.95091355612342,55.05058446975757,60.06143941461265,50
3070.0,89.2,87.12935042545159,77.35488114558491,82.30805202752748,54.82129839792411,59.77446927986668,50
3150.0,88.9,86.94075537058728,77.29493348495882,82.18507751430755,54.75567785627973,59.645821885628465,50
3250.0,88.5,86.60280035987147,76.87227502398007,81.74436191138892,54.858438448482545,59.7305253358914,50
3350.0,88.30000000000001,86.37884298729583,76.57078873748496,81.4558749321964,54.92296805509943,59.808054249810866,50
3450.0,88.5,86.56854795945661,76.69145560589996,81.60240152901399,54.96614643044262,59.87709235355665,50
3550.0,88.9,86.83975229885979,76.68847050945749,81.68038173245638,55.15937056640341,60.151281789402304,50
3650.0,88.6,86.36703921099217,76.07526010835477,81.13090396845752,55.23613524253466,60.291779102637406,50
3750.0,88.0,85.92710534380521,75.6739103925603,80.73020513962587,55.19690020417934,60.25319495124491,50
3870.0,88.69999999999999,86.61183737812937,76.35980592054058,81.43428582112963,55.17755155699973,60.252031457588785,50
4000.0,88.4,86.57164729468589,76.46965142400438,81.50268788846785,55.06895940621804,60.101995870681506,50
4120.0,88.0,86.31409013693028,76.28754579933778,81.31963816571972,54.99445197121055,60.0265443375925,50
4250.0,88.0,86.46107407479482,76.45777263341245,81.48081296715682,54.980261107638,60.003301441382376,50
4370.0,88.0,86.50426990460008,76.46894004984148,81.52401374796278,54.980256156637296,60.0353298547586,50
4500.0,88.0,86.27334551522843,76.12718660102126,81.20945292886566,55.06389258636277,60.14615891420716,50
