Freq "Early Reflections"
22.4 49.21788016450506
23.0 49.86527335041117
23.6 50.52536912306391
24.0 51.13210151542711
25.0 51.48688355467095
25.8 51.60739458727531
26.5 51.70134940123353
27.2 51.80648405777015
28.0 52.21309806647932
29.0 52.74361692465689
30.0 53.210356296405536
30.7 53.78629868371158
31.5 54.55326473432743
32.5 55.43801152053419
33.5 56.357898883654485
34.5 57.30949328645957
35.5 58.33570715197152
36.5 59.39581601214226
37.5 60.475905394204716
38.7 61.61966209856041
40.0 62.86879150206914
41.2 64.23247567870865
42.5 65.3693294216477
43.7 66.62309829817664
45.0 67.73939936079788
46.2 68.85416119198399
47.5 70.07099653492799
48.7 71.22482841512632
50.0 72.28039797885428
51.5 73.21533207518286
53.0 74.08513355463384
54.5 74.92600086133966
56.0 75.76635625215471
58.0 76.71535326097808
60.0 77.68947595319065
61.5 78.5797802956655
63.0 79.49939064131947
65.0 80.63595515124629
67.0 81.71554467925424
69.0 82.79243074210328
71.0 83.7956614447402
73.0 84.56314360733805
75.0 85.23272838853832
77.5 86.14467239855497
80.0 87.0043891229065
82.5 87.66864957408252
85.0 88.03671077295466
87.5 88.15302456836847
90.0 88.62722996634423
92.5 89.31016550114312
95.0 89.99283705420656
97.5 90.5789311503126
100.0 91.27440377524378
103.0 91.84533073985932
106.0 92.2286309453718
109.0 92.43997358687925
112.0 92.7152017214897
115.0 92.79270961658459
118.0 92.80018330272893
122.0 92.80761276701207
125.0 92.8273708483327
128.0 92.72042479334371
132.0 92.63014621496023
136.0 92.45573049811085
140.0 92.25555307915073
145.0 92.02193982701793
150.0 91.90313813228376
155.0 91.8306485005026
160.0 91.63185825445059
165.0 91.46767262530207
170.0 91.44961717171871
175.0 91.37342429957862
180.0 91.39055561356462
185.0 91.39723582520136
190.0 91.39577368835177
195.0 91.3297958277725
200.0 91.2843285612745
206.0 91.12667938929795
212.0 90.91381599944306
218.0 90.63705638701107
224.0 90.44317258018265
230.0 90.2486491731478
236.0 90.13750701577291
240.0 90.05203145282968
250.0 89.98641322256287
258.0 89.92845592249702
265.0 89.93079994443313
272.0 89.8877207818335
280.0 89.81069583018197
290.0 89.65698008774552
300.0 89.4998805750077
307.0 89.38376989174968
315.0 89.37171645565326
325.0 89.39884036870102
335.0 89.37812270259798
345.0 89.11481905185133
355.0 88.64323890886752
365.0 88.40860794659234
375.0 88.38693074648167
387.0 88.11455094624455
400.0 87.56685230962553
412.0 87.09734220612418
425.0 86.84391174071425
437.0 86.76934402137874
450.0 86.67197844196365
462.0 86.79080444649588
475.0 87.06466297435006
487.0 87.23700480343425
500.0 87.35110972417505
515.0 87.49225841848826
530.0 87.66379679026969
545.0 87.91105687392934
560.0 88.20879746376822
580.0 88.34684379744178
600.0 88.33832661653203
615.0 88.29478788542538
630.0 88.12438127944446
650.0 87.83505174736052
670.0 87.53008784584571
690.0 87.22234308907048
710.0 86.97694214985023
730.0 86.78500700267993
750.0 86.67650031008675
775.0 86.63696941481764
800.0 86.58927051414956
825.0 86.53083621873512
850.0 86.49214034838397
875.0 86.33134017457925
900.0 86.15122920383374
925.0 86.02780033361155
950.0 86.08220829497708
975.0 86.3481209270148
1000.0 86.78361292397955
1030.0 87.21931370607493
1060.0 87.50248886568825
1090.0 87.59990634130764
1120.0 87.43259418176491
1150.0 87.00348012107747
1180.0 86.41486718660863
1220.0 85.91113310790091
1250.0 85.60501890575031
1280.0 85.5239660258923
1320.0 85.53993144657429
1360.0 85.56774719460952
1400.0 85.6770300958235
1450.0 85.82985815387664
1500.0 85.82050312317084
1550.0 85.59169111876285
1600.0 85.1737564474527
1650.0 84.5938763301815
1700.0 84.06265906243664
1750.0 83.70772266675401
1800.0 83.86010660822271
1850.0 84.54231653582997
1900.0 85.23523914772666
1950.0 85.48207021479108
2000.0 85.14043739474809
2060.0 84.67659181920703
2120.0 84.3930388226406
2180.0 84.40245159255416
2240.0 84.60045168054626
2300.0 84.65533303250334
2360.0 84.32528546744169
2400.0 83.76820888195576
2500.0 83.32245838960681
2580.0 83.2145448038409
2650.0 83.38188977310207
2720.0 83.46224098937381
2800.0 83.2422889910449
2900.0 82.9235455022204
3000.0 83.14331861941459
3070.0 83.50045709081863
3150.0 83.3774825775987
3250.0 82.93676697468007
3350.0 82.64827999548751
3450.0 82.79480659230514
3550.0 82.87278679574753
3650.0 82.32330903174866
3750.0 81.92261020291701
3870.0 82.62669088442078
4000.0 82.695092951759
4120.0 82.51204322901087
4250.0 82.67321803044798
4370.0 82.71641881125394
4500.0 82.4018579921568
4620.0 82.15741895086315
4750.0 82.22872844887611
4870.0 82.09076829237463
5000.0 82.06576684403876
5150.0 82.05043020079499
5300.0 81.90688654543796
5450.0 81.60872124297107
5600.0 81.72775330177544
5800.0 81.74911379156424
6000.0 81.51235343845305
6150.0 81.3998764456596
6300.0 80.97785273076292
6500.0 80.75712587376925
6700.0 81.16881488082858
6900.0 81.18893423400658
7100.0 80.71838140599965
7300.0 80.63922532954194
7500.0 80.73716018925471
7750.0 80.48866386742715
8000.0 80.60159847141357
8250.0 80.20666726552531
8500.0 80.01755519640447
8750.0 80.11288526445946
9000.0 80.53407641117238
9250.0 80.72454855115599
9500.0 80.21945451909318
9750.0 79.53359840959561
10000.0 78.8939727822103
10300.0 76.85568508647813
10600.0 76.63380504988048
10900.0 78.63492544647265
11200.0 78.10108555619159
11500.0 77.34597587781303
11800.0 78.08097768417737
12200.0 78.62860529286755
12500.0 77.92672168729683
12800.0 77.29997069888795
13200.0 76.73868387415088
13600.0 76.05691244890772
14000.0 76.2005536672972
14500.0 74.14653671522333
15000.0 71.60417875431428
15500.0 71.85851083205505
16000.0 71.49734692950871
16500.0 71.23112853694032
17000.0 70.35804568931206
17500.0 69.68828537919026
18000.0 68.77187410299989
18500.0 68.23544655206189
19000.0 66.9524373143147
19500.0 64.87741848280211
