Freq "Sound Power"
22.4 47.81247819092971
23.0 48.58606896010863
23.6 49.44117664023449
24.0 50.33342801116905
25.0 51.08617171562369
25.8 51.58556500390765
26.5 52.015242553255405
27.2 52.351100974203746
28.0 52.896888319714435
29.0 53.46186892761119
30.0 53.88831361462667
30.7 54.40071463478017
31.5 55.03926987574101
32.5 55.747117886655616
33.5 56.46664326293521
34.5 57.21388478560729
35.5 58.03261033287984
36.5 58.90788407775071
37.5 59.83441331696733
38.7 60.86838622234754
40.0 62.019810248349074
41.2 63.320992712009286
42.5 64.45013611647698
43.7 65.70020669879995
45.0 66.8459784723928
46.2 67.96742482552494
47.5 69.21859103399761
48.7 70.40189666614943
50.0 71.4808414356276
51.5 72.45047086368392
53.0 73.35011960021565
54.5 74.20942265768093
56.0 75.0785655692129
58.0 76.05341973191626
60.0 77.05388398922427
61.5 77.96249816132726
63.0 78.90134544160934
65.0 80.05605820294326
67.0 81.16027381306537
69.0 82.2535513280944
71.0 83.26635571908014
73.0 84.05314907318568
75.0 84.73015458057165
77.5 85.63602891751356
80.0 86.49395264166316
82.5 87.13453181344916
85.0 87.47042445086464
87.5 87.56662582406008
90.0 88.00928791335544
92.5 88.6513734523135
95.0 89.31299556430659
97.5 89.87830265574829
100.0 90.54912706896766
103.0 91.07978935913151
106.0 91.4390404910037
109.0 91.63831705425787
112.0 91.90221908726825
115.0 91.98144497810645
118.0 91.99274720918109
122.0 92.00730450073104
125.0 92.02363708630628
128.0 91.90517707365115
132.0 91.7777817296467
136.0 91.55979613030087
140.0 91.29635217131957
145.0 90.9989041624236
150.0 90.79535832442131
155.0 90.62991732305088
160.0 90.31615769002164
165.0 90.02979249264556
170.0 89.8936013253703
175.0 89.6882688834166
180.0 89.58939654172686
185.0 89.51264528039937
190.0 89.42157277864955
195.0 89.27766289944873
200.0 89.15859726214163
206.0 88.94751888008977
212.0 88.65473122330374
218.0 88.32304781835683
224.0 88.04460194559685
230.0 87.7733961330415
236.0 87.55542791816873
240.0 87.36534698787605
250.0 87.1923171656435
258.0 87.03268446926944
265.0 86.92451547159737
272.0 86.78365876297593
280.0 86.60790844695848
290.0 86.37592857730138
300.0 86.129559965837
307.0 85.93096215692458
315.0 85.84023492623993
325.0 85.80534825475077
335.0 85.7041487742319
345.0 85.36358000996114
355.0 84.81849415339063
365.0 84.52042684202125
375.0 84.4360709715515
387.0 84.09919425919585
400.0 83.51311812316044
412.0 82.98540637113825
425.0 82.6992179947856
437.0 82.59798023215991
450.0 82.48937761111165
462.0 82.59601691294614
475.0 82.84985274717397
487.0 83.0786284574564
500.0 83.28968102189259
515.0 83.55229508718854
530.0 83.8860744730345
545.0 84.24200597652845
560.0 84.59947703874161
580.0 84.81886387816657
600.0 84.91541236694908
615.0 84.95189220010616
630.0 84.83640815581957
650.0 84.56988123581837
670.0 84.24364835391253
690.0 83.85550627815797
710.0 83.48316460812913
730.0 83.12663429492103
750.0 82.84060994995039
775.0 82.65639273093029
800.0 82.50161734839834
825.0 82.39128936055587
850.0 82.32631068002745
875.0 82.14417191077294
900.0 81.93985559324997
925.0 81.78454974746253
950.0 81.80922262833576
975.0 82.12364269137201
1000.0 82.66358408865321
1030.0 83.248068682846
1060.0 83.63549506891553
1090.0 83.73891445577564
1120.0 83.45985512760532
1150.0 82.83613335051524
1180.0 82.0230128695585
1220.0 81.34427256029429
1250.0 80.94929533109777
1280.0 80.84521369280063
1320.0 80.86683909024566
1360.0 80.87676312358545
1400.0 80.94694387951093
1450.0 81.09127713388246
1500.0 81.09443586110272
1550.0 80.86260468601628
1600.0 80.40039147519302
1650.0 79.74698232343852
1700.0 79.20046012911511
1750.0 78.87701588845522
1800.0 79.07101890995193
1850.0 79.86410250317518
1900.0 80.72744792898317
1950.0 81.13663406132395
2000.0 80.90985382525878
2060.0 80.46098394890213
2120.0 80.0715247875869
2180.0 79.93409184285431
2240.0 80.05718822207777
2300.0 80.07618143282164
2360.0 79.64854628735749
2400.0 78.95745087615583
2500.0 78.38891573477595
2580.0 78.18608364563582
2650.0 78.28988134308891
2720.0 78.3461866294508
2800.0 78.15570782015419
2900.0 77.88368734543428
3000.0 78.1324636745595
3070.0 78.54728620887606
3150.0 78.48733854824997
3250.0 78.06468008727121
3350.0 77.76319380077612
3450.0 77.88386066919111
3550.0 77.88087557274864
3650.0 77.26766517164592
3750.0 76.86631545585143
3870.0 77.55221098383173
4000.0 77.66205648729553
4120.0 77.47995086262894
4250.0 77.65017769670358
4370.0 77.66134511313263
4500.0 77.31959166431241
4620.0 77.12556204570781
4750.0 77.21957920830128
4870.0 77.09310168461755
5000.0 77.06350438018148
5150.0 76.97843294265681
5300.0 76.78405716262438
5450.0 76.51196251216078
5600.0 76.70955787510641
5800.0 76.80993876832822
6000.0 76.58996418097449
6150.0 76.49505889692747
6300.0 76.06860835600281
6500.0 75.85151795056554
6700.0 76.3192438525817
6900.0 76.35558430714103
7100.0 75.85500186424305
7300.0 75.71571800806366
7500.0 75.77972590887947
7750.0 75.49470319247263
8000.0 75.56625569615268
8250.0 75.12223895860711
8500.0 74.88808695851601
8750.0 74.97873744256623
9000.0 75.43253502416285
9250.0 75.66713849405164
9500.0 75.11290375336293
9750.0 74.40319415163614
10000.0 73.63358752569212
10300.0 71.45851222736351
10600.0 71.62068908080275
10900.0 73.46956556319032
11200.0 72.52816829315567
11500.0 71.58531770440223
11800.0 72.36852830659988
12200.0 73.22363541704374
12500.0 72.49577261880609
12800.0 71.68553896245294
13200.0 71.12512372045398
13600.0 70.75541726499556
14000.0 71.31677334827307
14500.0 69.41205139279806
15000.0 66.46774328990591
15500.0 65.87478273709505
16000.0 65.27075121754663
16500.0 64.94182590514097
17000.0 63.928472050652374
17500.0 63.231317912555426
18000.0 62.82724754636462
18500.0 62.59095404245366
19000.0 60.911120270590686
19500.0 58.67781444602733
