Freq "Sound Power"
22.4 70.36939488557758
23.0 70.60513116709535
23.6 70.83830635724469
24.0 71.04988805117071
25.0 71.25838995641968
25.8 71.45494700115219
26.5 71.63849461511003
27.2 71.82016570921358
28.0 71.98053967756576
29.0 72.13925357373711
30.0 72.33319087187567
30.7 72.59219573623278
31.5 72.86732451971113
32.5 73.11555551010137
33.5 73.35839143792964
34.5 73.60131278873378
35.5 73.82585001162873
36.5 74.06103730132396
37.5 74.27568343314825
38.7 74.49777790555338
40.0 74.74414980066108
41.2 75.06591883979866
42.5 75.39616762608298
43.7 75.7109463462948
45.0 75.99911612777052
46.2 76.28861567128577
47.5 76.56619839531376
48.7 76.8237886897672
50.0 77.16372453277714
51.5 77.52452921355761
53.0 77.85657095288727
54.5 78.1868932358982
56.0 78.48749257089483
58.0 78.79131810554631
60.0 79.10716489473825
61.5 79.47288139214331
63.0 79.81749266065563
65.0 80.14303010924799
67.0 80.45891931646372
69.0 80.7740209053234
71.0 81.11659226578135
73.0 81.43925481347608
75.0 81.76355981426603
77.5 82.06587533868317
80.0 82.36317207102253
82.5 82.70963340387917
85.0 83.02646463399464
87.5 83.33052540163608
90.0 83.6307743843426
92.5 83.9164800011128
95.0 84.20727770930901
97.5 84.46963830935366
100.0 84.74696770146785
103.0 85.00911799809346
106.0 85.25712857232651
109.0 85.50555320237223
112.0 85.74312682803838
115.0 85.96301046502732
118.0 86.17097314434176
122.0 86.36007043459745
125.0 86.54006928627669
128.0 86.69275749548794
132.0 86.80592832491473
136.0 86.92605372759698
140.0 87.00620734515275
145.0 87.07136828681907
150.0 87.09326378114874
155.0 87.11855565527715
160.0 87.11594018482
165.0 87.07979196952174
170.0 87.02030960270878
175.0 86.93261812569183
180.0 86.83909298832515
185.0 86.69862044444311
190.0 86.55317442787674
195.0 86.39010342087823
200.0 86.23018001259263
206.0 86.03996829593075
212.0 85.89773639618976
218.0 85.74049159270739
224.0 85.61828394145728
230.0 85.52732206541526
236.0 85.4546073733235
240.0 85.37864791985433
250.0 85.31589161983806
258.0 85.29179884964523
265.0 85.25064957680908
272.0 85.19803156015173
280.0 85.13152465443036
290.0 85.04640624902106
300.0 84.94513794410277
307.0 84.79583575026976
315.0 84.64583182803315
325.0 84.49217546121955
335.0 84.33351487593664
345.0 84.19508593276343
355.0 84.11535729776207
365.0 84.07822149218441
375.0 84.13031616287336
387.0 84.23450339008753
400.0 84.35263530571187
412.0 84.47498751356271
425.0 84.56234073100424
437.0 84.61790175249081
450.0 84.63433022850558
462.0 84.63356329745667
475.0 84.60660666859718
487.0 84.61127150034751
500.0 84.6285837759868
515.0 84.71466336917763
530.0 84.83530257851505
545.0 84.98282731650491
560.0 85.1220611125506
580.0 84.9861955361889
600.0 84.32449243005424
615.0 83.39918985651369
630.0 82.50320214019001
650.0 81.86532724919206
670.0 81.58527921075148
690.0 81.64741989009386
710.0 81.87778679979812
730.0 82.20187143272952
750.0 82.634896185595
775.0 83.17235376900678
800.0 83.58710711237423
825.0 83.68795370697737
850.0 83.54342866504624
875.0 83.27995611726062
900.0 82.90847426179647
925.0 82.33426529185103
950.0 81.37203618591656
975.0 80.40266959767855
1000.0 79.8987994544728
1030.0 80.11388463094927
1060.0 80.39224442929837
1090.0 79.95321686767025
1120.0 79.56044267262534
1150.0 79.94493794632369
1180.0 80.66865519969087
1220.0 80.25633496522612
1250.0 79.04736890226741
1280.0 79.45756892534705
1320.0 80.85246156065293
1360.0 81.5228130331765
1400.0 81.06651607386735
1450.0 81.25399364427548
1500.0 81.38554305623465
1550.0 80.02988075010722
1600.0 79.29115754425506
1650.0 80.92953324041063
1700.0 80.78210904863361
1750.0 79.15555225136607
1800.0 78.75549921023833
1850.0 78.71467572571832
1900.0 79.30184866857962
1950.0 80.41887649871737
2000.0 80.0851736272088
2060.0 79.46766805101511
2120.0 78.99910918214718
2180.0 78.10660161031262
2240.0 77.13812952560413
2300.0 76.35139111097978
2360.0 76.86681067359669
2400.0 77.3748825209949
2500.0 77.05283169847655
2580.0 75.96718526558317
2650.0 76.14168397174132
2720.0 77.22687703723534
2800.0 78.0461238582273
2900.0 77.59035137651945
3000.0 78.50691829201122
3070.0 78.40435868513796
3150.0 79.06677911160116
3250.0 79.12857184153886
3350.0 78.03056742893025
3450.0 76.47016355337051
3550.0 75.87316508642397
3650.0 75.43865085129768
3750.0 75.97880469479887
3870.0 77.04048927020901
4000.0 77.81412975589328
4120.0 78.37123022929141
4250.0 78.58629058718047
4370.0 79.06224409782786
4500.0 79.34578931454186
4620.0 79.29116320280883
4750.0 78.9825811081333
4870.0 78.1580579858858
5000.0 77.14063652482832
5150.0 76.4403295396737
5300.0 76.50771352680957
5450.0 77.26397806849599
5600.0 77.86155227572793
5800.0 77.98992513782824
6000.0 78.38687100542636
6150.0 78.57494331305882
6300.0 79.50740793959807
6500.0 79.40479136503075
6700.0 79.83391995478293
6900.0 79.90365552810412
7100.0 79.77310984883536
7300.0 79.8753848861979
7500.0 78.27433831105918
7750.0 80.28960494945447
8000.0 80.61503321862546
8250.0 81.50474308352358
8500.0 82.39238899545892
8750.0 81.30506676956531
9000.0 79.20921957704479
9250.0 81.01602551299175
9500.0 81.22329859037058
9750.0 81.93960339509195
10000.0 81.139949122487
10300.0 80.93190976993925
10600.0 79.99295268827936
10900.0 81.32431014803238
11200.0 79.61980602153339
11500.0 80.51025267358135
11800.0 81.77996195969365
12200.0 81.60953043091867
12500.0 79.44609408891361
12800.0 79.85839495236289
13200.0 79.87624311330453
13600.0 80.46879162900811
14000.0 82.6008595505564
14500.0 79.58899641587097
15000.0 75.66082172578312
15500.0 76.97952619181628
16000.0 81.45349928787519
16500.0 80.76065763680222
17000.0 80.1103800023565
17500.0 70.91552978384746
18000.0 68.08944131312447
18500.0 65.83057299809198
19000.0 61.3802926619538
19500.0 60.06619857141149
