Freq,On Axis,Listening Window,Sound Power,Early Reflections,Early Reflections DI,Sound Power DI,DI offset
20.5078,48.10039999999999,48.12224471679447,48.571911275804595,48.32926486773327,39.7929798490612,39.550333440989874,40
21.9727,45.903000000000006,45.920434308439056,46.25615634022596,46.099168238074256,39.8212660703648,39.6642779682131,40
23.4375,48.084999999999994,48.111583546589955,48.79833635051985,48.4133035759139,39.698279970676055,39.31324719607011,40
24.9023,49.75019999999999,49.762531483641695,50.309729353175314,49.93437466155051,39.82815682209119,39.45280213046638,40
26.3672,52.15990000000001,52.17724716057948,52.77488897556681,52.394370761274374,39.78287639930511,39.40235818501267,40
27.832,55.73299999999999,55.73862708210531,56.08436534333781,55.84332272007505,39.89530436203026,39.6542617387675,40
29.2969,57.833900000000014,57.81623777814177,57.53175726612146,57.59560039981868,40.22063737832309,40.28448051202031,40
30.7617,60.53959999999999,60.524181628698514,60.31374869703565,60.33776903197479,40.18641259672373,40.210432931662865,40
32.2266,62.8488,62.83481647753753,62.65294922023699,62.665841483910995,40.168974993626534,40.18186725730054,40
33.6914,65.3214,65.30672683667632,65.11114070407606,65.13256345374283,40.174163382933486,40.195586132600255,40
35.1563,67.62840000000001,67.61670924334844,67.47991587333583,67.4721968724313,40.14451237091714,40.13679337001261,40
36.6211,70.145,70.12575537339266,69.82441607365664,69.90636710719718,40.21938826619548,40.30133929973603,40
38.0859,72.3412,72.3215945630737,71.99091347822691,72.09094106211818,40.230653500955526,40.33068108484679,40
39.5508,74.6212,74.60441482836197,74.35416234646715,74.41346333113636,40.19095149722561,40.25025248189482,40
41.0156,76.5806,76.56154256106086,76.2604005028426,76.34776030309511,40.21378225796575,40.30114205821826,40
42.4805,78.4239,78.40386744995621,78.0865044282189,78.18365894925243,40.22020850070378,40.31736302173731,40
43.9453,79.9646,79.94206879782458,79.57510376911945,79.69956570608355,40.24250309174103,40.366965028705124,40
45.4102,81.1615,81.13930604954655,80.7730371746952,80.89909579272586,40.24021025682069,40.36626887485134,40
46.875,82.01100000000001,81.9869338550813,81.57299914908327,81.72489473697168,40.26203911810963,40.41393470599803,40
48.3398,82.48470000000002,82.46344761635682,82.1128530611373,82.2331115476198,40.23033606873702,40.350594555219516,40
51.2695,82.90060000000001,82.87991694058746,82.56476620661151,82.66985455734327,40.21006238324419,40.315150733975955,40
52.7344,83.0303,83.00735325945045,82.65795099115522,82.78013234781918,40.22722091163128,40.349402268295236,40
54.1992,83.0801,83.05409859135314,82.64218840656473,82.79666073212505,40.25743785922809,40.41191018478841,40
55.6641,83.0355,83.0096971190929,82.5959716328838,82.75363280190193,40.256064317190976,40.4137254862091,40
58.5938,83.024,82.99774282225478,82.58198385732807,82.74060286887864,40.25713995337614,40.41575896492671,40
60.0586,83.0189,82.99236315576805,82.5754014107877,82.73477428391071,40.25758887185734,40.41696174498034,40
62.9883,83.0114,82.98410519841886,82.57229926492968,82.72921080227823,40.25489439614063,40.41180593348918,40
64.4531,83.0705,83.04020482559125,82.5777205579981,82.76158768847452,40.278617137116726,40.46248426759314,40
67.3828,83.0435,83.01510475465524,82.55006840062165,82.73773804084821,40.27736671380703,40.465036354033586,40
68.8477,82.9334,82.90570757885884,82.46933072583714,82.64221017725723,40.26349740160161,40.4363768530217,40
71.7773,82.7267,82.69625557051462,82.21897217020275,82.41267173765424,40.28358383286039,40.477283400311876,40
74.707,82.41170000000001,82.37932416396383,81.87008343174847,82.08081557672641,40.29850858723742,40.50924073221536,40
77.6367,82.0536,82.01977234875955,81.4810256371647,81.70806770890586,40.31170463985369,40.53874671159484,40
79.1016,82.0845,82.05038446829397,81.49205571232359,81.73046842946304,40.319916038830925,40.55832875597038,40
82.0313,82.3682,82.33915566879087,81.88456861729307,82.07033090728146,40.26882476150941,40.454587051497796,40
84.9609,82.7564,82.7262648890892,82.30867179027594,82.46986635637575,40.25639853271345,40.417593098813256,40
87.8906,83.2535,83.21939079285494,82.79407355168368,82.95382994615291,40.26556084670203,40.42531724117126,40
90.8203,83.6691,83.63045807487367,83.15166021011005,83.33792853440634,40.29252954046733,40.47879786476362,40
95.2148,84.0435,84.00037064430015,83.41935531192625,83.65950049344973,40.34087015085042,40.581015332373894,40
98.1445,84.1652,84.12048799012364,83.50890691461909,83.7665370183782,40.353950971745434,40.611581075504546,40
101.074,84.2742,84.22585346792887,83.5446340694604,83.84052225769446,40.38533121023441,40.68121939846847,40
105.469,84.36280000000001,84.31471889751388,83.57039638944877,83.90642239104007,40.40829650647382,40.74432250806511,40
108.398,84.3177,84.27213887019862,83.62453365742128,83.90592194729132,40.3662169229073,40.647605212777336,40
112.793,84.2803,84.2298609065623,83.56101685205894,83.84933350060994,40.38052740595235,40.66884405450335,40
117.188,84.1959,84.14289860867483,83.41812067734735,83.73523152868965,40.407667079985174,40.72477793132748,40
120.117,84.2229,84.16928748859661,83.45932710738963,83.76477421327174,40.404513275324874,40.70996038120698,40
124.512,84.1761,84.1235870823197,83.47478898454149,83.7419063838267,40.381680698493,40.64879809777821,40
128.906,84.0808,84.02286463726405,83.29770512661207,83.61094850005563,40.41191613720842,40.72515951065198,40
133.301,83.96319999999999,83.90086387241647,83.02006070892573,83.43231000042768,40.46855387198879,40.88080316349074,40
139.16,83.3889,83.33924792500288,82.62314815495245,82.95443628885346,40.38481163614942,40.716099770050434,40
143.555,83.10179999999998,83.0430303013187,82.32602551887766,82.65320957702075,40.38982072429795,40.71700478244104,40
147.949,82.9412,82.8861507049982,82.26207412038264,82.54158121163415,40.34456949336405,40.624076584615565,40
153.809,82.2067,82.15756316701298,81.77081008347959,81.9590161437083,40.198547023304684,40.38675308353339,40
159.668,82.0662,81.93155546877729,81.58406997797408,81.69111060861222,40.24044486016507,40.34748549080321,40
165.527,83.3745,83.23978659136444,82.03323157597491,82.56022084600112,40.67956574536332,41.206555015389526,40
171.387,83.3775,83.26499939871319,81.92931452658675,82.54012716450997,40.72487223420322,41.335684872126436,40
177.246,83.4036,83.28216322646219,81.9173075140899,82.54639708954434,40.735766136917846,41.36485571237229,40
183.105,83.4623,83.35249144882543,81.98789485766504,82.61872842053906,40.733763028286376,41.36459659116039,40
188.965,83.0834,82.97057941517608,81.58800016606413,82.22623135819163,40.74434805698445,41.38257924911194,40
196.289,83.0043,82.88915940107377,81.43756717129777,82.12789133899838,40.76126806207539,41.451592229776,40
203.613,82.5405,82.39973342944532,80.82121087819651,81.53950607274957,40.860227356695745,41.57852255124881,40
210.938,82.8074,82.67929751275868,80.64816775923254,81.66383262284019,41.01546488991849,42.031129753526145,40
218.262,82.7615,82.68345737092838,80.97156332436133,81.84496382564599,40.83849354528239,41.71189404656705,40
225.586,82.2453,82.1335891073381,80.74729091552403,81.38837435425278,40.74521475308532,41.38629819181406,40
232.91,82.356,82.20403533690265,80.43984090213185,81.26134241482106,40.94269292208159,41.7641944347708,40
241.699,82.67469999999999,82.53970317456927,80.31483742404161,81.4548351960194,41.084867978549866,42.224865750527655,40
250.488,82.4017,82.26698229008754,80.05920666251171,81.16776434932864,41.099217940758905,42.20777562757583,40
259.277,83.32,83.19255562484953,80.65235891913643,82.00302660145557,41.18952902339396,42.5401967057131,40
268.066,83.6237,83.52753826640249,81.47110933028705,82.54938434567417,40.97815392072832,42.05642893611544,40
276.855,82.95,82.82173018104034,80.72731437993403,81.81065018940353,41.011079991636805,42.09441580110631,40
287.109,83.3661,83.22450069634476,80.75840400007161,82.05692362084648,41.167577075498286,42.466096696273155,40
297.363,83.6775,83.57006704215131,81.10354830060814,82.41546521264924,41.15460182950207,42.46651874154317,40
307.617,83.4417,83.33223608472147,81.22540698723249,82.31212258021058,41.02011350451089,42.10682909748898,40
319.336,83.089,82.986140719121,80.73819687497397,81.9347558020167,41.0513849171043,42.24794384414703,40
329.59,83.1495,83.01728169818198,80.70720663765674,81.90392264252777,41.1133590556542,42.310075060525236,40
341.309,83.2877,83.17713901397461,80.77731443264777,82.03151836757753,41.14562064639708,42.39982458132684,40
353.027,83.47010000000002,83.3240247384998,80.61504513943267,82.01236026475576,41.311664473744045,42.708979599067135,40
366.211,83.3789,83.26888251773819,80.76754509808586,82.09836460999612,41.17051790774207,42.50133741965233,40
379.395,83.73709999999998,83.61767756079375,80.77709760456138,82.33970103509961,41.27797652569414,42.840579956232375,40
392.578,83.4414,83.3167708990446,80.65829573357833,82.04834319183855,41.268427707206044,42.65847516546627,40
405.762,84.2023,84.06115590426444,81.10828540525144,82.69806729164807,41.363088612616366,42.952870499013,40
420.41,84.046,83.91295651630338,81.0911590136009,82.61661450459412,41.29634201170926,42.82179750270248,40
435.059,84.3799,84.21145085710968,81.13863296396295,82.74805267808938,41.4633981790203,43.072817893146734,40
451.172,84.4216,84.29830823545387,81.29923841791016,82.94748300749177,41.350825227962105,42.99906981754371,40
465.82,84.1287,84.02936646806515,81.53378340774945,82.90751487473132,41.12185159333383,42.495583060315695,40
483.398,84.8804,84.6626377035516,81.70063088384934,83.18151969389841,41.48111800965319,42.96200681970225,40
499.512,84.2598,84.04151340161964,81.16469469238737,82.60658285205366,41.434930549565976,42.87681870923227,40
517.09,84.5894,84.35833294285077,81.01401494957098,82.62680510937149,41.73152783347928,43.34431799327979,40
536.133,84.6025,84.38669156381799,81.17861429861411,82.85566850119929,41.5310230626187,43.20807726520388,40
555.176,84.20809999999999,83.9145961267424,80.8630803726498,82.42615006293478,41.488446063807615,43.05151575409259,40
574.219,84.1677,83.96920654410687,80.5796416925844,82.38673213960108,41.58247440450579,43.389564851522465,40
594.727,83.4472,83.1763802026712,80.38888451782817,81.87257703756613,41.303803165105066,42.78749568484302,40
615.234,83.6819,83.25847145433296,79.9788174159629,81.6061806570549,41.652290797278056,43.27965403837007,40
637.207,83.0862,82.82043491368776,79.49209238826698,81.13526564705172,41.68516926663604,43.32834252542078,40
659.18,83.8333,83.48691069992981,79.80002553812398,81.62896702641505,41.857943673514754,43.68688516180583,40
682.617,84.6102,84.20174449818971,79.8824328995439,81.87868199276828,42.32306250542143,44.31931159864581,40
707.52,84.312,84.0239844286257,79.52582448238958,81.86850918019222,42.155475248433476,44.498159946236115,40
732.422,84.232,83.90862855942784,79.3526061919026,81.71223937719418,42.19638918223366,44.556022367525244,40
757.324,84.5075,84.0803994596356,79.58010104398734,81.71191739425448,42.368482065381116,44.50029841564826,40
785.156,84.3625,84.16718597523261,79.44205780179799,81.98700965520062,42.18017632003199,44.725128173434626,40
811.523,84.0858,83.7685252624126,79.28312855459727,81.68805064608343,42.08047461632917,44.485396707815326,40
840.82,84.4481,84.12147413219598,79.56502511152729,82.06193115649299,42.059542975702996,44.556449020668694,40
870.117,83.6573,83.49067692828949,79.41997319057769,81.89609414182895,41.594582786460535,44.070703737711796,40
900.879,83.52380000000001,83.29001662431742,79.55727473303516,81.83079574832405,41.45922087599337,43.73274189128226,40
933.105,83.1998,83.0306888446259,79.17256936318863,81.72989151090982,41.300797333716076,43.85811948143727,40
965.332,83.2965,83.00916794330091,78.86250725353504,81.34758468600985,41.661583257291056,44.146660689765866,40
1000.49,82.7082,82.57734479997539,78.75433297496151,81.28630323183818,41.29104156813722,43.82301182501388,40
1035.64,83.0543,82.66349476218744,78.57009541616486,81.21693248858287,41.44656227360457,44.09339934602258,40
1072.27,82.4787,82.3586160419657,78.64782869960464,81.31414895679123,41.044467085174475,43.71078734236106,40
1108.89,83.59159999999999,83.0300978052403,78.6587631335755,81.43646366735165,41.59363413788866,44.3713346716648,40
1148.44,83.2188,82.84200983357415,78.53721051569137,81.18041235618895,41.6615974773852,44.30479931788278,40
1189.45,84.711,84.04155871556084,78.96164582782673,81.87799515116687,42.16356356439397,45.07991288773411,40
1230.47,84.51370000000001,84.00296140630455,79.38582770157623,82.16709036902125,41.8358710372833,44.61713370472832,40
1274.41,84.0974,83.77131192393149,79.33662534662206,82.33122073502885,41.44009118890264,44.434686577309435,40
1319.82,84.06600000000002,83.55060245563992,79.28588414882795,82.51510528072629,41.03549717491363,44.26471830681197,40
1366.7,84.4455,84.0291571248461,79.2984286669023,82.34453021804417,41.684626906801924,44.7307284579438,40
1413.57,84.7625,84.35613829441179,79.29299234780132,82.23094907545317,42.125189218958624,45.063145946610476,40
1463.38,84.87649999999998,84.36104012178693,78.93851677996344,82.16998980003628,42.19105032175065,45.42252334182349,40
1516.11,84.7097,84.08371955719024,78.68106049914228,81.79665922756836,42.28706032962188,45.40265905804796,40
1568.85,84.1581,83.73149211666272,78.34433077126455,81.49424716165173,42.23724495501099,45.38716134539817,40
1624.51,84.5379,84.15275598612526,78.34522826237318,81.46750140144569,42.68525458467957,45.807527723752074,40
1681.64,84.9742,84.15286929506108,77.87993758455414,80.96940967500572,43.18345962005536,46.27293171050694,40
1741.7,83.9523,83.21236549746153,77.08963667547067,80.19806422619644,43.0143012712651,46.12272882199086,40
1803.22,84.57280000000002,83.80880186689927,77.62975712051256,80.65912246267904,43.14967940422024,46.17904474638671,40
1866.21,85.3441,84.75013835804559,78.28429668820148,81.53061476796647,43.21952359007912,46.46584166984411,40
1932.13,85.1247,84.51888605791959,77.82799911201963,81.12267622233048,43.396209835589104,46.69088694589996,40
1999.51,84.3396,84.03050797575389,77.36322907432859,80.74000183393139,43.290506141822505,46.667278901425306,40
2069.82,84.4054,83.78153746045535,76.8892985052166,80.34611959514787,43.435417865307485,46.89223895523875,40
2143.07,84.42569999999999,83.81506753533755,76.80039190402742,80.21326387047296,43.60180366486459,47.014675631310126,40
2219.24,83.2384,82.67315896152483,75.92420484670605,79.50105398852848,43.17210497299635,46.74895411481879,40
2296.88,82.948,82.17690284615101,75.45618992694837,78.97406693785179,43.20283590829922,46.72071291920264,40
2378.91,83.06999999999998,82.49022718810807,75.52797777256805,78.99766208384392,43.492565104264145,46.962249415540015,40
2462.4,83.2114,82.56536799055989,75.42519360512097,78.96866557772525,43.596702412834645,47.140174385438925,40
2548.83,82.75439999999999,82.16715774357719,75.28789434298305,78.68881678977068,43.47834095380651,46.87926340059414,40
2639.65,83.1205,82.6087825359997,75.71301207184091,78.98993098245697,43.618851553542726,46.89577046415879,40
2731.93,83.4535,82.88666424228097,75.83937495295807,79.30040070334333,43.586263538937644,47.047289289322904,40
2828.61,83.50069999999998,83.04446249829434,76.1760128846136,79.55332684897586,43.49113564931848,46.86844961368074,40
2928.22,83.6083,83.12777877200354,76.07288261252384,79.58490605206843,43.542872719935104,47.054896159479696,40
3030.76,83.446,83.60705037726778,76.45724209643825,79.9070450711225,43.700005306145286,47.14980828082953,40
3137.7,83.22610000000002,83.29905762970186,76.19781652542605,79.66364966235965,43.63540796734222,47.101241104275815,40
3249.02,83.5645,83.63768555196877,76.14745769181582,79.76700695469783,43.87067859727094,47.490227860152956,40
3363.28,83.6593,83.46601327333126,75.97453773727484,79.75377112595301,43.71224214737825,47.49147553605641,40
3481.93,84.5398,83.9113517729345,75.7720983236146,79.92220352311098,43.989148249823515,48.139253449319895,40
3604.98,84.0587,83.59370373007765,75.45480007012017,79.6590483960485,43.934655334029145,48.13890365995748,40
3732.42,85.1601,84.24370518179775,75.5722045622482,79.95654308065667,44.28716210114108,48.67150061954955,40
3864.26,85.0278,84.13042202393946,75.56828967924554,79.96317895107005,44.16724307286941,48.56213234469392,40
4000.49,85.8242,84.6364094881141,75.97585893962908,80.28308703753623,44.35332245057786,48.66055054848502,40
4141.11,85.7175,84.47413553094827,76.23382239881215,80.33636813865887,44.137767392289405,48.24031313213612,40
4287.6,84.6864,83.69787570612745,75.90808735621829,79.81681695999164,43.88105874613581,47.78978834990916,40
4438.48,84.3978,83.26822477267123,75.65445235887951,79.47338986959865,43.794834903072584,47.61377241379172,40
4595.21,84.9284,83.76169448945988,75.75132725381853,79.8544706462134,43.907223843246484,48.010367235641354,40
4756.35,85.6924,84.17488886270556,75.97225195978722,80.19764538036873,43.97724348233683,48.20263690291834,40
4924.8,85.27229999999999,83.90271018590488,75.84965977301295,80.0220094847603,43.880700701144576,48.053050412891935,40
5097.66,85.2932,83.53060270641343,75.43104965968142,79.7642930693409,43.76630963707254,48.09955304673201,40
5277.83,83.7991,82.02982542631057,74.56165405250995,78.69505381735702,43.334771608953545,47.468171373800615,40
5463.87,83.1295,81.54905189999582,74.61990501555341,78.50061374320168,43.048438156794134,46.9291468844424,40
5657.23,83.51440000000001,81.98851210635326,75.37650351552504,79.30040667030813,42.68810543604512,46.61200859082821,40
5856.45,83.4265,82.36338686362113,75.83402330922989,79.76319332507556,42.60019353854557,46.52936355439124,40
6062.99,84.06870000000002,83.22720516490676,75.89867845258608,80.1383277025377,43.08887746236907,47.32852671232068,40
6276.86,84.49419999999999,83.53872741361828,75.6612242669603,80.0850666799569,43.45366073366138,47.87750314665797,40
6498.05,84.182,83.12064867732833,75.15046572185872,79.41780205865687,43.70284661867146,47.97018295546961,40
6726.56,83.6311,82.8287311583593,74.94708194963731,79.26403544968603,43.56469570867327,47.881649208721996,40
6963.87,82.9207,82.47479488519623,74.83250535097142,79.06789672595421,43.40689815924202,47.642289534224815,40
7209.96,83.10539999999999,82.90478007552163,75.03362146299061,79.33395305479388,43.57082702072775,47.87115861253102,40
7464.84,84.1032,83.62617416694987,75.48519278735029,79.83795166770331,43.78822249924656,48.14098137959958,40
7727.05,83.8745,83.55042897524122,75.6561506794977,80.00816639274782,43.54226258249339,47.89427829574352,40
7999.51,82.7383,83.16833702927985,75.77995931473657,79.9191697210082,43.24916730827165,47.38837771454328,40
8282.23,80.7286,82.45998206413033,75.56836458703809,79.49452165586165,42.96546040826868,46.89161747709224,40
8573.73,80.4147,82.27677239439633,75.25610308877903,79.16324401216558,43.113528382230754,47.020669305617304,40
8876.95,81.7528,82.82853977866031,75.21289445359372,79.29999089618207,43.52854888247825,47.615645325066595,40
9188.96,82.9847,83.5131112846065,75.46172085070371,79.69379592407721,43.81931536052929,48.05139043390278,40
9514.16,83.3385,83.61728828740557,75.60390463787064,79.84104248987924,43.77624579752633,48.01338364953493,40
9849.61,82.7477,83.44103205971882,75.7162928399371,79.8662833246201,43.57474873509872,47.724739219781725,40
10196.8,81.8999,82.91935304224273,75.54700272386432,79.68352865894481,43.235824383297924,47.37235031837841,40
10555.7,79.98439999999998,81.68084322762937,75.00516816256905,79.0357150159645,42.64512821166487,46.67567506506032,40
10927.7,78.8489,80.59671984648952,74.42964488103708,78.30143393424392,42.2952859122456,46.16707496545244,40
11313.0,81.26020000000001,80.72586553415056,73.99695308193462,77.86302445899999,42.86284107515057,46.72891245221594,40
11712.9,82.87169999999999,80.98876407490754,73.18234073950175,77.16151929142724,43.827244783480296,47.80642333540578,40
12126.0,82.2775,80.13569141754557,72.03424410662227,76.14115498753408,43.99453643001149,48.101447310923305,40
