Freq "Sound Power"
20.5078 48.57191127580458
21.9727 46.25615634022594
23.4375 48.79833635051986
24.9023 50.3097293531753
26.3672 52.774888975566796
27.832 56.084365343337794
29.2969 57.531757266121474
30.7617 60.31374869703566
32.2266 62.652949220237005
33.6914 65.11114070407608
35.1563 67.47991587333584
36.6211 69.82441607365664
38.0859 71.9909134782269
39.5508 74.35416234646715
41.0156 76.2604005028426
42.4805 78.08650442821889
43.9453 79.57510376911944
45.4102 80.7730371746952
46.875 81.57299914908327
48.3398 82.11285306113732
51.2695 82.5647662066115
52.7344 82.65795099115522
54.1992 82.64218840656474
55.6641 82.59597163288379
58.5938 82.58198385732807
60.0586 82.57540141078772
62.9883 82.57229926492968
64.4531 82.5777205579981
67.3828 82.55006840062165
68.8477 82.46933072583712
71.7773 82.21897217020273
74.707 81.87008343174848
77.6367 81.4810256371647
79.1016 81.49205571232359
82.0313 81.88456861729307
84.9609 82.30867179027594
87.8906 82.7940735516837
90.8203 83.15166021011005
95.2148 83.41935531192625
98.1445 83.50890691461909
101.074 83.5446340694604
105.469 83.57039638944877
108.398 83.6245336574213
112.793 83.56101685205894
117.188 83.41812067734733
120.117 83.45932710738961
124.512 83.47478898454149
128.906 83.29770512661207
133.301 83.02006070892571
139.16 82.62314815495245
143.555 82.32602551887766
147.949 82.26207412038264
153.809 81.77081008347957
159.668 81.58406997797408
165.527 82.03323157597491
171.387 81.92931452658675
177.246 81.9173075140899
183.105 81.98789485766505
188.965 81.58800016606413
196.289 81.43756717129779
203.613 80.82121087819651
210.938 80.64816775923254
218.262 80.97156332436131
225.586 80.74729091552405
232.91 80.43984090213183
241.699 80.3148374240416
250.488 80.05920666251173
259.277 80.65235891913642
268.066 81.47110933028705
276.855 80.72731437993403
287.109 80.75840400007161
297.363 81.10354830060815
307.617 81.22540698723249
319.336 80.73819687497397
329.59 80.70720663765675
341.309 80.77731443264777
353.027 80.61504513943265
366.211 80.76754509808586
379.395 80.77709760456138
392.578 80.65829573357833
405.762 81.10828540525144
420.41 81.0911590136009
435.059 81.13863296396295
451.172 81.29923841791017
465.82 81.53378340774945
483.398 81.70063088384933
499.512 81.16469469238737
517.09 81.01401494957098
536.133 81.17861429861412
555.176 80.8630803726498
574.219 80.57964169258442
594.727 80.38888451782817
615.234 79.97881741596291
637.207 79.492092388267
659.18 79.80002553812398
682.617 79.8824328995439
707.52 79.52582448238958
732.422 79.3526061919026
757.324 79.58010104398734
785.156 79.442057801798
811.523 79.28312855459725
840.82 79.56502511152729
870.117 79.4199731905777
900.879 79.55727473303517
933.105 79.17256936318861
965.332 78.86250725353503
1000.49 78.75433297496151
1035.64 78.57009541616486
1072.27 78.64782869960464
1108.89 78.65876313357549
1148.44 78.53721051569136
1189.45 78.96164582782671
1230.47 79.38582770157623
1274.41 79.33662534662207
1319.82 79.28588414882793
1366.7 79.2984286669023
1413.57 79.29299234780132
1463.38 78.93851677996344
1516.11 78.68106049914228
1568.85 78.34433077126455
1624.51 78.34522826237318
1681.64 77.87993758455414
1741.7 77.08963667547067
1803.22 77.62975712051258
1866.21 78.28429668820147
1932.13 77.82799911201963
1999.51 77.36322907432859
2069.82 76.8892985052166
2143.07 76.8003919040274
2219.24 75.92420484670605
2296.88 75.45618992694837
2378.91 75.52797777256805
2462.4 75.42519360512098
2548.83 75.28789434298305
2639.65 75.7130120718409
2731.93 75.83937495295807
2828.61 76.1760128846136
2928.22 76.07288261252384
3030.76 76.45724209643825
3137.7 76.19781652542605
3249.02 76.14745769181582
3363.28 75.97453773727483
3481.93 75.77209832361459
3604.98 75.45480007012017
3732.42 75.57220456224822
3864.26 75.56828967924554
4000.49 75.97585893962908
4141.11 76.23382239881215
4287.6 75.90808735621829
4438.48 75.65445235887951
4595.21 75.75132725381854
4756.35 75.97225195978723
4924.8 75.84965977301295
5097.66 75.43104965968142
5277.83 74.56165405250995
5463.87 74.61990501555341
5657.23 75.37650351552503
5856.45 75.83402330922989
6062.99 75.89867845258607
6276.86 75.66122426696029
6498.05 75.15046572185872
6726.56 74.94708194963732
6963.87 74.83250535097142
7209.96 75.03362146299061
7464.84 75.48519278735029
7727.05 75.6561506794977
7999.51 75.77995931473657
8282.23 75.56836458703809
8573.73 75.25610308877903
8876.95 75.21289445359373
9188.96 75.46172085070373
9514.16 75.60390463787066
9849.61 75.7162928399371
10196.8 75.54700272386434
10555.7 75.00516816256906
10927.7 74.42964488103709
11313.0 73.99695308193463
11712.9 73.18234073950175
12126.0 72.03424410662225
12553.7 71.03538423637647
12996.1 70.15363764028297
13454.6 69.83532965780148
13929.2 71.20033314582663
14419.9 73.20346939693832
14928.2 74.6377648654083
15455.6 75.3653635283729
16000.5 75.79233856173403
16564.5 76.02592869993614
17148.9 76.14986714076701
17752.4 76.00996020419525
18379.4 75.7510083021233
19026.9 75.08451924217434
19697.8 74.16727174804878
19999.5 73.84039474493053
