Freq "Ceiling Bounce"
23.6 72.51769279461269
24.3 72.58086766100968
25.0 72.64231459647084
25.8 72.71047099816218
26.5 72.76844199119267
27.2 72.82490699335958
28.0 72.88769347761686
29.0 72.9637681723676
30.0 73.05289610922964
30.7 73.11811835518648
31.5 73.19090441823656
32.5 73.27932890522155
33.5 73.3651402549776
34.5 73.44847053580403
35.5 73.53526080295677
36.5 73.63052147712776
37.5 73.7232559320023
38.7 73.83134446498397
40.0 73.94482183894388
41.2 74.04871846767347
42.5 74.17156138649926
43.7 74.28174613090147
45.0 74.39775909445333
46.2 74.50199265617746
47.5 74.61777624585918
48.7 74.72772020838778
50.0 74.84389563150054
51.5 74.97423002032139
53.0 75.10283956087065
54.5 75.23674991661608
56.0 75.36702697670361
58.0 75.53546768956946
60.0 75.70637417440904
61.5 75.83343546960984
63.0 75.95744760726237
65.0 76.12101386195336
67.0 76.28669053865111
69.0 76.44751068410162
71.0 76.6068632609423
73.0 76.76751168820687
75.0 76.92385404645883
77.5 77.11919136030752
80.0 77.31324107926861
82.5 77.50346373452311
85.0 77.69658540665782
87.5 77.88417071517239
90.0 78.07587539863263
92.5 78.26409807127114
95.0 78.45323100538637
97.5 78.6433030195134
100.0 78.83058141706755
103.0 79.06171931467959
106.0 79.28906575347366
109.0 79.52289038109241
112.0 79.7540708678588
115.0 79.99154175573096
118.0 80.22741857880611
122.0 80.54846678486439
125.0 80.79305020478238
128.0 81.03745169287927
132.0 81.37078284233371
136.0 81.70506056780928
140.0 82.04332030586544
145.0 82.4730007969726
150.0 82.90575394164237
155.0 83.34048170802498
160.0 83.77596672365377
165.0 84.21105048187778
170.0 84.64448322619592
175.0 85.07666587241587
180.0 85.50439482526741
185.0 85.9266830424335
190.0 86.34258054664036
195.0 86.7514238391862
200.0 87.15255630666597
206.0 87.62292913579776
212.0 88.08033752877684
218.0 88.52406807238668
224.0 88.95354760936104
230.0 89.36851924876399
236.0 89.76878271744926
243.0 90.21683784790915
250.0 90.64490140654797
258.0 91.1101763206352
265.0 91.49512403862352
272.0 91.86090815508325
280.0 92.25635210207491
290.0 92.71647334253387
300.0 93.14132218504703
307.0 93.41783862570153
315.0 93.71463044700283
325.0 94.05695599087156
335.0 94.37015892020833
345.0 94.65517405572378
355.0 94.91348491697174
365.0 95.14772556454824
375.0 95.35945610169684
387.0 95.58453504946519
400.0 95.79588679372883
412.0 95.96388499135605
425.0 96.11849765267068
437.0 96.23770391899353
450.0 96.3433129952009
462.0 96.42030311302408
475.0 96.48306976508485
487.0 96.5232192609825
500.0 96.54906149006601
515.0 96.55918896523296
530.0 96.55077172548609
545.0 96.52861622498322
560.0 96.49657376676342
580.0 96.4477430728712
600.0 96.40161934819254
615.0 96.37354589838196
630.0 96.3530180576649
650.0 96.33509819069101
670.0 96.31983392255435
690.0 96.29283903938418
710.0 96.23598754430161
730.0 96.13124536647304
750.0 95.9658087014975
775.0 95.66103424057539
800.0 95.26105084744408
825.0 94.81260622409367
850.0 94.40668085324192
875.0 94.15149361122069
900.0 94.12706428861468
925.0 94.32800117321261
950.0 94.66563405419352
975.0 95.02002592255457
1000.0 95.29496752027322
1030.0 95.4420546760484
1060.0 95.35998007094625
1090.0 95.06578892760604
1120.0 94.61185396254018
1150.0 94.07121257208019
1180.0 93.51418886282275
1220.0 92.83120585406031
1250.0 92.41659887909533
1280.0 92.16853482966316
1320.0 92.30225797625863
1360.0 93.05891536377608
1400.0 94.12018831517315
1450.0 95.19254232114787
1500.0 95.57519227258042
1550.0 95.30909695419167
1600.0 94.92872788930643
1650.0 95.1328868971982
1700.0 95.8075922306466
1750.0 96.243655995237
1800.0 96.09732732107538
1850.0 95.58795525614892
1900.0 95.32182886236788
1950.0 95.57055012445467
2000.0 95.91637106722024
2060.0 96.09792889651679
2120.0 96.51479291436857
2180.0 97.44954461565223
2240.0 98.21771800645067
2300.0 98.43685899845661
2360.0 98.50116106840102
2430.0 98.89034719756053
2500.0 99.04644174963326
2580.0 98.59584076307334
2650.0 98.61344072679972
2720.0 98.81371186357045
2800.0 98.11711699162498
2900.0 97.8775893688912
3000.0 98.18280677865133
3070.0 97.35397525805256
3150.0 97.61895852695426
3250.0 98.1669767910133
3350.0 97.18375389709315
3450.0 98.2391027531166
3550.0 98.25220351653479
3650.0 99.74819240473181
3750.0 101.04131633973964
3870.0 101.72777753367284
4000.0 102.03388784993604
4120.0 101.44747149980567
4250.0 100.8680122049657
4370.0 100.0645475299068
4500.0 99.79448984349352
4620.0 99.53763509455251
4750.0 99.90547361790485
4870.0 99.41311450606476
5000.0 99.48224567493716
5150.0 99.70799285809048
5300.0 100.07624418495718
5450.0 100.95871587131018
5600.0 101.01127947633378
5800.0 100.88621277114967
6000.0 100.94762698578879
6150.0 101.36183587751424
6300.0 100.66101469880772
6500.0 101.5830153363011
6700.0 103.0782414435935
6900.0 103.3469318651138
7100.0 102.45339683112013
7300.0 101.29206543293014
7500.0 100.7807644909478
7750.0 99.78228313857554
8000.0 98.22608494396448
8250.0 97.58208072309574
8500.0 97.52703938723354
8750.0 96.54936184714485
9000.0 95.81351011761066
9250.0 96.2629235056159
9500.0 96.77986133028101
9750.0 96.23806630111659
10000.0 96.85098319081791
10300.0 98.30292767460152
10600.0 98.52309899904115
10900.0 99.13439107826109
11200.0 99.38390617953011
11500.0 98.9903396177404
11800.0 99.36957617522539
12200.0 99.36947287141606
12500.0 99.16691595112013
12800.0 99.49088962153374
13200.0 99.5435728522714
13600.0 99.5723203104927
14000.0 100.1397578473714
14500.0 99.71093431918166
15000.0 100.49253647925191
15500.0 100.21074636159042
16000.0 99.42075396668886
16500.0 97.91826185643059
17000.0 97.12322041672495
17500.0 97.3867824189462
18000.0 97.56323645594593
18500.0 96.77811748004345
19000.0 94.80392350607173
19500.0 92.92937637026506
