Freq "Side Wall Bounce"
23.6 71.10544043072285
24.3 71.2235088005491
25.0 71.33834437335783
25.8 71.46583594233556
26.5 71.5743132962603
27.2 71.68000452639207
28.0 71.7976427959841
29.0 71.94024295336432
30.0 72.09664124464193
30.7 72.20852018675075
31.5 72.33344616510371
32.5 72.48529255788006
33.5 72.63267390503775
34.5 72.77582648486552
35.5 72.9208237714189
36.5 73.07278467983627
37.5 73.22075294482512
38.7 73.3932782228762
40.0 73.57441319555231
41.2 73.73857048580994
42.5 73.92307865406202
43.7 74.08857386438848
45.0 74.26287072365194
46.2 74.41944578544621
47.5 74.58919857277075
48.7 74.74639098592931
50.0 74.91243988352703
51.5 75.09882149089533
53.0 75.2813222902093
54.5 75.46514268892624
56.0 75.64400902530494
58.0 75.87534002242823
60.0 76.10443836547509
61.5 76.27311097206321
63.0 76.43781209140711
65.0 76.65331613213108
67.0 76.86710219925885
69.0 77.07474978887201
71.0 77.27867688484788
73.0 77.48095506132918
75.0 77.67791068210421
77.5 77.92102053049268
80.0 78.16012383881457
82.5 78.39351615042118
85.0 78.62659155615171
87.5 78.85302934310083
90.0 79.08051062042568
92.5 79.30326234663033
95.0 79.52488531033077
97.5 79.74547650054437
100.0 79.96226224919918
103.0 80.2255820478642
106.0 80.48375572626365
109.0 80.74532058978585
112.0 81.0028581093889
115.0 81.26390956930005
118.0 81.52205099777959
122.0 81.86925642770883
125.0 82.13107865262263
128.0 82.39141224396761
132.0 82.74269844942559
136.0 83.09264921692333
140.0 83.44388835974777
145.0 83.88599721061027
150.0 84.32794729439445
155.0 84.76908832155976
160.0 85.20862190718104
165.0 85.64569098498662
170.0 86.0795320082778
175.0 86.5104696854187
180.0 86.93613887706172
185.0 87.3555353269863
190.0 87.76808755841648
195.0 88.17323372883399
200.0 88.57047299549511
206.0 89.03607613144787
212.0 89.48871129274715
218.0 89.92776113839659
224.0 90.35282475616135
230.0 90.7635423796439
236.0 91.15974099923712
243.0 91.60328112056864
250.0 92.02698735954753
258.0 92.48729653904527
265.0 92.86784043795839
272.0 93.22908830784436
280.0 93.61897921287841
290.0 94.07122819407378
300.0 94.48695733578944
307.0 94.75604683792974
315.0 95.0433100619123
325.0 95.37171878162694
335.0 95.66878433738829
345.0 95.9351350703615
355.0 96.17214251534843
365.0 96.38276271317964
375.0 96.56873007741675
387.0 96.76026279244196
400.0 96.93335301572277
412.0 97.06564458262869
425.0 97.18290583607954
437.0 97.27091818993051
450.0 97.34853711852388
462.0 97.40710617181497
475.0 97.4602568810469
487.0 97.50264433315188
500.0 97.54397896613757
515.0 97.58845851194103
530.0 97.63092667486585
545.0 97.6716233265155
560.0 97.7090403220523
580.0 97.74956652592952
600.0 97.77128015514705
615.0 97.77064727999228
630.0 97.75083414436035
650.0 97.69197802188258
670.0 97.59176987141204
690.0 97.45190714256039
710.0 97.27664454386648
730.0 97.0745266245234
750.0 96.85760138115431
775.0 96.5857770274822
800.0 96.33804331359651
825.0 96.1360278128239
850.0 95.99586800529327
875.0 95.92301245248854
900.0 95.92041419617473
925.0 95.98602325980266
950.0 96.11262264955036
975.0 96.28482926100459
1000.0 96.4792750780641
1030.0 96.70251424571612
1060.0 96.86920385719067
1090.0 96.94002151913192
1120.0 96.88900311221802
1150.0 96.70386004711077
1180.0 96.380499005404
1220.0 95.7374891189211
1250.0 95.10894640946508
1280.0 94.39443002424463
1320.0 93.47524665266924
1360.0 92.96929895808398
1400.0 93.1950770590624
1450.0 94.15967990322281
1500.0 95.06579356987775
1550.0 95.5048053834537
1600.0 95.52055627280666
1650.0 95.38216779724266
1700.0 95.41416741809549
1750.0 95.76744591662792
1800.0 96.32496599606546
1850.0 96.87569324207615
1900.0 97.2950784990711
1950.0 97.5738333738935
2000.0 97.75105996637073
2060.0 97.86962984102225
2120.0 97.94542655126094
2180.0 98.07388093045749
2240.0 98.21045247236967
2300.0 98.22246575392819
2360.0 98.23581054086121
2430.0 98.52581405635527
2500.0 98.76380352494677
2580.0 98.6990986604847
2650.0 98.76467224686238
2720.0 98.83632713108355
2800.0 99.07011662791341
2900.0 100.12254449934952
3000.0 100.64350974490077
3070.0 100.99360871693979
3150.0 101.3246843981834
3250.0 101.43699108627322
3350.0 101.80081496709457
3450.0 102.21924082053818
3550.0 102.7904391984395
3650.0 103.26648935729713
3750.0 104.00688546412037
3870.0 104.42143869628126
4000.0 104.62543509641303
4120.0 104.0938292283275
4250.0 103.33049322846581
4370.0 102.29591567155929
4500.0 101.54340174291868
4620.0 101.44981407914717
4750.0 101.06406054648266
4870.0 100.59225388279933
5000.0 99.81374511075026
5150.0 99.69148173821411
5300.0 100.07353360138362
5450.0 100.55684963544772
5600.0 100.87836880371115
5800.0 100.69865379001605
6000.0 100.44276544367548
6150.0 100.3715930864096
6300.0 100.01022796989373
6500.0 100.25640698621501
6700.0 101.06501239673206
6900.0 101.1156267576012
7100.0 100.36364592934392
7300.0 99.27677587519403
7500.0 98.84042824987988
7750.0 97.89350147667106
8000.0 96.36363629049815
8250.0 95.84051656073946
8500.0 96.4541735262273
8750.0 96.07805189184758
9000.0 95.39783014530526
9250.0 95.82741818113072
9500.0 96.21471127250095
9750.0 95.64803114809516
10000.0 95.96282463240424
10300.0 96.87121489088405
10600.0 96.78211301256356
10900.0 97.42023620941909
11200.0 97.7624269564521
11500.0 97.47586764465082
11800.0 97.69963018391678
12200.0 97.85954029554698
12500.0 97.62996088288128
12800.0 97.72680510361893
13200.0 97.71550296785686
13600.0 97.64473418154488
14000.0 98.4569265687261
14500.0 97.9765095328024
15000.0 98.31780795455369
15500.0 97.4793331251348
16000.0 97.28308829912261
16500.0 96.61158937269336
17000.0 95.82194768510819
17500.0 94.8535390705195
18000.0 93.90394897865575
18500.0 92.86004762062483
19000.0 91.03740799638523
19500.0 89.36544082260639
