Freq,On Axis,Listening Window,Sound Power,Early Reflections,Early Reflections DI,Sound Power DI,DI offset
22.4,37.60000000000001,37.54472895057721,36.7940975647946,37.14850796449649,30.39622098608072,30.75063138578261,30
23.0,38.2,38.17823306508389,37.43365038929208,37.776547582019404,30.401685483064483,30.744582675791804,30
23.6,38.89999999999999,38.80051167804048,38.043704117159834,38.39877786082063,30.40173381721985,30.756807560880645,30
24.0,39.999999999999986,39.922931102480604,39.15268730451383,39.512664736332155,30.41026636614845,30.77024379796677,30
25.0,44.7,44.656098038135255,43.88639731552543,44.242304320104935,30.41379371803032,30.769700722609826,30
25.8,47.60000000000001,47.50051167804047,46.73183579630371,47.09301003529872,30.40750164274175,30.768675881736755,30
26.5,49.39999999999999,49.32293110248064,48.545946180809565,48.905113303247944,30.417817799232694,30.776984921671072,30
27.2,51.500000000000014,51.45609803813525,50.65067725045496,51.021549881829046,30.434548156306207,30.80542078768029,30
28.0,54.39999999999999,54.28951489542682,53.50614573248781,53.86037887544644,30.429136019980376,30.78336916293901,30
29.0,56.2,56.17823306508389,55.38071604137035,55.74530146826815,30.432931596815735,30.79751702371354,30
30.0,57.7,57.67823306508389,56.88751735095157,57.25184823886234,30.42638482622155,30.79071571413232,30
30.7,59.89999999999999,59.856098038135244,59.04363931289629,59.41966077965451,30.436437258480737,30.812458725238955,30
31.5,61.60000000000001,61.52293110248064,60.73283044933841,61.099353891212886,30.423577211267755,30.790100653142233,30
32.5,63.2,63.122931102480635,62.29631999966476,62.67669299905815,30.446238103422488,30.826611102815875,30
33.5,66.4,66.37823306508388,65.5485960990468,65.93181707068707,30.4464159943968,30.82963696603707,30
34.5,68.6,68.5782330650839,67.75078970153284,68.13181707068708,30.446415994396816,30.827443363551055,30
35.5,70.40000000000002,70.35609803813526,69.52504371251484,69.91068669207152,30.445411346063736,30.831054325620414,30
36.5,72.5,72.40051167804047,71.55981412287507,71.9528204173205,30.447691260719978,30.840697555165406,30
37.5,74.00000000000001,73.90051167804047,73.04424971896974,73.43207609963713,30.468435578403344,30.856261959070736,30
38.7,75.3,75.25609803813525,74.40223492823547,74.80319782188252,30.45290021625273,30.853863109899777,30
40.0,76.59999999999998,76.50051167804048,75.62912091964257,76.0304626049897,30.470049073050788,30.871390758397908,30
41.2,77.5,77.4343573213356,76.55860219280925,76.9538320736069,30.480525247728693,30.87575512852635,30
42.5,78.2,78.1343573213356,77.23214823161598,77.6468234792924,30.487533842043206,30.90220908971962,30
43.7,78.7,78.65609803813524,77.76578758503551,78.1683054797543,30.487792558380946,30.89031045309973,30
45.0,78.8,78.73435732133558,77.8196522993002,78.24290982098529,30.49144750035029,30.914705022035378,30
46.2,78.8,78.72293110248063,77.77278412291155,78.2067634465618,30.516167655918835,30.950146979569084,30
47.5,79.00000000000001,78.88951489542683,77.92884006747626,78.36649667616918,30.52301821925765,30.96067482795057,30
48.7,79.2,79.12293110248063,78.13664731589115,78.57302791063894,30.549903191841693,30.986283786589482,30
50.0,79.2,79.15660314969003,78.18948647289089,78.63507689280091,30.521526256889118,30.967116676799137,30
51.5,79.3,79.167941235565,78.18211356019017,78.6367285161353,30.53121271942969,30.98582767537482,30
53.0,79.39999999999999,79.33435732133559,78.30077896836848,78.76666509961574,30.567692221719852,31.033578352967112,30
54.5,79.5,79.43435732133558,78.4061704967301,78.88108523785084,30.553272083484742,31.028186824605484,30
56.0,79.39999999999999,79.33435732133559,78.30801679604572,78.78108523785085,30.553272083484742,31.026340525289868,30
58.0,79.6,79.5015232095018,78.39543054492235,78.89076909108111,30.610754118420687,31.10609266457945,30
60.0,79.9,79.83435732133559,78.71205505712864,79.22952226719029,30.604835054145298,31.12230226420695,30
61.5,80.40000000000002,80.3130058166541,79.15218643777395,79.68143372319642,30.631572093457677,31.16081937888015,30
63.0,80.7,80.6343573213356,79.45757221582822,79.99789544108457,30.636461880251034,31.176785105507378,30
65.0,80.9,80.74575355685862,79.55448324558571,80.10612571288179,30.639627843976825,31.191270311272902,30
67.0,81.3,81.1568615655304,79.90849071262328,80.48121652648543,30.67564503904498,31.24837085290713,30
69.0,81.59999999999998,81.51300581665409,80.21993770470898,80.81915622621258,30.693849590441502,31.293068111945104,30
71.0,81.8,81.7130058166541,80.37200020927654,80.98843464722702,30.72457116942708,31.341005607377568,30
73.0,82.0,81.85837672536981,80.49348789981342,81.13319866736047,30.725178058009334,31.364888825556392,30
75.0,82.4,82.22445814420118,80.81787292332109,81.47014594999173,30.754312194209447,31.40658522088009,30
77.5,82.60000000000001,82.5130058166541,81.03737067182517,81.71754348773435,30.795462328919754,31.475635144828928,30
80.0,82.60000000000001,82.49203842311863,80.97616604464692,81.69006358327032,30.801974839848313,31.515872378471713,30
82.5,82.4,82.22445814420118,80.65964744352556,81.40214379126813,30.82231435293305,31.564810700675622,30
85.0,81.89999999999999,81.7699738260637,80.13989178981593,80.91334704346443,30.856626782599278,31.63008203624777,30
87.5,82.1,81.90354610191521,80.21503031917618,81.01334195047058,30.890204151444635,31.68851578273903,30
90.0,81.89999999999999,81.70354610191524,79.94977581059355,80.78440404990484,30.9191420520104,31.753770291321686,30
92.5,82.4,82.18154004111531,80.34287983101633,81.2071793305284,30.974360710586907,31.83866021009898,30
95.0,82.4,82.18154004111531,80.28733873394707,81.18738834391618,30.99415169719913,31.894201307168245,30
97.5,82.3,82.14928032556396,80.16171106968514,81.10596769330277,31.04331263226119,31.987569255878824,30
100.0,82.3,82.08154004111532,80.04955844871118,81.04207026926791,31.039469771847408,32.03198159240414,30
103.0,82.1,81.86090170960878,79.72084829502124,80.75651606319981,31.10438564640897,32.14005341458754,30
106.0,82.4,82.16090170960878,79.9632482323792,81.04629050114227,31.114611208466513,32.19765347722958,30
109.0,82.2,81.96090170960878,79.64288987635112,80.78227969366392,31.178622015944853,32.31801183325766,30
112.0,82.3,82.06090170960877,79.67489646254634,80.863886928522,31.197014781086764,32.38600524706243,30
115.0,81.89999999999999,81.70708482926709,79.2298158543362,80.46569783516034,31.241386994106747,32.477268974930894,30
118.0,82.2,82.00708482926707,79.41933343198913,80.71121883472695,31.295865994540122,32.58775139727794,30
122.0,82.1,81.84063796503013,79.16333243780831,80.52020215718143,31.320435807848696,32.67730552722182,30
125.0,82.3,82.06390198076042,79.33750505533166,80.72045740743279,31.34344457332763,32.72639692542876,30
128.0,82.4,82.15255333093842,79.31681892289916,80.77566974935138,31.376883581587037,32.83573440803926,30
132.0,82.60000000000001,82.29882484139397,79.36203307133061,80.87130320205223,31.427521639341734,32.93679177006335,30
136.0,82.5,82.20979810524182,79.20031248614099,80.7788378169654,31.43096028827641,33.00948561910083,30
140.0,82.7,82.39882484139397,79.27919303633813,80.90467499413745,31.494149847256523,33.119631805055846,30
145.0,82.60000000000001,82.38703592431402,79.18572908725861,80.86787317875793,31.519162745556088,33.20130683705541,30
150.0,82.3,81.99882484139398,78.74436462832072,80.48966685827169,31.509157983122293,33.25446021307326,30
155.0,82.2,81.89882484139399,78.54636928738569,80.34374917434425,31.555075667049735,33.3524555540083,30
160.0,82.3,81.97919595457635,78.55370006205725,80.39089597311265,31.588299981463706,33.42549589251911,30
165.0,82.3,82.05428397977325,78.38029758279244,80.39728957628405,31.656994403489193,33.67398639698081,30
170.0,82.2,81.99590761277828,77.92233634778,80.22345686853342,31.772450744244864,34.07357126499828,30
175.0,81.2,81.1624706524621,77.21676016817537,79.43456168775953,31.72790896470258,33.945710484286735,30
180.0,80.3,80.23311965101563,76.50449203171875,78.62886877997337,31.604250871042254,33.72862761929687,30
185.0,80.0,79.90267599523091,76.3265750121861,78.34199126715771,31.5606847280732,33.57610098304481,30
190.0,79.09999999999998,79.0179655832642,75.60443515462616,77.52521511695043,31.492750466313765,33.41353042863804,30
195.0,78.7,78.57204418685319,75.06697872766408,77.00507442921659,31.5669697576366,33.50506545918911,30
200.0,78.8,78.59832550908882,75.00201434704424,76.9912016641814,31.60712384490742,33.596311162044586,30
206.0,78.6,78.35582529008349,74.70479214435291,76.68728655701783,31.66853873306566,33.65103314573058,30
212.0,78.2,77.91705666062272,74.1122645564344,76.11178798669164,31.80526867393108,33.80479210418832,30
218.0,77.7,77.4117638082116,73.57454225130347,75.55607635673184,31.855687451479767,33.83722155690813,30
224.0,77.3,76.91922833094726,73.04921486797579,75.02592475074704,31.893303580200225,33.87001346297147,30
230.0,76.59999999999998,76.32581041230486,72.47552795146028,74.43952702157095,31.886283390733908,33.85028246084458,30
236.0,75.9,75.55905198389748,71.85256780699936,73.78280403313313,31.776247950764343,33.706484176898115,30
240.0,75.8,75.28494293635545,71.35665551329454,73.41807466058545,31.866868275770003,33.92828742306091,30
250.0,75.8,75.24022497636946,70.91427254427406,73.24820241725017,31.99202255911929,34.325952432095406,30
258.0,75.9,75.35217159955026,70.69462426778112,73.25629152353734,32.09588007601292,34.65754733176914,30
265.0,76.0,75.46442913556474,70.57700010642624,73.298824630061,32.16560450550374,34.8874290291385,30
272.0,75.7,75.24046340189305,70.19794359341309,73.05856453747312,32.181898864419935,35.042519808479966,30
280.0,75.6,75.07647412216757,69.83599177665677,72.85401801978345,32.222456102384115,35.2404823455108,30
290.0,75.40000000000002,74.94602271090103,69.80264773807312,72.83162190331919,32.114400807581845,35.143374972827914,30
300.0,76.0,75.33351675418947,70.05096619925672,73.07834236952782,32.25517438466166,35.282550554932754,30
307.0,76.59999999999998,75.91747642597639,70.26597836311974,73.41340316445252,32.50407326152387,35.651498062856646,30
315.0,76.4,75.88694534573126,70.21639815718551,73.37468000592635,32.51226533980491,35.670547188545754,30
325.0,75.9,75.60203710838739,70.34730495328091,73.36105371902705,32.24098338936034,35.25473215510648,30
335.0,75.3,75.20756991083266,70.64938938795518,73.46140345924364,31.74616645158902,34.55818052287748,30
345.0,74.09999999999998,74.50047300617129,71.42493409365208,73.80817858237809,30.6922944237932,33.07553891251921,30
355.0,73.3,74.06159646236306,71.9828465675859,74.07254424735177,29.989052215011284,32.07874989477716,30
365.0,72.90000000000002,73.37681555432046,71.16808281701638,73.0882084062845,30.288607148035965,32.208732737304075,30
375.0,72.1,72.29386980776546,69.20689595400297,71.09876103083015,31.195108776935314,33.08697385376249,30
387.0,70.40000000000002,70.67930535538595,67.40955526519937,69.19347286865131,31.485832486734637,33.26975009018658,30
400.0,70.6,70.52021910916228,66.35394878772317,68.52767308459133,31.992546024570956,34.166270321439114,30
412.0,71.3,70.8867020878139,65.68743140498087,68.6263129135392,32.26038917427471,35.19927068283303,30
425.0,70.3,69.85899215161218,64.4735067204994,67.84207703000212,32.01691512161007,35.385485431112784,30
437.0,68.5,68.10836058704282,62.84265616353433,66.32050646378887,31.78785412325395,35.265704423508495,30
450.0,67.1,66.80842832807774,61.5381645763501,65.05208818690534,31.7563401411724,35.27026375172764,30
462.0,67.0,66.53042913335194,61.139646915412044,64.73066332330238,31.799765810049564,35.3907822179399,30
475.0,67.2,66.7144695952437,61.105142921413616,64.8198568779167,31.894612717326993,35.60932667383008,30
487.0,67.2,66.6730542943364,61.007516316291444,64.78611326571138,31.886941028625017,35.66553797804495,30
500.0,67.4,66.67944961645215,60.89704617433715,64.62968568619304,32.049763930259104,35.782403442115,30
515.0,67.7,66.83576411414892,60.744697247556545,64.44420128620801,32.3915628279409,36.09106686659237,30
530.0,67.90000000000002,67.04334283938245,60.666301378424635,64.32757316891475,32.715769670467694,36.37704146095781,30
545.0,67.8,66.92642153325188,60.36086881788226,64.04935816325332,32.87706336999857,36.56555271536962,30
560.0,67.2,66.42740543350196,59.701289924427456,63.36432841015103,33.06307702335093,36.7261155090745,30
580.0,66.7,65.83793174931672,59.08149147525573,62.64551794739175,33.19241380192497,36.75644027406099,30
600.0,66.2,65.27087017093925,58.516174749022795,61.90889433855706,33.361975832382186,36.75469542191645,30
615.0,65.7,64.82412331193531,58.02618153076561,61.23721648595479,33.58690682598052,36.7979417811697,30
630.0,65.0,64.25754237479003,57.60541435342334,60.59427853459111,33.66326384019892,36.65212802136669,30
650.0,63.89999999999999,63.32849586785102,56.98809204820695,59.807388433309214,33.521107434541804,36.34040381964407,30
670.0,62.39999999999999,62.16540073986599,56.19444441351153,58.87588984512675,33.28951089473924,35.970956326354454,30
690.0,61.2,61.29033169573488,55.341598934782056,57.99638249339685,33.29394920233803,35.94873276095282,30
710.0,60.499999999999986,60.79676708771953,54.642463520514724,57.402258131507566,33.394508956211965,36.154303567204806,30
730.0,60.499999999999986,60.50392159206778,53.993304811752964,56.85835119630012,33.64557039576766,36.51061678031482,30
750.0,60.60000000000001,60.17319983906347,53.25704415154132,56.29966259530093,33.87353724376254,36.91615568752215,30
775.0,60.10000000000001,59.52611027665547,52.35668834265056,55.6179732468335,33.90813702982197,37.169421934004916,30
800.0,59.5,58.855630352317675,51.50944915134059,54.92930292330297,33.926327429014705,37.346181200977085,30
825.0,58.89999999999999,58.08271258694646,50.64002975941359,54.07503461117017,34.00767797577629,37.44268282753286,30
850.0,58.5,57.31146425228897,49.584088469901744,53.04222698804031,34.26923726424866,37.72737578238723,30
875.0,57.3,55.8546803840792,48.18959655858204,51.83793602804896,34.016744356030244,37.66508382549716,30
900.0,54.89999999999999,53.82895522153231,46.446828750596396,49.97641937641443,33.852535845117885,37.382126470935916,30
925.0,53.3,52.44217261159362,44.87492802811202,48.419457406741586,34.022715204852034,37.567244583481596,30
950.0,52.39999999999999,51.589308494996814,43.7050031549593,47.423325118285035,34.16598337671178,37.884305340037514,30
975.0,51.39999999999999,50.51705503941686,42.45667864322026,46.25280478981328,34.26425024960358,38.0603763961966,30
1000.0,50.60000000000001,49.4475499995343,41.26746556839548,45.20790477570249,34.239645223831815,38.18008443113882,30
1030.0,49.8,48.45610753164867,40.21113065597471,44.48211011964632,33.97399741200235,38.244976875673956,30
1060.0,49.5,47.55874729142688,39.25618693989814,43.92281106253459,33.63593622889229,38.30256035152874,30
1090.0,49.60000000000001,46.74330768873806,38.40857340001877,43.522379652172404,33.22092803656565,38.33473428871929,30
1120.0,49.3,46.05855410389778,37.69369962320273,43.06151799698286,32.99703610691492,38.364854480695044,30
1150.0,48.3,45.34104185338539,36.9759638555647,42.429196582000586,32.911845271384806,38.36507799782069,30
1180.0,46.8,44.24844131220182,35.7624201671875,41.274209834172254,32.974231478029566,38.48602114501432,30
1220.0,45.7,43.373611040515684,34.61056809818545,40.16686957195991,33.20674146855578,38.76304294233023,30
1250.0,45.39999999999999,43.08891471378023,33.9770933713629,39.549582894161816,33.53933181961841,39.11182134241733,30
1280.0,45.8,43.285065139978045,33.79942074881386,39.46442314735934,33.820641992618704,39.485644391164186,30
1320.0,46.2,43.47883924223787,33.77289747925282,39.529134737543345,33.94970450469452,39.70594176298505,30
1360.0,46.2,43.3230239800579,33.72945196121226,39.45263747369795,33.87038650635995,39.593572018845634,30
1400.0,45.999999999999986,43.06248472181498,33.73677700919443,39.34323538434454,33.719249337470444,39.325707712620556,30
1450.0,45.999999999999986,43.002714152534125,33.99684762284106,39.43346160400118,33.569252548532944,39.005866529693066,30
1500.0,44.60000000000001,42.10914209651024,33.763507631665234,38.727013628350264,33.382128468159976,38.345634464845006,30
1550.0,41.8,40.1569148380364,32.846961363759604,37.07988370863039,33.07703112940601,37.309953474276796,30
1600.0,39.7,38.93863873076229,32.474566066595926,36.052635635167476,32.886003095594816,36.464072664166366,30
1650.0,41.3,39.183448545673755,32.61800217418853,36.10313086844771,33.08031767722605,36.56544637148522,30
1700.0,43.8,40.41959658899377,33.80881783484223,37.369484243703155,33.050112345290614,36.61077875415154,30
1750.0,45.89999999999999,41.452747781434326,34.80783671750952,38.380155184155015,33.07259259727931,36.64491106392481,30
1800.0,45.8,41.61543670328443,35.121839205604275,38.49231207189463,33.1231246313898,36.493597497680156,30
1850.0,43.10000000000001,38.84812736092384,32.112871064995474,35.547367398443484,33.300759962480356,36.735256295928366,30
1900.0,41.999999999999986,37.3592383694609,28.688964807112754,33.555944196827355,33.80329417263354,38.67027356234814,30
1950.0,41.7,37.401497784508976,27.278529977697744,33.14689632250305,34.25460146200592,40.12296780681123,30
2000.0,42.499999999999986,38.42317380145833,28.3562049224917,34.254458357995375,34.16871544346296,40.066968878966634,30
2060.0,44.60000000000001,40.56259361367158,30.94141518319462,36.600582834207714,33.96201077946387,39.62117843047696,30
2120.0,46.10000000000001,42.11955160760134,33.293468947422966,38.48498973920063,33.63456186840071,38.82608266017837,30
2180.0,45.89999999999999,41.54721536362324,32.8004808325946,38.01583153675945,33.53138382686379,38.746734531028636,30
2240.0,42.3,37.8527522160973,29.342134461739604,34.29191071976224,33.56084149633506,38.510617754357696,30
2300.0,38.10000000000001,33.134771407347515,24.955501208532198,29.881475676902866,33.25329573044465,38.17927019881532,30
2360.0,36.499999999999986,31.778929273244543,21.382238442619453,27.422165768645314,34.35676350459923,40.39669083062509,30
2400.0,38.8,34.69992153493139,22.814916367826115,29.701009682073348,34.99891185285804,41.88500516710528,30
2500.0,41.7,37.66754479907259,25.98129003852678,32.700226369798045,34.96731842927454,41.68625476054581,30
2580.0,42.39999999999999,38.50679227377505,27.229637173789186,33.62803312283047,34.878759150944575,41.27715509998586,30
2650.0,39.999999999999986,36.32539259631601,25.265440235667242,31.52689539453577,34.798497201780236,41.059952360648765,30
2720.0,35.39999999999999,31.398084229627713,20.573451282435244,26.823560684950948,34.574523544676765,40.82463294719247,30
2800.0,32.10000000000001,28.406006255125035,17.725949083218424,23.889560884042638,34.5164453710824,40.68005717190661,30
2900.0,30.999999999999986,29.811758029733213,18.89728289031352,24.93816187367814,34.87359615605507,40.91447513941969,30
3000.0,31.10000000000001,30.43593420310394,19.365074955485895,25.49338530029415,34.94254890280979,41.070859247618046,30
3070.0,32.60000000000001,30.522166033561987,19.735437450497088,25.786604939099206,34.73556109446278,40.7867285830649,30
3150.0,30.299999999999997,28.639442395899138,18.33201627898997,24.128715117609246,34.51072727828989,40.30742611690917,30
3250.0,27.89999999999999,27.782398492671845,17.229333003991528,22.89281903593023,34.889579456741615,40.55306548868032,30
3350.0,26.10000000000001,26.0003547386885,15.501966176832653,20.77628286272345,35.22407187596505,40.49838856185585,30
3450.0,25.89999999999999,24.73126997617034,14.342688292503382,19.524080775868825,35.207189200301514,40.388581683666956,30
3550.0,27.700000000000003,26.390530334213324,15.48012514809129,21.160122595558605,35.23040773865472,40.910405186122034,30
3650.0,23.999999999999986,25.30209994185124,15.012478649825553,20.431638604558586,34.87046133729265,40.289621292025686,30
3750.0,27.499999999999986,25.24997664048486,14.200213552687003,19.728847313709466,35.521129326775394,41.04976308779786,30
3870.0,27.799999999999997,24.4491642708784,13.794838408484267,18.90772652287383,35.54143774800457,40.65432586239413,30
