Freq "Sound Power"
22.4 36.7940975647946
23.0 37.43365038929208
23.6 38.043704117159834
24.0 39.15268730451383
25.0 43.88639731552543
25.8 46.73183579630371
26.5 48.545946180809565
27.2 50.65067725045496
28.0 53.50614573248781
29.0 55.38071604137035
30.0 56.88751735095157
30.7 59.04363931289629
31.5 60.73283044933841
32.5 62.29631999966476
33.5 65.5485960990468
34.5 67.75078970153284
35.5 69.52504371251484
36.5 71.55981412287507
37.5 73.04424971896974
38.7 74.40223492823547
40.0 75.62912091964257
41.2 76.55860219280925
42.5 77.23214823161598
43.7 77.76578758503551
45.0 77.8196522993002
46.2 77.77278412291155
47.5 77.92884006747626
48.7 78.13664731589115
50.0 78.18948647289089
51.5 78.18211356019017
53.0 78.30077896836848
54.5 78.4061704967301
56.0 78.30801679604572
58.0 78.39543054492235
60.0 78.71205505712864
61.5 79.15218643777395
63.0 79.45757221582822
65.0 79.55448324558571
67.0 79.90849071262328
69.0 80.21993770470898
71.0 80.37200020927654
73.0 80.49348789981342
75.0 80.81787292332109
77.5 81.03737067182517
80.0 80.97616604464692
82.5 80.65964744352556
85.0 80.13989178981593
87.5 80.21503031917618
90.0 79.94977581059355
92.5 80.34287983101633
95.0 80.28733873394707
97.5 80.16171106968514
100.0 80.04955844871118
103.0 79.72084829502124
106.0 79.9632482323792
109.0 79.64288987635112
112.0 79.67489646254634
115.0 79.2298158543362
118.0 79.41933343198913
122.0 79.16333243780831
125.0 79.33750505533166
128.0 79.31681892289916
132.0 79.36203307133061
136.0 79.20031248614099
140.0 79.27919303633813
145.0 79.18572908725861
150.0 78.74436462832072
155.0 78.54636928738569
160.0 78.55370006205725
165.0 78.38029758279244
170.0 77.92233634778
175.0 77.21676016817537
180.0 76.50449203171875
185.0 76.3265750121861
190.0 75.60443515462616
195.0 75.06697872766408
200.0 75.00201434704424
206.0 74.70479214435291
212.0 74.1122645564344
218.0 73.57454225130347
224.0 73.04921486797579
230.0 72.47552795146028
236.0 71.85256780699936
240.0 71.35665551329454
250.0 70.91427254427406
258.0 70.69462426778112
265.0 70.57700010642624
272.0 70.19794359341309
280.0 69.83599177665677
290.0 69.80264773807312
300.0 70.05096619925672
307.0 70.26597836311974
315.0 70.21639815718551
325.0 70.34730495328091
335.0 70.64938938795518
345.0 71.42493409365208
355.0 71.9828465675859
365.0 71.16808281701638
375.0 69.20689595400297
387.0 67.40955526519937
400.0 66.35394878772317
412.0 65.68743140498087
425.0 64.4735067204994
437.0 62.84265616353433
450.0 61.5381645763501
462.0 61.139646915412044
475.0 61.105142921413616
487.0 61.007516316291444
500.0 60.89704617433715
515.0 60.744697247556545
530.0 60.666301378424635
545.0 60.36086881788226
560.0 59.701289924427456
580.0 59.08149147525573
600.0 58.516174749022795
615.0 58.02618153076561
630.0 57.60541435342334
650.0 56.98809204820695
670.0 56.19444441351153
690.0 55.341598934782056
710.0 54.642463520514724
730.0 53.993304811752964
750.0 53.25704415154132
775.0 52.35668834265056
800.0 51.50944915134059
825.0 50.64002975941359
850.0 49.584088469901744
875.0 48.18959655858204
900.0 46.446828750596396
925.0 44.87492802811202
950.0 43.7050031549593
975.0 42.45667864322026
1000.0 41.26746556839548
1030.0 40.21113065597471
1060.0 39.25618693989814
1090.0 38.40857340001877
1120.0 37.69369962320273
1150.0 36.9759638555647
1180.0 35.7624201671875
1220.0 34.61056809818545
1250.0 33.9770933713629
1280.0 33.79942074881386
1320.0 33.77289747925282
1360.0 33.72945196121226
1400.0 33.73677700919443
1450.0 33.99684762284106
1500.0 33.763507631665234
1550.0 32.846961363759604
1600.0 32.474566066595926
1650.0 32.61800217418853
1700.0 33.80881783484223
1750.0 34.80783671750952
1800.0 35.121839205604275
1850.0 32.112871064995474
1900.0 28.688964807112754
1950.0 27.278529977697744
2000.0 28.3562049224917
2060.0 30.94141518319462
2120.0 33.293468947422966
2180.0 32.8004808325946
2240.0 29.342134461739604
2300.0 24.955501208532198
2360.0 21.382238442619453
2400.0 22.814916367826115
2500.0 25.98129003852678
2580.0 27.229637173789186
2650.0 25.265440235667242
2720.0 20.573451282435244
2800.0 17.725949083218424
2900.0 18.89728289031352
3000.0 19.365074955485895
3070.0 19.735437450497088
3150.0 18.33201627898997
3250.0 17.229333003991528
3350.0 15.501966176832653
3450.0 14.342688292503382
3550.0 15.48012514809129
3650.0 15.012478649825553
3750.0 14.200213552687003
3870.0 13.794838408484267
4000.0 15.156902908705959
4120.0 16.017144701274546
4250.0 14.19534379020358
4370.0 11.839852410530895
4500.0 9.812633261878247
4620.0 6.082806273582307
4750.0 1.2661697674605108
4870.0 -1.2877471589294345
5000.0 -2.8934399334268477
5150.0 -2.930517122294404
5300.0 -1.1666201292783427
5450.0 -1.003867146924975
5600.0 -1.053683180964569
5800.0 -1.7979683293383601
6000.0 -4.526995022202854
6150.0 -5.221321812020065
6300.0 -2.911667955014323
6500.0 -3.320588495910229
6700.0 -2.83112794837875
6900.0 4.215357207181555
7100.0 3.216531871786273
7300.0 -1.801561941856832
7500.0 -2.161773316736017
7750.0 -1.7599367889861384
8000.0 -2.4330799019962654
8250.0 -3.7141500100407114
8500.0 -3.1996196132810866
8750.0 -5.779319494654615
9000.0 -1.4870089396138866
9250.0 -4.60689350942836
9500.0 -5.488396495132676
9750.0 -4.623519789173898
10000.0 -5.569847688146538
10300.0 -6.16570518749019
10600.0 2.100723254352644
10900.0 -3.4907801850036293
11200.0 -4.93620700692945
11500.0 -8.1431233411504
11800.0 -8.346508247998386
12200.0 -6.946468364369608
12500.0 -6.193639804256193
12800.0 -5.9987385094135135
13200.0 -7.82998114270201
13600.0 -10.420198293255126
14000.0 -10.839257117055737
14500.0 -10.41583543878393
15000.0 -9.42535321392414
15500.0 -11.043799246995846
16000.0 -5.6694364460177695
16500.0 -6.484716862576633
17000.0 -8.155265048128584
17500.0 -5.354026534046696
18000.0 -9.281283761290567
18500.0 -8.533799842628653
19000.0 -5.319316517889931
19500.0 -2.598378627600354
