Freq,Floor Bounce,Ceiling Bounce,Front Wall Bounce,Side Wall Bounce,Rear Wall Bounce,Total Early Reflection
20.5078,64.18320369466453,63.755536756996705,64.08789601403343,63.95453378245922,63.43339660637072,63.89099876950077
23.4375,66.48397495568152,66.0184656374196,66.37499962258345,66.2325859104376,65.70388164647822,66.17153167866238
26.3672,68.33410758750571,67.88452228008772,68.22844000796512,68.09010265801174,67.59578952887138,68.034456475445
29.2969,69.89890771093194,69.43652572429191,69.78958769902735,69.63972802811074,69.13300575851385,69.5879698800764
32.2266,71.46954436635791,70.99240360609389,71.35326148817678,71.20076467235688,70.71085543709178,71.15365971146434
35.1563,72.83494399664119,72.35739437579805,72.71755017266177,72.56112281850581,72.095744649291,72.5212566738089
38.0859,74.13034187030611,73.64862568881391,74.01288568743313,73.84304118468562,73.35639605851144,73.80683622188484
41.0156,75.25574708543782,74.76104629257263,75.13041507859619,74.96325576214731,74.53581635211779,74.93684183756123
43.9453,76.46030540135636,75.96201526866246,76.34199413323095,76.1487816855881,75.66419680552376,76.12455583888806
46.875,77.57783605803854,77.05795300136484,77.45699818446637,77.23325857658843,76.69957410068643,77.21606624419823
49.8047,78.54700593443859,78.02723585266268,78.42054827784925,78.20352852824277,77.717334522874,78.19296154013104
52.7344,79.50763492740371,79.00026240910158,79.389376311887,79.15540504324693,78.65771287816607,79.15233556553125
55.6641,80.38140112309905,79.8848512329032,80.26426886217293,80.02676806664523,79.56986131697285,80.03482322408753
58.5938,81.29710152045966,80.79102986038924,81.17555871052016,80.93041777648664,80.49959205124101,80.9478785310959
61.5234,82.05143403050316,81.51344829129164,81.92585861058144,81.64355329936703,81.16788804733537,81.67158537988705
64.4531,82.85213412348565,82.29100855148975,82.72201249102544,82.41548773979041,81.90334604652769,82.44958215248055
67.3828,83.55503430083732,82.97898113141673,83.42126360407738,83.09391704422214,82.57603683635212,83.1386585184192
70.3125,84.15393635891184,83.57118235631508,84.0076282751274,83.6951897135098,83.26734271103999,83.75045694906778
73.2422,84.74934321985758,84.23807190551746,84.64047039413232,84.29048131737228,83.84856159660849,84.36507383191484
76.1719,85.33557927619353,84.8370992156256,85.22900547612251,84.8706011627721,84.44649627175961,84.95516500066691
79.1016,85.78028375778935,85.26530154846004,85.67101202097302,85.2906464073698,84.91173334154679,85.39492456865263
82.0313,86.29834620255296,85.7692514228717,86.19920493827979,85.76316552893026,85.27739563325801,85.8766178221399
84.9609,86.71865771233037,86.15618496931673,86.61488346747424,86.13782682367389,85.55073171725114,86.25521831141727
87.8906,86.95234082396527,86.4426134815429,86.85019315512001,86.40387145640118,85.95510627393271,86.53530777311163
90.8203,87.17379850466378,86.66988410345208,87.06568162438242,86.62854445497898,86.33980872321042,86.7862549410864
93.75,87.62260437028995,87.05855001707523,87.53444132047032,86.97468609657972,86.47249497037107,87.15232503859613
96.6797,87.74616671621314,87.18275398584484,87.65596092593212,87.08750229381097,86.54120239012174,87.26416832503435
102.539,88.02052851956132,87.59705815094893,87.98503331298811,87.35533731814857,86.84035150268772,87.5812431645279
105.469,88.13185576182441,87.73752697432177,88.11491193968155,87.45199882869235,86.90404728546683,87.69175198153802
108.398,88.3270713006914,87.8647820911871,88.28459533953398,87.58999502059984,87.02193787011386,87.84396994038542
111.328,88.485394997585,87.9620912369064,88.42064664033755,87.69510492549702,87.13716258069427,87.96799014770336
117.188,88.65231999111337,88.12773946795294,88.59252221790643,87.79797595128589,87.2090905842949,88.10821458886035
120.117,88.70417888625394,88.16581497761179,88.63974562119057,87.81655169423291,87.26158475208534,88.15019091281475
125.977,88.67017206593505,88.03144645055617,88.5848434917505,87.67686329464483,87.08162243121751,88.04834525340132
128.906,88.64897576881572,88.00260467362327,88.56757814972138,87.6182900512159,86.94182470305942,88.0008749746333
134.766,88.43930607136504,87.77375679430928,88.3410593435163,87.36085513998692,86.8061069296575,87.7865314150125
137.695,88.39546142162966,87.67469516038663,88.28347547351898,87.25669649394082,86.73720507877445,87.71368356410275
143.555,88.40744028754226,87.53062120139423,88.25814299930306,87.11699288835491,86.48288223446944,87.61737580699727
149.414,88.36062899005078,87.42509631605532,88.21247456503468,86.96961981367312,86.19912576110377,87.50567958460837
155.273,88.36596143649122,87.47939445634134,88.24165677244065,86.89525943700541,86.02726130698724,87.4865759829603
158.203,88.44586246724405,87.45323715415273,88.28294598393383,86.90186247971069,86.04071125861161,87.51398162582284
164.063,88.64219005406743,87.71957202888102,88.52475088320293,87.05734739772289,86.0698239078895,87.70470817072128
169.922,88.19955163407091,87.42406625849974,88.11339303000186,86.64445215922942,85.8665760116215,87.33794343636727
175.781,88.03943858791993,87.16960337508445,87.94291238021721,86.35087370119155,85.68564147285814,87.13069124654942
181.641,88.10961869215524,87.02682930006324,87.962798481415,86.22918463928441,85.28024880489006,87.04826540936612
190.43,88.04046079647267,87.30790835436959,88.0223875186297,86.14705779753623,84.94314063040086,87.04669469102164
196.289,87.91491496031581,87.3148722145878,87.95046485578678,86.00571326757343,85.03860070415256,86.98809113743752
202.148,87.97094312695869,87.32602129502882,88.03073414640087,85.94698911353012,84.78336099810326,86.98372896575982
210.938,88.12627520510269,87.24674459836685,88.08121229426958,85.90964246604305,84.33813722169769,86.96245127524462
216.797,87.93551747818056,87.1466187242127,87.90162483256088,85.72352388252334,84.4755492696468,86.83171265912867
225.586,88.04583607928879,87.77804846860084,88.28263426056384,85.81948857657814,84.46343103637935,87.11289614360294
234.375,88.31638988606299,87.83984883416919,88.38070830818329,85.88582404543423,84.2422195644473,87.20802626152977
240.234,88.19299793506765,87.41743011988997,88.1377925298286,85.54257292127456,84.07033214053139,86.94828956035848
249.023,88.59270455377032,87.32849706498321,88.36711885613514,85.54197183001682,83.14521345105494,87.0156273858282
257.813,88.82239167109783,87.52457569727451,88.4983844438462,85.73245087069374,83.54450146933826,87.22010566792233
266.602,88.45238958592027,86.68548340923367,88.03923335824273,85.07307265679445,82.66247202000285,86.64507473583357
278.32,88.27291241482472,87.32421603261291,88.14728654464903,85.13600942023442,82.7736253275038,86.77664752247598
287.109,88.21873462475138,87.78040258936004,88.3048852017411,85.10644286687464,82.75575283917986,86.90714964781894
295.898,88.45835087842578,88.02692543115501,88.45766880279866,85.01757170075908,82.2983500451395,87.0319141161254
307.617,88.42722773431144,86.99780142815989,88.05370486144558,84.28846137707255,82.98090250051762,86.6332654524536
319.336,89.584092328741,87.44271546627527,89.27500704767964,84.76637683170021,83.7811904395512,87.55633359035765
331.055,89.59525887193873,87.81608291939651,89.15723832955261,85.012067535413,82.30608164901267,87.52293601644081
342.773,88.74097309208847,87.21125993610178,88.3888678800014,84.03297025223758,82.57903656526118,86.81017449068156
354.492,89.1384663137879,87.93658742470119,88.88328656451053,84.42351358394536,81.31960281706702,87.205832292457
366.211,89.24859078812821,88.1922771557527,88.92614241090989,84.16316879487648,80.78445292953207,87.26267089030873
377.93,89.52751663207549,88.4008408828923,89.0492681661691,84.3049467172458,81.330390884757,87.4781177149062
392.578,88.57118245458031,87.31564795535009,87.95807067292098,83.00252978972881,80.51964666298537,86.42635282607692
407.227,88.28384474503349,87.26486123852193,87.75847373824777,82.47030860028671,80.91394028807773,86.23898416095787
421.875,88.58964753413451,87.22804872155409,87.74583134864136,81.98044075144121,80.00665046982502,86.24063361076504
436.523,88.45244573790767,87.07824289560185,87.75103743516131,81.56887014183057,79.36530328972516,86.09861962210353
451.172,88.85595978821488,87.33589818259173,88.12119250963123,81.74509390388681,77.9788914262041,86.37682114519355
465.82,88.32141029108,87.39870464705099,87.6492230801293,81.07641689284797,78.8425317845257,86.0541967593894
483.398,88.3461365156546,88.04334503128557,87.69125435813969,80.54746553676192,77.84015426119969,86.1961485501336
500.977,87.63058505801358,87.05816473524199,86.68022826646758,79.09751879841333,78.58428111567115,85.33131342260235
518.555,86.94990497483006,85.99717394418921,86.35939268310582,78.50293596094313,78.37914008005845,84.66996540530135
536.133,87.25154830792196,85.79319099096544,87.01036533387298,78.44778431145666,78.42606606606975,84.92089707673873
553.711,88.0696910084836,86.41234538730434,87.32127966215266,78.619082879967,75.44481842283628,85.38168404245808
574.219,87.66115748870695,85.17338947638916,86.63338415931399,77.85618609953464,76.16431055975063,84.70031225488925
594.727,87.05975663924185,85.2373607199997,86.93511169396443,78.0242146195086,75.79029560042227,84.5856539090917
615.234,87.24719548507106,85.98909353286625,86.90801502120567,77.96626251075146,74.38466413591232,84.79542668056233
638.672,87.1228476431469,85.72575685297619,86.44097634957771,77.58161606325017,72.60366646620626,84.48854374202189
659.18,86.21990634790207,84.58239169993581,85.89175546187862,76.99463247858208,74.993764748765,83.71423376656443
682.617,87.1729115320792,84.92478119014736,87.00485507165847,77.38576672824651,76.05069559293273,84.56105511724064
706.055,87.56217497869487,85.60683616762066,86.95622775939687,77.7522910035399,73.84017032581589,84.8117594016178
732.422,86.92050605279843,85.55746444518465,86.56463647432592,77.87224303548463,74.4374963061288,84.45313134061097
758.789,88.03713708698697,86.2275756814457,87.48290779050971,78.75502324155646,75.9124569854394,85.39107625555698
785.156,86.49869171638184,86.11797634308651,86.07494265599614,79.73985985784567,74.2656770672108,84.41395044609698
811.523,86.62342377374398,86.67958976200629,86.35298236530762,80.00137255016702,76.05801548387495,84.76337514696122
840.82,86.18356030595936,85.57719714225239,86.56106658917909,80.54248948735673,74.3202336509111,84.37695361052262
870.117,85.9531596787556,85.29350856290958,86.60839221044345,81.00604126818484,76.37294512643571,84.34439604990834
902.344,85.06451423993381,86.0629549049553,86.88350858824242,82.58484220018642,75.68458133810792,84.5671847263095
931.641,85.3735427520652,85.94233359515086,87.12620638692438,82.68966838526377,76.4303883533395,84.72222902703835
966.797,85.26385615597171,84.64207191814289,87.36779721222578,83.22903686558375,76.74479047325184,84.56462349337161
999.023,85.3784502624326,85.018234681688,87.41596892559569,83.50830681577948,76.2945719622967,84.71599581536103
1034.18,85.69674545042307,84.575243320586,87.74269087179464,83.61464378897185,76.40870622058385,84.84664465740185
1072.27,85.86603904890212,86.10902117876189,87.74159746943104,84.43621997638515,77.07010442022255,85.35905683265428
1110.35,85.80390986336069,85.62890687454247,87.5686850429637,84.46444004572717,77.45939042221539,85.19195384967925
1148.44,86.80055727465701,86.13985983542631,88.04681094501493,84.75501493370201,77.62377121970546,85.7619524594975
1189.45,87.5037823531498,84.14764804493196,88.32230343084893,84.53154394495674,76.91950708104953,85.64751641483811
1230.47,87.65755091566919,83.81509767163836,88.34514821986868,84.56817241316158,76.85097554557228,85.66250837220294
1274.41,87.59543744036189,84.90245883500519,88.00597050608793,84.62175371011729,76.49835366473376,85.68288207083927
1318.36,87.93919836720225,83.97835821386407,87.5069325454098,84.67357725837657,76.39858197503929,85.49575400347983
1365.23,87.8150808768607,84.45179469284281,86.88318562731395,84.29099700895802,76.03343183229276,85.26335032400844
1415.04,87.47441469957748,84.54350280097766,86.83812006863283,84.07678722839432,75.49274826872399,85.09915920161751
1464.84,86.76926886898036,84.821681744078,87.04208551794308,84.24260353028417,74.89814122824647,85.00054958498471
1514.65,86.95478370094288,84.73140620317947,87.25454777223278,84.66001664291626,75.14067273759854,85.18456009360695
1570.31,86.96460475441552,84.76370067503366,87.24525236081098,84.63620088066178,75.2527949845972,85.18840298972025
1623.05,86.27592687844333,84.22800495148148,86.9199083492087,84.13194792693102,75.17650154065747,84.69188773123949
1681.64,85.97263910395715,83.80441888110913,86.60375303887508,84.02857033109234,74.96908612510917,84.40109885184907
1740.23,85.04204194031485,83.09094353215973,86.68549801479027,84.23519072923644,75.01739496729036,84.10319819465114
1801.76,83.75695261255477,82.31707171176559,87.1196076675689,84.91335341172895,75.28008511853552,84.03773440477818
1866.21,82.27599195144133,82.65017477856264,86.69174713517845,84.93947048657266,74.98967598930489,83.666913122832
1930.66,81.68308172235264,81.56424670135013,86.33298875569612,84.66835997726461,74.71462309600294,83.19363056666415
2000.98,80.78466002967671,79.92719590248964,87.35541196987688,85.25007802299625,74.72184424159936,83.52838374867153
2071.29,80.32095045580905,80.47574310606926,88.55026858269032,85.7431474174986,75.23874474740606,84.29458146898794
2144.53,79.53734878621474,80.7924799866796,88.62100744331391,85.45913869507807,74.93275932556828,84.21764988588893
2217.77,78.70418555640451,78.95741952935924,88.39395154200487,84.96254381383822,74.78679343476558,83.75608177955833
2296.88,78.21166719482277,74.33137365897525,89.63601822915682,85.8595081666385,75.998917284884,84.58849014896492
2378.91,80.93009160323369,72.73487098731157,90.42050797933179,86.61380797805987,76.36888515368456,85.43125260388085
2460.94,83.33790174716405,75.27674653884223,90.40277309850511,86.9854890743675,76.29683616712461,85.77191724894473
2548.83,82.06232593258109,77.28135470112124,89.62892757308607,86.34090313764314,75.90593883186389,85.05674365634552
2639.65,78.68526831341292,75.12600820048027,88.54902016062017,84.46797672119702,72.47418491218957,83.50194018368985
2733.4,78.96468946964202,75.50719897785415,88.50672496439167,84.77555528762879,72.64764764802509,83.587229373673
2827.15,78.98167751175212,75.73259732285115,88.62468635846645,84.8489753355871,72.06063214078787,83.67947947181304
2926.76,79.65416714578501,76.66131102528941,88.31800439437812,84.43725567191983,71.25161139246829,83.4585653592764
3032.23,80.55060049430416,79.84070783618931,87.9346316529905,83.71830040807541,70.77913034872284,83.33980881297171
3137.7,81.29778502330986,79.79519712614963,88.02381171183714,83.9672130627681,71.43130666165322,83.53281590195446
3249.02,80.88219753482495,80.54813967760926,87.86625063597164,83.92035792877454,70.90366736390803,83.45073788504766
3363.28,81.26299290279077,81.42075809203095,87.28756737287517,83.79289256495248,69.90751615067047,83.2519883373569
3483.4,82.26358510515186,82.56152370224987,87.16893200656355,84.35331259956509,69.66367439614409,83.62320588031771
3606.45,82.46114870637733,83.43190762600227,86.50202025678242,83.9614886609417,69.75898235912193,83.43194363146553
3732.42,82.67353277271347,82.53074001883054,86.14752609999142,83.68389345511314,70.61546322806973,83.10102046848965
3864.26,82.18396998454928,82.21825110238761,86.6487780411852,84.05638254128219,70.470404597953,83.26282903805487
3999.02,82.40813187467327,81.75228733455987,87.09968061571927,83.86939996465617,70.0989494263073,83.38699349961529
4139.65,82.1141997973844,81.69590571845468,86.93831801831783,83.80777035431831,69.39336765991672,83.23710749882581
4286.13,81.63203371619107,82.60450891111009,87.65943493574176,84.10789015703008,70.09463881376622,83.72495792419791
4438.48,81.91059138088409,82.99641161517967,87.9434411788755,84.58520806113908,70.70082280073704,84.07080950209706
4593.75,83.3539601942765,83.6673482302068,88.15326132032719,84.2180038197036,69.53443217130902,84.3960432701051
4757.81,84.33417258905935,82.68645015047774,88.19210981920752,84.08594012731979,68.87804279399826,84.41014382401744
4924.8,83.73669154210371,82.18474464766147,88.32753274518332,84.19048403085091,69.16764196956395,84.32288718525618
5097.66,83.63626369476845,81.70059791588662,87.29824232681705,83.66780704434308,68.94988424481936,83.64099431097036
5279.3,84.54519448278045,81.70567777163788,86.10643689022669,82.98284838118362,67.94263214239761,83.20496059674831
5463.87,84.93702511080235,81.81998046783168,86.25222935236803,82.73915863331246,68.44395054875369,83.34665394545371
5657.23,84.12407837170052,81.69840853072938,85.7388979940487,82.35029473101632,67.95000416778305,82.82958631127839
5856.45,84.26541048371739,81.61451939396511,85.71598012044947,82.70843698676858,67.53155760298017,82.91007413443161
6061.52,84.83826846167746,80.67970298938219,85.98252222719019,83.17462542720588,67.49943762324695,83.14479578661444
6275.39,85.44650191113757,81.07958519108762,86.30471338109095,83.41068375354172,67.46384626963534,83.54348514430262
6498.05,85.63816795182359,80.81819475521715,86.38613210948294,83.30702980163018,66.83725950747962,83.5835693027257
6726.56,85.17156016556204,81.07180624771873,86.61579143642656,82.85845260645036,66.73749110922465,83.47743731751065
6963.87,85.28363445561962,81.36720689632062,86.6019483146491,82.82725799836355,66.86285064159362,83.5351803810017
7209.96,85.36285161414389,81.7177931913305,86.24885393760343,82.27981529300497,66.07140695614588,83.37247910169513
7464.84,85.06922371767446,81.59684973873954,86.1392142373806,81.8329457477343,65.92066973155075,83.15231550266542
7728.52,85.1393506099452,81.79576812180447,86.32874043650818,81.40027251933971,64.97258047758176,83.21535899819985
8000.98,85.45455297250918,81.79537734897305,86.995826753252,82.0038971328948,64.5883550141749,83.67180177314269
8282.23,85.1863507090895,81.69676434509684,87.37256338438475,82.12419675436618,64.49544048124513,83.76531470666903
8575.2,85.44965911469691,81.73517805894133,87.63839080296505,81.88752194397979,64.63879376032948,83.93657529134886
8876.95,85.09738216471649,81.81756322794998,87.45024642310045,81.73279483735999,65.95461146005731,83.74482772708544
9190.43,84.73221860773211,81.80413931239406,87.22103517392202,81.4721555134502,65.18361771519552,83.50179885355381
9512.7,85.1197742729598,82.09270854919252,87.15852475164004,81.29279130114074,64.63927291481379,83.59600837316044
9849.61,85.04191950780138,82.0972804318272,87.28821502909906,81.20305961116013,63.98815233396981,83.62246590855126
10195.3,84.6152964540441,81.78164950433262,87.58690162338009,81.12184818691316,64.93800942533416,83.60380503093161
10555.7,85.22189690844884,81.59961907459761,87.75884051222019,80.97825322028338,64.57589728219732,83.81058695824434
10927.7,85.0960101501615,81.49154465951564,87.61148891572704,80.83218972091164,64.37176842914731,83.67392081685634
11314.5,85.21457262461904,81.42827124557179,87.28734949135236,80.54433049886529,63.89772087921956,83.51200955279464
11712.9,85.43050742077386,81.38335516427534,86.6737532580174,80.21152631955519,63.721625441671264,83.25907689456952
12126.0,85.48092502855461,81.2415379050761,86.59502289526499,80.49649445430101,63.795596724047115,83.25278888527296
12553.7,85.26727683351164,80.87766567158906,86.2631536300217,80.94238505449228,63.57175358318837,83.0456874018801
12996.1,85.24056851908081,80.65474863265817,85.86933616451486,81.299283836162,64.00853489536804,82.89682361849025
13453.1,84.79479921633524,80.33377018950011,85.53071813193633,81.45537347359405,64.32193315664902,82.59817856172052
13927.7,84.60800309516208,79.77615168142422,85.17978302187227,81.51223782823423,63.607045504298995,82.34239594843571
14419.9,84.38621600244761,79.534594981473,84.84208087975307,81.38406129088592,62.729537650936365,82.08834136463359
14929.7,83.79849366941862,79.17428684809272,85.02079939209037,81.7801431842095,62.84937510360574,82.00206940535784
15454.1,83.84007982452401,79.28605538144292,85.59163405143268,81.9333158316936,62.52418715084552,82.2901092174161
