Freq "Rear Wall Bounce"
22.4 38.88021587494468
23.0 41.184848752715865
23.6 41.92307390870748
24.0 42.90065604725474
25.0 44.49052685424682
25.8 46.09998070248771
26.5 47.33405644652326
27.2 48.92139856034889
28.0 50.36060484705014
29.0 51.73800502615241
30.0 53.287246677180676
30.7 54.67731767106848
31.5 55.79670766072847
32.5 57.19670766072848
33.5 58.611414225241944
34.5 59.83181850224132
35.5 61.17310658336824
36.5 62.387667423891756
37.5 63.39757282310808
38.7 64.52942164200134
40.0 65.70625622984139
41.2 67.00452888690074
42.5 68.30452888690074
43.7 69.50452888690074
45.0 70.68305982889542
46.2 71.8516943912417
47.5 73.13965605613005
48.7 74.39792520444477
50.0 75.59792520444478
51.5 76.70803717678228
53.0 77.69668974395738
54.5 78.57460931662256
56.0 79.18477565924584
58.0 79.67945865182743
60.0 80.05809150698093
61.5 80.29974498291166
63.0 80.78863495949012
65.0 81.4253218717771
67.0 81.84586206308309
69.0 81.98217251320916
71.0 82.26132261056073
73.0 82.80244071400033
75.0 83.39231568742908
77.5 84.0391089179465
80.0 84.4867576007563
82.5 84.68699952061307
85.0 84.75519720456039
87.5 84.64447830492905
90.0 84.76042788733267
92.5 84.86140149829977
95.0 84.9506642084043
97.5 84.99868861443765
100.0 84.95749018242013
103.0 84.3271838192884
106.0 83.83295277536968
109.0 83.66663120300116
112.0 83.74540018134142
115.0 83.38458552162915
118.0 82.46448931843618
122.0 82.29700615508251
125.0 82.60336246400688
128.0 82.10779887115422
132.0 81.04008739396741
136.0 80.8678273937654
140.0 81.07552433773343
145.0 80.83819578862233
150.0 80.33638878393263
155.0 80.43254729532232
160.0 80.15112389806005
165.0 79.69360449812174
170.0 78.7978222859876
175.0 78.61342281728022
180.0 78.96743100790862
185.0 77.93971878949016
190.0 76.59198966209782
195.0 77.7666494788492
200.0 78.55163360500318
206.0 76.5691319674816
212.0 75.99774860998686
218.0 77.78631031080825
224.0 78.31548212957777
230.0 77.87767222265616
236.0 77.45777853977664
240.0 77.89377575226823
250.0 77.92928912693073
258.0 77.67680921789956
265.0 77.20740884281967
272.0 76.5225076163087
280.0 75.67409154769312
290.0 74.84140675674442
300.0 74.06073635069782
307.0 73.36031274165391
315.0 72.79109543633321
325.0 72.29891871076399
335.0 71.79019183905011
345.0 71.24089148736373
355.0 70.63183308553138
365.0 70.03107025442561
375.0 69.60348028378237
387.0 69.21338003215145
400.0 68.99374939603314
412.0 68.94435534023964
425.0 68.93044911563395
437.0 68.72981253010238
450.0 68.08511586460925
462.0 66.95166022185212
475.0 65.69999965193483
487.0 65.02175164672582
500.0 65.08596885771182
515.0 65.41917636320755
530.0 65.67287208056617
545.0 65.72810026913174
560.0 65.6594744142534
580.0 65.63545754949956
600.0 65.85781465529848
615.0 66.23488586274742
630.0 66.70750754292943
650.0 66.88427669552219
670.0 67.16354335056616
690.0 67.90711603131643
710.0 68.54038745253617
730.0 68.86990384198657
750.0 68.66703498503146
775.0 68.28138111427705
800.0 67.68719727020084
825.0 66.73138574995504
850.0 65.84383091951175
875.0 65.47372761258708
900.0 65.11281743747203
925.0 64.64741443954149
950.0 64.51000970115561
975.0 62.85917684409833
1000.0 62.83704931587461
1030.0 63.243534149720986
1060.0 63.03741869450228
1090.0 64.60528739415318
1120.0 64.64999506889315
1150.0 63.47950659324364
1180.0 62.084110613165606
1220.0 59.20971777552249
1250.0 60.23517623784393
1280.0 60.69960402393049
1320.0 58.95420629098221
1360.0 58.14110087159732
1400.0 59.06953640536433
1450.0 58.81276302191672
1500.0 58.52846411249864
1550.0 58.20944628493659
1600.0 58.07480794114569
1650.0 57.96563463180949
1700.0 58.97299486786518
1750.0 58.53150933756096
1800.0 59.025682942082526
1850.0 59.24406381105949
1900.0 60.94263732171818
1950.0 61.033879479121865
2000.0 61.07516441138749
2060.0 60.77794474859566
2120.0 58.060638351608205
2180.0 57.09954632022017
2240.0 56.77953351362878
2300.0 56.871987938812154
2360.0 57.047498542236596
2400.0 57.38081476780856
2500.0 56.981432675978155
2580.0 55.96803255323262
2650.0 55.149264701464276
2720.0 55.527299335192836
2800.0 54.23403366572548
2900.0 55.30190557017748
3000.0 55.34196225844646
3070.0 56.840271900012695
3150.0 56.95844727839777
3250.0 54.809957372473306
3350.0 50.849881052686484
3450.0 53.876972902607505
3550.0 59.68716049241881
3650.0 59.88032903278953
3750.0 60.02790120131182
3870.0 59.79161023567558
4000.0 57.82568504431099
4120.0 58.0254898103765
4250.0 56.97530579134447
4370.0 55.004390760079346
4500.0 54.54731484549556
4620.0 54.76080909007864
4750.0 56.16405785645044
4870.0 55.621044082659566
5000.0 54.89394878876179
5150.0 54.86909906567722
5300.0 54.88137191796925
5450.0 53.904861784765316
5600.0 52.42896267823245
5800.0 51.137285319399595
6000.0 50.059479259331894
6150.0 48.608211759355626
6300.0 46.860930279230914
6500.0 46.741018343779686
6700.0 46.56952774267101
6900.0 46.71916152873912
7100.0 48.516248717502194
7300.0 48.71245385399338
7500.0 49.7913975320662
7750.0 50.41237753816888
8000.0 47.62183813077375
8250.0 47.13144984609566
8500.0 44.62425867079331
8750.0 45.18065875369577
9000.0 44.33808274131563
9250.0 46.54768045858252
9500.0 47.13590754869291
9750.0 47.992210276963235
10000.0 47.88137239193641
10300.0 47.01160264725554
10600.0 45.41955459766076
10900.0 46.852655467681714
11200.0 45.989367128443874
11500.0 44.82008199769426
11800.0 43.3288080718997
12200.0 42.455808483376
12500.0 42.39538703980902
12800.0 42.33968225710662
13200.0 41.116741399491744
13600.0 43.171724352153674
14000.0 43.63389997611607
14500.0 43.119773042087374
15000.0 46.79899746212929
15500.0 41.145578526072725
16000.0 45.83993895595934
16500.0 41.80851241885553
17000.0 39.96638789263518
17500.0 38.510345456245105
18000.0 39.50146086930597
18500.0 37.694525187802654
19000.0 36.70334463454016
19500.0 33.30989612611047
