Freq "Side Wall Bounce"
22.4 40.814986439406866
23.0 43.096222375108354
23.6 43.77602593228981
24.0 44.71498643940687
25.0 46.25428030573791
25.8 47.85428030573793
26.5 49.05428030573792
27.2 50.5908330280737
28.0 52.01289786282952
29.0 53.35196290551484
30.0 54.890833028073715
30.7 56.21289786282951
31.5 57.332923955213985
32.5 58.71289786282951
33.5 60.11289786282954
34.5 61.31289786282953
35.5 62.61289786282951
36.5 63.812897862829516
37.5 64.81289786282952
38.7 65.91289786282951
40.0 67.11289786282951
41.2 68.39182852213291
42.5 69.67296391663129
43.7 70.8729639166313
45.0 72.05528421283437
46.2 73.2128978628295
47.5 74.49412475295077
48.7 75.75528421283437
50.0 76.91289786282951
51.5 78.0128978628295
53.0 79.01289786282952
54.5 79.89412475295076
56.0 80.49412475295075
58.0 80.99412475295075
60.0 81.37653115762306
61.5 81.57653115762305
63.0 82.07653115762307
65.0 82.69412475295077
67.0 83.15528421283436
69.0 83.27653115762305
71.0 83.57653115762305
73.0 84.0991828938706
75.0 84.69918289387061
77.5 85.34069560502893
80.0 85.79918289387061
82.5 85.99918289387062
85.0 86.06353453136353
87.5 85.96353453136352
90.0 86.10515943312173
92.5 86.20836566674541
95.0 86.32665241415447
97.5 86.39162055265051
100.0 86.41525488743419
103.0 85.8809332892942
106.0 85.44496259182715
109.0 85.36484170914808
112.0 85.549058604491
115.0 85.31124742943675
118.0 84.55580182201055
122.0 84.49563237628794
125.0 84.89563237628795
128.0 84.39563237628794
132.0 83.31124742943675
136.0 82.96484170914809
140.0 82.90517602692532
145.0 82.36112786014782
150.0 81.52716829450341
155.0 81.3609449224297
160.0 80.9020668150972
165.0 80.54076915095614
170.0 80.03451020591065
175.0 80.51085978538809
180.0 81.57207266357582
185.0 81.22316091499023
190.0 80.38371655373801
195.0 81.78173537653657
200.0 82.68173537653657
206.0 80.60952147010705
212.0 80.02294341461378
218.0 81.93493650528467
224.0 82.7108597853881
230.0 82.43493650528465
236.0 82.0763112305116
240.0 82.47932534300337
250.0 82.47771395983756
258.0 82.28019318522844
265.0 82.06194239850772
272.0 81.66331442451445
280.0 81.12294206300365
290.0 80.4057238816906
300.0 79.64511593690561
307.0 79.10321526148125
315.0 78.78174500464952
325.0 78.55083762362686
335.0 78.28564192380522
345.0 78.0648183037279
355.0 78.00244733609293
365.0 77.88471974316595
375.0 77.43903855586599
387.0 76.88529046351827
400.0 76.53089609356897
412.0 76.63582466892593
425.0 76.75616354842337
437.0 76.57408447483913
450.0 75.9587419904103
462.0 75.522405540806
475.0 75.29788356211463
487.0 75.18580872663861
500.0 75.07641786196082
515.0 74.79634520633277
530.0 74.39638281205691
545.0 74.24609988604534
560.0 74.1137354254145
580.0 73.67333189531122
600.0 73.52928895852693
615.0 73.9883621404288
630.0 74.723031163237
650.0 75.43766185082205
670.0 76.306085022092
690.0 77.00017677657479
710.0 77.16146135003662
730.0 77.04461653297858
750.0 76.6687111421303
775.0 76.28524738829312
800.0 76.17515596538638
825.0 76.34313836070744
850.0 76.37319258988465
875.0 76.41770857130267
900.0 76.08205917062018
925.0 74.99671875466301
950.0 75.08348558091399
975.0 74.70987636293097
1000.0 75.22786287689314
1030.0 75.58904800222162
1060.0 74.38804255130667
1090.0 74.69247956744694
1120.0 74.80748995685111
1150.0 75.09870048042974
1180.0 73.97805851073007
1220.0 69.27419175494533
1250.0 70.33174961750889
1280.0 71.74435522200294
1320.0 69.97205174368261
1360.0 68.16553555153612
1400.0 69.29766642028197
1450.0 69.64125992299495
1500.0 70.14384264326272
1550.0 70.0197857565629
1600.0 70.19508032229673
1650.0 69.84745429443696
1700.0 71.11646715855007
1750.0 71.17416610593531
1800.0 71.65204664031516
1850.0 71.83611647632839
1900.0 72.78127148321745
1950.0 73.81582294439666
2000.0 73.716753384227
2060.0 74.10773101220441
2120.0 72.92019376855346
2180.0 72.15557390125207
2240.0 73.23664419729415
2300.0 74.4085017258253
2360.0 72.32846663769611
2400.0 70.05499915074319
2500.0 68.01416099152408
2580.0 69.73946384817482
2650.0 68.34733899337976
2720.0 69.19499472452712
2800.0 69.12371597119333
2900.0 69.11220622347798
3000.0 68.69070336914622
3070.0 69.91274060713924
3150.0 72.07969629368226
3250.0 72.9684522528458
3350.0 70.72900792026468
3450.0 68.26634412002373
3550.0 72.19389863337321
3650.0 73.14686886104738
3750.0 74.37421421001308
3870.0 75.64191643082698
4000.0 73.09518578735923
4120.0 73.1997712268621
4250.0 72.76815291652002
4370.0 71.56549429405696
4500.0 72.43622237050533
4620.0 72.65744757768994
4750.0 72.80920869634934
4870.0 72.56971892866609
5000.0 72.07011468202609
5150.0 72.36521670019015
5300.0 72.59352149312187
5450.0 72.30363484527884
5600.0 71.06056356369893
5800.0 69.38166299985492
6000.0 68.91168138090846
6150.0 67.31314820760483
6300.0 66.46262009547934
6500.0 64.8967842702566
6700.0 64.8708503041445
6900.0 65.6259118450909
7100.0 66.82118109977164
7300.0 66.84346718772998
7500.0 67.31268035530051
7750.0 67.99502174998604
8000.0 66.45104588442663
8250.0 65.44786409278602
8500.0 62.929704998131896
8750.0 62.67776828769061
9000.0 63.584166953805564
9250.0 66.70798429271208
9500.0 67.0765501724669
9750.0 69.00762202849216
10000.0 68.27961549045223
10300.0 67.35690651088142
10600.0 66.00659198430209
10900.0 66.28633311262394
11200.0 66.14743893482289
11500.0 65.47248645148215
11800.0 64.46957746276182
12200.0 61.482249944303206
12500.0 62.881864920993124
12800.0 62.37463886903953
13200.0 61.908907122623575
13600.0 63.57989781330927
14000.0 62.930594070639685
14500.0 64.60032752680662
15000.0 67.53508953437704
15500.0 61.30927335393612
16000.0 66.09754101985446
16500.0 62.61390529557276
17000.0 61.01349556098309
17500.0 61.25922613446902
18000.0 61.69678067396042
18500.0 60.42604539417316
19000.0 57.10351373589897
19500.0 52.57103446987786
