Freq,Floor Bounce,Ceiling Bounce,Front Wall Bounce,Side Wall Bounce,Rear Wall Bounce,Total Early Reflection
22.4,-2.745632126764079,-2.178957522106103,-5.548103089808691,-1.12006691288083,-1.7287445283095764,-2.4261454960648763
23.0,0.7076238446529572,1.4727277951646869,-4.480839422020367,-0.26036390405811005,-0.7966603020246481,-0.2583353205098007
23.6,5.3758571467623,6.054979086106513,-2.6834199958756386,0.5691502194555795,0.21965293468967673,3.100951684468768
24.0,6.224463469688956,5.75738442775328,-0.5130104820759271,3.039419768314602,2.2848118186713435,3.99721026075882
25.0,6.763095904477538,5.045110110884465,2.0365982551602,5.354974187546119,4.34232969955282,4.966226448321763
25.8,7.116473881206375,4.184573696453199,4.751323110444432,7.121208466596883,5.970090120484386,5.990706293081288
26.5,7.875712941255458,3.3130393668409255,8.835641231525202,8.886529766729879,8.000397040599964,7.777576545968074
27.2,10.35839656229335,5.546722744143963,12.99824289827309,10.972991721311232,11.371896769678571,10.836267422283967
28.0,12.577958904578722,8.291274018897226,16.316459802542838,12.497018495288259,14.269944286518339,13.509159816659562
29.0,14.737656334532844,11.102458541481965,20.339500455641755,13.791348525725951,17.55548856513603,16.65932902526056
30.0,17.32568854718825,14.393945121558502,20.866328691042142,15.02493159500112,18.428752337458818,17.85400871652574
30.7,20.98040304794027,18.396659226035794,19.343157275168593,16.816477319547644,18.756385688976692,19.069426105788025
31.5,24.6314704613459,22.278120674408328,19.39622029525212,18.33882176196009,19.83618340106166,21.529031122152233
32.5,28.68641461186941,26.464157268941833,19.48793991052635,19.98934618045682,21.198118541333642,24.7781808010554
33.5,29.338689024392707,26.86923636679292,22.319167420068496,23.295875610281016,23.220798344355885,25.886475191995984
34.5,29.542181155623936,26.49737824887852,25.750678498621724,26.810890136759852,25.589397730406276,27.099961431546788
35.5,29.452103466818343,25.714807933605627,28.516536119297015,30.31177132534019,27.814841853976915,28.62605534873215
36.5,29.56305872912553,26.520281270070754,28.995143019369195,29.9540362486169,28.487220843611468,28.8556915080206
37.5,30.04300174470815,27.561777617490336,31.332327869145942,30.693463138462803,30.290861159098156,30.155095911360874
38.7,30.91093835412768,29.02709989690446,33.87333852177913,31.87947562635732,32.46429993446047,31.91875203532176
40.0,33.27124679213672,31.884522916550978,33.567340324213106,33.11704959613478,34.2227110640941,33.27754973541509
41.2,34.74191453930233,34.30437361623059,36.24670267475314,34.230115189964934,36.52389452769633,35.321908637089436
42.5,37.45975537937342,37.49594344455819,38.09174289411625,37.02875959213041,38.197219543085694,37.67628697362336
43.7,41.916811019822305,41.62996472325163,40.38311574946191,41.01710256036482,39.95376535592648,41.042000694262626
45.0,45.97031517553306,45.275857146762306,44.725358030912886,45.47286366358604,42.85582247599437,44.982621725097445
46.2,45.3507577094186,44.18495208939372,45.83538199690686,46.773439226178354,45.26901694008113,45.56396892555445
47.5,46.634603124778025,44.871140852474795,47.1049764429451,47.55337611796794,47.06092569664729,46.737100621190834
48.7,51.49891216158089,48.09631866118981,49.85732598656007,48.794006477127155,48.8061077719439,49.58291407915259
50.0,56.751659924136064,52.284275330107036,52.99802535862692,50.350437676558826,51.09577895793903,53.340843148483984
51.5,57.189469834319894,54.26847728821353,55.26644350522942,52.97162882157163,52.554192130566875,54.78643656571066
53.0,56.803412473705066,55.584349136110276,57.39593160054976,55.43832615228119,54.294888120319214,56.03891405920942
54.5,58.712632620018255,57.219632528404574,58.006844469386564,57.12352123809062,56.00549145301106,57.5079601144934
56.0,60.40403408369754,58.89508955360432,59.354468223059385,58.89851334642691,57.899437926524016,59.16690117951403
58.0,61.57809456796629,60.47568907153341,61.24746519235633,61.18784130362742,60.21802624985857,60.97099053538686
60.0,63.37124679213673,62.30546810457014,63.22874161040822,63.04921235675309,62.19558332408913,62.8568229271705
61.5,65.63583766738488,64.30403408369754,65.38287271809878,64.73065020111648,64.02189333355884,64.85872262207755
63.0,67.50403408369755,66.20718428904597,67.19690954144185,66.57126363479695,65.88443908314736,66.71466286924806
65.0,69.10245854148197,67.91263262001826,68.81291504545567,68.23156810036103,67.59132456378809,68.36618237714247
67.0,70.30245854148197,69.17114085247482,70.28090592724895,69.73340380347501,69.21493330787106,69.76834770932773
69.0,71.46889235585263,70.4365401097642,71.58057810010222,71.05243797608783,70.66775607022878,71.06368638518241
71.0,72.96814273070785,71.86810739877032,73.01060556168254,72.469078002039,72.26317570764657,72.53719439891555
73.0,74.79941261169009,73.8681073987703,74.73814770559946,74.48739350226509,74.39676518024451,74.47031758592124
75.0,76.39941261169008,75.46810739877031,76.16681719909083,76.0060995137806,76.15224742161408,76.04948852483538
77.5,77.39941261169008,76.50017419349514,77.18223225536927,77.06628329775928,77.31545233240246,77.10400702821963
80.0,78.13274463597061,77.30095337658994,78.03748553872902,78.00609951378058,78.16195129675027,77.93914904524584
82.5,78.8658227848101,78.00095337658993,78.65200728982961,78.60609951378058,78.8649894043679,78.60923485766521
85.0,79.46582278481011,78.60095337658994,79.28090592724894,79.16582278481012,79.48181529270799,79.210654925057
87.5,79.89941261169008,78.96659027926573,79.76648064550437,79.66582278481012,80.04435034710473,79.68408172457265
90.0,80.16582278481012,79.26659027926574,80.06648064550437,80.00609951378058,80.42480342818375,80.00271361591702
92.5,80.43274463597062,79.60095337658994,80.30896218014793,80.24600614366,80.68951364966742,80.27028528856182
95.0,80.56582278481011,79.66889235585263,80.48090592724895,80.38600784022599,80.87405470774235,80.41292819924875
97.5,80.69941261169008,79.76889235585263,80.60896218014794,80.52609866551917,80.91046960616197,80.51959391689385
100.0,80.76582278481011,79.80095337658994,80.66582278481012,80.56628329775928,80.83507872272143,80.54231396493948
103.0,80.7327446359706,79.76889235585263,80.72324727616825,80.54646876259602,80.64436131042312,80.4977600331253
106.0,80.7327446359706,79.70403408369755,80.65167727391248,80.52701752715194,80.44083228392785,80.42627835309509
109.0,80.66659027926572,79.63733079267948,80.62324727616826,80.44738332495533,80.22399782331115,80.33546898119127
112.0,80.53274463597062,79.47272779516472,80.55167727391249,80.36812510545062,80.0504288446416,80.21335739727662
115.0,80.43274463597062,79.3397023970383,80.39462994155538,80.24738332495532,79.8189862905508,80.06606954233617
118.0,80.26659027926574,79.0727277951647,80.26582278481011,80.02701752715193,79.60329938826243,79.87050527338134
122.0,80.00017419349513,78.7397023970383,80.06582278481011,79.84738332495533,79.3927295896878,79.63637288798802
125.0,79.73427362286444,78.47272779516472,79.8658227848101,79.66812510545061,79.2399732663875,79.42466832011884
128.0,79.56889235585264,78.20865308952983,79.66582278481012,79.36812510545062,79.06606516613353,79.20598091208502
132.0,79.23733079267949,77.87809456796629,79.43748553872902,79.16812510545061,78.91347834135901,78.9600696717046
136.0,79.00403408369755,77.57809456796629,79.20896218014794,78.90747878118168,78.7403390036378,78.72378445061825
140.0,78.7373307926795,77.27809456796629,78.98025024820758,78.64738332495533,78.4886492094327,78.46491118090991
145.0,78.47272779516472,76.91480793360562,78.78025024820758,78.3681251054506,78.21002847204653,78.19424708700707
150.0,78.14191453930233,76.4224953441106,78.61027996884796,78.15108319509555,77.93155301127328,77.91162129087608
155.0,77.9780945679663,76.12249534411062,78.40896218014792,77.93252905097779,77.58937837555735,77.67275202359646
160.0,77.7780945679663,75.82249534411062,78.22357945945542,77.69105945751723,77.27393849481375,77.43107203928346
165.0,77.6184323168323,75.53171124540698,78.10961353900741,77.47502889661419,76.98407684764987,77.22774774640543
170.0,77.31843231683229,75.07055808599587,77.90961353900741,77.1750288966142,76.5789993704983,76.91146319740388
175.0,76.99340997764604,74.51480637631853,77.68090592724896,76.8202657273659,75.85164504719154,76.50325945546632
180.0,76.82678792718193,74.35470825636015,77.45331208373052,76.68146652510268,75.43356458442999,76.28522907146626
185.0,76.99340997764604,74.61480637631853,77.65331208373054,77.07180735471754,76.53558767802507,76.6880779749754
190.0,76.89839496527568,74.31480637631854,77.65331208373054,77.0311990292084,76.83436287693382,76.68283515674828
195.0,76.70897104590445,73.85470825636014,77.56811755174704,76.79340273798397,76.78129711890286,76.50760896467601
200.0,76.43460312477801,73.22582240226002,77.51257428856367,76.597109679711,76.63339126088113,76.29726612874116
206.0,76.24964612648606,72.43851423803606,77.51257428856367,76.36680247604399,76.286099409334,76.06245941097734
212.0,76.24166886008159,72.00648960438185,77.57071777854632,76.21925106819585,75.6861210098573,75.88889678028332
218.0,76.34166886008155,72.01102794580393,77.67071777854632,76.18467997168162,75.1008780612771,75.82865641063265
224.0,76.4661639142084,72.21102794580393,77.67071777854632,76.19251779907724,74.66701887622855,75.80588438474716
230.0,76.49975111295579,72.28486728266354,77.68580701882455,76.19251779907724,74.59048897162164,75.81321043086608
236.0,76.4661639142084,72.16363262862869,77.61257428856364,76.07282286811905,74.5493223127629,75.73984126701716
240.0,76.39975111295578,72.01102794580393,77.5311099448056,75.83905393936696,74.43349056799941,75.61803749435926
250.0,76.31759716015752,71.85899765987904,77.48580701882454,75.69020894199191,74.14973653348292,75.4972478519198
258.0,76.29975111295579,71.94278054095928,77.38580701882455,75.69020894199191,73.89284047346906,75.4319434242151
265.0,76.29975111295579,72.08486728266352,77.38580701882455,75.7902089419919,73.8428254002605,75.45928672263864
272.0,76.2583928989462,72.13827527688656,77.36811755174703,75.94314359416246,73.99615529535453,75.50361892436497
280.0,76.1661639142084,71.98486728266353,77.36811755174703,75.99858920158867,74.22785209152187,75.51398871981255
290.0,75.94166886008158,71.61102794580393,77.35331208373053,75.94314359416246,74.27542862257481,75.42062275153965
300.0,75.73689022754928,70.98737144232037,77.29690954144185,75.7902089419919,74.15345987914199,75.25417438850718
307.0,75.55762094158419,70.42964483805677,77.29757792342917,75.62272687835579,73.79764492153508,75.08238695253995
315.0,75.47977930569284,70.0275654707326,77.32617590304207,75.45134286512025,73.43512641426189,74.95681269969059
325.0,75.53665661862361,69.69985325395825,77.47071777854633,75.40684745324944,73.06918854330321,74.94076639810301
335.0,75.76144762205404,69.53300740618137,77.77071777854634,75.66355031055566,72.85108059205399,75.12250801031819
345.0,75.54408024185113,68.45494530201937,77.88580701882454,75.87690392968334,72.99528569537479,75.13050143626751
355.0,75.27111773610544,67.33914372065156,77.88580701882454,75.77997304391577,72.94613533595367,74.9992831938134
365.0,75.10508031014582,66.69855793162391,77.88580701882454,75.76355031055566,72.98870149899344,74.9452562457092
375.0,74.88868263748765,66.29033501464258,77.78580701882456,75.67776383981628,72.91949114233726,74.81981603408178
387.0,74.66143994414456,65.63672932293126,77.68580701882455,75.53282210963572,72.47544518924798,74.6251216434505
400.0,74.33916800324896,64.67684132489474,77.65948868577793,75.40016453650686,71.71814780560742,74.40784326965779
412.0,74.10847050374217,63.81429212375362,77.68580701882455,75.49643421578017,71.2610367088086,74.3352818509883
425.0,73.87251308523288,62.96082104508592,77.71582912498083,75.62505674878419,71.22544909634351,74.32157227853224
437.0,73.76678025466187,62.542080059914,77.75948868577792,75.63763115023562,71.09852749839789,74.30718395239447
450.0,73.75585733790994,62.61165564927249,77.83110994480562,75.77355026058906,71.20176435343534,74.3849645035354
462.0,73.7049920646327,62.2808136712181,77.81582912498082,75.88348458960478,71.39140785437809,74.41441854294878
475.0,73.75518347584902,61.993828215976734,77.75948868577792,75.7341116627379,71.3416666172744,74.3484780519977
487.0,73.72583287624451,61.09352350166803,77.60506554203003,75.56028754030662,71.0612146115434,74.19046243151904
500.0,73.48944898483681,60.02221539909395,77.40506554203003,75.26028754030662,70.53114943083683,73.91757627855542
515.0,72.70913599820666,58.71128067381183,77.00506554203002,74.63689903543673,69.559966762778,73.33259242269405
530.0,71.43701489758449,58.35839289894621,76.47946219087892,73.89887357453391,68.6185902732377,72.59503142444517
545.0,70.1809178820777,59.3686682108259,76.27946219087893,73.541821717428,68.74843382886304,72.24516768623637
560.0,70.24718833143855,60.78703424053997,76.77946219087892,74.04850745064834,69.82125307642718,72.76090920082994
580.0,71.40569117535422,61.366897955525346,77.53361442025492,74.7000750859089,70.4298235741292,73.51857585274374
600.0,72.13245591325646,59.333929642601305,77.93361442025491,75.11188369057153,70.61125164641176,73.91977295653254
615.0,71.51682979667115,53.16054496131481,78.04430756628028,75.4660221467617,70.93585199694468,74.00501729097614
630.0,70.44271482578738,49.706485347723415,77.98580701882456,75.49815034228398,71.33934770622174,73.91411954931849
650.0,68.99786663271716,51.27806663318084,77.94430756628027,75.50901257240503,71.51013026593405,73.80496297949189
670.0,68.03803644545306,53.38204773528976,77.80506554203002,75.27523763621748,71.13807671921387,73.56396612891416
690.0,68.30705404544646,54.92385800631274,77.44184488589677,74.82751101909001,70.5901362505037,73.1979540549957
710.0,69.12053370536334,57.050757709418605,76.9055357719043,74.03790674033358,69.85608080951921,72.68237951574223
730.0,70.25070206752035,58.27381543696602,76.88658489643336,73.18309107759504,69.28301104216011,72.52285013729256
750.0,70.45160760419718,56.52719116103775,77.14729557311743,72.79565694023903,68.96954460018453,72.56796550165596
775.0,70.19686840659007,53.64161609560979,77.49739012793877,72.83101066992602,69.3433097271017,72.77302997887611
800.0,69.52717538772289,50.72184713039225,77.49739012793877,72.71189684351319,69.85222527274165,72.72418554782404
825.0,68.50160338444341,51.61143767534695,77.13673333265855,72.28299370557794,70.00002937169639,72.34845640719048
850.0,67.97754759293335,55.823540010323995,76.97688416495505,72.3728135785887,70.28230046680173,72.27645791283337
875.0,67.8119421216707,57.32053993607644,76.65926138287347,72.25053812014409,70.4312177243139,72.08186396449047
900.0,67.30305894325673,55.233853851372444,76.06470936279591,71.46135885029979,69.48779745778106,71.39903715817833
925.0,67.55643693365677,54.21378722210305,75.76925877471858,71.25293747896896,68.07337633400203,71.03618509142858
950.0,68.55966845617161,53.217559518273035,75.88658489643336,71.43311428171937,67.07522779811312,71.15148600866242
975.0,70.57759935703758,57.4574451161518,76.29340299225912,72.00413717878864,65.92529446517194,71.72309463347055
1000.0,71.91277357770996,61.00308074949585,76.7852368172321,72.75570862891063,64.21272979638024,72.35495341328276
1030.0,72.40822289148214,61.68272487165795,77.16399823571714,73.60342936173292,63.108922975304566,72.82868454998722
1060.0,72.24252157355977,60.20820660883133,77.37946219087893,74.07572124552013,63.75635638842071,73.02930641809269
1090.0,71.85388521846505,56.93966176284816,77.44038064425577,73.82156974138326,63.14888654414206,72.89851500046822
1120.0,71.62349142750354,59.72996283578665,77.53343387015194,73.42322302073016,63.00746150475756,72.83910789904435
1150.0,70.9981759201512,62.99356803320131,77.71668491869198,73.23526700997155,61.63929197164968,72.84246566277342
1180.0,70.52480662784548,63.32344072179339,77.71668491869198,73.37098465878066,61.08805722373148,72.81313704465684
1220.0,71.10271219304799,64.56456916028301,77.56869906781412,73.62506005474876,62.99399865285375,72.9188208363734
1250.0,71.64133391871347,65.3044039770341,77.1652457166321,73.59040210394114,64.38209687906117,72.81705672253642
1280.0,71.2171675320442,64.93408952685806,76.87688416495506,72.85490793143695,65.16530046413834,72.43778529868536
1320.0,71.09831306422701,64.68943381474722,76.71668491869198,72.20950628674451,65.42088133914177,72.19539482895296
1360.0,71.67246405537635,64.87285525509067,76.97325731377768,73.23989252386355,65.71232528951184,72.66661378509711
1400.0,70.4481080052995,62.350757709418616,76.81834242549137,73.17996005747982,65.2976306098102,72.30725148985775
1450.0,70.15515043029552,61.62818021423088,76.28867867289372,72.2464556441618,64.7713492621329,71.7108192204838
1500.0,70.29052236314853,60.64802091271066,76.19340299225915,71.5592272838512,64.57722039269667,71.50232467342471
1550.0,68.95634839519252,62.09457888609326,76.11668491869197,71.31093656357832,64.07347645554245,71.23569782032261
1600.0,69.20305894325672,62.60034693874488,76.00885648950891,71.0334037416687,63.14753335957241,71.12511127271448
1650.0,68.64720429469789,58.0677251398086,75.94159059261756,71.24743245496006,62.74844893271755,70.96587398280737
1700.0,68.53223886322938,59.41744947367148,75.85282821559895,70.57248748133566,62.65514161608222,70.7731623197183
1750.0,69.46478826580606,60.67328107744609,75.85282821559895,69.6499843120362,62.38851239661095,70.75191753625954
1800.0,69.00464900735122,59.639632009571315,75.8250548228131,69.43037315296137,60.86300335104234,70.57678762010629
1850.0,69.30595080697387,59.77981786597135,75.67551711995362,69.18250455245128,59.28862860079542,70.45724918906998
1900.0,68.49207004545009,60.75370963173417,75.74722915560018,69.11838277019366,59.20860550368309,70.39905859448719
1950.0,67.70814585106251,61.45617845754627,75.70140813803003,68.87776878302225,58.79413177325418,70.24845184357339
2000.0,67.35665841536407,59.30903508530527,75.62572446877007,69.23995855176399,57.85864124749354,70.1554856310092
2060.0,66.64053077442738,58.971359063930535,75.29142700764153,68.70915373538291,57.53943423717952,69.75125208380007
2120.0,66.87882978787783,59.96193401756467,75.3647093627959,68.83182288458822,57.43820750176772,69.86362100542365
2180.0,66.860737057075,60.82347145191859,75.29777664325323,69.4907050891563,57.49547859038999,69.94623053034076
2240.0,66.73626403018507,60.858824159927906,75.29415501814897,69.44851299440116,58.00372865635815,69.93110237170933
2300.0,66.64747444599685,60.626780072620136,75.34338099317586,68.74379528224352,58.95875927856238,69.84761385566726
2360.0,65.96976939307659,58.72242788051318,75.36420686024678,68.52018142980175,58.02002867717596,69.71591256834846
2400.0,65.93870216279242,59.46816036439516,75.51879228940008,67.80417483364212,57.41067888663581,69.73381925131177
2500.0,65.61729821553818,58.46614340685609,75.53728771948731,68.02130019980937,57.40572532542966,69.7336680525
2580.0,64.9061858457491,56.897666064596976,75.2185073669755,68.19414614640034,55.44452440802779,69.42376028698588
2650.0,65.39792198429386,58.22138780767226,74.96546218978862,67.724201834833,56.250983538213674,69.22674496057866
2720.0,65.4277798999202,56.06659027926574,74.89142700764152,68.44157851513125,57.62945864530842,69.27371471225415
2800.0,64.09394698865783,55.67728216581331,74.69193545395528,66.86147772478839,57.23275882265271,68.78258282275654
2900.0,63.38198525613606,55.52266715033919,74.60123832004085,66.01293364781762,57.33073186110195,68.56338586117539
3000.0,63.404451001552175,54.4363580060748,74.57398219552833,66.03829759864311,55.97754876148689,68.5184743369174
3070.0,62.49003524199115,54.02239293284866,74.36707346088767,66.25828928853922,54.86185321171722,68.31131052927508
3150.0,62.22243670452157,55.168195558636214,73.9603928293739,65.88322635523829,53.648360740201085,67.92319239056509
3250.0,61.75374599151431,54.336366857946146,73.9542677787385,66.1076883347873,54.43550989520034,67.92158975443215
