Freq "Estimated In-Room Response"
20.5078 51.236746501662566
21.9727 52.367922607692776
23.4375 54.23870654919929
24.9023 55.748730236377725
26.3672 57.07575409546837
27.832 58.45664918281963
29.2969 59.86524786299606
30.7617 61.31745594924041
32.2266 62.59624637728578
33.6914 64.10654635446235
35.1562 65.46426792272624
36.6211 66.95477066324523
38.0859 68.39264804594758
39.5508 69.59644740611378
41.0156 70.78684938976554
42.4805 72.00148003145168
43.9453 73.15974481567726
45.4102 74.26903961571188
46.875 75.31878443675245
48.3398 76.29637314514227
51.2695 78.11425202190117
52.7344 78.90397385684062
54.1992 79.6486493692015
55.6641 80.33530244540572
58.5938 81.39713221158131
60.0586 81.88634932785196
62.9883 82.74127415822745
64.4531 83.09805565811521
67.3828 83.70050152732556
68.8477 83.9656487639068
71.7773 84.43880429258448
74.707 84.81466759229475
77.6367 85.121688593584
79.1016 85.2610312290717
82.0312 85.5173792075257
84.9609 85.70221007202615
87.8906 85.89396606092905
90.8203 86.12719446192524
95.2148 86.28120608642807
98.1445 86.33951118147263
101.074 86.39918485471628
105.469 86.41224184215113
108.398 86.35969150202183
112.793 86.30142390351125
117.188 86.16492291955979
120.117 86.07995941249146
124.512 86.22395682905648
128.906 86.04426605335487
133.301 85.83673088000457
139.16 85.60627342567838
143.555 85.45349178000176
147.949 85.6514780133769
153.809 85.7984889032186
159.668 85.46317668201459
165.527 85.16470692954452
171.387 85.06820473208022
177.246 84.89704794895515
183.105 84.63219462763269
188.965 84.57674623643081
196.289 84.43277119290636
203.613 84.31223038064066
210.938 83.99254223918433
218.262 84.02200737157096
225.586 83.63380283339677
232.91 83.48925630747996
241.699 83.07057349178623
250.488 83.42152125298723
259.277 83.81455882988709
268.066 83.58159251171114
276.855 83.63341275123342
287.109 83.37843703228572
297.363 83.16288788273978
307.617 83.16656644217218
319.336 82.76765740446142
329.59 83.19981059560713
341.309 82.94310374921216
353.027 82.49059022371246
366.211 82.40805462658126
379.395 82.5325774264748
392.578 83.37290663594698
405.762 83.18852601220883
420.41 83.16643951565496
435.059 82.22928247449121
451.172 81.71758341723742
465.82 82.44270290791884
483.398 83.193278089413
499.512 83.04258057136066
517.09 82.16279205124418
536.133 81.63048794759857
555.176 81.58487162431015
574.219 82.2717542155444
594.727 82.66528787827437
615.234 82.71400221090143
637.207 83.38205646020575
659.18 84.11482755639605
682.617 84.22488457759063
707.52 83.57933897015242
732.422 83.16430301239099
757.324 82.72910056600054
785.156 81.55723184755107
811.523 81.8564660198384
840.82 83.19702081629883
870.117 83.07548077641248
900.879 82.79129653410091
933.105 82.88116039481322
965.332 83.29653869704165
1000.49 83.08447151445475
1035.64 82.83339514238628
1072.27 82.88615571080385
1108.89 82.68897189152386
1148.44 82.75700626632334
1189.45 82.56116554173568
1230.47 82.57018724606706
1274.41 81.95359954497764
1319.82 81.91939182007046
1366.7 81.27540924525007
1413.57 80.67897458855113
1463.38 80.81270864410507
1516.11 80.82435987312104
1568.85 81.07991730544367
1624.51 80.50354095643914
1681.64 80.72596848577874
1741.7 81.34780926392696
1803.22 81.53922928967982
1866.21 82.055320907816
1932.13 82.23660571286896
1999.51 82.2912025879349
2069.82 82.68710015742522
2143.07 82.51246924321748
2219.24 82.35977967819807
2296.88 83.00022915491638
2378.91 83.16847217903505
2462.4 82.31368929696627
2548.83 82.76705203314711
2639.65 83.04922759804573
2731.93 82.82709932247838
2828.61 82.9083138370334
2928.22 83.21021599935624
3030.76 83.43797105247899
3137.7 83.58899035178459
3249.02 84.2704609680564
3363.28 84.57571985716098
3481.93 84.60974719655584
3604.98 84.68870942179717
3732.42 84.70814218514994
3864.26 84.81573760276538
4000.49 84.88336102427925
4141.11 85.19248758180566
4287.6 85.24650208566909
4438.48 84.8683701555105
4595.21 84.3186909400101
4756.35 84.30459795640095
4924.8 84.2117420866598
5097.66 84.11848705343502
5277.83 83.92213350398988
5463.87 83.17845181539681
5657.23 83.09652730013542
5856.45 83.40027658976074
6062.99 83.74261737473603
6276.86 84.06770401629443
6498.05 84.05693495232622
6726.56 83.78084732351459
6963.87 82.8906679048533
7209.96 82.48619899522633
7464.84 82.82775846491316
7727.05 82.95503495335173
7999.51 82.94347773805089
8282.23 83.1561591832688
8573.73 83.2472960481436
8876.95 82.95512575386044
9188.96 82.8746722393789
9514.16 83.01111730816626
9849.61 83.13500766373129
10196.8 83.70950279695118
10555.7 84.29705941689197
10927.7 84.24540903950911
11313.0 84.13890921164511
11712.9 83.94281354178545
12126.0 83.91065354863811
12553.7 83.95812378341678
12996.1 83.9332002563801
13454.6 84.0664813274949
13929.2 83.79147266815289
14419.9 82.9476035240364
14928.2 81.58120802898618
15455.6 80.9146034556994
16000.5 80.24455040152316
16564.5 79.40606367349437
17148.9 78.48054192119511
17752.4 77.39574707029571
18379.4 76.41125197767575
19026.9 75.36263490591621
19697.8 74.53152067895073
19999.5 74.23344206618192
