Freq "Estimated In-Room Response"
20.5078 52.08180104711711
21.9727 53.21297715314732
23.4375 55.08376109465384
24.9023 56.59378478183227
26.3672 57.920808640922914
27.832 59.30170372827418
29.2969 60.7103024084506
30.7617 62.162510494694956
32.2266 63.441300922740325
33.6914 64.9516008999169
35.1562 66.30932246818078
36.6211 67.79982520869977
38.0859 69.23770259140213
39.5508 70.44150195156833
41.0156 71.63190393522008
42.4805 72.84653457690622
43.9453 74.0047993611318
45.4102 75.11409416116642
46.875 76.163838982207
48.3398 77.14142769059681
51.2695 78.95930656735571
52.7344 79.74902840229517
54.1992 80.49370391465604
55.6641 81.18035699086026
58.5938 82.24218675703585
60.0586 82.7314038733065
62.9883 83.586328703682
64.4531 83.94311020356976
67.3828 84.5455560727801
68.8477 84.81070330936134
71.7773 85.28385883803902
74.707 85.6597221377493
77.6367 85.96674313903854
79.1016 86.10608577452625
82.0312 86.36243375298025
84.9609 86.54726461748069
87.8906 86.73902060638359
90.8203 86.97224900737979
95.2148 87.12626063188262
98.1445 87.18456572692718
101.074 87.24423940017083
105.469 87.25729638760568
108.398 87.20474604747638
112.793 87.1464784489658
117.188 87.00997746501433
120.117 86.925013957946
124.512 87.06901137451102
128.906 86.88932059880942
133.301 86.68178542545911
139.16 86.45132797113293
143.555 86.2985463254563
147.949 86.49653255883145
153.809 86.64354344867314
159.668 86.30823122746914
165.527 86.00976147499907
171.387 85.91325927753476
177.246 85.74210249440969
183.105 85.47724917308723
188.965 85.42180078188535
196.289 85.2778257383609
203.613 85.1572849260952
210.938 84.83759678463888
218.262 84.86706191702551
225.586 84.47885737885132
232.91 84.33431085293451
241.699 83.91562803724078
250.488 84.26657579844178
259.277 84.65961337534164
268.066 84.42664705716568
276.855 84.47846729668797
287.109 84.22349157774026
297.363 84.00794242819433
307.617 84.01162098762673
319.336 83.61271194991596
329.59 84.04486514106168
341.309 83.7881582946667
353.027 83.335644769167
366.211 83.2531091720358
379.395 83.37763197192935
392.578 84.21796118140152
405.762 84.03358055766337
420.41 84.0114940611095
435.059 83.07433701994576
451.172 82.56263796269197
465.82 83.28775745337339
483.398 84.03833263486754
499.512 83.8876351168152
517.09 83.00784659669873
536.133 82.47554249305311
555.176 82.4299261697647
574.219 83.11680876099895
594.727 83.51034242372891
615.234 83.55905675635597
637.207 84.22711100566029
659.18 84.9598821018506
682.617 85.06993912304517
707.52 84.42439351560697
732.422 84.00935755784553
757.324 83.57415511145508
785.156 82.40228639300561
811.523 82.70152056529294
840.82 84.04207536175338
870.117 83.92053532186702
900.879 83.63635107955545
933.105 83.72621494026777
965.332 84.1415932424962
1000.49 83.92952605990929
1035.64 83.67844968784082
1072.27 83.7312102562584
1108.89 83.53402643697841
1148.44 83.60206081177789
1189.45 83.40622008719022
1230.47 83.41524179152161
1274.41 82.79865409043218
1319.82 82.764446365525
1366.7 82.12046379070462
1413.57 81.52402913400567
1463.38 81.65776318955962
1516.11 81.66941441857558
1568.85 81.92497185089822
1624.51 81.34859550189368
1681.64 81.57102303123328
1741.7 82.1928638093815
1803.22 82.38428383513437
1866.21 82.90037545327054
1932.13 83.08166025832351
1999.51 83.13625713338945
2069.82 83.53215470287977
2143.07 83.35752378867203
2219.24 83.20483422365261
2296.88 83.84528370037093
2378.91 84.0135267244896
2462.4 83.15874384242082
2548.83 83.61210657860165
2639.65 83.89428214350028
2731.93 83.67215386793292
2828.61 83.75336838248795
2928.22 84.05527054481078
3030.76 84.28302559793353
3137.7 84.43404489723913
3249.02 85.11551551351094
3363.28 85.42077440261552
3481.93 85.45480174201039
3604.98 85.53376396725172
3732.42 85.55319673060448
3864.26 85.66079214821993
4000.49 85.7284155697338
4141.11 86.03754212726021
4287.6 86.09155663112364
4438.48 85.71342470096505
4595.21 85.16374548546464
4756.35 85.1496525018555
4924.8 85.05679663211434
5097.66 84.96354159888956
5277.83 84.76718804944443
5463.87 84.02350636085136
5657.23 83.94158184558997
5856.45 84.24533113521528
6062.99 84.58767192019057
6276.86 84.91275856174897
6498.05 84.90198949778076
6726.56 84.62590186896914
6963.87 83.73572245030785
7209.96 83.33125354068088
7464.84 83.6728130103677
7727.05 83.80008949880627
7999.51 83.78853228350543
8282.23 84.00121372872334
8573.73 84.09235059359814
8876.95 83.80018029931499
9188.96 83.71972678483344
9514.16 83.85617185362081
9849.61 83.98006220918583
10196.8 84.55455734240573
10555.7 85.14211396234651
10927.7 85.09046358496366
11313.0 84.98396375709966
11712.9 84.78786808724
12126.0 84.75570809409265
12553.7 84.80317832887133
12996.1 84.77825480183465
13454.6 84.91153587294944
13929.2 84.63652721360744
14419.9 83.79265806949094
14928.2 82.42626257444073
15455.6 81.75965800115395
16000.5 81.0896049469777
16564.5 80.25111821894892
17148.9 79.32559646664966
17752.4 78.24080161575026
18379.4 77.25630652313029
19026.9 76.20768945137075
19697.8 75.37657522440527
19999.5 75.07849661163647
