Freq "Front Wall Bounce"
22.4 21.400000000000006
23.0 22.299999999999983
23.6 23.200000000000017
24.0 24.099999999999994
25.0 24.900000000000006
25.8 25.799999999999983
26.5 26.700000000000017
27.2 27.599999999999994
28.0 28.400000000000006
29.0 29.299999999999983
30.0 30.200000000000017
30.7 31.099999999999994
31.5 32.099999999999994
32.5 33.0
33.5 34.0
34.5 34.900000000000006
35.5 35.79999999999998
36.5 36.79999999999998
37.5 37.70000000000002
38.7 38.599999999999994
40.0 39.5
41.2 40.400000000000006
42.5 41.243139395337835
43.7 42.099999999999994
45.0 42.900000000000006
46.2 43.70000000000002
47.5 44.51442746339748
48.7 45.29999999999998
50.0 46.14313939533781
51.5 46.900000000000006
53.0 47.70000000000002
54.5 48.54313939533782
56.0 49.400000000000006
58.0 50.20000000000002
60.0 51.099999999999994
61.5 52.0
63.0 52.900000000000006
65.0 53.80000000000001
67.0 54.7716627539189
69.0 55.7
71.0 56.64313939533781
73.0 57.599999999999994
75.0 58.51442746339745
77.5 59.44313939533782
80.0 60.29999999999998
82.5 61.17166275391891
85.0 61.971662753918906
87.5 62.743139395337806
90.0 63.44313939533782
92.5 64.0716627539189
95.0 64.67166275391891
97.5 65.17166275391892
100.0 65.6
103.0 65.9716627539189
106.0 66.24313939533783
109.0 66.4716627539189
112.0 66.58618450501949
115.0 66.64313939533781
118.0 66.64313939533781
122.0 66.58618450501949
125.0 66.51508314243884
128.0 66.41508314243885
132.0 66.37166275391891
136.0 66.31508314243884
140.0 66.31508314243884
145.0 66.28618450501949
150.0 66.28618450501949
155.0 66.21508314243884
160.0 66.11508314243885
165.0 66.01508314243883
170.0 65.91508314243883
175.0 65.81508314243885
180.0 65.82979499755905
185.0 65.98748929892041
190.0 66.18748929892043
195.0 66.40229476693692
200.0 66.63175513861907
206.0 66.73175513861906
212.0 66.67525122642456
218.0 66.47525122642458
224.0 66.20489499373622
230.0 66.01998423401443
236.0 66.01998423401443
240.0 66.21998423401445
250.0 66.37848478147016
258.0 66.47848478147017
265.0 66.47848478147017
272.0 66.75000634017073
280.0 67.1500063401707
290.0 67.49366590096781
300.0 67.59366590096782
307.0 67.52386986096212
315.0 67.36779163544479
325.0 67.41363940606881
335.0 67.6600593685791
345.0 67.77602210108665
355.0 67.50433100962668
365.0 67.07602210108666
375.0 67.3600593685791
387.0 68.2351604799582
400.0 68.46005936857912
412.0 67.78847217927515
425.0 67.03516047995821
437.0 67.01068966302631
450.0 66.958217088195
462.0 66.55086213388185
475.0 66.499422931822
487.0 66.70343598990847
500.0 66.07740200741135
515.0 65.06913626975353
530.0 65.64124799874557
545.0 66.28969515549682
560.0 66.28147278830733
580.0 66.30343598990848
600.0 66.43156734312868
615.0 66.5319538584431
630.0 66.4074800989159
650.0 66.33900047053697
670.0 66.10630283696369
690.0 66.22561608974063
710.0 66.64733305442549
730.0 67.1109975474811
750.0 67.1109975474811
775.0 67.94733305442548
800.0 68.74733305442548
825.0 69.10619289148778
850.0 69.72395252405528
875.0 69.66413532059087
900.0 69.5081385713718
925.0 69.4293973114888
950.0 69.04514490518248
975.0 68.01395281285362
1000.0 67.878459211027
1030.0 68.10813857137182
1060.0 69.28420286618349
1090.0 69.12056937983726
1120.0 69.34083877325679
1150.0 69.07756868480412
1180.0 69.46131480277568
1220.0 69.34422812821549
1250.0 70.00748009891589
1280.0 70.43698126844556
1320.0 69.71192981210716
1360.0 70.04478277687244
1400.0 69.70230990919568
1450.0 69.60195831410924
1500.0 68.86373611801397
1550.0 68.14670449332895
1600.0 68.92693758264846
1650.0 68.64635577779922
1700.0 68.53504569680796
1750.0 68.6318477770171
1800.0 68.01638132775113
1850.0 67.6439603166061
1900.0 67.74487666271621
1950.0 67.76742801603287
2000.0 67.67046019190528
2060.0 67.63319793830922
2120.0 67.33041301268426
2180.0 67.75024658376157
2240.0 68.51226591037832
2300.0 68.791320468835
2360.0 69.18748236150778
2400.0 68.68487884215038
2500.0 68.31658777371707
2580.0 68.26261260512294
2650.0 67.90294592188675
2720.0 67.95372339025144
2800.0 68.73900047053698
2900.0 69.3269352551746
3000.0 69.6930960129136
3070.0 69.89119770038808
3150.0 70.17399037943576
3250.0 70.05183895141481
3350.0 70.63579562115001
3450.0 71.18571589797082
3550.0 71.98111989506361
3650.0 72.16960792951045
3750.0 72.04038822750714
3870.0 72.73913693431166
4000.0 72.5616737983287
4120.0 71.8126642161655
4250.0 70.92143677219721
4370.0 70.01871597561016
4500.0 70.05701632784636
4620.0 70.53134955233072
4750.0 71.23075277837184
4870.0 72.12541216703544
5000.0 72.38371986751632
5150.0 72.15185098971911
5300.0 71.67172908964989
5450.0 71.26132722614574
5600.0 70.82665233501481
5800.0 70.34196924791993
6000.0 70.84738675061453
6150.0 71.71691990140873
6300.0 71.71229138382957
6500.0 71.15647342030847
6700.0 70.2676446380404
6900.0 70.48089386776743
7100.0 70.59148794762555
7300.0 69.82625589588348
7500.0 67.94573733295574
7750.0 66.90082129598167
8000.0 68.60759228845752
8250.0 68.78524538660459
8500.0 69.75673747998877
8750.0 69.78762845269851
9000.0 68.90462704822603
9250.0 67.80726421930294
9500.0 66.73915377408952
9750.0 65.7380447314915
10000.0 65.93258227638468
10300.0 67.91205040693322
10600.0 69.73513138072356
10900.0 69.23812384217544
11200.0 68.44813371206784
11500.0 69.19621533276788
11800.0 68.87797199007785
12200.0 68.67823583810937
12500.0 69.763176019516
12800.0 68.27782613034124
13200.0 65.43520825757479
13600.0 65.81616290516187
14000.0 65.27015072435944
14500.0 61.69856490169428
15000.0 62.19746466887109
15500.0 59.292817981384246
16000.0 62.65537330364751
16500.0 62.945565486960746
17000.0 62.10519956344007
17500.0 62.143455173201716
18000.0 58.978372253592354
18500.0 59.5146247247892
19000.0 57.14902181401641
19500.0 56.53093987643042
