Freq "Estimated In-Room Response"
20.5078 39.059347955357154
21.9727 40.581347955357145
23.4375 41.96934795535715
24.9023 43.141348955357145
26.3672 44.516348955357145
27.832 45.83834795535715
29.2969 47.113348955357154
30.7617 48.36234595535714
32.2266 49.59334895535714
33.6914 50.77834595535715
35.1562 51.885348955357145
36.6211 52.77634695535714
38.0859 53.84734695535714
39.5508 54.90734395535715
41.0156 55.941347955357145
42.4805 56.94934395535715
43.9453 57.931345955357145
45.4102 58.88934595535714
46.875 59.66834595535714
48.3398 60.58034795535714
51.2695 62.320345955357155
52.7344 63.137346955357145
54.1992 63.89734595535714
55.6641 64.62534295535714
58.5938 65.82734595535716
60.0586 66.39834495535715
62.9883 67.34934195535715
64.4531 67.73634295535715
67.3828 68.33534195535715
68.8477 68.61734695535715
71.7773 69.10434695535714
74.707 69.48534295535714
77.6367 69.74634495535715
79.1016 69.85934395535715
82.0312 70.03434695535715
84.9609 70.15634095535715
87.8906 70.23134495535714
90.8203 70.28034095535715
95.2148 70.32034195535715
98.1445 70.32534695535715
101.074 70.31434595535714
105.469 70.26034495535716
108.398 70.21034195535715
112.793 70.12334395535713
117.188 70.06334595535715
120.117 70.04534095535713
124.512 70.03134095535715
128.906 70.02034695535714
133.301 69.98234495535716
139.16 69.85934395535715
143.555 69.77634395535715
147.949 69.71434695535714
153.809 69.66934095535714
159.668 69.62834095535716
165.527 69.53334695535715
171.387 69.34134595535714
177.246 69.11634795535714
183.105 68.99434595535715
188.965 68.97034395535717
196.289 68.88134695535716
203.613 68.72334195535714
210.938 68.65934695535715
218.262 68.57734595535713
225.586 68.41034595535713
232.91 68.31033995535715
241.699 68.20634395535714
250.488 68.06734395535715
259.277 68.05134495535715
268.066 68.15534095535715
276.855 68.27334495535715
287.109 68.24434595535715
297.363 68.05634195535713
400.0 67.33801352876729
412.0 67.33511129182295
425.0 67.3443976233972
437.0 67.3624575069458
450.0 67.38956757205955
462.0 67.41903820747147
475.0 67.45297723899749
487.0 67.48411689568749
500.0 67.51597486461372
515.0 67.54927423718114
530.0 67.57860958918549
545.0 67.6052180573346
560.0 67.63083911192206
580.0 67.66719386186743
600.0 67.70969622757794
615.0 67.7463168658882
630.0 67.78618448654606
650.0 67.84031467173104
670.0 67.88812633728618
690.0 67.92059546090685
710.0 67.92904987954294
730.0 67.90727109335309
750.0 67.8538595197186
775.0 67.74529295036784
800.0 67.60478424522624
825.0 67.45297732507821
850.0 67.31189685430202
875.0 67.19601063209556
900.0 67.10926345124842
925.0 67.04383919957725
950.0 66.9848019943086
975.0 66.91713399674362
1000.0 66.83244615237703
1030.0 66.71026507482105
1060.0 66.58243664860639
1090.0 66.47265617021445
1120.0 66.39703376187587
1150.0 66.35442292598121
1180.0 66.32901284376867
1220.0 66.28800882589269
1250.0 66.23714442095425
1280.0 66.17068271618375
1320.0 66.07448082958264
1360.0 65.98560925737287
1400.0 65.89930942742346
1450.0 65.7617975936687
1500.0 65.56997513784958
1550.0 65.35049643900115
1600.0 65.1498109950522
1650.0 64.9736613838408
1700.0 64.77867461660834
1750.0 64.52171932232609
1800.0 64.20988534203006
1850.0 63.90344356043009
1900.0 63.68007943274017
1950.0 63.60028934059862
2000.0 63.7018179294824
2060.0 64.07925554988445
2120.0 64.6671845884866
2180.0 65.29455447570227
2240.0 65.78723352024905
2300.0 66.06736852212866
2360.0 66.1679806809228
2430.0 66.16583443872008
2500.0 66.09987111413342
2580.0 65.95792788344319
2650.0 65.79328001599018
2720.0 65.56526037181749
2800.0 65.23050743386305
2900.0 64.97331723255333
3000.0 64.7655640489055
3070.0 64.53488554038661
3150.0 64.40884939541435
3250.0 64.20159197053039
3350.0 63.61082541298889
3450.0 63.12723814025286
3550.0 62.71427935606759
3650.0 63.7689622107858
3750.0 66.2175929535516
3870.0 68.0567111435844
4000.0 68.6610260936592
4120.0 68.56335633362264
4250.0 68.56030022143457
4370.0 68.36032081152943
4500.0 68.1320807715863
4620.0 67.74272951500969
4750.0 67.58747284400407
4870.0 67.389852199092
5000.0 67.43874933687044
5150.0 67.38708764549345
5300.0 67.24316132215439
5450.0 66.91497532730115
5600.0 66.31877674645798
5800.0 65.80644163098412
6000.0 65.89608187593906
6150.0 66.19550955388137
6300.0 66.25212220810802
6500.0 66.38443148803172
6700.0 66.46015035331985
6900.0 66.35770034105623
7100.0 66.09084282679775
7300.0 66.08873711140907
7500.0 66.33045039458173
7750.0 66.28661542143531
8000.0 66.18600433168547
8250.0 65.74416442410241
8500.0 65.10020813207205
8750.0 65.41746543455052
9000.0 66.15504578689142
9250.0 66.14546480296808
9500.0 65.83994262201779
9750.0 66.11701421260169
10000.0 66.23621002800313
10300.0 65.5997364435654
10600.0 65.55532809410522
10900.0 65.42010528747271
11200.0 64.85342115325558
11500.0 64.4404799316603
11800.0 65.01359146324285
12200.0 65.38343232946156
12500.0 65.2880701558199
12800.0 65.63134019604821
13200.0 65.29368706311345
13600.0 65.07913723471277
14000.0 65.13868997846231
14500.0 64.73588802110777
15000.0 65.05664931279416
15500.0 65.03770896711812
16000.0 65.05441835661036
16500.0 64.58330145962508
17000.0 64.35858956659443
17500.0 63.67361889244616
18000.0 63.33635828839941
18500.0 63.085319179974434
19000.0 62.61437948064534
19500.0 62.321921544604336
