Freq,Floor Bounce,Ceiling Bounce,Front Wall Bounce,Side Wall Bounce,Rear Wall Bounce,Total Early Reflection
22.4,41.500767494455616,41.466921851160535,41.287166892243604,40.630791228195434,39.791047719278694,40.982240112405876
23.0,42.8,43.13358982687997,42.78683695097148,42.08263767961729,40.973488580657474,42.42011835333939
23.6,44.70076749445563,45.166921851160495,44.872648431131594,44.211228382851445,43.075928243490736,44.46423480484579
24.0,46.533589826880004,46.866921851160484,46.64346508697899,46.09607007138568,45.19871529815457,46.306200913929146
25.0,48.000000000000014,48.13358982687997,48.00065786069426,47.53437889258369,46.98497375042756,47.75092369661503
25.8,49.033589826880004,49.033589826880004,48.97166275391892,48.56304282190128,48.20048474912018,48.772812638088524
26.5,49.8,49.866921851160484,49.81475531529209,49.354892214005886,48.97451066892704,49.575787203727046
27.2,50.8,50.90076749445562,50.84346508697898,50.36533936593055,49.87463541416379,50.573934639916544
28.0,52.26692185116049,52.40076749445562,52.34346508697895,51.836202630148435,51.274757316390705,52.04454659946332
29.0,53.866921851160484,54.000767494455616,53.971662753918906,53.45557441060386,52.89552465617187,53.65777572808322
30.0,55.26692185116049,55.33435140868501,55.3716627539189,54.85535223900304,54.29019167378529,55.04254683167706
30.7,56.366921851160484,56.40076749445562,56.471662753918906,55.925236672707115,55.37938141716077,56.12780098643971
31.5,57.46692185116051,57.46845083805434,57.51508314243884,57.02523667270711,56.468913237903806,57.20696505667311
32.5,58.633589826879984,58.600767494455624,58.71508314243884,58.20529453839417,57.68982442471231,58.38531627664308
33.5,59.766921851160504,59.70076749445562,59.82913392494288,59.3446367984311,58.86354745705924,59.515586281542824
34.5,60.70076749445562,60.70076749445562,60.80065786069426,60.2949431737966,59.858297403624775,60.48506102392997
35.5,61.5669218511605,61.500767494455616,61.68618450501948,61.17461859944727,60.73218931549482,61.34552135529751
36.5,62.500767494455616,62.500767494455616,62.61508314243885,62.1252366727071,61.69540050951825,62.30041190362749
37.5,63.566921851160515,63.500767494455616,63.6861845050195,63.14463679843108,62.737350851476435,63.340670404715155
38.7,64.50076749445563,64.40076749445562,64.60065786069426,64.07532970728462,63.68497091767054,64.26512280078929
40.0,65.2007674944556,65.06845083805432,65.31508314243885,64.76466350479163,64.38497091767054,64.95955805473413
41.2,65.73435140868503,65.63513059177983,65.85808127197247,65.30529453839416,64.92751179579598,65.5049045435465
42.5,66.30076749445563,66.16845083805434,66.41508314243885,65.86604130619769,65.48509253013891,66.0598428633881
43.7,66.90076749445561,66.73513059177984,67.01508314243883,66.44651921590768,66.0745162188277,66.64744207565865
45.0,67.50076749445562,67.30306957104253,67.61508314243883,67.02640847098313,66.633165609105,67.2298425146235
46.2,68.00076749445562,67.80306957104251,68.12946066855592,67.52640847098311,67.14372020454148,67.73482926795558
47.5,68.40076749445562,68.20306957104252,68.55840584504061,67.92757995317388,67.52294698167069,68.13779518430748
48.7,68.7007674944556,68.50306957104252,68.84412398190064,68.18800817645486,67.76561647728794,68.41721158840916
50.0,68.96845083805432,68.70306957104252,69.11508314243883,68.40920611180408,67.9603689259445,68.6505614870189
51.5,69.26845083805433,69.00306957104253,69.41508314243883,68.66137558534048,68.20799749417911,68.93264368368513
53.0,69.66845083805433,69.40306957104251,69.81508314243884,69.0417909162953,68.59783514161455,69.32725074926012
54.5,70.03513059177983,69.77150800786937,70.20130813607778,69.42026053647048,68.98254417969012,69.70392627346406
56.0,70.33513059177983,70.03821129888743,70.5013081360778,69.69195795084288,69.28388582805032,69.99211423863294
58.0,70.50306957104253,70.23821129888744,70.71606664920141,69.87342753758246,69.4849754045156,70.1852536322955
60.0,70.66845083805433,70.37150800786938,70.88748929892041,69.97342753758245,69.5645102368003,70.3188654357436
61.5,70.83663575667187,70.5069050103546,71.07330291364354,70.0977325124543,69.60780851305458,70.45559132050458
63.0,71.00306957104252,70.70690501035459,71.25971162456001,70.22946182531864,69.64308832049328,70.60580749647114
65.0,71.27150800786937,70.97150800786939,71.50229476693691,70.47964889444026,69.83804833433561,70.85239776016242
67.0,71.50306957104253,71.23821129888744,71.80229476693692,70.76169200019372,70.0640268905972,71.11555677511925
69.0,71.77150800786939,71.5069050103546,72.08748929892043,70.99302390539707,70.3511707018791,71.38411211452164
71.0,72.03821129888743,71.70690501035459,72.31704993328869,71.20464176652666,70.56828589342028,71.61053487800254
73.0,72.23821129888742,71.87609175449221,72.53175513861906,71.33682765922245,70.71364296048132,71.78685858969027
75.0,72.37150800786937,71.97609175449222,72.73175513861906,71.45342828338575,70.76633703691472,71.91385862220271
77.5,72.57150800786938,72.1760917544922,72.88879404668059,71.63333063047925,70.85582618115745,72.0830652777528
80.0,72.7404416794549,72.41227178315619,73.13175513861907,71.79530101199786,71.05838050154223,72.28751103365865
82.5,72.9760917544922,72.64283030471974,73.36102474302639,72.00613872122214,71.28908811732843,72.51539549404309
85.0,73.20690501035459,72.87609175449221,73.61834583164504,72.19256085206017,71.40487730261309,72.72816305161963
87.5,73.40690501035459,73.0122717831562,73.81834583164506,72.33770506889032,71.45310906859628,72.8831894740979
90.0,73.57609175449221,73.14576719438469,74.00489499373622,72.4609765566923,71.48054806267353,73.02113315925747
92.5,73.67609175449222,73.21227178315618,74.11834583164506,72.51551956779831,71.59215605051479,73.1113146564166
95.0,73.77609175449221,73.31227178315619,74.20489499373622,72.555781368995,71.69208689992601,73.19755143384582
97.5,73.8457671943847,73.38219967332303,74.31998423401444,72.61900352184482,71.81197825514154,73.28478690408666
100.0,74.01227178315618,73.44898514879551,74.46264712636356,72.71546897769412,71.85713305977067,73.39576805479254
103.0,74.21227178315618,73.55260953202217,74.66426890385725,72.81484624821933,71.88140054881168,73.53528777018398
106.0,74.48219967332305,73.65667255930049,74.89366590096783,72.87814073156818,71.86885085446954,73.68896782987895
109.0,74.71592692226707,73.72758719283591,75.12192748204644,72.98445539051524,71.8710719559652,73.83822659256026
112.0,74.95260953202218,73.79897445130926,75.32192748204642,73.07418561190461,71.92288574667084,73.98580748711127
115.0,75.18219967332304,73.93752777300028,75.53886510329349,73.1758537808363,71.88548241700823,74.14142982815515
118.0,75.38219967332304,74.13752777300027,75.7817624374694,73.31217813465831,71.68541519980961,74.29751182814722
122.0,75.65260953202218,74.5096325668162,76.11104165806829,73.53006314356413,71.44126909789372,74.54286191038163
125.0,75.88982856673472,74.9096325668162,76.42645994933288,73.77198939071812,71.43501754945576,74.81308246115258
128.0,76.1234968506598,75.1096325668162,76.6535406549824,73.97988554794443,71.68057489246983,75.03501781242518
132.0,76.32349685065981,75.3096325668162,76.84079992330715,74.1898058507734,71.92488608643552,75.23699623678908
136.0,76.48982856673472,75.37082970284297,76.94079992330714,74.29602135949003,71.81738813089231,75.32837529952458
140.0,76.55260953202217,75.4096325668162,77.02645994933287,74.33047515495522,71.49901628185012,75.35586498650508
145.0,76.5234968506598,75.37082970284297,76.95383697975169,74.26849892783243,71.2770972547985,75.29123709067123
150.0,76.32349685065981,75.3096325668162,76.84079992330715,74.16440281900222,71.27180397603615,75.17602562871154
155.0,76.26096514237182,75.23752777300027,76.76910435091776,74.02960633803636,71.3619991454314,75.11013191612126
160.0,76.36096514237182,75.18219812790055,76.89983152576666,73.92807225043639,71.43674549496986,75.15455343885326
165.0,76.6948570588317,75.22179738688895,77.17172729776472,74.00936514327825,71.41117357485028,75.3440837053002
170.0,77.1234968506598,75.48219812790056,77.47172729776472,74.35372391656017,71.19436044518258,75.639213954108
175.0,77.48656646311248,75.9096325668162,77.71363940606881,74.827583819366,70.84078942525092,75.9472168847607
180.0,77.6457671943847,76.0096325668162,77.78301011426989,75.00666769254987,70.60270003576724,76.0473019943144
185.0,77.5457671943847,75.70963256681621,77.6136394060688,74.73881089411022,70.47095180240787,75.85941673443207
190.0,77.3457671943847,75.28219812790056,77.41363940606881,74.40494978605732,70.27340359765915,75.59591459413848
195.0,77.24576719438468,75.02179738688895,77.256113113523,74.26578140405725,69.84548813719377,75.42418150940846
200.0,77.07977745790568,74.72179738688895,77.06910435091775,74.1486114446066,69.08015696816217,75.20393363376722
206.0,76.5098662867233,74.02179738688895,76.4538369797517,73.65912829304635,68.07526251065259,74.58951505669552
212.0,75.7098662867233,73.12179738688896,75.6110416580683,72.87139335157092,67.08734564556279,73.75270267163718
218.0,75.50986628672328,72.86194867563766,75.42645994933288,72.60462888799916,66.87620140432462,73.53583167784895
224.0,76.60986628672329,73.73546263134683,76.45611311352299,73.52015702768848,67.79016116820107,74.53837449525956
230.0,78.30986628672329,75.23546263134682,78.1010740230561,75.03846025355925,69.20608394104543,76.14815886378263
236.0,79.7098662867233,76.27641629732153,79.3742890094967,76.18793958814416,70.08166071912774,77.39268500629981
240.0,80.3404416794549,76.56194867563765,79.82966643952459,76.70493695708019,70.26649489826403,77.8827853067338
250.0,80.27071732495409,76.28888547155002,79.5427369100676,76.55171725258442,70.10700179988272,77.70027052982466
258.0,79.63435140868503,75.63752777300029,78.68363464491686,75.97512405743763,69.9092520678635,77.0204601023199
265.0,78.86692185116051,74.92758719283593,77.79366590096781,75.2641393194397,69.80568410770154,76.26282780666132
272.0,78.33358982687997,74.59471929119204,77.30942178676626,74.84057656956021,69.89001125761366,75.82043420838778
280.0,78.13358982687997,74.33752777300028,77.21231286508058,74.59542244770846,69.88387962582321,75.64409222149469
290.0,78.13358982687997,73.76194867563764,77.21139323072619,74.338706162083,69.3004773554023,75.49329526690103
300.0,78.13358982687997,72.8599996174499,77.0876783447409,74.03742436203366,68.16940090041831,75.24847845364222
307.0,77.86692185116051,72.23469773360898,76.86464062150341,73.69784806032997,67.09924333227895,74.91529141041629
315.0,77.26845083805433,72.30982855556755,76.58683032261247,73.38687034136618,66.41004455948953,74.53601588199514
325.0,76.87150800786938,72.48538710465898,76.4764503209539,73.25904507924525,65.98948689350811,74.34434358679533
335.0,77.14044167945492,71.85295536787778,76.73318639800505,73.29527769916858,65.38750546804418,74.44148948985506
345.0,78.00986628672328,70.74583147157398,77.16348107211654,73.49588923104922,64.99682214242794,74.84812574074003
355.0,78.7053180676647,70.44583147157397,77.43938028213627,73.77802033136102,65.13942061712193,75.26055583917221
365.0,78.87071732495409,71.5599996174499,77.3742890094967,74.00588912953053,65.83877166761526,75.4417624703952
375.0,78.7007674944556,73.00261155895365,77.07789117501996,74.17604912610719,66.5695603530626,75.461265467003
387.0,78.46769521305295,73.6236110299371,76.79652978777368,74.10869713830975,65.98675296998393,75.33651848759135
400.0,78.20076749445562,73.52926676879422,76.59432608766176,73.79252553328986,64.91210542234715,75.08704074613397
412.0,77.67071732495408,73.25017075212571,76.37212150673942,73.28919303392233,64.10598031439604,74.68043168016862
425.0,77.01592692226706,73.30906430015985,76.10569195150768,72.72897520190774,63.484652557880906,74.26494836144006
437.0,76.78656646311248,73.93964531976002,75.86998867071794,72.42272773536745,62.68782198464402,74.16474233158596
450.0,77.17449351030439,75.17896989520116,75.5136394060688,72.55976211223611,61.519048365680845,74.476772064869
462.0,77.60306957104252,76.42761355743555,75.00909353197731,72.5898034506914,60.38189507318249,74.84157443631229
475.0,77.04415774934851,76.79156164294318,74.12349086781175,71.9456908987142,59.773511853960514,74.49773099817165
487.0,75.80531806766471,76.28493492460849,73.152284481936,70.92322576467397,60.14724053143871,73.6037969138078
500.0,75.23663575667186,75.70131827952115,72.89088351199028,70.65247101142353,61.21543228641116,73.13698667249834
515.0,75.57896989520115,75.48573781157955,73.45808920831807,71.48033415300277,61.592025728622644,73.39149125804354
530.0,75.60920925226938,75.1888886353865,73.93239351163145,72.12436192300832,61.615209885739034,73.49875956668404
545.0,73.92021956404322,74.34577223479651,73.31508314243884,71.35596691539244,60.82637552242913,72.4645103238313
560.0,71.44743899086734,73.12180052683972,72.25937959077517,69.85994018819098,59.52489640040578,70.92572834180586
580.0,70.18538710465897,72.24197022557485,72.13628240487206,69.1575355994182,58.936453271358616,70.2174150689954
600.0,70.67387961222816,71.75274994214361,73.25504219146028,69.62409718542482,59.280594273905166,70.63168139979264
615.0,71.46235742942078,71.00137735040873,74.27735751114612,70.10219774217597,59.47107550372721,71.10559752897444
630.0,71.18042420054253,69.55126502581491,74.30770675025597,69.80435700997693,58.65644677738189,70.74803252637791
650.0,70.17106876148262,68.20588302564899,73.86102729029814,69.2673966772469,57.644635300154334,70.03241202500409
670.0,69.75477168396807,67.8183762697283,73.81889034906288,69.37740803510607,57.800663509484124,69.90002375682484
690.0,70.3231203439938,68.40879341872709,74.41495095203726,70.33824584504042,59.19151755130946,70.56768455491793
710.0,71.76127480547919,68.80609330848388,75.35759138885906,71.61168712970202,60.622709828358566,71.6185859536474
730.0,73.62081894554056,68.53167212130373,76.23308501533552,72.64323099663652,61.36420344799912,72.64363773682443
750.0,75.25648313414827,68.33167212130373,76.78141672494938,73.14919024015316,61.45288511087675,73.4267051419723
775.0,75.99220047151572,68.87703977141008,76.89133038661679,72.85096936076313,60.895044023551335,73.68656670331232
800.0,75.91655999317605,69.97404084094028,76.55772525369959,72.03777627559104,59.83409544105869,73.47171894777794
825.0,75.47872996753789,70.95218761292406,76.1051370266001,71.14337401896869,58.6103357113053,73.1083605374697
850.0,74.94659692804832,71.32081894554055,75.69534772544964,70.37278016183906,57.53818921193428,72.712284424861
875.0,74.37182978310014,71.0612748054792,75.39853156124413,69.67148555884306,56.58994184770809,72.279987972667
900.0,73.91753803239935,70.2322203479123,75.38703327316009,69.09957714576312,55.57634673671018,71.94539941287583
925.0,73.86136837622763,69.51246641261481,75.67359454492977,68.95660440220573,54.782715383066815,71.95131341414073
950.0,74.64852015458807,69.6790630956635,76.51808860699883,69.54570265210862,54.46778939147869,72.6760972067259
975.0,75.8625132206552,70.67259587131696,77.5668826221196,70.42326174355834,54.28209975746057,73.75275026024164
1000.0,76.74197022557485,71.838413478466,78.35485493099262,70.8387770708635,53.85777362444718,74.57394472241603
1030.0,76.81638770313008,72.58135366160674,78.52495635519732,70.40308561285123,53.37032142564324,74.7291852763092
1060.0,76.5361070797735,73.13841347846599,78.31704033837455,69.77242976864024,53.56621767655837,74.57066859922212
1090.0,76.25295536787779,73.5746684327642,77.98932537385285,69.71600725139014,54.49180639522986,74.39531482276772
1120.0,76.05405093453074,73.80807851055698,77.623916309892,69.99455547450994,55.66031853130619,74.23441388909193
1150.0,75.79215915969807,73.64577223479651,77.32913394039208,70.05062423545255,56.29524228037653,74.00399028851558
1180.0,75.56049191915861,73.0457722347965,77.08635692033319,69.76462156158097,55.95880472396183,73.6971707672979
1220.0,75.58686427957848,72.57655346032071,76.92921294007157,69.40444713017905,55.03538735648594,73.52734219115895
1250.0,76.00780688674016,72.4795147828385,76.88388437597546,69.14895475528985,53.825123015450785,73.61121869643567
1280.0,76.25206000485605,72.2229808763236,76.77987244039228,68.92405822516395,52.7092413590055,73.59863827835493
1320.0,75.60084968059334,71.09810190657838,76.2605606238901,68.46704482724586,52.0425111167571,72.95127451015246
1360.0,74.22883004806296,68.81066097743327,75.4695007977857,67.62530492278098,51.14605620289829,71.77441546092916
1400.0,72.95876018037256,65.88013829070435,74.6800611129992,66.52557775434829,48.43514671940794,70.6127623172427
1450.0,72.46054185033273,63.11960215935092,74.30478098779965,65.37344830290867,44.59542979407293,70.00806796544857
1500.0,72.98409431635572,61.17816170345354,74.33039440076267,64.10905444592048,43.19432943314244,70.07682331830124
1550.0,74.19533293944943,60.236977618530304,74.77573225569249,62.94453749801056,43.90521122120073,70.74496590006454
1600.0,75.74369319290012,62.10942248426021,75.32178297332634,62.50180850869967,46.89924670457553,71.76307311863162
1650.0,76.82784918930247,65.45392909993532,75.4651792933425,62.72209672044771,49.846077073251095,72.49676232905236
1700.0,77.52515277217113,67.70718377107983,75.07942040180362,63.63857146471862,51.07595697075389,72.88270504677963
1750.0,79.41764094473969,70.34850588118668,74.53652031961127,66.04596454525408,53.205210088820664,74.18105127474267
1800.0,83.06397898468681,74.49517048879656,75.3512501805796,70.18885548593629,57.1000717380585,77.4175623035881
1850.0,86.39055198387904,78.51406839527002,77.67688912113677,74.11767583820215,61.32504902987752,80.7359292454773
1900.0,86.68758430402913,79.73753193576904,78.75662527155994,75.22442596651409,62.89968732127822,81.27680546155575
1950.0,83.88641801856915,77.95078859213113,78.59554275286584,73.65347599754352,61.393808119655844,79.0744299315469
2000.0,80.73122235461814,75.49980341180724,79.07215048775234,71.79115562450379,59.35564639939237,76.9992025913426
2060.0,78.70042909327391,73.48436202808594,79.36855797397092,70.99725515539616,58.142196830862886,75.93610399753275
2120.0,77.33902538151331,71.72664543441657,78.94057381111097,70.80231209104461,57.44526900604929,75.05170878100917
2180.0,76.0856305010166,69.838413478466,78.3919946364711,70.62790794033475,56.79497820802685,74.19385842120296
2240.0,74.81005574299301,68.02989801244426,77.95986890649293,70.28757475823214,56.17063157685806,73.43356221272974
2300.0,73.79149834886483,66.54752518744493,77.73719171871761,69.84405007407504,55.5444796650186,72.91608355442426
2360.0,73.01892965557536,65.57858264009717,77.69895633507191,69.41860873175452,54.99590161682184,72.6285852453193
2400.0,72.6386283444531,65.11638770313007,77.75049897633089,69.18541587687459,54.54163865266922,72.54089222612775
2500.0,72.57406529517378,65.00427244119464,77.74484462421981,69.13805431646132,54.10691186711111,72.51428408165667
2580.0,72.65771722551388,65.13952019133505,77.65351770674819,69.22363967340948,53.81199705088656,72.48302172204616
2650.0,72.67669886108565,65.39348099807185,77.59051896254712,69.31924195216006,53.8814834959871,72.4647646505081
2720.0,72.69985839331692,65.4832722873143,77.53091564496832,69.39122462204098,54.11118019296927,72.44229524449365
2800.0,72.67355758553458,65.47117608287158,77.53528199397148,69.56453101247283,54.32749325664217,72.45720548610926
2900.0,72.44321526348381,65.21457659839159,77.558234333188,69.75653755239976,54.252952639660364,72.43477451184701
3000.0,72.04321526348382,64.90130625083816,77.49448500975782,69.81431147282755,53.79449758425751,72.30869968035427
3070.0,71.55588982462696,64.54784005079641,77.15090879982857,69.51193878956778,52.791987155984785,71.94103616920538
3150.0,71.08201452057557,64.36946872863663,76.77653594432194,69.05210736465567,51.7146462800021,71.54465809508481
3250.0,70.62294362715997,64.18904562770858,76.53062659674579,68.795143441456,51.164827707897174,71.26186822644296
3350.0,70.31771402261226,63.99868001632912,76.5942429062622,68.85473793250019,51.36394036935509,71.25398401452155
