Freq "Rear Wall Bounce"
22.4 39.442946453455946
23.0 40.625387314834725
23.6 42.72782697766799
24.0 44.85061403233179
25.0 46.63687248460481
25.8 47.8523834832974
26.5 48.62640940310429
27.2 49.52653414834107
28.0 50.926656050567956
29.0 52.547423390349095
30.0 53.94209040796254
30.7 55.031280151338024
31.5 56.12081197208104
32.5 57.341723158889536
33.5 58.51544619123651
34.5 59.510196137802026
35.5 60.384088049672044
36.5 61.3472992436955
37.5 62.38924958565369
38.7 63.33686965184776
40.0 64.03686965184777
41.2 64.57941052997322
42.5 65.13699126431614
43.7 65.72641495300493
45.0 66.28506434328224
46.2 66.79561893871872
47.5 67.17484571584792
48.7 67.41751521146517
50.0 67.61226766012173
51.5 67.85989622835636
53.0 68.24973387579179
54.5 68.63444291386736
56.0 68.93578456222754
58.0 69.13687413869283
60.0 69.21640897097754
61.5 69.25970724723182
63.0 69.29498705467053
65.0 69.48994706851286
67.0 69.71592562477444
69.0 70.00306943605635
71.0 70.22018462759753
73.0 70.36554169465857
75.0 70.41823577109197
77.5 70.50772491533469
80.0 70.71027923571947
82.5 70.94098685150568
85.0 71.05677603679034
87.5 71.10500780277353
90.0 71.13244679685076
92.5 71.24405478469201
95.0 71.34398563410323
97.5 71.46387698931879
100.0 71.5090317939479
103.0 71.53329928298893
106.0 71.5207495886468
109.0 71.52297069014246
112.0 71.57478448084808
115.0 71.53738115118549
118.0 71.33731393398683
122.0 71.09316783207096
125.0 71.08691628363302
128.0 71.33247362664709
132.0 71.57678482061277
136.0 71.46928686506953
140.0 71.15091501602735
145.0 70.92899598897574
150.0 70.92370271021339
155.0 71.01389787960863
160.0 71.08864422914708
165.0 71.06307230902752
170.0 70.84625917935982
175.0 70.49268815942817
180.0 70.25459876994447
185.0 70.12285053658509
190.0 69.92530233183638
195.0 69.49738687137099
200.0 68.73205570233942
206.0 67.72716124482983
212.0 66.73924437974003
218.0 66.52810013850184
224.0 67.4420599023783
230.0 68.85798267522269
236.0 69.73355945330496
240.0 69.91839363244127
250.0 69.75890053405998
258.0 69.56115080204076
265.0 69.45758284187879
272.0 69.5419099917909
280.0 69.53577836000045
290.0 68.95237608957954
300.0 67.82129963459555
307.0 66.75114206645618
315.0 66.06194329366677
325.0 65.64138562768535
335.0 65.03940420222143
345.0 64.64872087660517
355.0 64.79131935129918
365.0 65.49067040179251
375.0 66.22145908723984
387.0 65.63865170416116
400.0 64.56400415652438
412.0 63.75787904857326
425.0 63.13655129205813
437.0 62.33972071882127
450.0 61.17094709985808
462.0 60.03379380735973
475.0 59.42541058813775
487.0 59.799139265615935
500.0 60.867331020588395
515.0 61.24392446279988
530.0 61.26710861991627
545.0 60.47827425660637
560.0 59.17679513458303
580.0 58.58835200553584
600.0 58.9324930080824
615.0 59.122974237904444
630.0 58.30834551155911
650.0 57.29653403433157
670.0 57.452562243661376
690.0 58.84341628548668
710.0 60.27460856253582
730.0 61.01610218217637
750.0 61.10478384505399
775.0 60.54694275772859
800.0 59.485994175235945
825.0 58.26223444548255
850.0 57.190087946111504
875.0 56.24184058188531
900.0 55.228245470887416
925.0 54.43461411724407
950.0 54.11968812565591
975.0 53.933998491637794
1000.0 53.5096723586244
1030.0 53.02222015982049
1060.0 53.21811641073559
1090.0 54.14370512940711
1120.0 55.312217265483426
1150.0 55.94714101455375
1180.0 55.610703458139085
1220.0 54.687286090663164
1250.0 53.47702174962804
1280.0 52.361140093182755
1320.0 51.69440985093435
1360.0 50.797954937075545
1400.0 48.08704545358519
1450.0 44.24732852825015
1500.0 42.846228167319694
1550.0 43.55710995537795
1600.0 46.551145438752755
1650.0 49.49797580742835
1700.0 50.727855704931144
1750.0 52.85710882299789
1800.0 56.751970472235755
1850.0 60.97694776405474
1900.0 62.55158605545546
1950.0 61.04570685383308
2000.0 59.00754513356959
2060.0 57.794095565040124
2120.0 57.097167740226524
2180.0 56.44687694220407
2240.0 55.822530311035294
2300.0 55.19637839919584
2360.0 54.64780035099908
2400.0 54.193537386846444
2500.0 53.75881060128833
2580.0 53.4638957850638
2650.0 53.53338223016432
2720.0 53.763078927146495
2800.0 53.979391990819394
2900.0 53.90485137383759
3000.0 53.446396318434736
3070.0 52.44388589016201
3150.0 51.36654501417935
3250.0 50.816726442074426
3350.0 51.015839103532315
3450.0 51.45960738420165
3550.0 51.76270385193
3650.0 51.938092113414214
3750.0 52.06273304564225
3870.0 52.21065845603037
4000.0 52.177771863217586
4120.0 51.86428061528555
4250.0 51.71793323885832
4370.0 51.93858197924966
4500.0 52.28513708001951
4620.0 52.19092473330194
4750.0 51.448566584931584
4870.0 50.425036553460544
5000.0 49.28770370377974
5150.0 48.39843678432264
5300.0 48.09354787581246
5450.0 48.16505577924592
5600.0 48.120629594475034
5800.0 47.825896188279884
6000.0 47.38790016515655
6150.0 46.95018612805153
6300.0 46.472999552376805
6500.0 45.86157460113232
6700.0 45.10802713914207
6900.0 43.91540535764567
7100.0 42.159937168023774
7300.0 40.49489391516501
7500.0 39.70252836535836
7750.0 40.250958638380936
8000.0 41.103585594775225
8250.0 41.1228492186287
8500.0 40.2345336764444
8750.0 38.12783732332797
9000.0 36.479115320539464
9250.0 36.31776709988323
9500.0 36.973638627505025
9750.0 37.30505205908669
10000.0 36.70381180680231
10300.0 35.665452453747164
10600.0 35.43562294563516
10900.0 36.73993205462527
11200.0 38.56220295508426
11500.0 39.74327373583564
11800.0 39.545589964373974
12200.0 38.04786521968346
12500.0 36.81460692662078
12800.0 37.007349039247615
13200.0 38.41940555008007
13600.0 38.780067666775935
14000.0 36.44645339314225
14500.0 33.63787460230229
15000.0 33.65963392450003
15500.0 36.63884866370849
16000.0 39.189233384310185
16500.0 39.175656627791696
17000.0 37.95949321440948
17500.0 37.23255569305148
18000.0 36.57170639240876
18500.0 35.17719747472434
19000.0 33.223505207520375
19500.0 31.979878784447223
