Freq "Total Early Reflection"
22.4 40.982240112405876
23.0 42.42011835333939
23.6 44.46423480484579
24.0 46.306200913929146
25.0 47.75092369661503
25.8 48.772812638088524
26.5 49.575787203727046
27.2 50.573934639916544
28.0 52.04454659946332
29.0 53.65777572808322
30.0 55.04254683167706
30.7 56.12780098643971
31.5 57.20696505667311
32.5 58.38531627664308
33.5 59.515586281542824
34.5 60.48506102392997
35.5 61.34552135529751
36.5 62.30041190362749
37.5 63.340670404715155
38.7 64.26512280078929
40.0 64.95955805473413
41.2 65.5049045435465
42.5 66.0598428633881
43.7 66.64744207565865
45.0 67.2298425146235
46.2 67.73482926795558
47.5 68.13779518430748
48.7 68.41721158840916
50.0 68.6505614870189
51.5 68.93264368368513
53.0 69.32725074926012
54.5 69.70392627346406
56.0 69.99211423863294
58.0 70.1852536322955
60.0 70.3188654357436
61.5 70.45559132050458
63.0 70.60580749647114
65.0 70.85239776016242
67.0 71.11555677511925
69.0 71.38411211452164
71.0 71.61053487800254
73.0 71.78685858969027
75.0 71.91385862220271
77.5 72.0830652777528
80.0 72.28751103365865
82.5 72.51539549404309
85.0 72.72816305161963
87.5 72.8831894740979
90.0 73.02113315925747
92.5 73.1113146564166
95.0 73.19755143384582
97.5 73.28478690408666
100.0 73.39576805479254
103.0 73.53528777018398
106.0 73.68896782987895
109.0 73.83822659256026
112.0 73.98580748711127
115.0 74.14142982815515
118.0 74.29751182814722
122.0 74.54286191038163
125.0 74.81308246115258
128.0 75.03501781242518
132.0 75.23699623678908
136.0 75.32837529952458
140.0 75.35586498650508
145.0 75.29123709067123
150.0 75.17602562871154
155.0 75.11013191612126
160.0 75.15455343885326
165.0 75.3440837053002
170.0 75.639213954108
175.0 75.9472168847607
180.0 76.0473019943144
185.0 75.85941673443207
190.0 75.59591459413848
195.0 75.42418150940846
200.0 75.20393363376722
206.0 74.58951505669552
212.0 73.75270267163718
218.0 73.53583167784895
224.0 74.53837449525956
230.0 76.14815886378263
236.0 77.39268500629981
240.0 77.8827853067338
250.0 77.70027052982466
258.0 77.0204601023199
265.0 76.26282780666132
272.0 75.82043420838778
280.0 75.64409222149469
290.0 75.49329526690103
300.0 75.24847845364222
307.0 74.91529141041629
315.0 74.53601588199514
325.0 74.34434358679533
335.0 74.44148948985506
345.0 74.84812574074003
355.0 75.26055583917221
365.0 75.4417624703952
375.0 75.461265467003
387.0 75.33651848759135
400.0 75.08704074613397
412.0 74.68043168016862
425.0 74.26494836144006
437.0 74.16474233158596
450.0 74.476772064869
462.0 74.84157443631229
475.0 74.49773099817165
487.0 73.6037969138078
500.0 73.13698667249834
515.0 73.39149125804354
530.0 73.49875956668404
545.0 72.4645103238313
560.0 70.92572834180586
580.0 70.2174150689954
600.0 70.63168139979264
615.0 71.10559752897444
630.0 70.74803252637791
650.0 70.03241202500409
670.0 69.90002375682484
690.0 70.56768455491793
710.0 71.6185859536474
730.0 72.64363773682443
750.0 73.4267051419723
775.0 73.68656670331232
800.0 73.47171894777794
825.0 73.1083605374697
850.0 72.712284424861
875.0 72.279987972667
900.0 71.94539941287583
925.0 71.95131341414073
950.0 72.6760972067259
975.0 73.75275026024164
1000.0 74.57394472241603
1030.0 74.7291852763092
1060.0 74.57066859922212
1090.0 74.39531482276772
1120.0 74.23441388909193
1150.0 74.00399028851558
1180.0 73.6971707672979
1220.0 73.52734219115895
1250.0 73.61121869643567
1280.0 73.59863827835493
1320.0 72.95127451015246
1360.0 71.77441546092916
1400.0 70.6127623172427
1450.0 70.00806796544857
1500.0 70.07682331830124
1550.0 70.74496590006454
1600.0 71.76307311863162
1650.0 72.49676232905236
1700.0 72.88270504677963
1750.0 74.18105127474267
1800.0 77.4175623035881
1850.0 80.7359292454773
1900.0 81.27680546155575
1950.0 79.0744299315469
2000.0 76.9992025913426
2060.0 75.93610399753275
2120.0 75.05170878100917
2180.0 74.19385842120296
2240.0 73.43356221272974
2300.0 72.91608355442426
2360.0 72.6285852453193
2400.0 72.54089222612775
2500.0 72.51428408165667
2580.0 72.48302172204616
2650.0 72.4647646505081
2720.0 72.44229524449365
2800.0 72.45720548610926
2900.0 72.43477451184701
3000.0 72.30869968035427
3070.0 71.94103616920538
3150.0 71.54465809508481
3250.0 71.26186822644296
3350.0 71.25398401452155
3450.0 71.37056366421812
3550.0 71.53826271599647
3650.0 71.75270848367212
3750.0 72.07220390667614
3870.0 72.51153219961837
4000.0 72.85404983975462
4120.0 73.04505701072742
4250.0 73.16743099939862
4370.0 73.27297819576519
4500.0 73.38385879694276
4620.0 73.40115582893962
4750.0 73.28956928173129
4870.0 72.98385684273502
5000.0 72.50859584720745
5150.0 72.01044711288016
5300.0 71.8298366499657
5450.0 71.85310333506379
5600.0 71.8613713039023
5800.0 71.71831395957382
6000.0 71.58909470981578
6150.0 71.62682464710983
6300.0 71.83203271534934
6500.0 71.91156042296123
6700.0 71.69821932937579
6900.0 71.1627814041291
7100.0 70.36234030802562
7300.0 69.74387050720786
7500.0 69.65160328946355
7750.0 70.09683141474649
8000.0 70.56089434137643
8250.0 70.81976771616738
8500.0 70.66834537521522
8750.0 70.02077878575919
9000.0 69.28788635141339
9250.0 69.04754251539117
9500.0 69.22966472566807
9750.0 69.50683484699151
10000.0 69.50150169064928
10300.0 69.3575249391123
10600.0 69.4075678827032
10900.0 69.88360856582722
11200.0 70.66738308649285
11500.0 71.45514006099376
11800.0 71.74070874401522
12200.0 71.05969522449071
12500.0 69.95439487407572
12800.0 69.54279871354075
13200.0 69.86405720912303
13600.0 69.47985992424061
14000.0 67.52620798755068
14500.0 65.56149028831973
15000.0 65.78783342714446
15500.0 67.7870175173601
16000.0 68.80230639451241
16500.0 67.60642848903306
17000.0 65.64129466577738
17500.0 64.7194812247266
18000.0 63.99841315747126
18500.0 61.48977522756837
19000.0 57.80045545712889
19500.0 55.733508919406916
