Freq,On Axis,Listening Window,Sound Power,Early Reflections,Early Reflections DI,Sound Power DI,DI offset
22.4,-3.3999999999999915,-4.899027367026534,-2.61157658053817,-3.191968280874974,28.29294091384844,27.712549213511636,30
23.0,-0.8999999999999915,-3.0522327747960247,-0.6644364790692947,-1.0241581053198985,27.971925330523874,27.61220370427327,30
23.6,2.1999999999999744,-0.3142960123588665,2.240816644309618,2.3351288996586987,27.350575087982435,27.444887343331516,30
24.0,2.499999999999986,0.5125257184123342,3.037603862610567,3.231387475948665,27.28113824246367,27.474921855801767,30
25.0,3.200000000000003,1.8855312261197383,4.036584493627586,4.200403663511665,27.685127562608074,27.848946732492152,30
25.8,3.90000000000002,3.7818671175787557,5.028339214487218,5.224883508271219,28.556983609307537,28.753527903091538,30
26.5,5.1000000000000085,7.306575178972523,6.568261533337434,7.011753761157948,30.294821417814575,30.73831364563509,30
27.2,8.700000000000003,11.349349379513214,9.39854208458813,10.07044463747387,31.278904742039344,31.950807294925085,30
28.0,11.999999999999986,14.634076654983502,11.868572822656589,12.743337031849435,31.890739623134067,32.765503832326914,30
29.0,15.399999999999991,18.6131847648641,14.64627512425794,15.893506240450463,32.71967852441364,33.96690964060616,30
30.0,18.700000000000003,19.278328694992112,16.041429239006632,17.088185931715614,32.1901427632765,33.23689945598548,30
30.7,21.10000000000001,18.5743943362679,18.055895782203933,18.3036033209779,30.27079101529,30.518498554063967,30
31.5,22.999999999999986,20.177037470091832,21.12002181270644,20.763208337342107,29.413829132749726,29.057015657385392,30
32.5,24.200000000000003,23.093959905763953,24.930889130792636,24.012358016245273,29.08160188951868,28.163070774971317,30
33.5,24.60000000000001,24.363543097624913,25.949084735574573,25.120652407185858,29.242890690439054,28.41445836205034,30
34.5,24.700000000000003,25.92887283133355,26.775763457611774,26.334138646736662,29.594734184596888,29.153109373721776,30
35.5,22.999999999999986,27.683837936165972,27.87733931999948,27.860232563922025,29.823605372243946,29.806498616166493,30
36.5,23.700000000000003,28.32348148261245,27.987608331410783,28.0898687232105,30.23361275940195,30.335873151201667,30
37.5,24.299999999999997,30.482257630320547,29.181563686897093,29.389273126550748,31.0929845037698,31.300693943423454,30
38.7,25.999999999999986,32.84793332818411,30.811318915209043,31.152929250511633,31.69500407767248,32.03661441297507,30
40.0,30.60000000000001,32.92959882114734,32.42312604625282,32.511726950604995,30.417871870542342,30.50647277489452,30
41.2,33.60000000000001,35.22762920863674,34.07463640710792,34.55608585227931,30.671543356357432,31.152992801528825,30
42.5,37.3,37.152270259152814,36.6266965236385,36.910464188813265,30.24180607033955,30.525573735514314,30
43.7,42.2,39.80599052120398,40.242014432548544,40.27617790945253,29.529812611751453,29.563976088655437,30
45.0,46.499999999999986,44.060979668418256,44.08966160543629,44.21679894028732,29.844180728130937,29.971318062981965,30
46.2,45.499999999999986,44.76056920188789,44.67983816025064,44.79814614074432,29.962423061143568,30.08073104163725,30
47.5,46.3,45.97574082665044,45.92629389067592,45.97127783638071,30.00446299026973,30.049446935974515,30
48.7,49.39999999999999,49.19647681541419,49.155385137652914,48.81709129434246,30.379385521071725,30.041091677761273,30
50.0,52.8,52.62956908608446,53.547575006173346,52.575020363673886,30.054548722410573,29.081994079911112,30
51.5,55.10000000000001,54.61678586529706,54.03897770857874,54.02061378090055,30.596172084396514,30.57780815671832,30
53.0,56.60000000000001,56.45377536264654,54.47672574253224,55.273091274399306,31.180684088247233,31.9770496201143,30
54.5,57.8,57.372733889383326,56.09463888633708,56.7421373296833,30.630596559700024,31.278095003046246,30
56.0,59.2,58.78515136020454,57.862821318048944,58.4010783947039,30.384072965500636,30.922330042155593,30
58.0,60.7,60.508224254785944,59.78895027951488,60.20516775057676,30.30305650420918,30.719273975271065,30
60.0,62.60000000000001,62.43814093185149,61.70039097912279,62.091000142360386,30.347140789491107,30.737749952728706,30
61.5,64.7,64.61352190583924,63.674119399577435,64.09289983726744,30.520622068571797,30.9394025062618,30
63.0,66.60000000000001,66.45838274236519,65.52237871725474,65.94884008443793,30.509542657927256,30.93600402511045,30
65.0,68.09999999999998,68.08259176885927,67.14992882728733,67.60035959233235,30.48223217652692,30.932662941571948,30
67.0,69.6,69.5127565270028,68.62313513768963,69.0025249245176,30.51023160248519,30.889621389313163,30
69.0,70.7,70.79051745064966,69.95732922380137,70.2978636003723,30.492653850277364,30.833188226848293,30
71.0,72.1,72.22446393544094,71.45708366539097,71.77137161410543,30.453092321335504,30.76738027004997,30
73.0,74.0,73.98977136039706,73.51645916438675,73.70449480111112,30.285276559285933,30.473312196010312,30
75.0,75.59999999999998,75.44627769960702,75.17562421733929,75.28366574002527,30.162611959581753,30.270653482267733,30
77.5,76.5,76.45814767076571,76.27489216320066,76.33818424340951,30.119963427356197,30.18325550756505,30
80.0,77.3,77.2782330650839,77.1377868087382,77.17332626043573,30.104906804648166,30.140446256345697,30
82.5,78.00000000000001,77.91199695642737,77.83229049571574,77.84341207285512,30.068584883572257,30.079706460711634,30
85.0,78.6,78.51199101325601,78.43971839852193,78.44483214024687,30.067158873009134,30.072272614734075,30
87.5,79.0,78.98951489542684,78.92847881554175,78.91825893976254,30.0712559556643,30.061036079885085,30
90.0,79.3,79.30076749445561,79.25878506687597,79.23689083110692,30.063876663348694,30.04198242757964,30
92.5,79.6,79.56717965375994,79.53738867459819,79.5044625037517,30.06271715000824,30.029790979161746,30
95.0,79.8,79.71199101325602,79.65679872878006,79.64710541443864,30.064885598817384,30.055192284475964,30
97.5,79.9,79.8447289505772,79.7381913211744,79.75377113208374,30.090957818493465,30.10653762940281,30
100.0,79.9,79.90025584655588,79.72203784372616,79.77649118012938,30.123764666426496,30.178218002829723,30
103.0,79.9,79.94498217571201,79.60897255334574,79.73193724831519,30.213044927396822,30.336009622366277,30
106.0,79.8,79.88925841531062,79.49000749148918,79.66045556828497,30.228802847025648,30.39925092382144,30
109.0,79.8,79.84498217571202,79.33768285555885,79.56964619638116,30.275335979330862,30.507299320153166,30
112.0,79.7,79.76717378562655,79.17933092893969,79.44753461246653,30.319639173160027,30.587842856686862,30
115.0,79.6,79.62267658830113,78.9917202422869,79.30024675752605,30.32242983077508,30.63095634601423,30
118.0,79.49999999999999,79.50025584655586,78.77057694774884,79.10468248857121,30.395573357984645,30.729678898807023,30
122.0,79.3,79.30025584655587,78.51452485407431,78.87055010317789,30.42970574337798,30.78573099248156,30
125.0,79.10000000000001,79.10025584655587,78.30855625075903,78.65884553530874,30.441410311247125,30.791699595796842,30
128.0,78.9,78.90025584655588,78.07967618763664,78.44015812727491,30.460097719280967,30.820579658919243,30
132.0,78.7,78.66743157327173,77.84725285680675,78.1942468868945,30.473184686377223,30.82017871646498,30
136.0,78.5,78.433843702321,77.61016584819629,77.95796166580814,30.475882036512857,30.82367785412471,30
140.0,78.3,78.2114806859839,77.32615136485114,77.69908839609981,30.51239228988409,30.885329321132758,30
145.0,78.09999999999998,78.00076167153067,77.01978619274706,77.42842430219694,30.572337369333724,30.980975478783606,30
150.0,77.9,77.81301756496033,76.67598825726388,77.14579850606596,30.667219058894375,31.13702930769645,30
155.0,77.7,77.62317980880078,76.36727542553494,76.90692923878635,30.716250570014438,31.255904383265843,30
160.0,77.6,77.45660903212374,76.07903096298027,76.66524925447335,30.791359777650385,31.377578069143468,30
165.0,77.4,77.34574765970298,75.79443162990434,76.46192496159533,30.88382269810765,31.55131602979864,30
170.0,77.2,77.13511299152684,75.39746410060326,76.14564041259376,30.989472578933075,31.73764889092358,30
175.0,76.99999999999999,76.91275652700277,74.85460772642573,75.7374366706562,31.175319856346576,32.058148800577044,30
180.0,76.8,76.69129829693561,74.60769189287252,75.51940628665615,31.171892010279464,32.08360640406309,30
185.0,76.99999999999999,76.87975807560595,75.18780013581349,75.92225519016527,30.957502885440675,31.69195793979246,30
190.0,76.99999999999999,76.87975807560595,75.23447770239434,75.91701237193816,30.962745703667792,31.645280373211605,30
195.0,76.99999999999999,76.80280793444538,75.03698700535715,75.7417861798659,31.061021754579485,31.765820929088235,30
200.0,76.99999999999999,76.74907369676627,74.75208225221158,75.53144334393104,31.21763035283523,31.996991444554695,30
206.0,76.99999999999999,76.73868935845881,74.3511794626516,75.29663662616723,31.442052732291586,32.38750989580721,30
212.0,76.99999999999999,76.7943394313714,73.92167032955791,75.1230739954732,31.671265435898192,32.872669101813486,30
218.0,77.1,76.89433943137139,73.62467907171732,75.06283362582253,31.831505805548858,33.26966035965407,30
224.0,77.1,76.90610856656933,73.4738296162323,75.04006159993703,31.866046966632297,33.432278950337036,30
230.0,77.2,76.92828013081993,73.45493830755167,75.04738764605597,31.88089248476396,33.47334182326826,30
236.0,77.1,76.87153759857743,73.3563599678432,74.97401848220704,31.89751911637039,33.51517763073423,30
240.0,77.1,76.7966348678005,73.15965552197669,74.85221470954916,31.944420158251347,33.63697934582382,30
250.0,76.99999999999999,76.73893152342997,72.94218771350187,74.7314250671097,32.00750645632027,33.7967438099281,30
258.0,76.90000000000002,76.65085156565544,72.82764865825543,74.66612063940501,31.984730926250435,33.82320290740002,30
265.0,76.90000000000002,76.63893152342997,72.85564485643215,74.69346393782853,31.94546758560145,33.783286666997824,30
272.0,76.8,76.60280793444537,72.97625911357763,74.73779613955486,31.865011794890506,33.62654882086774,30
280.0,76.8,76.60280793444537,73.04654581841284,74.74816593500243,31.854641999442933,33.55626211603253,30
290.0,76.7,76.5692064651207,72.99003126883198,74.65479996672954,31.91440649839116,33.579175196288716,30
300.0,76.7,76.51477392772871,72.8020014112883,74.48835160369707,32.02642232403164,33.71277251644041,30
307.0,76.7,76.5050687336391,72.53788280450006,74.31656416772985,32.188504565909255,33.96718592913905,30
315.0,76.7,76.5274647062175,72.29718620479532,74.19098991488048,32.336474791337025,34.23027850142218,30
325.0,76.90000000000002,76.68406289255225,72.11350673217133,74.1749436132929,32.50911927925935,34.57055616038092,30
335.0,77.2,76.98406289255225,72.1153289208518,74.35668522550807,32.62737766704417,34.86873397170045,30
345.0,77.4,77.0858210453774,72.15663515300363,74.3646786514574,32.721142393920005,34.929185892373766,30
355.0,77.4,77.07598826075296,72.00209950498602,74.23346040900329,32.84252785174968,35.073888755766944,30
365.0,77.4,77.07598826075296,71.93892945228279,74.17943346089909,32.896554799853874,35.13705880847017,30
375.0,77.3,76.97598826075297,71.81099171166471,74.05399324927166,32.921995011481314,35.16499654908826,30
387.0,77.2,76.86635774168371,71.52744416007964,73.85929885864037,33.00705888304334,35.338913581604075,30
400.0,77.2,76.82448200478817,71.16125019166168,73.64202048484766,33.1824615199405,35.66323181312649,30
412.0,77.2,76.83603180658417,71.03181537721441,73.56945906617818,33.26657274040599,35.80421642936976,30
425.0,77.2,76.8598551213761,71.05100023896627,73.55574949372213,33.30410562765397,35.80885488240983,30
437.0,77.3,76.90606163457302,71.01207439331056,73.54136116758436,33.364700466988666,35.893987241262465,30
450.0,77.4,76.97199388607112,71.10817322905437,73.61914171872529,33.35285216734583,35.863820657016745,30
462.0,77.3,76.97144828019859,71.18857326380733,73.64859575813867,33.32285252205992,35.78287501639126,30
475.0,77.3,76.91517555317583,71.0720884308499,73.58265526718759,33.33252028598824,35.843087122325926,30
487.0,77.2,76.79333369143032,70.85600302764787,73.42463964670893,33.368694044721394,35.93733066378245,30
500.0,76.99999999999999,76.59333369143033,70.51851461558526,73.15175349374532,33.44158019768501,36.07481907584507,30
515.0,76.60000000000001,76.17213078873198,69.8488860697069,72.56676963788394,33.60536115084804,36.323244719025084,30
530.0,76.1,75.62474690062373,69.10638623338409,71.82920863963504,33.79553826098869,36.51836066723965,30
545.0,75.89999999999999,75.38744586526609,68.88044784301376,71.47934490142626,33.90810096383983,36.50699802225233,30
560.0,76.4,75.87927193119086,69.51564172876034,71.99508641601984,33.88418551517101,36.363630202430514,30
580.0,77.1,76.65077382716602,70.20692945409364,72.75275306793361,33.89802075923241,36.44384437307238,30
600.0,77.5,77.05077382716601,70.54314271531615,73.15395017172243,33.89682365544358,36.50763111184986,30
615.0,77.5,77.1042447554466,70.7530553516012,73.23919450616602,33.865050249280586,36.351189403845396,30
630.0,77.5,76.99742422185102,70.79217818408331,73.14829676450837,33.84912745734265,36.20524603776771,30
650.0,77.4,76.90151829900019,70.75621595920288,73.03914019468176,33.862378104318424,36.14530233979731,30
670.0,77.4,76.7340128801922,70.45277319938833,72.79814334410403,33.93586953608816,36.281239680803864,30
690.0,77.2,76.41549653369282,70.00731503243814,72.4321312701856,33.983365263507224,36.408181501254674,30
710.0,76.90000000000002,75.98597597611247,69.33931168840776,71.91655673093213,34.06941924518034,36.64666428770471,30
730.0,76.99999999999999,76.0626879977283,68.88037303106277,71.75702735248245,34.30566064524585,37.18231496666553,30
750.0,77.2,76.31061371221742,68.70872258229703,71.80214271684584,34.50847099537158,37.60189112992039,30
775.0,77.5,76.6140463556436,68.9269537980745,72.007207194066,34.6068391615776,37.68709255756909,30
800.0,77.5,76.59904359610856,68.99102209552275,71.95836276301392,34.640680833094635,37.60802150058581,30
825.0,77.2,76.19712340840236,68.74350559767977,71.58263362238037,34.61448978602199,37.45361781072259,30
850.0,76.8,75.98606151124451,68.84114766341148,71.51063512802325,34.47542638322126,37.14491384783304,30
875.0,76.7,75.6771126420316,68.75627489024646,71.31604117968037,34.361071462351234,36.92083775178514,30
900.0,76.2,75.09364519373374,67.97226216729248,70.6332143733682,34.46043082036553,37.12138302644125,30
925.0,75.8,74.78528723265013,67.41679508908395,70.27036230661848,34.514924926031654,37.368492143566186,30
950.0,76.0,74.9308041654407,67.37139646979045,70.3856632238523,34.5451409415884,37.55940769565025,30
975.0,76.2,75.38648472922554,67.74505217996818,70.95727184866044,34.4292128805651,37.64143254925736,30
1000.0,76.4,75.86432958894879,68.1947918581278,71.58913062847266,34.27519896047613,37.66953773082099,30
1030.0,76.7,76.2552654422006,68.70386303236306,72.06286176517712,34.19240367702348,37.551402409837536,30
1060.0,76.99999999999999,76.47927193119084,68.98160143183532,72.26348363328258,34.21578829790826,37.49767049935552,30
1090.0,77.3,76.55984332523877,68.76615522069399,72.13269221565811,34.42715110958066,37.793688104544785,30
1120.0,77.5,76.64624759414257,68.67028008108981,72.07328511423425,34.57296247990831,37.97596751305275,30
1150.0,77.6,76.76391000090425,68.60343391447704,72.07664287796332,34.68726712294092,38.16047608642721,30
1180.0,77.6,76.73170153370934,68.62919301635459,72.04731425984674,34.6843872738626,38.10250851735475,30
1220.0,77.4,76.61326850910478,68.89641784119227,72.15299805156329,34.4602704575415,37.71685066791251,30
1250.0,77.1,76.27170994985926,68.92589820587352,72.05123393772631,34.22047601213295,37.345811743985735,30
1280.0,76.7,75.96135872301537,68.52767711159139,71.67196251387523,34.289396209140136,37.43368161142398,30
1320.0,76.60000000000001,75.86974409192032,68.24414119236366,71.42957204414283,34.440172047777494,37.62560289955667,30
1360.0,76.4,76.10808983116158,68.85821231353829,71.90079100028701,34.207298830874564,37.24987751762329,30
1400.0,76.3,75.83832462137424,68.47699879769672,71.54142870504764,34.296895916326605,37.36132582367752,30
1450.0,76.2,75.43085841779421,67.75722499510864,70.94499643567369,34.485861982120525,37.67363342268557,30
1500.0,76.1,75.3513047970382,67.36772597854574,70.73650188861458,34.61480290842361,37.98357881849246,30
1550.0,76.0,75.17105527300556,67.0797302645163,70.4698750355125,34.70118023749306,38.091325008489264,30
1600.0,76.1,75.18025306151766,66.8230644029078,70.35928848790438,34.82096457361328,38.35718865860986,30
1650.0,76.0,75.06951397233208,66.68747029411877,70.20005119799725,34.86946277433482,38.38204367821331,30
1700.0,76.1,74.97604661817202,66.32851880700339,70.00733953490817,34.96870708326385,38.64752781116863,30
1750.0,76.1,75.04917813207632,66.03331446804026,69.98609475144944,35.06308338062688,39.01586366403606,30
1800.0,76.1,74.94865661510204,65.6758413456409,69.81096483529618,35.13769177980586,39.272815269461134,30
1850.0,76.2,74.91067955629491,65.4242125015585,69.69142640425987,35.21925315203504,39.48646705473641,30
1900.0,76.0,74.88667744940038,65.40557974119373,69.63323580967709,35.25344163972329,39.48109770820665,30
1950.0,75.89999999999999,74.76172133570624,65.25190307272324,69.48262905876328,35.27909227694296,39.509818262983,30
2000.0,75.7,74.64971554215616,65.21957168069632,69.38966284619909,35.26005269595707,39.43014386145984,30
2060.0,75.59999999999998,74.32156501266648,64.77280777081099,68.98542929898994,35.33613571367654,39.5487572418555,30
2120.0,75.50000000000001,74.39364519373375,64.90048492342974,69.09779822061353,35.29584697312022,39.493160270304,30
2180.0,75.4,74.30845545836887,65.12750496071253,69.18040774553064,35.128047712838224,39.18095049765634,30
2240.0,75.50000000000001,74.31778156445154,65.15102313277202,69.1652795868992,35.15250197755233,39.16675843167951,30
2300.0,75.7,74.34794523864143,64.9404608279763,69.08179107085715,35.26615416778428,39.407484410665134,30
2360.0,75.89999999999999,74.36726375110739,64.66389004010198,68.95008978353833,35.417173967569056,39.70337371100541,30
2400.0,76.1,74.50217919851671,64.47238557934915,68.96799646650166,35.534182732015054,40.02979361916756,30
2500.0,76.0,74.46520515259182,64.52632359772828,68.96784526768987,35.497359884901954,39.93888155486354,30
2580.0,75.59999999999998,74.13733478296217,64.25339328737331,68.65793750217576,35.479397280786415,39.88394149558886,30
2650.0,75.3,73.90186747882221,64.08849545752342,68.46092217576854,35.44094530305367,39.81337202129879,30
2720.0,75.2,73.79527913252124,64.36838827103395,68.50789192744405,35.287387205077195,39.426890861487294,30
2800.0,75.3,73.60261754475876,63.56873448873459,68.01676003794644,35.58585750681232,40.033883056024166,30
2900.0,75.50000000000001,73.51273616883631,63.12642116698255,67.79756307636528,35.715173092471034,40.38631500185376,30
3000.0,75.59999999999998,73.46054036855568,62.964829404542954,67.75265155210728,35.7078888164484,40.49571096401273,30
3070.0,75.1,73.19736845223981,62.84324168877508,67.54548774446496,35.65188070777485,40.354126763464734,30
3150.0,74.7,72.76937468642707,62.45292554813341,67.15736960575498,35.61200508067209,40.31644913829366,30
3250.0,74.49999999999999,72.7180261729175,62.54649380614889,67.15576696962204,35.56225920329547,40.171532366768616,30
3350.0,74.2,72.31335698000497,62.227670028865504,66.80678532744734,35.506571652557625,40.085686951139465,30
3450.0,74.2,72.33272103953881,62.23462366083102,66.85482978665868,35.47789125288013,40.09809737870779,30
3550.0,74.2,72.2510066804147,62.22127212651209,66.79377721966948,35.457229460745225,40.029734553902614,30
3650.0,74.2,72.15981660779703,62.10165947072093,66.74175584106145,35.41806076673558,40.058157137076094,30
3750.0,74.2,72.04052509347044,61.90911103231137,66.59520940557769,35.445315687892744,40.13141406115906,30
3870.0,74.0,71.95645680567738,61.92197025782184,66.52150368367609,35.43495312200129,40.034486547855536,30
4000.0,74.40000000000002,71.91282235102493,61.637260735145674,66.40137403250469,35.51144831852024,40.275561615879255,30
