Freq "Listening Window"
20.5078 54.4264639250805
21.9727 52.9625752998042
23.4375 58.21491284672152
24.9023 60.66372548630423
26.3672 62.73983616356327
27.832 64.66229862047345
29.2969 66.85030817481717
30.7617 69.39206630104923
32.2266 71.39915495687988
33.6914 72.78085831473703
35.1562 75.22529702869839
36.6211 77.04298939372579
38.0859 78.61868180452772
39.5508 80.39148874851699
41.0156 82.06509038725571
42.4805 83.58662835019722
43.9453 84.98769441643857
45.4102 86.28004092739627
46.875 87.45234503923976
48.3398 88.47240133741538
51.2695 90.12630413400291
52.7344 90.69985935764547
54.1992 91.17465758133731
55.6641 91.55784669658226
58.5938 92.14834374397888
60.0586 92.39514957631114
62.9883 92.78236549632521
64.4531 92.98201941238693
67.3828 93.27823218018615
68.8477 93.38179058872562
71.7773 93.51368605572674
74.707 93.54527239758711
77.6367 93.65118050470957
79.1016 93.70627758832865
82.0312 93.70302840833739
84.9609 93.66630867342884
87.8906 93.81292525761296
90.8203 93.90313443460431
95.2148 93.83375975158725
98.1445 93.83568942692943
101.074 93.83907249432725
105.469 93.74814714643698
108.398 93.76830775586798
112.793 93.66182497809625
117.188 93.48248799240469
120.117 93.45493474772476
124.512 93.67137943577079
128.906 93.62854923939827
133.301 93.59594952830626
139.16 93.42442582166515
143.555 93.26752561764245
147.949 93.32174998442642
153.809 93.47141782733486
159.668 93.25593740667895
165.527 92.83991437854345
171.387 92.84610353138936
177.246 93.04719453692796
183.105 92.9935368243527
188.965 92.96860279747588
196.289 93.08579943618385
203.613 92.73724276194739
210.938 92.7959411231371
218.262 93.17467606233888
225.586 92.88384776130172
232.91 92.84494373927024
241.699 93.10329456009342
250.488 92.70426038298213
259.277 93.20086772807775
268.066 93.78046437519293
276.855 93.1234467552732
287.109 92.8259940520489
297.363 93.41629780308024
307.617 93.49150958225103
319.336 92.60639598176644
329.59 92.75371185292344
341.309 92.67970821914201
353.027 92.34960812132425
366.211 93.00669420372847
379.395 92.1753548732668
392.578 92.04500688704934
405.762 91.69419430524081
420.41 92.19925182410796
435.059 92.00598281548574
451.172 92.06948117828841
465.82 92.72964778446882
483.398 92.43191769105123
499.512 92.70987042678571
517.09 93.02983940632512
536.133 93.0065525979333
555.176 92.84878567846303
574.219 93.13579050371561
594.727 92.89989209367542
615.234 92.68392685057017
637.207 93.22028261022265
659.18 92.55429782245938
682.617 92.92914444594251
707.52 93.41901399873295
732.422 92.79285364702662
757.324 93.07426742719167
785.156 93.09934634428488
811.523 92.52821902381065
840.82 93.19133224320274
870.117 92.77847404956569
900.879 92.57583493628238
933.105 91.95265723931203
965.332 91.57920253930904
1000.49 90.49737881870092
1035.64 90.33329151469238
1072.27 90.50346246468254
1108.89 91.21354734426501
1148.44 91.14163870417264
1189.45 91.15092752917106
1230.47 90.39303988819415
1274.41 91.09707390529263
1319.82 91.38065853596655
1366.7 91.55713623847382
1413.57 92.2155865993159
1463.38 92.04518964163887
1516.11 91.30405102984041
1568.85 90.90964412028141
1624.51 90.87805129022384
1681.64 90.62723049959746
1741.7 90.0727617024914
1803.22 89.50995822096988
1866.21 90.49991556467644
1932.13 91.11988499684387
1999.51 90.96870362806575
2069.82 90.38973649888426
2143.07 91.41112742067261
2219.24 91.40381636369277
2296.88 90.14305167802733
2378.91 91.13120861319133
2462.4 91.27209856836504
2548.83 90.57442099583965
2639.65 90.97975622318435
2731.93 91.29250194626755
2828.61 90.86970744598715
2928.22 90.71811830966422
3030.76 90.92258049000343
3137.7 90.78744452739427
3249.02 91.0733085664383
3363.28 91.23243596313674
3481.93 91.71279684186347
3604.98 91.73210066405304
3732.42 92.09335300661712
3864.26 92.17361940508736
4000.49 92.15843300097207
4141.11 92.14179029828651
4287.6 92.21231313975548
4438.48 92.35114607054231
4595.21 92.43952174352778
4756.35 92.34648206712018
4924.8 92.31720995322902
5097.66 92.32647160130911
5277.83 92.3049469575303
5463.87 92.21265069331297
5657.23 92.03919399813627
5856.45 92.23762399975384
6062.99 92.06483370852823
6276.86 92.1259045752788
6498.05 92.10521345455814
6726.56 91.96217853804932
6963.87 92.14976207296826
7209.96 92.24546003840308
7464.84 92.24441857285426
7727.05 92.19105831477407
7999.51 92.1311435813058
8282.23 92.15628644835425
8573.73 92.31817000746163
8876.95 92.28866109785457
9188.96 92.03317040379116
9514.16 91.84569494520717
9849.61 91.99471641285207
10196.8 92.31275736063157
10555.7 91.77454503626457
10927.7 91.75512000402256
11313.0 92.02768029026238
11712.9 92.34939461500414
12126.0 92.69741681437236
12553.7 93.00794972930782
12996.1 93.13300626801532
13454.6 92.99169236469552
13929.2 92.8108575945925
14419.9 92.6275154752926
14928.2 93.09093203372441
15455.6 93.23428272194019
16000.5 93.0760121616434
16564.5 92.58186486521909
17148.9 91.9814277330795
17752.4 91.48819631241851
18379.4 90.83751767651938
19026.9 90.0728625830311
19697.8 89.73451975831934
19999.5 89.6211574665886
