Freq "On Axis"
20.5078 54.864640909090895
21.9727 53.61284090909089
23.4375 58.595840909090896
24.9023 60.8160409090909
26.3672 62.987640909090885
27.832 64.9127409090909
29.2969 66.98504090909091
30.7617 69.5092409090909
32.2266 71.5035409090909
33.6914 72.85224090909091
35.1562 75.2765409090909
36.6211 77.07944090909092
38.0859 78.6485409090909
39.5508 80.40454090909091
41.0156 82.06824090909092
42.4805 83.5817409090909
43.9453 84.9766409090909
45.4102 86.2620409090909
46.875 87.43054090909091
48.3398 88.44554090909091
51.2695 90.09474090909092
52.7344 90.6653409090909
54.1992 91.1372409090909
55.6641 91.51864090909089
58.5938 92.1063409090909
60.0586 92.35224090909091
62.9883 92.7382409090909
64.4531 92.9386409090909
67.3828 93.2343409090909
68.8477 93.3372409090909
71.7773 93.4685409090909
74.707 93.4991409090909
77.6367 93.6051409090909
79.1016 93.66074090909092
82.0312 93.6579409090909
84.9609 93.62194090909088
87.8906 93.77004090909091
90.8203 93.86104090909089
95.2148 93.79484090909091
98.1445 93.7975409090909
101.074 93.80284090909089
105.469 93.7157409090909
108.398 93.73684090909092
112.793 93.6315409090909
117.188 93.4550409090909
120.117 93.4311409090909
124.512 93.65104090909091
128.906 93.6115409090909
133.301 93.5851409090909
139.16 93.4105409090909
143.555 93.2574409090909
147.949 93.32064090909088
153.809 93.47634090909091
159.668 93.2558409090909
165.527 92.84294090909088
171.387 92.8780409090909
177.246 93.0669409090909
183.105 93.0201409090909
188.965 93.0025409090909
196.289 93.1232409090909
203.613 92.7869409090909
210.938 92.8604409090909
218.262 93.2339409090909
225.586 92.94664090909092
232.91 92.9192409090909
241.699 93.1937409090909
250.488 92.8005409090909
259.277 93.3131409090909
268.066 93.8609409090909
276.855 93.22164090909091
287.109 92.89694090909092
297.363 93.53044090909091
307.617 93.5706409090909
319.336 92.67264090909092
329.59 92.8441409090909
341.309 92.76174090909092
353.027 92.4358409090909
366.211 93.0537409090909
379.395 92.2181409090909
392.578 92.1787409090909
405.762 91.8167409090909
420.41 92.3962409090909
435.059 92.20024090909091
451.172 92.2257409090909
465.82 92.9864409090909
483.398 92.6558409090909
499.512 92.9079409090909
517.09 93.28674090909091
536.133 93.2260409090909
555.176 93.06494090909091
574.219 93.40614090909091
594.727 93.0852409090909
615.234 93.0027409090909
637.207 93.48164090909091
659.18 92.8497409090909
682.617 93.2861409090909
707.52 93.7712409090909
732.422 93.10484090909088
757.324 93.4563409090909
785.156 93.3835409090909
811.523 92.8674409090909
840.82 93.4530409090909
870.117 93.0098409090909
900.879 92.84234090909092
933.105 92.2745409090909
965.332 91.9051409090909
1000.49 90.91914090909088
1035.64 90.8519409090909
1072.27 90.8580409090909
1108.89 91.6616409090909
1148.44 91.5179409090909
1189.45 91.5228409090909
1230.47 90.5450409090909
1274.41 91.5077409090909
1319.82 91.8053409090909
1366.7 91.61784090909092
1413.57 92.5900409090909
1463.38 92.4196409090909
1516.11 91.55554090909091
1568.85 91.42354090909092
1624.51 91.4942409090909
1681.64 90.8010409090909
1741.7 89.8894409090909
1803.22 89.1846409090909
1866.21 90.57994090909091
1932.13 91.3460409090909
1999.51 90.7795409090909
2069.82 90.40964090909088
2143.07 92.10774090909091
2219.24 92.0274409090909
2296.88 90.4377409090909
2378.91 91.9565409090909
2462.4 91.7835409090909
2548.83 91.1011409090909
2639.65 91.7177409090909
2731.93 91.8442409090909
2828.61 91.3772409090909
2928.22 91.3152409090909
3030.76 91.5286409090909
3137.7 91.3043409090909
3249.02 91.7604409090909
3363.28 91.8290409090909
3481.93 92.2725409090909
3604.98 92.2590409090909
3732.42 92.9163409090909
3864.26 93.1335409090909
4000.49 93.5014409090909
4141.11 93.5108409090909
4287.6 93.6162409090909
4438.48 93.63214090909091
4595.21 93.58594090909091
4756.35 93.49004090909091
4924.8 93.7842409090909
5097.66 93.4068409090909
5277.83 93.3547409090909
5463.87 93.46904090909091
5657.23 93.10064090909091
5856.45 92.85004090909091
6062.99 92.71904090909091
6276.86 92.5944409090909
6498.05 92.6189409090909
6726.56 92.1119409090909
6963.87 92.0695409090909
7209.96 92.08884090909092
7464.84 92.0898409090909
7727.05 92.0062409090909
7999.51 92.37964090909091
8282.23 92.92534090909089
8573.73 93.33884090909092
8876.95 93.2662409090909
9188.96 92.9355409090909
9514.16 92.3463409090909
9849.61 92.1475409090909
10196.8 92.38764090909089
10555.7 90.9393409090909
10927.7 91.28884090909091
11313.0 92.29404090909088
11712.9 93.0528409090909
12126.0 93.69654090909091
12553.7 93.9400409090909
12996.1 93.9672409090909
13454.6 93.8461409090909
13929.2 93.4551409090909
14419.9 93.4521409090909
14928.2 94.5868409090909
15455.6 95.2427409090909
16000.5 95.1920409090909
16564.5 94.60094090909092
17148.9 93.6766409090909
17752.4 92.87994090909092
18379.4 92.1081409090909
19026.9 90.83594090909091
19697.8 89.6509409090909
19999.5 89.2611409090909
