Freq "Front Wall Bounce"
20.5078 62.46831920549643
21.9727 64.2139745023761
23.4375 65.14917087446618
24.9023 65.91491189948783
26.3672 66.66045322081543
27.832 67.4850279175728
29.2969 68.20931238842049
30.7617 69.00974255031899
32.2266 69.47625991495775
33.6914 69.85207809572813
35.1562 70.93297987360201
36.6211 71.18515213435275
38.0859 71.63891717373596
39.5508 72.25392366767318
41.0156 72.78640807368426
42.4805 73.26800707147564
43.9453 73.85571058107034
45.4102 74.33280562698349
46.875 74.75634142539148
48.3398 75.09438520115175
51.2695 75.95789730568157
52.7344 76.44153848899133
54.1992 76.8194333561459
55.6641 77.15895440667205
58.5938 77.92675558097203
60.0586 78.29997231852417
62.9883 78.92238290229152
64.4531 79.22295131395909
67.3828 79.67253997303861
68.8477 79.94659002671214
71.7773 80.62310004759543
74.707 81.24498943250886
77.6367 81.77329172421592
79.1016 82.00786566360698
82.0312 82.43875877552254
84.9609 82.78084939218418
87.8906 83.55349145404554
90.8203 83.86100767390143
95.2148 84.41944217353672
98.1445 84.79576481955384
101.074 85.02397756822175
105.469 85.73557176672276
108.398 86.09200700853242
112.793 86.58723812110517
117.188 87.02964882163927
120.117 87.22305573723982
124.512 87.4475905510419
128.906 87.71511821082575
133.301 87.94270573336169
139.16 88.21213893293496
143.555 88.36235673010573
147.949 88.48201876537198
153.809 88.60463872270465
159.668 88.70043130101841
165.527 88.77750827202641
171.387 88.81778013867313
177.246 88.73339757069472
183.105 88.56718390454381
188.965 88.54576750001945
196.289 88.47228092461256
203.613 88.38113288662977
210.938 88.13525718349695
218.262 87.84368919423535
225.586 87.84846383019391
232.91 87.73736101885395
241.699 87.26049880922805
250.488 87.02366574726176
259.277 86.86382047993654
268.066 86.67728293905944
276.855 86.50442795629763
287.109 86.55422572705413
297.363 88.20041268277784
307.617 87.83651386935068
319.336 86.9448858373834
329.59 86.7291771646402
341.309 86.42616036776559
353.027 86.63124531293163
366.211 86.6501769051009
379.395 86.50780303427486
392.578 86.13837896561974
405.762 85.78110315597206
420.41 85.97357480859758
435.059 85.05207002481858
451.172 85.55785420349498
465.82 85.57975157929395
483.398 85.30137101723501
499.512 84.85448354866234
517.09 83.92216309263846
536.133 84.61151849361215
555.176 84.82829173699362
574.219 83.95113866872626
594.727 84.48032806021682
615.234 84.6499454611329
637.207 84.48201615900658
659.18 83.70657657708101
682.617 84.2755644421384
707.52 84.27094599648811
732.422 84.24909067039646
757.324 83.74661628818073
785.156 82.79547173514209
811.523 83.39860178685502
840.82 83.19175966337875
870.117 86.62110319432095
900.879 86.11209530293941
933.105 85.69663286609276
965.332 84.50424527636676
1000.49 84.85794228294982
1035.64 85.38538259905953
1072.27 84.45113779765379
1108.89 84.1970953753779
1148.44 84.62690785268633
1189.45 84.08176037824525
1230.47 85.48716581784839
1274.41 85.01598524910388
1319.82 84.51342183672305
1366.7 84.29573779585145
1413.57 83.35908100888689
1463.38 83.49239866745201
1516.11 84.10369009699384
1568.85 83.60256231378109
1624.51 83.87186941565923
1681.64 84.05053861245412
1741.7 84.70054032020731
1803.22 85.04320966598472
1866.21 84.09686695737581
1932.13 83.82776351487583
1999.51 84.36606353695332
2069.82 85.00627747313298
2143.07 84.9526778726406
2219.24 84.54763631762029
2296.88 83.69320317915013
2378.91 83.72288474269617
2462.4 84.68266434257983
2548.83 85.11660233345343
2639.65 84.44598437525757
2731.93 83.861986100468
2828.61 84.10147346984841
2928.22 85.3739816735967
3030.76 85.83530881973324
3137.7 85.6303415738949
3249.02 85.98126991485061
3363.28 85.98783839020054
3481.93 86.23763603828934
3604.98 86.75627458819677
3732.42 87.31278877287059
3864.26 86.94679298052479
4000.49 86.9408227101251
4141.11 87.21698030556216
4287.6 87.7178912707906
4438.48 87.75611633900182
4595.21 87.2316582909041
4756.35 88.48569548634367
4924.8 89.47071209984965
5097.66 89.16709095338247
5277.83 89.15867881969297
5463.87 88.16737321808787
5657.23 88.0453258676305
5856.45 87.89681510081402
6062.99 88.32304726645013
6276.86 87.51344769001581
6498.05 87.98747617448078
6726.56 87.90370405292634
6963.87 87.49465513940358
7209.96 87.24016968684202
7464.84 87.39430836386818
7727.05 87.78745299273822
7999.51 87.71661723420996
8282.23 87.91052708146698
8573.73 88.39615839654023
8876.95 88.185988650872
9188.96 88.08795038970189
9514.16 88.45136652273233
9849.61 88.56787089918897
10196.8 88.71361090802527
10555.7 88.75478261028364
10927.7 88.7839726974574
11313.0 88.1642727790757
11712.9 87.18058015157267
12126.0 86.50312935678114
12553.7 85.54220801909813
12996.1 85.34526250772946
13454.6 85.59918905719812
13929.2 86.12442623767323
14419.9 87.45440091395174
14928.2 89.85740116908451
15455.6 91.16775056662007
16000.5 90.04692410970955
16564.5 87.64774072019465
17148.9 85.57684454963753
17752.4 83.91948171450791
18379.4 82.65108892954832
19026.9 81.74944529334903
19697.8 80.59207694209509
19999.5 80.2578262734508
