Freq "Sound Power"
20.0 34.23828665754854
20.2909 34.34103830641993
20.586 34.413612757631995
20.8855 34.4818568897152
21.1893 34.616092014556585
21.4975 34.864053157261594
21.8102 35.23366423458447
22.1274 35.71027116174312
22.4492 36.26105195463552
22.7758 36.847039936592466
23.1071 37.43954055659819
23.4432 38.02252402673403
23.7841 38.590398765328814
24.1301 39.13320104081308
24.4811 39.63916946397978
24.8372 40.08960958967165
25.1984 40.48252456908202
25.5649 40.83517580723969
25.9368 41.19241941498683
26.3141 41.61451446304213
26.6968 42.151371931181956
27.0851 42.809346868470584
27.4791 43.54805815970124
27.8788 44.292335792016985
28.2843 44.9903554065271
28.6957 45.62302438015715
29.1131 46.203330706461315
29.5365 46.7620227979119
29.9661 47.3271773083724
30.402 47.91063215578043
30.8442 48.4987392019992
31.2929 49.07165406728021
31.748 49.616921148385046
32.2098 50.14210526556241
32.6783 50.665900455747675
33.1536 51.20377186733309
33.6359 51.75857976234472
34.1251 52.32132087549567
34.6215 52.88472044983985
35.125 53.45448268406405
35.6359 54.039012399862344
36.1543 54.637487905722836
36.6802 55.234422294481874
37.2137 55.808833513090704
37.755 56.36227166321126
38.3041 56.90319919800305
38.8613 57.442255407795045
39.4265 57.97836786496252
40.0 58.5035628616734
40.5818 59.00977564950608
41.1721 59.49257337103036
41.771 59.956639466449445
42.3785 60.40368996442956
42.9949 60.831719441044015
43.6203 61.24485986452777
44.2548 61.668549670183054
44.8985 62.11989261914937
45.5515 62.564369642673185
46.2141 62.96481687330288
46.8863 63.337854061750264
47.5683 63.73376332796089
48.2602 64.10557817009537
48.9621 64.37423344979763
49.6743 64.58712108455666
50.3968 64.87207739180187
51.1299 65.21647052189863
51.8736 65.50353814209149
52.6281 65.72338506344195
53.3936 65.95166276550957
54.1702 66.18828734841615
54.9581 66.40004840648368
55.7575 66.59944894266951
56.5685 66.78692262289135
57.3914 66.94930289203252
58.2261 67.09378892862988
59.073 67.22798058267985
59.9323 67.35785407227067
60.804 67.49514464826235
61.6884 67.63842906773948
62.5857 67.79809562239977
63.496 67.95772377495604
64.4196 68.07796287814413
65.3566 68.16934426480134
66.3073 68.24822021096446
67.2717 68.30178880567655
68.2502 68.33972061289391
69.2429 68.38100452617236
70.2501 68.44578772495828
71.2719 68.53342712001687
72.3086 68.63603985046477
73.3603 68.74474770604566
74.4274 68.84281342708046
75.5099 68.92686640010595
76.6083 68.97778115941483
77.7226 69.01611970275238
78.8531 69.08196183425522
80.0 69.16732721341828
81.1636 69.28842433579699
82.3442 69.42143418713314
83.5419 69.5657671184818
84.757 69.7146481241935
85.9899 69.84739578179381
87.2406 69.95856310230167
88.5096 70.05725159624338
89.797 70.14833768734036
91.1031 70.21157590936967
92.4282 70.23753493089387
93.7726 70.23490091721344
95.1366 70.2290959967894
96.5204 70.2525504148929
97.9243 70.3233540218655
99.3486 70.41214201284211
100.794 70.54064370521448
102.26 70.64636694580254
103.747 70.74446208844662
105.256 70.83441923256365
106.787 70.93037789063925
108.34 71.02928408734752
109.916 71.12133315053867
111.515 71.20948779265778
113.137 71.29683908955347
114.783 71.36744860294482
116.452 71.43996101042443
118.146 71.52845689981903
119.865 71.64136885606825
121.608 71.74522300948485
123.377 71.82509110242579
125.171 71.89419335698588
126.992 71.98222141755943
128.839 72.10141919783982
130.713 72.21682563140918
132.615 72.27223866284471
134.543 72.28640866136762
136.5 72.32972461192604
138.486 72.39528104173
140.5 72.4587158191071
142.544 72.49798348927835
144.617 72.48825795066176
146.721 72.49911334116693
148.855 72.60093419055994
151.02 72.70308759785483
153.217 72.71182090308965
155.445 72.70285976464373
157.706 72.64051566541843
160.0 72.51763464609876
162.327 72.54188571602188
164.688 72.59415014193603
167.084 72.70705482379836
169.514 72.79110393363959
171.98 72.65848182736211
174.481 72.513942609535
177.019 72.44263287786485
179.594 72.45994049337381
182.206 72.53235048013968
184.856 72.61387189546485
187.545 72.68615899009566
190.273 72.76900436068676
193.041 72.83768894568747
195.849 72.86347852677612
198.697 72.85262391288686
201.587 72.79353371018453
204.52 72.70858590504866
207.494 72.66393797389804
210.512 72.63006915360393
213.574 72.59894494352939
216.681 72.40618799095743
219.833 72.37007411821462
223.03 72.28333242036032
226.274 72.25118171669615
229.565 72.30981018607443
232.905 72.31614785927442
236.292 72.39044332064199
239.729 72.4357642048537
243.216 72.42322431576686
246.754 72.40479791262563
250.343 72.30456887013321
253.984 72.29107676452628
257.678 72.40247205801258
261.426 72.38269501549578
265.229 72.27986910408977
269.087 72.11802385612148
273.001 72.04218010951962
276.972 72.09143178866238
281.0 72.0901343192774
285.088 72.06010124502308
289.234 72.13977479314994
293.441 72.15368672967105
297.709 72.0358380114276
302.04 72.04475124697876
306.433 71.80558766581878
310.89 71.8091170163809
315.412 71.78044971653165
320.0 71.72032118155508
324.655 71.47537362558329
329.377 71.46305061886481
334.168 71.36520626222175
339.028 71.32314137667099
343.959 71.31070763377679
348.962 71.18494460826005
354.038 70.99824248328532
359.188 70.96271919904507
364.412 70.78871161229164
369.713 70.65003182284401
375.09 70.34902444105556
380.546 70.35089720337717
386.081 70.25986399593957
391.697 70.22937846588101
397.394 70.14025051129703
403.175 70.01919422185298
409.039 69.95531451266345
414.989 69.95092063043094
421.025 69.9188899341748
427.149 69.90148885305042
433.362 69.896714937483
439.665 69.90466430858343
446.06 69.8790703208024
452.548 69.87160955918392
459.131 69.85196387828864
465.809 69.82607034309629
472.584 69.7877914614775
479.458 69.73925844246799
486.432 69.68362718298317
493.507 69.6191668973397
500.686 69.54193086324884
507.968 69.46026226998319
515.357 69.37354917179992
522.853 69.28088989325639
530.458 69.18545189195304
538.174 69.09424185136218
546.002 69.00789427595564
553.943 68.92833192957357
562.001 68.85919966140614
570.175 68.80484270273813
578.469 68.76805455385315
586.883 68.74895267995853
595.419 68.74917682994794
604.08 68.76806312160124
612.866 68.80367491904342
621.78 68.84988121961626
630.824 68.90369794002088
640.0 68.9589269711936
649.309 69.01011177022627
658.753 69.0548265347201
668.335 69.08892970743342
678.056 69.10729942460273
687.919 69.10568825587505
697.925 69.08319579459936
708.077 69.0391688238572
718.376 68.97432453179393
728.825 68.89041156827707
739.426 68.79538485613227
750.181 68.6937882520775
761.093 68.59148730506296
772.163 68.5045448831234
783.394 68.43845587173257
794.789 68.40315651292218
806.349 68.4066193197288
818.078 68.4515461518684
829.977 68.5377121757241
842.05 68.65659536509006
854.298 68.8022882174722
866.724 68.95849925122928
879.33 69.11619896924532
892.12 69.26128176837958
905.097 69.38420602850987
918.262 69.47278248828991
931.618 69.52385239504801
945.169 69.5321407481464
958.917 69.4959478173205
972.864 69.41925488605094
987.015 69.30664575383608
1001.37 69.15853198354284
1015.94 68.99615379443506
1030.71 68.83496557826476
1045.71 68.68240135544136
1060.92 68.55610234007455
1076.35 68.46661133198586
1092.0 68.414845517816
1107.89 68.3993853407662
1124.0 68.40811550248381
1140.35 68.4293531290083
1156.94 68.4483146385108
1173.77 68.45206732019203
1190.84 68.43078936807119
1208.16 68.37932224214082
1225.73 68.29779349576518
1243.56 68.18975895530644
1261.65 68.06638418612016
1280.0 67.93804575829168
1298.62 67.81747857345034
1317.51 67.7112137824665
1336.67 67.62374382614146
1356.11 67.55345014777606
1375.84 67.49253981025065
1395.85 67.4300069477719
1416.15 67.35406217506795
1436.75 67.25645988827512
1457.65 67.1287495376776
1478.85 66.97087148630138
1500.36 66.78609841719688
1522.19 66.58521617398809
1544.33 66.37727671982077
1566.79 66.18146734261539
1589.58 66.01539291215633
1612.7 65.90121058566504
1636.16 65.85273402616555
1659.95 65.87639358202622
1684.1 65.95844199788002
1708.6 66.07516672435627
1733.45 66.18789425016178
1758.66 66.25905720703956
1784.24 66.26138740161794
1810.19 66.18493360300948
1836.52 66.0478389206249
1863.24 65.89670217589955
1890.34 65.7951325129696
1917.83 65.80564654503551
1945.73 65.94311910179405
1974.03 66.16394949451094
2002.74 66.39026141265266
2031.87 66.5468055501845
2061.43 66.58728961576236
2091.41 66.51470612091387
2121.83 66.37406663794096
2152.69 66.24501627916678
2184.01 66.20480503401974
2215.77 66.28311051735534
2248.0 66.44128082924308
2280.7 66.60004768091338
2313.87 66.6826313654165
2347.53 66.6524310292115
2381.68 66.5214625701188
2416.32 66.34982807079356
2451.46 66.23004100105463
2487.12 66.23234975801529
2523.3 66.35863614796303
2560.0 66.52625176445535
2597.24 66.6205194142347
2635.01 66.56334185622288
2673.34 66.3542285566202
2712.23 66.09339983122514
2751.68 65.93983608391775
2791.7 65.99325389554309
2832.31 66.17228392164765
2873.5 66.28832605434167
2915.3 66.19908137191482
2957.7 65.91944043661434
3000.72 65.63197298921264
3044.37 65.56093725547103
3088.65 65.72597967091534
3133.58 65.91425882450027
3179.16 65.92123340087768
3225.4 65.73746695136707
3272.31 65.55874372915322
3319.91 65.60063990430385
3368.2 65.84228948351637
3417.19 66.06185151085609
3466.89 66.09957093592034
3517.32 65.98627498678974
3568.48 65.87767598540638
3620.39 65.88704386910283
3673.05 65.97822932586784
3726.47 66.04624584808354
3780.67 66.0247473975981
3835.67 65.92092886213754
3891.46 65.81167808494806
3948.06 65.81306411227293
4005.49 65.93098354565169
4063.75 65.98144777504842
4122.86 65.81377571757423
4182.82 65.6162924083814
4243.66 65.75229775565407
4305.39 66.10487919298731
4368.01 66.21139540582632
4431.55 66.03725587436443
4496.01 66.05292230480643
4561.4 66.37896457565628
4627.75 66.53294704821572
4695.06 66.33890310516733
4763.35 66.22698451657074
4832.64 66.46135705220158
4902.93 66.63480926786329
4974.24 66.46132086042012
5046.6 66.27803692473998
5120.0 66.4016166615251
5194.47 66.46487869685014
5270.03 66.22924071449987
5346.68 66.10343062362195
5424.45 66.22449918313777
5503.35 66.23114708260248
5583.4 66.11010864938389
5664.61 66.12990148302661
5747.01 66.37244131289289
5830.6 66.45905087066386
5915.41 66.28294853660196
6001.45 66.38546519719868
6088.74 66.45557763381623
6177.3 66.19706466885765
6267.15 66.25071239775778
6358.31 66.41579137807399
6450.8 66.33851856212206
6544.62 66.47705268356906
6639.82 66.78896024169501
6736.4 66.73934925732236
6834.38 66.82535530699133
6933.79 66.85783778268882
7034.64 66.4990754890512
7136.96 66.45114248492968
7240.77 66.22756126068734
7346.09 65.81786873396739
7452.94 65.94990125253335
7561.35 65.62118043195686
7671.33 65.76479286260579
7782.91 65.77449008563653
7896.12 65.67547271716688
8010.97 65.83470125923118
8127.49 65.578097091004
8245.71 65.8899701333186
8365.65 66.05551764148055
8487.33 66.50793689765413
8610.78 66.74466589611137
8736.03 67.01595420885425
8863.09 66.98938779089096
8992.01 67.15930746293
9122.8 67.09459200168064
9255.5 67.35445849323983
9390.12 67.11646981686388
9526.7 67.36848364558034
9665.27 67.05689787116509
9805.86 67.43851437217504
9948.49 67.21328304735356
10093.2 67.61552353437271
10240.0 67.43793507446516
10388.9 67.72612053749053
10540.1 67.52949064121852
10693.4 67.40909734768803
10848.9 67.09793104898462
11006.7 67.09980982331396
11166.8 66.97937205418003
11329.2 67.15947718775664
11494.0 66.91880864160476
11661.2 66.9424434002577
11830.8 66.95241833383983
12002.9 66.81110275231953
12177.5 67.06283187976075
12354.6 66.99017298084827
12534.3 67.03569676214609
12716.6 67.02649123377962
12901.6 66.7181576044658
13089.2 66.59337932759209
13279.6 66.39296254717333
13472.8 65.99673132842844
13668.8 65.80823901434835
13867.6 65.6250748986389
14069.3 65.28604585272285
14273.9 65.05852917285812
14481.5 65.04568038032284
14692.2 65.08576311716838
14905.9 65.09106767464975
15122.7 64.92057900027501
15342.7 64.71352294906008
15565.8 64.48848388500488
15792.2 64.07202026665254
16021.9 63.7910631722618
16255.0 63.76969588682323
16491.4 63.8066201273073
16731.3 63.768514902213525
16974.7 63.47517297317442
17221.6 63.029449936439704
17472.1 62.61817463211733
17726.2 62.124010696016214
17984.0 61.678645171526085
18245.6 61.27945490429998
18511.0 60.94627988042072
18780.2 60.59982743320441
19053.4 60.11685297355949
19330.5 59.58822579902835
19611.7 59.10149854351319
19897.0 58.69464739841246
