Freq,Floor Bounce,Ceiling Bounce,Front Wall Bounce,Side Wall Bounce,Rear Wall Bounce,Total Early Reflection
22.4,21.462629820710575,22.279732571523212,38.67848354326024,34.97744077075642,40.06229428634903,36.2275078271994
23.0,21.954722159256576,21.366948675922643,39.988280541027436,36.653693927769936,42.94290489459139,38.39938664433383
23.6,22.71263854821042,20.84208554101157,41.4779802214379,38.70063909763739,45.92475390113408,40.85669929935425
24.0,24.5717427861983,22.87988865181721,42.265793290999184,40.12234968022209,46.77417369650736,41.772176316330004
25.0,26.594198499011,25.440286248917985,42.52940863207196,41.054241317851606,46.4949548824798,41.82266473807253
25.8,28.799492462364995,28.371578076706598,42.259257487410125,41.74901502802338,45.23276417575106,41.244553434916654
26.5,32.3140325806058,32.661047571880445,41.691288103020455,42.346115296194526,42.35732820347134,40.22696070147056
27.2,37.17687022738282,37.43726862156508,42.90668310125132,43.10018260977385,42.54449009500216,41.37832344179448
28.0,41.245483312391414,41.31942982214399,44.2443249476227,43.97169763669781,43.82399879994249,43.11842520223176
29.0,45.82521366176756,45.78753410082864,45.35189410736781,44.84637943453255,44.890884063996126,45.36063052937526
30.0,50.535921100575095,50.38876284917326,46.61326046962911,46.04841815302764,46.1606418062746,48.44992181279035
30.7,50.89915690575127,50.43630233689605,48.44097323867224,48.288045826738696,48.11223511854068,49.40098043801497
31.5,50.73619035898368,49.85068076845651,50.361645008891074,50.91279988137971,50.198272099018666,50.42841651135841
32.5,50.60914265810759,49.10801935001045,53.94387683554989,55.70512166634548,55.71408041339757,53.76273741104272
33.5,51.58696778926456,49.56013500535413,58.194261535489176,59.990423855922,65.97300918211813,60.68074765782727
34.5,52.49296589944687,49.55932627127906,62.05132719291646,63.49237128224168,72.24715026663374,66.20832169637343
35.5,53.30341659794827,48.53123894460707,66.75044058672539,67.91846613363681,78.24203257295444,71.92686619995702
36.5,55.17076618005234,50.79440711646224,61.827237073053894,62.6715614370726,72.81502859334806,66.61673719205038
37.5,57.162950871562785,53.570258065204186,58.78642411568228,58.92034748828621,67.9282060521178,62.29942874673404
38.7,58.918974154939164,56.2426348949888,56.93267927960325,55.93643210577986,60.12077861669705,57.94436340697315
40.0,60.389944448249835,59.5812674347533,57.50148439894126,56.679251158220794,58.243936191301586,58.689356718885506
41.2,61.772734846316666,62.87718509335498,58.2072852063412,57.63395795013683,58.205720781054325,60.29143519425419
42.5,60.399189947118415,62.36510566838501,59.750624056063955,59.32339134461783,58.97249658184079,60.341801111622985
43.7,59.06483314672316,60.92573742755745,61.931514115315025,61.61944814260086,59.943642977299504,60.822816637470865
45.0,59.37376292046004,60.912641404329676,63.752633717126486,63.662758248339586,61.24475830307411,62.11040957915729
46.2,62.242159260980756,62.96704157858339,64.06969353218845,64.32806881080391,63.65227129084555,63.51644368540933
47.5,64.74890345758156,64.7593839773841,62.29531137200061,62.89159396766645,63.465670835429364,63.743835079218584
48.7,64.02172160188512,63.88112681941877,60.06897717095086,59.87744699609348,58.803063088622466,61.88413414415328
50.0,63.54684536716151,63.21428436392932,60.646905923084134,60.032761418489955,57.960883093293475,61.554983450689065
51.5,63.54434905612975,62.622033983755344,63.05818686493289,62.1189703806113,60.069725375177256,62.43431223163155
53.0,64.06483483863863,63.081267434753286,64.17273882471606,63.134710932643316,61.17860709430175,63.24954064828468
54.5,64.37508473660294,63.746666692042695,64.63759050896932,63.563599411362816,61.68215017990704,63.7150816420955
56.0,64.96641158318916,64.45491926228974,65.2177414366112,64.07858974521723,62.26273107663734,64.31156134448203
58.0,65.95930873955156,65.44745737495798,65.97270439163422,64.75570845978069,63.16124753052459,65.1760716976297
60.0,66.71731087132444,66.24596424966334,66.7151921243085,65.51490529388202,64.14981324174927,65.96887318288945
61.5,67.17901893813111,66.74596424966336,67.545775625479,66.48745389984275,65.35772244583502,66.72478895949
63.0,67.77823398104877,67.34596424966334,68.14374100253339,67.1309819978852,66.13989112936197,67.35942922750758
65.0,68.51030077577362,67.98602736489151,68.70020948046424,67.64029959260985,66.76518865933814,67.97339145164436
67.0,69.14596424966335,68.68285437744318,69.38509526014685,68.35398811567676,67.56967768267316,68.67328881267156
69.0,69.71416066597602,69.28126743475329,69.9412365270841,69.03111217245466,68.22725712147053,69.2790694693554
71.0,70.37901893813111,69.91416066597601,70.46894099787286,69.60863992870539,68.7522888427931,69.8675042371565
73.0,71.14364458014153,70.7813733744152,71.06213387210808,70.46072586912366,69.65118587008985,70.65220123344571
75.0,71.54364458014153,71.31107995886842,71.49037683048604,71.0782516877291,70.43998565890722,71.19061731152622
77.5,71.84364458014154,71.74287121824909,71.89037683048606,71.55705791453671,71.19755880130553,71.65348369508605
80.0,72.40953919396857,72.3759493670886,72.41908876242643,72.19659280016938,72.21538175382277,72.32439160989001
82.5,72.90953919396856,72.87594936708858,72.96213387210808,72.85613272593847,73.17332532604532,72.95694682183023
85.0,73.50953919396856,73.47594936708859,73.49037683048606,73.43622524779765,74.12503552363692,73.6154312650093
87.5,74.04287121824908,74.04287121824908,73.9190887624264,73.87640988003777,74.83766629557938,74.15867792341307
90.0,74.4767168615442,74.40953919396857,74.3337060417339,74.17640988003775,75.15338105423295,74.52340991185194
92.5,74.90953919396857,74.80953919396855,74.7621338721081,74.51669298528797,75.17272516762608,74.83936173958418
95.0,75.40953919396856,75.2767168615442,75.36246386294954,75.05844557315453,75.31295245423944,75.28570426555633
97.5,75.77594936708859,75.61107995886842,75.76180385619097,75.5011860397957,75.39394274333011,75.61129898047793
100.0,76.0759493670886,75.91107995886841,76.09070468238069,75.80071748041935,75.46321985089206,75.87430803108916
103.0,76.44287121824908,76.2767168615442,76.40475652383387,76.12125441062821,75.70383091410213,76.19798710995245
106.0,76.74287121824909,76.54440020514292,76.66180385619097,76.34222250561328,75.90838207606997,76.44996042939367
109.0,76.8759493670886,76.77671686154422,76.8907046823807,76.56120977737403,76.01857563939988,76.63647027185864
112.0,77.04287121824909,76.87671686154421,77.07594936708858,76.64449093032039,75.85009984866599,76.72050511155147
115.0,77.24287121824908,77.0767168615442,77.23337385844673,76.74726742013279,75.77454940737734,76.84811344672438
118.0,77.3428712182491,77.11107995886842,77.3476121210075,76.88515547889267,75.93120130219657,76.95383665154806
122.0,77.41030077577362,77.1444002051429,77.44761212100751,76.86712446211598,75.98841775910476,77.00306993187678
125.0,77.44440020514291,77.11107995886842,77.49103250952743,76.8481630881372,75.85742610654437,76.98928031887837
128.0,77.51107995886842,77.17901893813111,77.5489212844656,76.90624487200095,76.00960743673743,77.0658809126259
132.0,77.51107995886842,77.21107995886841,77.59103250952744,76.92637677277446,76.16079866888522,77.10974084523333
136.0,77.51107995886842,77.17901893813111,77.59103250952744,76.88515547889267,76.16625967796249,77.09619266094585
140.0,77.47901893813112,77.07901893813111,77.563438666009,76.67399951205346,75.82935230524609,76.96941054211969
145.0,77.44440020514291,77.01416066597602,77.563438666009,76.57399951205346,75.50826458410063,76.88148660058236
150.0,77.2790189381311,76.87901893813111,77.53630248532053,76.55185784536994,75.6674578255542,76.82999202006424
155.0,77.31258512376046,76.84745737495795,77.53630248532053,76.496651248301,75.6478941635918,76.81780952552712
160.0,77.31258512376046,76.84745737495795,77.47824413402552,76.36100288579392,75.4498461727783,76.74927936833967
165.0,77.2790189381311,76.78285437744319,77.45120059351315,76.27947897735395,75.32883565473908,76.68929073035564
170.0,77.14745737495797,76.61416066597602,77.32270087084214,76.10262778755211,75.22784373592022,76.54717657734861
175.0,76.94745737495798,76.3828543774432,77.19593360110302,75.8842501235597,75.1209721551599,76.36902794174432
180.0,76.78285437744319,76.18285437744318,77.11132023327846,75.64635413104908,75.00264312486617,76.21085964637494
185.0,76.58285437744317,75.91877967180834,76.98509526014686,75.353338277517,74.87635428552443,76.01162539288747
190.0,76.48822115024477,75.65814904041163,76.87519079105647,75.04590862494565,74.70964793627844,75.83380241258622
195.0,76.35814904041165,75.4249345158841,76.84684857872905,74.73744177877205,74.54577822827005,75.67587426819443
200.0,76.36577793382331,75.2657779338233,76.82143172137152,74.43358866067013,74.13153486606205,75.53092853476981
206.0,76.39511642211613,75.18068466827434,76.88028037671526,74.2198781494602,73.53797855141046,75.42406807850635
212.0,76.43691450946041,75.11347714008888,76.98028037671527,74.13197856034104,72.91777553145485,75.36174848656938
218.0,76.53691450946042,75.1855819339048,77.03396953081463,74.16184373847975,72.30398446752031,75.35638177773434
224.0,76.62855889911077,75.324932958597,77.10535613400486,74.23503395304591,71.64643695851568,75.37982261101345
230.0,76.56577793382331,75.31909762818293,77.15931333048901,74.50344200415279,71.15992350511576,75.38178546725177
236.0,76.52855889911076,75.31909762818293,77.1151921243085,74.5505523251487,70.82563314651193,75.34204589436342
240.0,76.52855889911076,75.31347714008886,77.08958877315739,74.52338245414506,70.5919445072319,75.31254997901907
250.0,76.46577793382332,75.15814749498914,76.9895887731574,74.29097146881986,70.70401310053519,75.2043454458406
258.0,76.49511642211613,75.25257734962764,76.94374100253339,74.31612076969417,70.32884776287189,75.19592547438234
265.0,76.52171656147328,75.38558193390479,76.93989449161573,74.5505523251487,70.28965987092015,75.2655748345922
272.0,76.62171656147328,75.57492381839785,76.95443414855875,74.71063013623731,70.45945928371523,75.37397696593929
280.0,76.4520411215808,75.50353655992451,76.83630248532054,74.76058745047784,70.71710827669577,75.30647499316304
290.0,76.32171656147328,75.33691450946041,76.5808443608248,74.45903753869102,70.97440736986688,75.131846630479
300.0,76.05204112158081,75.07492381839783,76.33630248532054,74.21063013623733,70.91047940604314,74.89055972709578
307.0,75.98285437744319,75.13691450946041,76.163438666009,74.18642425641023,70.70150511566321,74.81730770662814
315.0,75.9812674347533,75.1657779338233,76.19299930037727,74.29182259833546,70.79049049439611,74.85646021079008
325.0,76.0163910465435,75.25814904041165,76.1808443608248,74.32082971019376,70.8459402455991,74.89169084130397
335.0,75.68822115024479,74.85814904041163,76.1696152680564,74.03155199545701,70.57788685875002,74.64730991081662
345.0,75.36577793382331,74.14183782768545,75.97721073674764,73.42679347204732,69.64172231400893,74.18890404030408
355.0,75.10353655992452,73.724932958597,75.82143172137151,72.99014999688251,68.70499881393485,73.85602938119469
365.0,75.00353655992451,73.624932958597,75.73086697094148,73.02979791540842,68.05094347183613,73.75047503180924
375.0,74.7855819339048,73.28558193390478,75.61110984704679,72.70398196211957,67.24897388253818,73.49295142319441
387.0,74.75814749498915,73.03789804272625,75.71110984704679,72.70457029467391,66.74440604470159,73.44989152938524
400.0,74.79774675397755,72.95236566441012,75.81110984704678,72.78488411547326,66.29386405106032,73.47460082201731
412.0,74.77101394744689,72.85236566441012,75.8360087356677,72.83614583282292,65.91248097038721,73.45316330210072
425.0,74.79187475588841,72.92657064719224,75.78958877315739,72.87920373096696,65.74563857169713,73.45761712928086
437.0,74.93116906017237,73.1114119984354,75.76442154636374,72.95470003722681,65.94199333944071,73.54028607040085
450.0,74.95814749498915,73.15236566441011,75.88958877315739,73.15199855550004,66.34804130529636,73.64635274894374
462.0,74.9447297070565,72.95236566441012,76.06442154636375,73.23726979577572,66.40162556971097,73.68485230043193
475.0,74.98537185134879,72.77858287247629,76.2360087356677,73.33139503425109,66.57973408695032,73.75098806066305
487.0,74.90121390637708,72.49697551672365,76.32716419020208,73.17356782775856,66.89074881836163,73.70184204817527
500.0,74.85179544236004,72.07025681253525,76.27462179405205,72.8321257761265,66.66756285664064,73.53790423015076
515.0,74.69427480893829,71.68027848958715,76.16716521673875,72.50754121603471,66.08792882320127,73.32221986366477
530.0,74.37043805641149,71.17079601164319,75.83941882294071,72.08233085191776,65.56717927123985,72.94778950427391
545.0,74.07043805641149,70.81605207801067,75.39232042081726,71.26945805024086,64.81607729628533,72.48637328241875
560.0,73.86133647174758,70.87322248675603,75.27537229891058,70.90309203044073,63.75762212157062,72.30123797699316
580.0,74.20470546837173,71.40238234451367,76.01038115914754,71.65161367481959,63.42852634416907,72.87255104986964
600.0,75.2575614524228,72.4251014070769,77.20352957453761,73.17585875289272,64.4416320608788,74.05226710121049
615.0,76.35693427259538,73.3168569031149,78.25234993756432,74.11447243413616,65.91483561402461,75.08523562368966
630.0,77.08068886259407,73.76104422511234,79.0017457509758,74.57042800053252,66.66485415103445,75.74220534801695
650.0,77.40585894094004,73.70779146088046,79.32973310183405,74.58547976664288,67.03659576755484,75.9771604254892
670.0,76.82172160188512,72.52813698001266,78.97483594507436,73.65113311011228,66.18100297041136,75.3732982338126
690.0,76.00291757003089,71.43042652039495,78.40790322553168,72.70059736439816,65.00772889200773,74.61914959915835
710.0,75.42172160188511,70.91331471102042,77.87938535699706,72.57493529573594,64.73362545423221,74.13708574305578
730.0,75.01233024748002,70.90936076496988,77.45234993756432,72.44923105391628,64.31422812886096,73.7999014316756
750.0,74.3211545280824,70.79499386494201,77.08065638723133,72.33236586232313,63.39498975909949,73.40081032475487
775.0,74.06912424215751,70.66984532592532,76.74713867157051,71.83324675211243,62.67182042904443,73.07818874158255
800.0,74.16912424215751,71.03594898453849,76.8079032255317,71.84736637655217,62.52536264539707,73.17439499316153
825.0,73.41105487438834,70.78068466827433,76.22551630184347,71.42856095647623,62.18203263912504,72.61894976192825
850.0,73.29250755886028,70.53000030161932,75.20155358992,70.21514752118027,61.37507668936264,71.91149334615874
875.0,73.80197389065549,70.89314411144217,75.43225266671328,70.05131709160968,60.93350858350853,72.17869756881143
900.0,73.96832835518659,71.68577792265614,75.43225266671328,69.68844178073492,60.697704059224336,72.30925026704118
925.0,73.93242931370465,72.05179544236005,75.27483594507437,69.51606295752246,60.88598633128484,72.28557639318164
950.0,74.58808548685721,73.11290949303228,75.80428160042743,70.03209252006856,61.28998535523996,72.95417230652949
975.0,75.82275920229674,74.83453696833185,76.34285249862128,69.87615135605193,61.24583405808697,73.90197881373217
1000.0,77.9767168615442,77.57726764660971,77.71494983762557,71.41154823789263,62.90020448181194,75.90797041676554
1030.0,80.05044287739297,79.565105668385,78.66295479787743,72.50457272959065,64.69349125566917,77.57227747532336
1060.0,80.38501366724843,79.60987769523426,78.54227628532759,72.71644087573603,65.03699592810939,77.69446417969156
1090.0,80.6201071164371,79.70407037198808,78.09232042081725,72.75706491250129,65.07677971712643,77.71290946741901
1120.0,80.14909147844944,78.65977929237512,77.79118772137419,72.75452456993503,64.38479753164314,77.13784059293694
1150.0,79.42010711643711,77.4252982687858,77.33655136102952,72.14320059817226,63.4290213695114,76.34508308697617
1180.0,78.96751101003177,76.60291757003087,77.32231909211599,71.58533212789062,62.34812722313805,75.90358157918664
1220.0,78.64014737004823,76.12044596128568,77.52551630184348,71.6611920827266,61.831858039266265,75.72398415771197
1250.0,78.14777915018875,74.95662790333945,77.63518140509159,71.39085201901324,60.63989663684386,75.30286266197722
1280.0,78.18747263013825,74.9874087480918,77.78658201845873,71.73679028250099,61.370038715550905,75.41000187388227
1320.0,77.2275425356873,73.11916463057241,77.13518140509157,70.4947055366754,60.16556953758345,74.3860869134132
1360.0,76.42929511981463,71.7297585633613,76.58116438979538,70.1137721513069,60.14125307924063,73.64173035689689
1400.0,75.67803991027536,70.19100389828817,75.78342946600449,69.91485114975278,60.28894749472171,72.84044977587538
1450.0,73.80213971079017,67.37781873605633,74.58604130857051,68.35172833487312,59.48155887375101,71.20209529978708
1500.0,72.85126988202494,65.2041434458182,73.98374697260563,68.52483317983211,60.75504676210288,70.48677391712602
1550.0,70.15551962042551,63.73151438995073,73.69132491810167,68.89774812676553,59.286178168225945,69.51612164258809
1600.0,70.9008925451634,68.00053774378723,75.31620433910587,71.53180199336083,61.8585363873602,71.36022234572933
1650.0,70.86583173258676,70.26665714775474,76.34508563684211,71.23568664841046,62.13154661850379,72.08804519071384
1700.0,71.74018251660188,72.82754253568731,76.98065638723135,71.82731903172574,63.40464950822235,73.07160546635184
1750.0,73.20675002902354,74.02275920229674,77.32681150097044,72.06522849167355,61.90601598065733,73.72366157999366
1800.0,74.26088278240358,74.45814749498913,77.55528434939194,72.6005290904673,62.14539055890877,74.19559794217075
1850.0,74.96783082113411,74.05962832300706,77.7975766068512,71.61334980544753,60.593731770761394,74.23977061781385
1900.0,75.32975911068306,73.94978450335707,78.04285249862129,70.97934176102996,60.216195144796146,74.3536472873031
1950.0,75.18394201924448,73.59190137041193,78.07516686290555,70.65524075528374,60.329521106379204,74.24102232019462
2000.0,75.58537012819136,72.68078192080047,78.37862368625129,70.22553201254026,60.41207682666581,74.32007729135076
2060.0,75.95637356763113,72.88777666717613,78.8899021799422,71.07993068641105,61.17512247209116,74.78378060224067
2120.0,75.4064468811046,72.5534678101315,78.58676031324269,71.9683744457457,61.64303012741264,74.53761976055141
2180.0,74.06247000875652,69.48765559812317,76.92591907311409,71.20152304687747,60.475191822886146,72.92007312340694
2240.0,74.79447962034541,68.62942149465793,76.73033192325775,70.77869719753235,58.5643762385063,72.88867907981556
2300.0,75.4773586701635,67.83418828453028,77.07073548593172,69.60882036137737,57.57068800038756,73.09723799606337
2360.0,76.57720593209226,70.07349308143941,77.4454584482003,69.77073662327142,57.45415075182332,73.84585502147408
2400.0,76.05130952025847,71.85220371851497,77.5975595901982,70.20287642788273,57.658784258543974,73.95066494903585
2500.0,75.10407770417143,71.6261185977908,77.57092954691592,69.78673142797416,56.73478696423463,73.58253740814409
2580.0,74.53974983216348,71.75257734962766,77.38379128193057,69.89310006301638,56.41783240282578,73.35893989985946
2650.0,74.06210130102941,71.43935193060292,77.08379128193056,69.93096837275057,57.74111975638398,73.05101700919936
2720.0,73.77828694667363,71.00245126717549,76.49638572083225,69.47827062960783,56.33804662415194,72.57172578598846
2800.0,74.47419938070944,70.49394396796838,77.19959123423465,69.0563733226809,55.7224571785858,73.01541163606086
2900.0,74.80529014150515,70.23066508554963,77.0708869787775,68.74939669549401,55.16148873217219,72.99077403041642
3000.0,75.05521005538093,68.89536979697066,77.04068448155894,68.33588215652266,57.03032247575605,72.90896143580545
3070.0,74.49637364267062,68.27837859285545,76.97600386212888,68.8200724811432,55.95274522384422,72.68319759688531
3150.0,74.1910694352661,68.33692495863664,76.5357489756822,68.22814826118466,55.56326916540901,72.31034496833031
3250.0,74.9594170066024,69.24286665040574,76.10669069497176,68.87878788355862,55.57389247419205,72.48538131611255
3350.0,75.07847910531615,69.32910234633067,75.67023227259972,68.31619357722487,55.085771319836326,72.29304819782048
