Freq "Rear Wall Bounce"
20.5078 38.054333197109386
21.9727 39.943943855974865
23.4375 43.00062775667594
24.9023 44.9245160441083
26.3672 46.409504129213914
27.832 48.89112920013697
29.2969 51.23041438351804
30.7617 53.77135472930182
32.2266 55.50271055303129
33.6914 57.56516244336585
35.1562 59.08486746584818
36.6211 60.79726440023579
38.0859 62.20653471684753
39.5508 63.76402496950641
41.0156 65.38835456012548
42.4805 66.3129134077035
43.9453 67.5646766228453
45.4102 68.8474397844884
46.875 69.99315021533182
48.3398 71.19062975701763
51.2695 73.29002623648367
52.7344 74.32390187391701
54.1992 75.26219900422174
55.6641 76.19807918184046
58.5938 77.84593510867049
60.0586 78.58380123773469
62.9883 79.86227601027541
64.4531 80.3887055275694
67.3828 81.33046950786888
68.8477 81.73873158506451
71.7773 82.4402366641044
74.707 82.93976962943458
77.6367 83.32533607170207
79.1016 83.49543940040385
82.0312 83.77404868353902
84.9609 83.96318222630819
87.8906 84.13121448958287
90.8203 84.15187741719028
95.2148 84.2979331191846
98.1445 84.2955947903089
101.074 84.32340634170585
105.469 84.32166434194238
108.398 84.25798197022826
112.793 84.30134385122359
117.188 84.25284451803923
120.117 84.25976570360983
124.512 84.23325029669685
128.906 84.22529356077015
133.301 84.19065097768735
139.16 84.12375796495976
143.555 84.09704536157066
147.949 84.06405635862406
153.809 84.043124468576
159.668 84.01965978406339
165.527 84.02160043753538
171.387 83.95055652648169
177.246 83.88845321074734
183.105 83.86840307633587
188.965 83.76960475544516
196.289 83.70146202982922
203.613 83.62820663968675
210.938 83.55830850536246
218.262 83.520240151588
225.586 83.4248702075529
232.91 83.30000020403686
241.699 83.18905685109223
250.488 83.08263040943768
259.277 83.15640404606054
268.066 83.03730429275299
276.855 83.10918613497334
287.109 83.24471742564864
297.363 83.30574562639235
307.617 83.31687000168588
319.336 83.21478543133834
329.59 83.18678661238785
341.309 83.14988847534842
353.027 82.99951458406842
366.211 82.98597357235104
379.395 83.18631073458634
392.578 82.93099669265143
405.762 82.84473123121334
420.41 82.64450267710689
435.059 82.64959158698069
451.172 82.23834515393533
465.82 82.38554189090132
483.398 82.23800489109443
499.512 82.27378779899176
517.09 81.80837519716799
536.133 81.5083425567377
555.176 81.47137673773078
574.219 81.35623395541683
594.727 80.98278605843727
615.234 81.0713435019892
637.207 81.05776457171953
659.18 80.83002166967393
682.617 80.53754116671254
707.52 80.45896343959426
732.422 80.28684327701693
757.324 79.82602923496225
785.156 80.014062596675
811.523 79.45579969790619
840.82 78.43290135389503
870.117 78.20523993016079
900.879 78.30974679258982
933.105 78.72586734666169
965.332 78.14486213909086
1000.49 77.77002376224883
1035.64 77.04947547595488
1072.27 76.46885845033468
1108.89 74.58084242336798
1148.44 74.65791423814377
1189.45 76.39923090789391
1230.47 77.02768504027387
1274.41 76.29972905086045
1319.82 76.93526682133228
1366.7 75.84259006657527
1413.57 74.0372685626104
1463.38 75.56172818385707
1516.11 76.18369211102227
1568.85 75.94448440011222
1624.51 74.96279248830352
1681.64 74.97128431764595
1741.7 74.57044038463495
1803.22 75.41144751814522
1866.21 75.30646152154912
1932.13 74.65428482325017
1999.51 74.75212922351143
2069.82 74.83234390899334
2143.07 74.45607595415235
2219.24 73.85964370364556
2296.88 73.82225468711768
2378.91 73.95680222731312
2462.4 72.84782654073655
2548.83 72.95142909159034
2639.65 73.441591493719
2731.93 73.05575767679403
2828.61 72.11802178258128
2928.22 72.33962689385812
3030.76 72.28307730460838
3137.7 72.04273601631559
3249.02 72.26304786045691
3363.28 72.79730816260296
3481.93 72.92413849775726
3604.98 72.3671161913879
3732.42 72.99828702911692
3864.26 72.3361146056585
4000.49 72.68925657317469
4141.11 72.50468854937482
4287.6 70.43680977491977
4438.48 71.18530084298958
4595.21 71.33232785975194
4756.35 71.39769008615974
4924.8 71.13285005155132
5097.66 70.42535735569139
5277.83 69.96127864910687
5463.87 69.89994944222441
5657.23 70.09350759279756
5856.45 69.62175852634746
6062.99 69.31771605543145
6276.86 68.67107656058685
6498.05 68.41827622888668
6726.56 68.1145223098471
6963.87 68.08942828247078
7209.96 67.78330513217637
7464.84 67.5060823076465
7727.05 66.909456493313
7999.51 65.57490112502201
8282.23 64.50576251895599
8573.73 63.73014822402182
8876.95 63.87788271325432
9188.96 63.54329431312246
9514.16 63.230052390196235
9849.61 62.68176653631933
10196.8 62.33418202653367
10555.7 62.01856077693999
10927.7 61.6551326708791
11313.0 61.57829696088611
11712.9 61.53774964672387
12126.0 62.657933810417646
12553.7 63.76803981900164
12996.1 63.26864393363587
13454.6 62.76880886180331
13929.2 63.18666982623209
14419.9 62.917180087828825
14928.2 61.411615066003904
15455.6 59.832904756511724
16000.5 58.45510112397618
16564.5 56.574195825573426
17148.9 54.76856162922941
17752.4 53.63890336624151
18379.4 52.81587104518583
19026.9 52.550799721198686
19697.8 52.60628909782518
19999.5 52.69507750466373
