Freq "Side Wall Bounce"
20.5078 38.35199927525001
21.9727 38.360588502100214
23.4375 41.39778185226906
24.9023 43.52131288977232
26.3672 44.84290982952204
27.832 46.79681274868072
29.2969 49.10171419216654
30.7617 51.80784891428907
32.2266 53.6879137049432
33.6914 55.89261238665212
35.1562 57.52340932583108
36.6211 59.44368940509172
38.0859 60.897262202250815
39.5508 62.557966249825824
41.0156 64.46027567612259
42.4805 65.4041275729006
43.9453 66.77783984559264
45.4102 68.12693430716224
46.875 69.31583507602072
48.3398 70.57442371476294
51.2695 72.801346519129
52.7344 73.90239910532469
54.1992 74.8982302185477
55.6641 75.82581085725482
58.5938 77.56104677386173
60.0586 78.32129122854191
62.9883 79.68631005889974
64.4531 80.2508730604664
67.3828 81.21324865897131
68.8477 81.64078044801649
71.7773 82.38743796390303
74.707 82.92302936050004
77.6367 83.3360256734833
79.1016 83.51696252228446
82.0312 83.82521477058016
84.9609 84.04059682716093
87.8906 84.14906422878292
90.8203 84.33215697691936
95.2148 84.43736483259362
98.1445 84.43477591847486
101.074 84.46588871382129
105.469 84.51930813554036
108.398 84.47769736300855
112.793 84.52861245604484
117.188 84.50548399090046
120.117 84.52715401284246
124.512 84.5304520170958
128.906 84.48308244083148
133.301 84.46415709497838
139.16 84.43277821159946
143.555 84.4339858066625
147.949 84.40520449379197
153.809 84.38083435525346
159.668 84.36340729097176
165.527 84.38888779103165
171.387 84.32215679575388
177.246 84.2597617739538
183.105 84.19818650592329
188.965 84.14656524249541
196.289 84.19259594002547
203.613 84.11630249378872
210.938 84.09216160790648
218.262 83.98479258416565
225.586 83.9409478527326
232.91 83.89735810218946
241.699 83.78613424427537
250.488 83.75024754065372
259.277 83.87248687549348
268.066 83.73527922274236
276.855 83.94012489508755
287.109 83.90453803624958
297.363 84.04123642107511
307.617 84.1258951241831
319.336 83.97424455266601
329.59 84.05585426901298
341.309 84.02547337493426
353.027 84.09689156885518
366.211 84.11360587858684
379.395 84.17598653249863
392.578 84.05441102995991
405.762 83.946914778513
420.41 84.00991936003439
435.059 83.95479032140213
451.172 84.07141340785127
465.82 84.03400473263032
483.398 84.03422830293282
499.512 83.98686286647435
517.09 84.05204191356809
536.133 83.73050933142143
555.176 83.90085742883129
574.219 83.98295420449134
594.727 83.89012502303126
615.234 83.99791375673415
637.207 84.13772788755193
659.18 83.98758265639603
682.617 83.95402197569852
707.52 84.0596633526197
732.422 83.64036741666064
757.324 83.5120026409951
785.156 82.83124635510286
811.523 82.20885324063279
840.82 82.06907002244607
870.117 82.42323320905443
900.879 82.59671332072743
933.105 82.54301947528397
965.332 81.37766408099158
1000.49 81.03948840376854
1035.64 80.89170347646954
1072.27 78.1098172007362
1108.89 78.85207979656819
1148.44 80.632620298493
1189.45 81.2722443507194
1230.47 81.08883719835555
1274.41 80.87189385300609
1319.82 81.48153230439522
1366.7 80.71943243289964
1413.57 80.29884720863879
1463.38 81.21865647053063
1516.11 81.69401947665467
1568.85 81.36593194136839
1624.51 81.21514361519262
1681.64 81.02054351692884
1741.7 80.58311686928317
1803.22 81.36513194101181
1866.21 81.51693810850445
1932.13 80.81968525588304
1999.51 80.86194813742247
2069.82 80.93006915624203
2143.07 80.36377860069233
2219.24 79.88346597674717
2296.88 80.61703893274635
2378.91 81.1048019902445
2462.4 80.3393431023383
2548.83 80.13158947646828
2639.65 80.63653832545855
2731.93 79.77003339595878
2828.61 79.78069850691969
2928.22 80.49820027706475
3030.76 80.33272141993164
3137.7 79.77678846067296
3249.02 80.24432501995943
3363.28 80.56359113780618
3481.93 80.70077119988719
3604.98 80.46640208864683
3732.42 81.02756452047116
3864.26 80.93342261483879
4000.49 81.41423221720852
4141.11 80.91329429172843
4287.6 79.8822018789892
4438.48 80.59762700870098
4595.21 81.18168335615496
4756.35 81.25961839804053
4924.8 81.58885403271357
5097.66 81.3026473679315
5277.83 81.14907639003393
5463.87 81.09015551604138
5657.23 80.58562483893213
5856.45 80.62219108600347
6062.99 80.48923671448233
6276.86 80.07792221334184
6498.05 79.58971984726334
6726.56 79.71290523625906
6963.87 79.71388581617107
7209.96 79.51838994109582
7464.84 79.61458765440791
7727.05 79.51926028239203
7999.51 78.9636467243504
8282.23 78.23456332733332
8573.73 77.585800226749
8876.95 77.33064177195637
9188.96 77.04490001138336
9514.16 76.9072440034827
9849.61 76.74479393435598
10196.8 76.4519074858111
10555.7 76.43204196603553
10927.7 76.3442144690398
11313.0 76.39914397827619
11712.9 76.62400988170539
12126.0 76.79982168301623
12553.7 77.46271557511173
12996.1 77.83464768416322
13454.6 78.18261719528292
13929.2 78.31610082273646
14419.9 78.2250778401555
14928.2 77.90685864459094
15455.6 77.27683815125475
16000.5 76.41584517406937
16564.5 75.2675588103072
17148.9 74.00985661223514
17752.4 72.87466648524304
18379.4 71.85682176106
19026.9 70.77713608213854
19697.8 69.78130953910959
19999.5 69.43775262347779
