Freq,On Axis,Listening Window,Sound Power,Early Reflections,Early Reflections DI,Sound Power DI,DI offset
22.4,43.025316455696185,42.518099708391446,42.13433303815981,42.44529734899871,30.07280235939274,30.383766670231637,30
23.0,43.62531645569618,43.08309666856519,42.72069871552452,43.02000165109081,30.06309501747438,30.36239795304067,30
23.6,44.2253164556962,43.639998265138075,43.28264000831399,43.58552536013684,30.054472905001234,30.357358256824085,30
24.0,44.7253164556962,44.07363814859977,43.705163031979765,44.009373617347165,30.064264531252604,30.368475116620004,30
25.0,45.2253164556962,44.605686042505965,44.26378544737932,44.552368988784565,30.0533170537214,30.341900595126646,30
25.8,45.825316455696196,45.170402879554246,44.843756025410016,45.12664418843082,30.04375869112343,30.32664685414423,30
26.5,46.42531645569619,45.8029024121262,45.462574044944574,45.73535725160582,30.067545160520382,30.340328367181627,30
27.2,47.2253164556962,46.60854796263217,46.273410512684734,46.54863520179242,30.05991276083975,30.33513744994744,30
28.0,47.92531645569619,47.25448019597172,46.906803275079966,47.17774327784363,30.07673691812809,30.347676920891757,30
29.0,48.525316455696185,47.87526954182738,47.54334097335877,47.80814212269556,30.067127419131822,30.331928568468612,30
30.0,49.12531645569618,48.49503074289015,48.1540747852423,48.422792870349554,30.072237872540597,30.34095595764785,30
30.7,49.62531645569618,49.068954565477696,48.68211343736078,48.957505977426365,30.11144858805133,30.386841128116913,30
31.5,50.12531645569618,49.58920434908916,49.213836247971756,49.48434119930576,30.104863149783398,30.375368101117402,30
32.5,50.825316455696196,50.2434094753653,49.85657521297685,50.12060628721375,30.12280318815155,30.386834262388447,30
33.5,51.525316455696185,50.98414479162898,50.58419830424327,50.86815824328227,30.11598654834671,30.399946487385705,30
34.5,52.2253164556962,51.81395924673146,51.40534411818848,51.665785538033504,30.148173708697954,30.408615128542976,30
35.5,52.825316455696196,52.48945811962845,52.03875028622542,52.30568409220763,30.183774027420824,30.45070783340303,30
36.5,53.525316455696185,53.165380418217524,52.703029935104155,52.9657299551548,30.199650463062724,30.46235048311337,30
37.5,54.025316455696185,53.698950248217145,53.21877491696576,53.486541356323286,30.21240889189386,30.480175331251388,30
38.7,54.62531645569619,54.32970602236985,53.82189874547464,54.10509320447565,30.224612817894197,30.507807276895207,30
40.0,55.325316455696196,55.139882373629916,54.62082516184566,54.90087033111817,30.239012042511746,30.519057211784258,30
41.2,56.025316455696185,55.89377916320477,55.33378185494146,55.62516953269758,30.268609630507186,30.559997308263306,30
42.5,56.62531645569619,56.51535023922263,55.97306483225384,56.258903072743664,30.256447166478964,30.542285406968787,30
43.7,57.2253164556962,57.159673777031784,56.594435261030355,56.88346538636294,30.27620839066884,30.56523851600143,30
45.0,57.7253164556962,57.6596737770318,57.08054017387039,57.37054139789572,30.289132379136078,30.57913360316141,30
46.2,58.42531645569619,58.437568552924546,57.846195635779196,58.153128419723856,30.28444013320069,30.59137291714535,30
47.5,59.025316455696185,59.05941993161447,58.474780186673684,58.771258353848495,30.288161577765976,30.584639744940787,30
48.7,59.62531645569619,59.65941993161448,59.05018670726125,59.3610116504574,30.29840828115708,30.609233224353233,30
50.0,60.2253164556962,60.22608395015182,59.61592492008769,59.9237400301043,30.30234392004752,30.610159030064125,30
51.5,60.7253164556962,60.75941993161449,60.16315905176647,60.47315785183051,30.28626207978398,30.596260879848018,30
53.0,61.325316455696196,61.34799304399732,60.75050907145473,61.05687235527695,30.29112068872037,30.59748397254259,30
54.5,61.825316455696196,61.915087816093234,61.28873505654701,61.60714420008904,30.307943616004195,30.626352759546222,30
56.0,62.42531645569619,62.426083950151806,61.79958522258406,62.127690046455214,30.298393903696592,30.62649872756775,30
58.0,62.92531645569619,62.958906282576166,62.348093049952894,62.668958170277165,30.289948112299,30.610813232623272,30
60.0,63.42531645569619,63.381156032553946,62.77497375224581,63.08901020328031,30.292145829273636,30.606182280308133,30
61.5,63.825316455696196,63.85890628257617,63.24231841270955,63.56411504996892,30.294791232607253,30.61658786986662,30
63.0,64.3253164556962,64.28115603255397,63.67600054989293,64.00566237732983,30.27549365522414,30.605155482661033,30
65.0,64.8253164556962,64.78115603255395,64.12782379850994,64.45397651786973,30.327179514684218,30.653332234044015,30
67.0,65.12531645569618,65.1145748710068,64.49474490679577,64.8241637678882,30.2904111031186,30.61982996421102,30
69.0,65.5253164556962,65.51457487100681,64.87635551735269,65.21173859197413,30.30283627903269,30.638219353654122,30
71.0,65.92531645569619,65.9145748710068,65.25359743681275,65.59374491203872,30.32082995896809,30.660977434194052,30
73.0,66.22531645569617,66.20329237350995,65.53736862629904,65.89029525701392,30.312997116496035,30.66592374721091,30
75.0,66.6253164556962,66.58115603255395,65.880659197764,66.23223166796481,30.348924364589138,30.700496834789945,30
77.5,66.92531645569619,66.88115603255395,66.18322121647856,66.53827917109174,30.3428768614622,30.69793481607539,30
80.0,67.1253164556962,67.09249610945614,66.40474217822151,66.75543340958876,30.337062699867374,30.687753931234624,30
82.5,67.42531645569619,67.38115603255395,66.65077478766314,67.03043833998875,30.350717692565198,30.730381244890808,30
85.0,67.62531645569618,67.6365419555546,66.88735487258022,67.26643050356716,30.37011145198744,30.749187082974387,30
87.5,67.8253164556962,67.83654195555462,67.06978158392864,67.45925957696807,30.377282378586557,30.766760371625978,30
90.0,68.1253164556962,68.09249610945614,67.28440600621792,67.69046382378326,30.402032285672874,30.808090103238214,30
92.5,68.3253164556962,68.28141449383143,67.46338377463415,67.86620004679676,30.41521444703467,30.81803071919728,30
95.0,68.5253164556962,68.51457487100681,67.68564228130722,68.09794345488332,30.416631416123494,30.82893258969959,30
97.5,68.8253164556962,68.78115603255395,67.90580004822628,68.34448974989337,30.436666282660582,30.87535598432767,30
100.0,69.1253164556962,69.04773851490138,68.17204920745168,68.61121280444152,30.43652571045986,30.875689307449704,30
103.0,69.42531645569619,69.39249610945615,68.49937919149289,68.94139020731708,30.451105902139062,30.893116917963255,30
106.0,69.8253164556962,69.80329237350998,68.88854298174516,69.3557638670035,30.447528506506472,30.914749391764815,30
109.0,70.3253164556962,70.28115603255395,69.33859510355944,69.80917002324507,30.47198600930888,30.94256092899451,30
112.0,70.8253164556962,70.80329237350998,69.85523084680219,70.33992133041237,30.46337104309761,30.94806152670779,30
115.0,71.42531645569619,71.40329237350997,70.39800164245926,70.89064510448328,30.512647269026687,31.005290731050707,30
118.0,72.0253164556962,72.00329237350998,70.99252621333088,71.4996658560805,30.50362651742948,31.010766160179102,30
122.0,72.62531645569618,72.60329237350996,71.58362668174541,72.09800258052267,30.505289792987284,31.019665691764544,30
125.0,73.3253164556962,73.2594140186183,72.21130839019483,72.726945249539,30.5324687690793,31.04810562842347,30
128.0,73.92531645569619,73.85941401861831,72.79025881421003,73.327309430864,30.532104587754304,31.069155204408275,30
132.0,74.5253164556962,74.41457487100682,73.34461135935702,73.86354407645706,30.55103079454976,31.069963511649803,30
136.0,75.02531645569621,74.95941401861832,73.8665846104262,74.39875103419413,30.560662984424184,31.092829408192117,30
140.0,75.5253164556962,75.4145748710068,74.28248428569421,74.83745600947618,30.57711886153062,31.132090585312596,30
145.0,75.92531645569619,75.81457487100681,74.63268788041069,75.20793442031909,30.60664045068772,31.181886990596126,30
150.0,76.22531645569617,76.13705231281206,74.92830269672297,75.5076692486742,30.629383064137855,31.208749616089094,30
155.0,76.42531645569619,76.35941401861831,75.0928679819619,75.69274244684813,30.66667157177018,31.266546036656408,30
160.0,76.6253164556962,76.49299993386755,75.20527704928008,75.82429739639757,30.668702537469983,31.287722884587467,30
165.0,76.72531645569619,76.570810934895,75.22700269067988,75.87342246266984,30.697388472225157,31.34380824421511,30
170.0,76.72531645569619,76.61558902659979,75.20778496250978,75.88384085877179,30.731748167828002,31.407804064090016,30
175.0,76.72531645569619,76.61558902659979,75.15528428658311,75.86723630065413,30.748352725945665,31.46030474001668,30
180.0,76.72531645569619,76.62683966519799,75.106742282799,75.84379301078874,30.783046654409247,31.520097382398987,30
185.0,76.8253164556962,76.67081093489499,75.09354333788072,75.85239776634346,30.81841316855153,31.57726759701427,30
190.0,76.92531645569619,76.74951424870534,75.12135652788083,75.91246882946453,30.83704541924081,31.628157720824504,30
195.0,77.0253164556962,76.8935154333576,75.20276057422184,76.02001051966288,30.87350491369473,31.690754859135765,30
200.0,77.1253164556962,77.026839665198,75.29091182260251,76.13664724798898,30.890192417209022,31.735927842595487,30
206.0,77.3253164556962,77.14951424870533,75.36317505215165,76.23466086674047,30.91485338196486,31.786339196553683,30
212.0,77.3253164556962,77.226839665198,75.39988074601527,76.29874864812429,30.92809101707371,31.82695891918273,30
218.0,77.42531645569619,77.23832227235029,75.3511356264834,76.28274900833999,30.955573264010297,31.88718664586689,30
224.0,77.3253164556962,77.20482332581588,75.26075884528865,76.22511243748548,30.979710888330402,31.94406448052723,30
230.0,77.3253164556962,77.11735487881482,75.09701723970406,76.10362324346121,31.013731635353608,32.020337639110764,30
236.0,77.2253164556962,76.9952902817599,74.90591510228401,75.94050028034955,31.054790001410353,32.089375179475894,30
240.0,77.1253164556962,76.8952902817599,74.68162488970732,75.76978482404535,31.125505457714553,32.213665392052576,30
250.0,77.0253164556962,76.79529028175989,74.43877846358649,75.59577541054463,31.199514871215257,32.3565118181734,30
258.0,76.8253164556962,76.62886255761143,74.1736080279899,75.39207846420005,31.236784093411373,32.45525452962153,30
265.0,76.72531645569619,76.5288625576114,73.8942292095846,75.2030622426477,31.3258003149637,32.63463334802681,30
272.0,76.72531645569619,76.47459678126016,73.65895320009707,75.06400765862514,31.410589122635017,32.81564358116309,30
280.0,76.6253164556962,76.4083287847243,73.44212047239785,74.92808423225814,31.48024455246616,32.96620831232646,30
290.0,76.6253164556962,76.37459678126015,73.20895785083293,74.80160535639013,31.572991424870025,33.16563893042722,30
300.0,76.52531645569618,76.26346934012979,72.92834300020438,74.6113953190434,31.652074021086392,33.33512633992541,30
307.0,76.3253164556962,76.07459678126014,72.60140935032915,74.36697419487746,31.707622586382683,33.47318743093099,30
315.0,76.0253164556962,75.85178684011521,72.26355623155965,74.09059528242842,31.761191557686786,33.58823060855556,30
325.0,75.8253164556962,75.65178684011521,71.97800814819757,73.853281699782,31.798505140333205,33.67377869191763,30
335.0,75.6253164556962,75.50581662662077,71.77361418716173,73.68808260485241,31.81773402176836,33.732202439459044,30
345.0,75.5253164556962,75.40581662662078,71.65128137832178,73.58966901698369,31.816147609637085,33.75453524829899,30
355.0,75.42531645569619,75.30581662662078,71.56663315545373,73.50957295209112,31.796243674529663,33.73918347116705,30
365.0,75.3253164556962,75.26067745692342,71.47986490803984,73.44348321812907,31.817194238794343,33.780812548883574,30
375.0,75.22531645569619,75.2045662539594,71.41479043960499,73.40561591854512,31.798950335414276,33.789775814354414,30
387.0,75.3253164556962,75.21584544683205,71.40473324034862,73.41878302913264,31.797062417699408,33.81111220648343,30
400.0,75.42531645569619,75.30507453130215,71.46337294937588,73.5115983124316,31.793476218870552,33.84170158192627,30
412.0,75.5253164556962,75.39376729375053,71.49782262126362,73.59799866605766,31.795768627692865,33.895944672486905,30
425.0,75.5253164556962,75.37158222506119,71.37342652328897,73.51710770668842,31.85447451837277,33.99815570177222,30
437.0,75.42531645569619,75.21610782418684,71.12563479876155,73.30064571305982,31.915462111127013,34.09047302542528,30
450.0,75.3253164556962,75.06197585361868,70.85828729653443,73.08024860486947,31.98172724874921,34.20368855708425,30
462.0,75.22531645569619,74.97285405567182,70.67790519904656,72.91683361833796,32.056020437333856,34.294948856625254,30
475.0,75.3253164556962,74.9872749023034,70.5347127303812,72.80498155859155,32.18229334371185,34.452562171922196,30
487.0,75.3253164556962,74.94363873955129,70.34928582804531,72.63948826963193,32.304150469919364,34.59435291150598,30
500.0,75.22531645569619,74.87813446826439,70.13794450437345,72.4490516242835,32.42908284398089,34.74018996389094,30
515.0,75.22531645569619,74.79029289047239,69.94367005948726,72.26640417812538,32.523888712347,34.846622830985126,30
530.0,75.22531645569619,74.80558921383906,69.79876453842047,72.14765761032157,32.65793160351748,35.006824675418585,30
545.0,75.3253164556962,74.91686575371043,69.72556163459214,72.13354791585728,32.78331783785315,35.191304119118286,30
560.0,75.5253164556962,75.09765243165847,69.68686921926275,72.17591419361192,32.92173823804656,35.41078321239573,30
580.0,75.72531645569619,75.26741801995688,69.63979938018774,72.23257567183816,33.034842348118715,35.62761863976914,30
600.0,75.8253164556962,75.35627214663785,69.55065095287655,72.22106798779265,33.1352041588452,35.8056211937613,30
615.0,75.92531645569619,75.40468321522489,69.42278867952288,72.17330273894339,33.2313804762815,35.98189453570201,30
630.0,75.92531645569619,75.40468321522489,69.28044300708078,72.08928513680675,33.31539807841814,36.124240208144116,30
650.0,75.8253164556962,75.2589153825723,69.02355078874848,71.87993622025488,33.37897916231742,36.23536459382382,30
670.0,75.5253164556962,75.04638299952639,68.71995497532433,71.60433276487481,33.442050234651575,36.32642802420206,30
690.0,75.42531645569619,74.95675679521035,68.54948547368313,71.45602848265676,33.50072831255359,36.40727132152722,30
710.0,75.3253164556962,74.84679997198411,68.39255580009777,71.31503155578419,33.531768416199924,36.454244171886344,30
730.0,75.02531645569621,74.63001771377131,68.11339613935864,71.03627990124323,33.593737812528076,36.51662157441267,30
750.0,74.8253164556962,74.4325490221862,67.83931049348756,70.76567392878088,33.66687509340531,36.593238528698635,30
775.0,74.6253164556962,74.22558725301734,67.51421424802386,70.44217219933505,33.78341505368229,36.711373004993476,30
800.0,74.42531645569619,73.98429215938884,67.12539186191825,70.0709302644261,33.91336189496275,36.8589002974706,30
825.0,74.42531645569619,73.90968692868904,66.91369072365862,69.88232530822646,34.027361620462585,36.99599620503042,30
850.0,74.42531645569619,73.87785325058857,66.76479956996265,69.76219667643105,34.115656574157526,37.113053680625924,30
875.0,74.22531645569619,73.70213771957991,66.4841000631827,69.5124960172397,34.18964170234021,37.218037656397215,30
900.0,74.1253164556962,73.51567428498973,66.1445518746072,69.2107359212454,34.30493836374433,37.371122410382526,30
925.0,74.02531645569618,73.34088674275348,65.83322938111101,68.931090024815,34.40979671793848,37.50765736164247,30
950.0,73.8253164556962,73.14088674275351,65.50839474225651,68.60679614313182,34.53409059962169,37.632492000496995,30
975.0,73.8253164556962,72.99034159927153,65.20951813119356,68.3373252718474,34.653016327424126,37.78082346807797,30
1000.0,73.72531645569617,72.886580940438,65.0224710269282,68.17029638217394,34.71628455826405,37.86410991350979,30
1030.0,73.72531645569617,72.78177390086894,64.82992421364476,68.02235970727246,34.759414193596484,37.95184968722418,30
1060.0,73.62531645569621,72.669928128138,64.64978368871493,67.87565321819407,34.79427490994392,38.02014443942306,30
1090.0,73.62531645569621,72.63642628462225,64.52374787833348,67.80835284492842,34.828073439693824,38.112678406288765,30
1120.0,73.62531645569621,72.616196004024,64.42569110039989,67.77553633852496,34.84065966549905,38.19050490362412,30
1150.0,73.62531645569621,72.67268556845747,64.44577020027063,67.84599173075082,34.82669383770664,38.22691536818684,30
1180.0,73.8253164556962,72.8266054133822,64.56574016286257,68.04304229380509,34.78356311957711,38.26086525051963,30
1220.0,74.02531645569618,73.05654084246119,64.77211503852877,68.28841586279466,34.768124979666524,38.28442580393242,30
1250.0,74.3253164556962,73.2768764675861,64.9750542366837,68.52510848176357,34.75176798582254,38.3018222309024,30
1280.0,74.6253164556962,73.60593885980154,65.2854816327806,68.84882071162767,34.75711814817387,38.32045722702094,30
1320.0,74.8253164556962,73.87099445993982,65.55091621405118,69.10849936504252,34.762495094897304,38.32007824588864,30
1360.0,75.02531645569621,74.07026483612333,65.77051131445816,69.31073074512679,34.75953409099654,38.29975352166517,30
1400.0,75.22531645569619,74.19636373948889,65.84879726221011,69.39985280129467,34.79651093819422,38.347566477278775,30
1450.0,75.22531645569619,74.21967973423139,65.80467835188976,69.37492653786684,34.84475319636455,38.41500138234163,30
1500.0,75.12531645569618,74.0755477528823,65.61930303352231,69.18058301804146,34.89496473484084,38.45624471935999,30
1550.0,75.02531645569621,73.86957933357832,65.38535931857332,68.94573383543828,34.92384549814004,38.48422001500499,30
1600.0,74.7253164556962,73.56021143083784,65.12206941228165,68.65803472845786,34.902176702379975,38.43814201855619,30
1650.0,74.42531645569619,73.21040706101591,64.77187209262252,68.34223808651736,34.86816897449856,38.4385349683934,30
1700.0,74.1253164556962,72.82300775800749,64.37822012491684,68.02182159055323,34.80118616745426,38.444787633090655,30
1750.0,73.8253164556962,72.45638504211449,64.01419381356192,67.74775157596162,34.708633466152875,38.44219122855257,30
1800.0,73.62531645569621,72.09906990525508,63.712294436671016,67.53795010034843,34.56111980490665,38.38677546858406,30
1850.0,73.42531645569619,71.86547580754609,63.586423918059566,67.4730509995106,34.392424808035486,38.279051889486524,30
1900.0,73.22531645569619,71.66507764984766,63.53862609759075,67.48437992693006,34.1806977229176,38.12645155225691,30
1950.0,73.22531645569619,71.65161439573437,63.670796188457345,67.67797201284517,33.973642382889196,37.980818207277025,30
2000.0,73.22531645569619,71.72354322594038,63.83411532403204,67.92259718950176,33.80094603643862,37.889427901908334,30
2060.0,73.3253164556962,71.8281151640898,64.04626273868527,68.1790369436541,33.6490782204357,37.78185242540452,30
2120.0,73.3253164556962,71.94198807666928,64.23564929985085,68.41028984184825,33.53169823482102,37.70633877681843,30
2180.0,73.42531645569619,72.10646834580055,64.45574066372225,68.66752338965202,33.43894495614853,37.6507276820783,30
2240.0,73.62531645569621,72.3521729813405,64.70513655747972,68.97918438819278,33.372988593147724,37.64703642386078,30
2300.0,73.8253164556962,72.6261307903207,64.91311324188628,69.25230031968223,33.37383047063847,37.71301754843442,30
2360.0,74.1253164556962,72.91889033119338,65.0954984778457,69.50930004846,33.409590282733376,37.82339185334769,30
2400.0,74.42531645569619,73.15602962853195,65.23561227835518,69.7254035390196,33.43062608951236,37.92041735017678,30
2500.0,74.5253164556962,73.33312922325695,65.42053505834046,69.9169075154946,33.41622170776235,37.912594164916484,30
2580.0,74.5253164556962,73.57370658971485,65.64211784922745,70.09587525042,33.47783133929485,37.9315887404874,30
2650.0,74.6253164556962,73.78252091078075,65.84751732349325,70.21790410886567,33.56461680191508,37.9350035872875,30
2720.0,74.7253164556962,73.88109119974388,66.01188858555341,70.27239140604567,33.60869979369821,37.86920261419047,30
2800.0,74.92531645569619,74.00355698251042,66.16248101584463,70.31420099099823,33.68935599151219,37.841075966665784,30
