Freq,On Axis,Listening Window,Sound Power,Early Reflections,Early Reflections DI,Sound Power DI,DI offset
22.4,42.400000000000006,41.89278325269527,41.50901658246363,41.81998089330253,30.07280235939274,30.383766670231637,30
23.0,43.0,42.45778021286898,42.09538225982834,42.39468519539466,30.063095017474325,30.36239795304064,30
23.6,43.599999999999994,43.01468180944187,42.65732355261778,42.960208904440634,30.054472905001234,30.357358256824085,30
24.0,44.099999999999994,43.44832169290359,43.07984657628356,43.38405716165096,30.064264531252633,30.368475116620033,30
25.0,44.599999999999994,43.980369586809786,43.63846899168314,43.92705253308836,30.05331705372143,30.341900595126646,30
25.8,45.19999999999999,44.545086423858066,44.21843956971381,44.50132773273464,30.04375869112343,30.326646854144258,30
26.5,45.80000000000001,45.17758595642999,44.83725758924837,45.11004079590961,30.067545160520382,30.340328367181627,30
27.2,46.599999999999994,45.983231506935965,45.648094056988526,45.923318746096214,30.05991276083975,30.33513744994744,30
28.0,47.30000000000001,46.629163740275544,46.28148681938379,46.552426822147424,30.07673691812812,30.347676920891757,30
29.0,47.900000000000006,47.2499530861312,46.91802451766259,47.18282566699938,30.067127419131822,30.331928568468612,30
30.0,48.5,47.86971428719397,47.52875832954609,47.797476414653346,30.072237872540626,30.34095595764788,30
30.7,49.0,48.44363810978149,48.056796981664576,48.33218952173016,30.11144858805133,30.386841128116913,30
31.5,49.5,48.96388789339295,48.58851979227555,48.85902474360958,30.10486314978337,30.375368101117402,30
32.5,50.19999999999999,49.61809301966909,49.23125875728064,49.49528983151754,30.12280318815155,30.386834262388447,30
33.5,50.900000000000006,50.35882833593274,49.958881848547065,50.24284178758603,30.11598654834671,30.399946487385677,30
34.5,51.599999999999994,51.18864279103528,50.7800276624923,51.040469082337324,30.148173708697954,30.408615128542976,30
35.5,52.20000000000002,51.864141663932244,51.41343383052924,51.68036763651145,30.183774027420796,30.450707833403,30
36.5,52.900000000000006,52.540063962521344,52.07771347940795,52.34041349945859,30.199650463062753,30.462350483113397,30
37.5,53.400000000000006,53.07363379252095,52.59345846126956,52.86122490062708,30.212408891893872,30.480175331251388,30
38.7,54.0,53.704389566673655,53.19658228977846,53.47977674877946,30.224612817894197,30.507807276895193,30
40.0,54.70000000000002,54.51456591793372,53.99550870614948,54.27555387542198,30.239012042511746,30.519057211784244,30
41.2,55.400000000000006,55.26846270750856,54.708465399245256,54.999853077001376,30.268609630507186,30.559997308263306,30
42.5,56.0,55.890033783526434,55.34774837655763,55.633586617047456,30.256447166478978,30.5422854069688,30
43.7,56.599999999999994,56.53435732133559,55.96911880533416,56.25814893066675,30.27620839066884,30.56523851600143,30
45.0,57.099999999999994,57.03435732133559,56.455223718174196,56.74522494219951,30.289132379136078,30.579133603161395,30
46.2,57.8,57.81225209722838,57.22087918008299,57.52781196402768,30.284440133200704,30.591372917145392,30
47.5,58.400000000000006,58.43410347591828,57.849463730977504,58.1459418981523,30.288161577765976,30.584639744940773,30
48.7,59.0,59.034103475918286,58.42487025156504,58.735695194761206,30.29840828115708,30.609233224353247,30
50.0,59.599999999999994,59.60076749445561,58.9906084643915,59.29842357440809,30.30234392004752,30.61015903006411,30
51.5,60.099999999999994,60.13410347591828,59.53784259607028,59.847841396134314,30.286262079783967,30.596260879848003,30
53.0,60.7,60.72267658830113,60.125192615758536,60.43155589958076,30.29112068872037,30.59748397254259,30
54.5,61.19999999999999,61.289771360397054,60.66341860085082,60.981827744392845,30.30794361600421,30.626352759546236,30
56.0,61.8,61.80076749445561,61.17426876688786,61.50237359075902,30.298393903696592,30.62649872756775,30
58.0,62.29999999999998,62.33358982687997,61.722776594256715,62.043641714580986,30.289948112298987,30.610813232623258,30
60.0,62.8,62.75583957685775,62.14965729654962,62.46369374758413,30.292145829273622,30.606182280308133,30
61.5,63.2,63.23358982687998,62.61700195701336,62.93879859427271,30.294791232607267,30.61658786986662,30
63.0,63.69999999999999,63.65583957685776,63.05068409419674,63.38034592163365,30.27549365522411,30.60515548266102,30
65.0,64.2,64.15583957685776,63.50250734281374,63.82866006217354,30.327179514684218,30.653332234044015,30
67.0,64.5,64.48925841531062,63.869428451099594,64.19884731219199,30.29041110311863,30.61982996421102,30
69.0,64.9,64.88925841531062,64.2510390616565,64.58642213627795,30.302836279032675,30.638219353654122,30
71.0,65.3,65.28925841531061,64.62828098111656,64.96842845634252,30.32082995896809,30.660977434194052,30
73.0,65.6,65.57797591781377,64.91205217060286,65.26497880131774,30.312997116496035,30.66592374721091,30
75.0,66.0,65.95583957685776,65.25534274206781,65.60691521226862,30.348924364589138,30.700496834789945,30
77.5,66.3,66.25583957685775,65.55790476078236,65.91296271539555,30.3428768614622,30.69793481607539,30
80.0,66.5,66.46717965375996,65.77942572252532,66.13011695389255,30.337062699867403,30.68775393123464,30
82.5,66.8,66.75583957685777,66.02545833196695,66.40512188429254,30.350717692565226,30.730381244890822,30
85.0,67.0,67.01122549985843,66.26203841688402,66.64111404787097,30.370111451987455,30.7491870829744,30
87.5,67.20000000000002,67.21122549985843,66.44446512823245,66.83394312127189,30.377282378586543,30.766760371625978,30
90.0,67.5,67.46717965375996,66.65908955052173,67.06514736808707,30.402032285672888,30.80809010323823,30
92.5,67.7,67.65609803813524,66.83806731893796,67.24088359110058,30.415214447034657,30.81803071919728,30
95.0,67.9,67.88925841531062,67.06032582561102,67.47262699918713,30.416631416123494,30.828932589699605,30
97.5,68.2,68.15583957685777,67.28048359253009,67.71917329419719,30.436666282660582,30.875355984327683,30
100.0,68.5,68.42242205920519,67.54673275175547,67.98589634874534,30.436525710459847,30.87568930744972,30
103.0,68.8,68.76717965375994,67.8740627357967,68.3160737516209,30.451105902139034,30.89311691796324,30
106.0,69.2,69.17797591781378,68.26322652604898,68.73044741130731,30.447528506506472,30.9147493917648,30
109.0,69.70000000000002,69.65583957685777,68.71327864786326,69.18385356754888,30.471986009308893,30.94256092899451,30
112.0,70.2,70.17797591781378,69.229914391106,69.71460487471617,30.46337104309761,30.948061526707775,30
115.0,70.80000000000001,70.77797591781379,69.77268518676308,70.26532864878709,30.5126472690267,31.005290731050707,30
118.0,71.4,71.37797591781379,70.3672097576347,70.87434940038429,30.503626517429495,31.010766160179088,30
122.0,72.0,71.97797591781378,70.95831022604924,71.47268612482647,30.505289792987313,31.019665691764544,30
125.0,72.7,72.63409756292211,71.58599193449862,72.10162879384282,30.532468769079287,31.048105628423485,30
128.0,73.30000000000001,73.23409756292212,72.16494235851384,72.70199297516781,30.532104587754304,31.069155204408275,30
132.0,73.9,73.78925841531061,72.71929490366082,73.23822762076088,30.55103079454973,31.06996351164979,30
136.0,74.4,74.33409756292211,73.24126815473001,73.77343457849793,30.560662984424184,31.092829408192102,30
140.0,74.9,74.7892584153106,73.65716782999802,74.21213955377999,30.577118861530607,31.132090585312582,30
145.0,75.3,75.18925841531062,74.00737142471449,74.5826179646229,30.60664045068772,31.181886990596126,30
150.0,75.6,75.51173585711585,74.30298624102679,74.882352792978,30.629383064137855,31.208749616089065,30
155.0,75.80000000000001,75.73409756292212,74.46755152626571,75.06742599115194,30.66667157177018,31.266546036656408,30
160.0,76.0,75.86768347817136,74.5799605935839,75.19898094070138,30.668702537469983,31.287722884587453,30
165.0,76.1,75.9454944791988,74.60168623498369,75.24810600697364,30.697388472225157,31.34380824421511,30
170.0,76.1,75.9902725709036,74.5824685068136,75.2585244030756,30.731748167828002,31.40780406409,30
175.0,76.1,75.9902725709036,74.52996783088692,75.24191984495793,30.748352725945665,31.46030474001668,30
180.0,76.1,76.0015232095018,74.4814258271028,75.21847655509255,30.783046654409247,31.520097382399,30
185.0,76.19999999999999,76.0454944791988,74.46822688218451,75.22708131064726,30.81841316855153,31.577267597014284,30
190.0,76.3,76.12419779300913,74.49604007218466,75.28715237376832,30.83704541924081,31.628157720824476,30
195.0,76.4,76.26819897766143,74.57744411852565,75.39469406396668,30.873504913694745,31.69075485913578,30
200.0,76.5,76.40152320950182,74.66559536690632,75.51133079229278,30.890192417209036,31.7359278425955,30
206.0,76.7,76.52419779300912,74.73785859645545,75.60934441104428,30.914853381964846,31.78633919655367,30
212.0,76.7,76.6015232095018,74.77456429031908,75.6734321924281,30.92809101707371,31.82695891918273,30
218.0,76.8,76.61300581665408,74.7258191707872,75.65743255264378,30.955573264010297,31.887186645866876,30
224.0,76.7,76.57950687011969,74.63544238959247,75.59979598178927,30.979710888330416,31.944064480527217,30
230.0,76.7,76.49203842311863,74.47170078400787,75.478306787765,31.013731635353622,32.020337639110764,30
236.0,76.6,76.3699738260637,74.28059864658782,75.31518382465336,31.05479000141034,32.08937517947588,30
240.0,76.5,76.26997382606369,74.05630843401113,75.14446836834915,31.12550545771454,32.21366539205256,30
250.0,76.4,76.1699738260637,73.8134620078903,74.97045895484844,31.199514871215257,32.3565118181734,30
258.0,76.19999999999999,76.00354610191523,73.54829157229372,74.76676200850386,31.236784093411373,32.45525452962151,30
265.0,76.1,75.90354610191523,73.2689127538884,74.57774578695151,31.325800314963715,32.634633348026824,30
272.0,76.1,75.84928032556397,73.0336367444009,74.43869120292894,31.41058912263503,32.81564358116307,30
280.0,76.0,75.78301232902811,72.81680401670165,74.30276777656195,31.48024455246616,32.96620831232646,30
290.0,76.0,75.74928032556397,72.58364139513672,74.17628890069395,31.572991424870025,33.16563893042725,30
300.0,75.9,75.6381528844336,72.30302654450819,73.9860788633472,31.652074021086392,33.33512633992541,30
307.0,75.7,75.44928032556396,71.97609289463296,73.74165773918126,31.707622586382698,33.473187430931006,30
315.0,75.4,75.22647038441902,71.63823977586345,73.46527882673222,31.7611915576868,33.58823060855556,30
325.0,75.2,75.02647038441901,71.3526916925014,73.22796524408581,31.798505140333205,33.67377869191762,30
335.0,75.0,74.88050017092459,71.14829773146553,73.06276614915622,31.817734021768374,33.73220243945906,30
345.0,74.9,74.7805001709246,71.02596492262558,72.96435256128748,31.816147609637113,33.75453524829902,30
355.0,74.79999999999998,74.68050017092459,70.94131669975755,72.88425649639491,31.796243674529677,33.73918347116704,30
365.0,74.70000000000002,74.63536100122722,70.85454845234365,72.81816676243288,31.817194238794343,33.780812548883574,30
375.0,74.6,74.5792497982632,70.78947398390879,72.78029946284893,31.798950335414276,33.789775814354414,30
387.0,74.70000000000002,74.59052899113586,70.77941678465243,72.79346657343643,31.797062417699422,33.81111220648343,30
400.0,74.79999999999998,74.67975807560595,70.83805649367969,72.88628185673542,31.793476218870524,33.84170158192626,30
412.0,74.9,74.76845083805433,70.87250616556743,72.97268221036147,31.795768627692865,33.895944672486905,30
425.0,74.9,74.746265769365,70.74811006759279,72.89179125099223,31.85447451837277,33.998155701772205,30
437.0,74.79999999999998,74.59079136849064,70.50031834306536,72.67532925736364,31.915462111127,34.09047302542528,30
450.0,74.70000000000002,74.43665939792248,70.23297084083825,72.45493214917326,31.981727248749223,34.203688557084234,30
462.0,74.6,74.34753759997562,70.05258874335038,72.29151716264177,32.056020437333856,34.29494885662524,30
475.0,74.70000000000002,74.3619584466072,69.90939627468501,72.17966510289536,32.18229334371185,34.452562171922196,30
487.0,74.70000000000002,74.3183222838551,69.72396937234912,72.01417181393573,32.304150469919364,34.59435291150598,30
500.0,74.6,74.2528180125682,69.51262804867727,71.8237351685873,32.42908284398089,34.74018996389093,30
515.0,74.6,74.16497643477618,69.31835360379108,71.64108772242919,32.52388871234699,34.8466228309851,30
530.0,74.6,74.18027275814286,69.17344808272429,71.52234115462537,32.6579316035175,35.00682467541857,30
545.0,74.70000000000002,74.29154929801425,69.10024517889593,71.50823146016108,32.78331783785316,35.191304119118314,30
560.0,74.9,74.47233597596228,69.06155276356654,71.55059773791572,32.92173823804656,35.41078321239574,30
580.0,75.1,74.64210156426068,69.01448292449155,71.60725921614195,33.03484234811873,35.62761863976914,30
600.0,75.2,74.73095569094167,68.92533449718034,71.59575153209647,33.1352041588452,35.805621193761326,30
615.0,75.3,74.7793667595287,68.79747222382669,71.5479862832472,33.2313804762815,35.98189453570201,30
630.0,75.3,74.7793667595287,68.65512655138458,71.46396868111057,33.31539807841813,36.124240208144116,30
650.0,75.2,74.63359892687609,68.39823433305227,71.2546197645587,33.37897916231739,36.23536459382382,30
670.0,74.9,74.42106654383018,68.09463851962812,70.9790163091786,33.442050234651575,36.32642802420206,30
690.0,74.79999999999998,74.33144033951416,67.92416901798694,70.83071202696055,33.500728312553605,36.40727132152722,30
710.0,74.70000000000002,74.22148351628792,67.76723934440159,70.68971510008798,33.53176841619994,36.45424417188633,30
730.0,74.4,74.00470125807513,67.48807968366245,70.41096344554703,33.593737812528104,36.51662157441268,30
750.0,74.2,73.80723256648999,67.21399403779137,70.14035747308469,33.666875093405295,36.59323852869862,30
775.0,74.0,73.60027079732114,66.88889779232765,69.81685574363885,33.78341505368229,36.71137300499349,30
800.0,73.8,73.35897570369264,66.50007540622205,69.4456138087299,33.91336189496273,36.85890029747058,30
825.0,73.8,73.28437047299286,66.28837426796241,69.25700885253026,34.0273616204626,36.99599620503045,30
850.0,73.8,73.25253679489239,66.13948311426644,69.13688022073485,34.11565657415754,37.11305368062595,30
875.0,73.6,73.07682126388372,65.8587836074865,68.8871795615435,34.18964170234021,37.218037656397215,30
900.0,73.5,72.89035782929354,65.51923541891102,68.58541946554921,34.30493836374433,37.37112241038251,30
925.0,73.4,72.71557028705732,65.2079129254148,68.30577356911881,34.409796717938505,37.507657361642515,30
950.0,73.2,72.5155702870573,64.88307828656032,67.98147968743561,34.53409059962169,37.63249200049698,30
975.0,73.2,72.36502514357534,64.58420167549735,67.7120088161512,34.65301632742414,37.78082346807798,30
1000.0,73.1,72.2612644847418,64.39715457123202,67.54497992647775,34.71628455826405,37.86410991350978,30
1030.0,73.1,72.15645744517275,64.20460775794857,67.39704325157626,34.759414193596484,37.95184968722418,30
1060.0,73.0,72.0446116724418,64.02446723301875,67.25033676249788,34.79427490994392,38.02014443942305,30
1090.0,73.0,72.01110982892605,63.89843142263727,67.18303638923223,34.828073439693824,38.11267840628878,30
1120.0,73.0,71.99087954832781,63.80037464470368,67.15021988282876,34.84065966549905,38.19050490362413,30
1150.0,73.0,72.04736911276127,63.82045374457445,67.22067527505463,34.82669383770664,38.22691536818682,30
1180.0,73.2,72.20128895768599,63.940423707166374,67.4177258381089,34.783563119577096,38.260865250519615,30
1220.0,73.4,72.431224386765,64.14679858283256,67.66309940709849,34.76812497966651,38.284425803932436,30
1250.0,73.69999999999999,72.65156001188991,64.34973778098751,67.89979202606736,34.75176798582255,38.3018222309024,30
1280.0,74.0,72.98062240410535,64.6601651770844,68.22350425593147,34.75711814817387,38.32045722702095,30
1320.0,74.2,73.24567800424364,64.92559975835499,68.48318290934633,34.76249509489732,38.32007824588865,30
1360.0,74.4,73.44494838042714,65.14519485876197,68.6854142894306,34.75953409099654,38.29975352166517,30
1400.0,74.6,73.5710472837927,65.22348080651392,68.77453634559848,34.79651093819422,38.347566477278775,30
1450.0,74.6,73.5943632785352,65.17936189619356,68.74961008217065,34.84475319636455,38.41500138234164,30
1500.0,74.5,73.45023129718611,64.9939865778261,68.55526656234528,34.894964734840826,38.45624471936,30
1550.0,74.4,73.24426287788212,64.76004286287713,68.32041737974207,34.923845498140054,38.48422001500499,30
1600.0,74.1,72.93489497514165,64.49675295658545,68.03271827276166,34.90217670237999,38.43814201855619,30
1650.0,73.8,72.58509060531972,64.14655563692632,67.71692163082115,34.86816897449857,38.4385349683934,30
1700.0,73.5,72.19769130231128,63.75290366922064,67.39650513485704,34.80118616745425,38.44478763309064,30
1750.0,73.2,71.83106858641828,63.38887735786574,67.12243512026544,34.70863346615285,38.442191228552545,30
1800.0,73.0,71.47375344955888,63.08697798097482,66.91263364465223,34.56111980490665,38.38677546858406,30
1850.0,72.8,71.2401593518499,62.96110746236336,66.84773454381441,34.392424808035486,38.27905188948654,30
1900.0,72.6,71.03976119415148,62.91330964189456,66.85906347123387,34.180697722917614,38.126451552256924,30
1950.0,72.6,71.02629794003816,63.04547973276115,67.052655557149,33.97364238288917,37.98081820727701,30
2000.0,72.6,71.09822677024418,63.20879886833585,67.29728073380556,33.80094603643862,37.889427901908334,30
2060.0,72.7,71.2027987083936,63.42094628298908,67.55372048795789,33.64907822043571,37.78185242540452,30
2120.0,72.7,71.31667162097308,63.61033284415467,67.78497338615205,33.531698234821036,37.70633877681841,30
2180.0,72.8,71.48115189010434,63.83042420802607,68.04220693395582,33.43894495614852,37.65072768207827,30
2240.0,73.0,71.72685652564431,64.07982010178353,68.35386793249658,33.372988593147724,37.64703642386078,30
2300.0,73.2,72.00081433462451,64.28779678619009,68.62698386398604,33.37383047063847,37.71301754843442,30
2360.0,73.5,72.29357387549717,64.47018202214952,68.88398359276383,33.40959028273335,37.82339185334766,30
2400.0,73.8,72.53071317283576,64.61029582265897,69.1000870833234,33.43062608951236,37.92041735017679,30
2500.0,73.9,72.70781276756075,64.79521860264427,69.2915910597984,33.41622170776235,37.912594164916484,30
2580.0,73.9,72.94839013401867,65.01680139353125,69.4705587947238,33.477831339294866,37.93158874048741,30
2650.0,74.0,73.15720445508455,65.22220086779704,69.59258765316949,33.564616801915065,37.93500358728751,30
2720.0,74.1,73.25577474404767,65.3865721298572,69.64707495034948,33.60869979369819,37.86920261419047,30
2800.0,74.3,73.37824052681421,65.53716456014844,69.68888453530204,33.68935599151217,37.84107596666577,30
2900.0,74.5,73.4622498137493,65.63213577453624,69.66848712038511,33.79376269336419,37.83011403921306,30
3000.0,74.6,73.60099608006355,65.810851070075,69.71124791692955,33.889748163134,37.79014500998855,30
3070.0,74.79999999999998,73.71512018968983,65.93185502519468,69.70954625462785,34.005573935061975,37.78326516449515,30
3150.0,75.0,73.77756268836634,65.98753420812093,69.66517285030277,34.11238983806358,37.79002848024541,30
3250.0,75.3,73.8569064173738,66.10057435675742,69.7451226420118,34.111783775362014,37.75633206061639,30
3350.0,75.4,73.90209862086577,66.26064471192359,69.87932821083807,34.022770410027704,37.64145390894218,30
3450.0,75.4,74.02275157744113,66.4929662251182,70.1550317860302,33.867719791410934,37.52978535232293,30
3550.0,75.5,74.25947552735371,66.77309988636821,70.51733993027092,33.74213559708279,37.4863756409855,30
3650.0,75.6,74.51515574536121,66.99946408619971,70.83817168417305,33.676984061188165,37.515691659161504,30
3750.0,75.5,74.62347452537887,67.07003011539356,70.97351817335313,33.64995635202574,37.5534444099853,30
3870.0,75.4,74.63246136792652,67.08590484105358,71.04229397422087,33.590167393705656,37.54655652687295,30
4000.0,75.2,74.61287423634325,67.06555357655381,71.07452379726561,33.53835043907763,37.547320659789435,30
4120.0,74.9,74.5184814410469,66.99608543326892,71.0397761926164,33.4787052484305,37.522396007777985,30
4250.0,74.5,74.48512086838423,67.01233935219021,71.06166570115225,33.42345516723198,37.47278151619402,30
4370.0,74.2,74.41395336538679,67.0800686021912,71.11520061591064,33.29875274947615,37.333884763195584,30
