Freq "Listening Window"
22.4 42.518099708391446
23.0 43.08309666856519
23.6 43.639998265138075
24.0 44.07363814859977
25.0 44.605686042505965
25.8 45.170402879554246
26.5 45.8029024121262
27.2 46.60854796263217
28.0 47.25448019597172
29.0 47.87526954182738
30.0 48.49503074289015
30.7 49.068954565477696
31.5 49.58920434908916
32.5 50.2434094753653
33.5 50.98414479162898
34.5 51.81395924673146
35.5 52.48945811962845
36.5 53.165380418217524
37.5 53.698950248217145
38.7 54.32970602236985
40.0 55.139882373629916
41.2 55.89377916320477
42.5 56.51535023922263
43.7 57.159673777031784
45.0 57.6596737770318
46.2 58.437568552924546
47.5 59.05941993161447
48.7 59.65941993161448
50.0 60.22608395015182
51.5 60.75941993161449
53.0 61.34799304399732
54.5 61.915087816093234
56.0 62.426083950151806
58.0 62.958906282576166
60.0 63.381156032553946
61.5 63.85890628257617
63.0 64.28115603255397
65.0 64.78115603255395
67.0 65.1145748710068
69.0 65.51457487100681
71.0 65.9145748710068
73.0 66.20329237350995
75.0 66.58115603255395
77.5 66.88115603255395
80.0 67.09249610945614
82.5 67.38115603255395
85.0 67.6365419555546
87.5 67.83654195555462
90.0 68.09249610945614
92.5 68.28141449383143
95.0 68.51457487100681
97.5 68.78115603255395
100.0 69.04773851490138
103.0 69.39249610945615
106.0 69.80329237350998
109.0 70.28115603255395
112.0 70.80329237350998
115.0 71.40329237350997
118.0 72.00329237350998
122.0 72.60329237350996
125.0 73.2594140186183
128.0 73.85941401861831
132.0 74.41457487100682
136.0 74.95941401861832
140.0 75.4145748710068
145.0 75.81457487100681
150.0 76.13705231281206
155.0 76.35941401861831
160.0 76.49299993386755
165.0 76.570810934895
170.0 76.61558902659979
175.0 76.61558902659979
180.0 76.62683966519799
185.0 76.67081093489499
190.0 76.74951424870534
195.0 76.8935154333576
200.0 77.026839665198
206.0 77.14951424870533
212.0 77.226839665198
218.0 77.23832227235029
224.0 77.20482332581588
230.0 77.11735487881482
236.0 76.9952902817599
240.0 76.8952902817599
250.0 76.79529028175989
258.0 76.62886255761143
265.0 76.5288625576114
272.0 76.47459678126016
280.0 76.4083287847243
290.0 76.37459678126015
300.0 76.26346934012979
307.0 76.07459678126014
315.0 75.85178684011521
325.0 75.65178684011521
335.0 75.50581662662077
345.0 75.40581662662078
355.0 75.30581662662078
365.0 75.26067745692342
375.0 75.2045662539594
387.0 75.21584544683205
400.0 75.30507453130215
412.0 75.39376729375053
425.0 75.37158222506119
437.0 75.21610782418684
450.0 75.06197585361868
462.0 74.97285405567182
475.0 74.9872749023034
487.0 74.94363873955129
500.0 74.87813446826439
515.0 74.79029289047239
530.0 74.80558921383906
545.0 74.91686575371043
560.0 75.09765243165847
580.0 75.26741801995688
600.0 75.35627214663785
615.0 75.40468321522489
630.0 75.40468321522489
650.0 75.2589153825723
670.0 75.04638299952639
690.0 74.95675679521035
710.0 74.84679997198411
730.0 74.63001771377131
750.0 74.4325490221862
775.0 74.22558725301734
800.0 73.98429215938884
825.0 73.90968692868904
850.0 73.87785325058857
875.0 73.70213771957991
900.0 73.51567428498973
925.0 73.34088674275348
950.0 73.14088674275351
975.0 72.99034159927153
1000.0 72.886580940438
1030.0 72.78177390086894
1060.0 72.669928128138
1090.0 72.63642628462225
1120.0 72.616196004024
1150.0 72.67268556845747
1180.0 72.8266054133822
1220.0 73.05654084246119
1250.0 73.2768764675861
1280.0 73.60593885980154
1320.0 73.87099445993982
1360.0 74.07026483612333
1400.0 74.19636373948889
1450.0 74.21967973423139
1500.0 74.0755477528823
1550.0 73.86957933357832
1600.0 73.56021143083784
1650.0 73.21040706101591
1700.0 72.82300775800749
1750.0 72.45638504211449
1800.0 72.09906990525508
1850.0 71.86547580754609
1900.0 71.66507764984766
1950.0 71.65161439573437
2000.0 71.72354322594038
2060.0 71.8281151640898
2120.0 71.94198807666928
2180.0 72.10646834580055
2240.0 72.3521729813405
2300.0 72.6261307903207
2360.0 72.91889033119338
2400.0 73.15602962853195
2500.0 73.33312922325695
2580.0 73.57370658971485
2650.0 73.78252091078075
2720.0 73.88109119974388
2800.0 74.00355698251042
2900.0 74.08756626944549
3000.0 74.22631253575975
3070.0 74.340436645386
3150.0 74.40287914406254
3250.0 74.48222287306999
3350.0 74.52741507656197
3450.0 74.64806803313733
3550.0 74.88479198304991
3650.0 75.1404722010574
3750.0 75.24879098107505
3870.0 75.25777782362272
4000.0 75.23819069203945
4120.0 75.14379789674308
4250.0 75.11043732408041
4370.0 75.039269821083
4500.0 75.12757755416817
4620.0 75.32003556783287
4750.0 75.76486191366689
4870.0 76.2156763012693
5000.0 76.36996420429685
5150.0 76.4082190267954
5300.0 76.37527405268247
5450.0 76.23116208441373
5600.0 75.84546265184065
5800.0 75.26379502843575
6000.0 74.42947233131173
6150.0 73.38561831444824
6300.0 72.54854088078764
6500.0 71.89987041343926
6700.0 71.27600724680144
6900.0 70.61657666255888
7100.0 69.93771454952146
7300.0 69.52252759760484
7500.0 69.28112258882484
7750.0 69.38008868165471
8000.0 69.48109107753095
8250.0 69.77961172830331
8500.0 70.57200876547313
8750.0 71.38559814942036
9000.0 72.16236464777928
9250.0 72.71883102398988
9500.0 73.19894896914697
9750.0 73.41740704731059
10000.0 73.61231563121046
10300.0 73.50915128338654
10600.0 73.14699385252243
10900.0 73.07913372106671
11200.0 72.99078575618341
11500.0 72.50865343726016
11800.0 71.71693315763758
12200.0 71.10815389679479
12500.0 71.55396365223001
12800.0 72.82305885316453
13200.0 73.79702497778132
13600.0 74.01975885594516
14000.0 73.71502466544445
14500.0 73.66799755802226
15000.0 73.65714653662951
15500.0 73.45268494031063
16000.0 72.75136372470612
16500.0 71.03612343689689
17000.0 69.31264806703734
17500.0 68.07170206678691
18000.0 67.75456262381678
18500.0 67.83963938793121
19000.0 67.57003395279743
19500.0 67.71573619989306
