Freq "Floor Bounce"
20.507812 36.96402339381815
21.240234 38.576540276127346
22.705078 40.099531636271124
23.4375 40.98864248010058
24.169922 41.71859287464524
25.634766 42.7292364729541
26.367188 43.10630456107579
27.099609 43.526125889688544
28.564453 44.9788635176843
29.296875 46.133635406979195
30.761719 48.98409879791272
32.226562 51.81601825114531
32.958984 53.05704774582098
34.423828 55.10295213611106
35.888672 56.59886634997365
37.353516 57.6505564721072
38.818359 58.40877504466884
40.283203 59.0658491733888
41.748047 59.8487453588683
43.212891 60.96478907714847
45.410156 63.37915127219132
46.875 65.27866413512567
48.339844 67.17600583209854
50.537109 69.74902761717134
52.734375 71.88355859412668
54.199219 73.07018472712322
56.396484 74.52329618754469
58.59375 75.61048346735346
60.791016 76.40069998125384
62.988281 77.14797316498766
65.185547 77.69983036691838
68.115234 78.64210798912724
70.3125 79.30614816392732
73.242188 80.03756223490579
75.439453 80.48698422579004
78.369141 81.01245394452509
81.298828 81.49078607936654
84.228516 81.94262149938852
87.158203 82.39166396371586
90.820312 82.93966510001525
93.75 83.34681761953112
97.412109 83.8276312740788
101.074219 84.22239901235484
104.736328 84.55779853904608
108.398438 84.88815960876634
112.792969 85.28812003552416
116.455078 85.62976091153004
120.849609 86.05248316966428
125.244141 86.47511364939533
129.638672 86.80422754503768
134.765625 87.08438900857213
139.160156 87.31787630187902
144.287109 87.48749595606485
149.414062 87.58129567726466
155.273438 87.56169534794984
160.400391 87.30713063281719
166.259766 86.70487887124266
172.119141 87.16548294530737
178.710938 87.628681231666
185.302734 87.5851238326858
191.894531 87.53951760743762
198.486328 87.51929613131746
205.810547 87.51258789027574
213.134766 87.47872601743923
220.458984 87.30484944732274
228.515625 87.20365880726388
236.572266 87.25590881149981
245.361328 87.22565210436429
254.150391 87.074984144975
262.939453 86.7961864493999
272.460938 86.52860495917736
281.982422 86.33372530804202
292.236328 86.14828410560754
302.490234 85.89740687543276
313.476562 85.6688888746398
324.462891 85.52358522893101
336.181641 85.13782043259694
348.632812 84.7050983085009
361.083984 84.2029391221448
373.535156 83.79387467672801
386.71875 83.2549528533436
400.634766 82.7789725080025
415.283203 82.43286847065971
429.931641 81.852209957577
445.3125 80.75341499805175
460.693359 79.92344792176843
477.539062 78.72899344375769
494.384766 78.0505366832554
511.962891 77.41347499886699
529.541016 76.69063188198443
548.583984 75.89275814090776
568.359375 75.59134888035345
588.134766 75.54981699894579
609.375 76.00469862564007
630.615234 76.33309641191742
653.320312 77.51017872681022
676.025391 79.85101100589104
700.195312 81.52288835217674
725.097656 81.7186139697516
750.732422 81.84024581440781
777.832031 82.10221577506543
804.931641 82.48715508217245
833.496094 82.52635476784894
862.792969 83.10751374543284
893.554688 82.97618042629655
925.048828 83.106283720684
958.007812 83.29781044721669
991.699219 83.17316756650723
1026.855469 83.2508054677602
1063.476562 82.43605992240425
1100.830078 81.76352986829626
1140.380859 80.80036378581333
1180.664062 80.73859670807079
1222.412109 80.52008525905347
1265.625 81.43273857740094
1310.302734 80.93527294314667
1356.445312 80.88265515546749
1404.785156 80.96216591035335
1453.857422 81.33886917352818
1505.859375 82.3193931838248
1558.59375 82.76255991113891
1613.525391 83.44487127152667
1670.654297 84.42406600569417
1729.980469 85.40928806505171
1790.771484 85.60654677401244
1854.492188 85.586410505048
1919.677734 86.1289632304471
1987.792969 86.0961580358527
2058.105469 85.47079935845845
2130.615234 85.15956931626455
2206.054688 85.21132765459173
2283.691406 85.30448960415232
2364.257812 85.29669289272245
2447.753906 85.29543553360483
2534.179688 85.3602108201496
2624.267578 84.9982273977263
2716.552734 84.39281724618228
2812.5 83.79379012444251
2912.109375 83.90143274205577
3014.648438 83.7823243700999
3120.849609 83.60769865876804
3231.445312 83.68328542656171
3345.703125 83.63057809350262
3463.623047 82.99421531913538
3585.9375 82.77255155390536
3712.646484 83.33559682458237
3843.75 84.02559569906943
3979.248047 84.08213794091196
4119.873047 83.36960065752221
4264.892578 82.7169808714856
4415.771484 82.14750550852445
4571.044922 82.21208581607604
4732.910156 81.5251973829764
4899.902344 80.44796327733542
5072.753906 80.43024719051579
5251.464844 81.467687642957
5436.767578 82.39172779082365
5628.662109 82.48822455080742
5827.148438 81.67173769997424
6032.958984 82.15355995998893
6246.09375 82.06415781670582
6466.552734 81.4122562477988
6694.335938 81.82950935740938
6930.908203 83.11021608807302
7175.537109 82.75699333488568
7428.222656 83.11507486461734
7690.429688 83.30112747807557
7962.158203 82.94389563460949
8242.675781 83.1762312126617
8533.447266 82.97318063908745
8834.472656 82.24438658729119
9146.484375 81.93171336428063
9468.75 81.83171048663279
9802.734375 82.03745866569645
10149.169922 81.72963688583728
10506.591797 81.5962326953351
10877.929688 82.46559492123052
11260.986328 82.92717289025794
11658.691406 83.47504063261424
12069.580078 83.14421955932887
12495.849609 82.54213101201468
12936.767578 80.56402683025676
13393.066406 78.51484202746515
13865.478516 76.98367092510317
14354.003906 75.4282430587227
14860.839844 76.34191146694845
15384.521484 75.98275421408478
15927.246094 75.47895819553901
16489.013672 76.06198649844278
17070.556641 77.03515645732003
17673.339844 75.83998305609836
18296.630859 74.39635456131896
18941.894531 72.36252670404657
19609.863281 70.25719815638753
