Freq "Floor Bounce"
20.507812 36.442259515030244
21.240234 38.05477639733944
22.705078 39.577767757483215
23.4375 40.46687860131267
24.169922 41.19682899585733
25.634766 42.20747259416619
26.367188 42.58454068228788
27.099609 43.004362010900635
28.564453 44.457099638896395
29.296875 45.61187152819129
30.761719 48.462334919124814
32.226562 51.2942543723574
32.958984 52.53528386703307
34.423828 54.58118825732315
35.888672 56.07710247118574
37.353516 57.12879259331929
38.818359 57.887011165880935
40.283203 58.54408529460089
41.748047 59.32698148008039
43.212891 60.44302519836056
45.410156 62.857387393403414
46.875 64.75690025633776
48.339844 66.65424195331063
50.537109 69.22726373838343
52.734375 71.36179471533877
54.199219 72.54842084833531
56.396484 74.00153230875678
58.59375 75.08871958856555
60.791016 75.87893610246593
62.988281 76.62620928619975
65.185547 77.17806648813047
68.115234 78.12034411033933
70.3125 78.78438428513941
73.242188 79.51579835611788
75.439453 79.96522034700213
78.369141 80.49069006573718
81.298828 80.96902220057864
84.228516 81.42085762060061
87.158203 81.86990008492795
90.820312 82.41790122122734
93.75 82.82505374074321
97.412109 83.30586739529089
101.074219 83.70063513356693
104.736328 84.03603466025817
108.398438 84.36639572997844
112.792969 84.76635615673625
116.455078 85.10799703274213
120.849609 85.53071929087638
125.244141 85.95334977060742
129.638672 86.28246366624977
134.765625 86.56262512978422
139.160156 86.79611242309112
144.287109 86.96573207727694
149.414062 87.05953179847675
155.273438 87.03993146916193
160.400391 86.78536675402928
166.259766 86.18311499245475
172.119141 86.64371906651947
178.710938 87.10691735287809
185.302734 87.06335995389789
191.894531 87.01775372864971
198.486328 86.99753225252955
205.810547 86.99082401148783
213.134766 86.95696213865132
220.458984 86.78308556853483
228.515625 86.68189492847597
236.572266 86.7341449327119
245.361328 86.70388822557638
254.150391 86.5532202661871
262.939453 86.27442257061199
272.460938 86.00684108038945
281.982422 85.81196142925411
292.236328 85.62652022681964
302.490234 85.37564299664486
313.476562 85.1471249958519
324.462891 85.0018213501431
336.181641 84.61605655380903
348.632812 84.18333442971299
361.083984 83.68117524335689
373.535156 83.2721107979401
386.71875 82.73318897455569
400.634766 82.25720862921459
415.283203 81.9111045918718
429.931641 81.3304460787891
445.3125 80.23165111926384
460.693359 79.40168404298052
477.539062 78.20722956496978
494.384766 77.5287728044675
511.962891 76.89171112007908
529.541016 76.16886800319652
548.583984 75.37099426211985
568.359375 75.06958500156554
588.134766 75.02805312015788
609.375 75.48293474685217
630.615234 75.81133253312952
653.320312 76.98841484802232
676.025391 79.32924712710313
700.195312 81.00112447338883
725.097656 81.1968500909637
750.732422 81.3184819356199
777.832031 81.58045189627752
804.931641 81.96539120338454
833.496094 82.00459088906103
862.792969 82.58574986664493
893.554688 82.45441654750864
925.048828 82.5845198418961
958.007812 82.77604656842878
991.699219 82.65140368771932
1026.855469 82.7290415889723
1063.476562 81.91429604361635
1100.830078 81.24176598950835
1140.380859 80.27859990702542
1180.664062 80.21683282928288
1222.412109 79.99832138026557
1265.625 80.91097469861303
1310.302734 80.41350906435876
1356.445312 80.36089127667958
1404.785156 80.44040203156544
1453.857422 80.81710529474027
1505.859375 81.79762930503689
1558.59375 82.240796032351
1613.525391 82.92310739273876
1670.654297 83.90230212690626
1729.980469 84.8875241862638
1790.771484 85.08478289522454
1854.492188 85.06464662626009
1919.677734 85.60719935165919
1987.792969 85.57439415706479
2058.105469 84.94903547967054
2130.615234 84.63780543747664
2206.054688 84.68956377580382
2283.691406 84.78272572536441
2364.257812 84.77492901393454
2447.753906 84.77367165481692
2534.179688 84.8384469413617
2624.267578 84.47646351893839
2716.552734 83.87105336739437
2812.5 83.2720262456546
2912.109375 83.37966886326787
3014.648438 83.26056049131199
3120.849609 83.08593477998014
3231.445312 83.1615215477738
3345.703125 83.10881421471471
3463.623047 82.47245144034747
3585.9375 82.25078767511745
3712.646484 82.81383294579446
3843.75 83.50383182028152
3979.248047 83.56037406212405
4119.873047 82.8478367787343
4264.892578 82.1952169926977
4415.771484 81.62574162973654
4571.044922 81.69032193728813
4732.910156 81.0034335041885
4899.902344 79.92619939854751
5072.753906 79.90848331172788
5251.464844 80.9459237641691
5436.767578 81.86996391203574
5628.662109 81.96646067201951
5827.148438 81.14997382118634
6032.958984 81.63179608120102
6246.09375 81.54239393791791
6466.552734 80.89049236901089
6694.335938 81.30774547862147
6930.908203 82.58845220928511
7175.537109 82.23522945609777
7428.222656 82.59331098582943
7690.429688 82.77936359928766
7962.158203 82.42213175582158
8242.675781 82.6544673338738
8533.447266 82.45141676029954
8834.472656 81.72262270850328
9146.484375 81.40994948549272
9468.75 81.30994660784488
9802.734375 81.51569478690854
10149.169922 81.20787300704937
10506.591797 81.0744688165472
10877.929688 81.94383104244261
11260.986328 82.40540901147003
11658.691406 82.95327675382633
12069.580078 82.62245568054097
12495.849609 82.02036713322677
12936.767578 80.04226295146886
13393.066406 77.99307814867724
13865.478516 76.46190704631526
14354.003906 74.90647917993479
14860.839844 75.82014758816054
15384.521484 75.46099033529687
15927.246094 74.9571943167511
16489.013672 75.54022261965487
17070.556641 76.51339257853212
17673.339844 75.31821917731045
18296.630859 73.87459068253105
18941.894531 71.84076282525866
19609.863281 69.73543427759962
