Freq "Rear Wall Bounce"
20.507812 30.411737953490203
21.240234 30.523240749454814
22.705078 30.568211146744332
23.4375 30.682659059842976
24.169922 30.886139339741575
25.634766 31.5804153750871
26.367188 32.200287442350046
27.099609 33.05859641904685
28.564453 35.550402546212226
29.296875 37.11287890356327
30.761719 40.425839656287465
32.226562 43.459216676640764
32.958984 44.76641540210001
34.423828 46.90129213013152
35.888672 48.39779559069102
37.353516 49.296701801935356
38.818359 49.68464167622746
40.283203 49.77185484918731
41.748047 50.04838433769994
43.212891 51.20371713860821
45.410156 54.80852754670376
46.875 57.60527930312877
48.339844 60.1981025854446
50.537109 63.467866467323674
52.734375 66.02295751492228
54.199219 67.39373575315986
56.396484 69.04029524632446
58.59375 70.25990090881233
60.791016 71.10896585555679
62.988281 71.79408343187141
65.185547 72.26184961732379
68.115234 73.1262899206021
70.3125 73.76711754781887
73.242188 74.42617228086185
75.439453 74.8206923428146
78.369141 75.31905883753988
81.298828 75.73753600237579
84.228516 76.10140397029468
87.158203 76.51077603450459
90.820312 77.00545791235997
93.75 77.37292102471038
97.412109 77.82008678469222
101.074219 78.17411546337539
104.736328 78.45486754998794
108.398438 78.66682744918607
112.792969 78.83446110782302
116.455078 78.8795547228394
120.849609 78.89190228182999
125.244141 78.84551373646224
129.638672 78.80632395334452
134.765625 78.92630440365242
139.160156 79.23546027649122
144.287109 79.75133232791603
149.414062 80.3309245637122
155.273438 80.95878973620454
160.400391 81.60673714209437
166.259766 82.51688363431012
172.119141 82.1859896326572
178.710938 81.23843290770192
185.302734 80.86394155878912
191.894531 80.48317214366598
198.486328 80.06475321494995
205.810547 79.56023101510445
213.134766 79.24195936440987
220.458984 78.86275300278747
228.515625 78.64973746888978
236.572266 78.79905161452717
245.361328 79.05425093456326
254.150391 78.9272568920221
262.939453 78.36955799316596
272.460938 77.78978487428587
281.982422 77.52876392672141
292.236328 77.53226708084195
302.490234 77.49257453254508
313.476562 77.43373021162897
324.462891 77.35946428624217
336.181641 77.03429732591921
348.632812 76.79651081055312
361.083984 76.73654137244907
373.535156 76.5633424334083
386.71875 76.39370199247357
400.634766 76.16044372858683
415.283203 75.79111595680867
429.931641 75.12958362667278
445.3125 74.40771498840051
460.693359 74.22500458880668
477.539062 73.73434860394916
494.384766 73.17950934406359
511.962891 72.46303269596514
529.541016 71.76743136082153
548.583984 71.4645162951171
568.359375 70.65004176376117
588.134766 70.00220376348402
609.375 70.13871871419677
630.615234 70.83324629094771
653.320312 70.88520513877636
676.025391 71.44908342351467
700.195312 72.27458529345817
725.097656 71.67524928168713
750.732422 71.44262682297897
777.832031 71.21799250944018
804.931641 70.87113914521153
833.496094 71.73317670742901
862.792969 71.76535376704639
893.554688 72.35190345439985
925.048828 72.79199792906574
958.007812 72.85491255970778
991.699219 72.86152710776392
1026.855469 72.43596159039612
1063.476562 72.48249417738134
1100.830078 72.61006617929004
1140.380859 73.06720368189137
1180.664062 73.14288283505273
1222.412109 72.85643107679415
1265.625 72.0260609036464
1310.302734 71.47414326720279
1356.445312 71.85160483550827
1404.785156 71.59132167992938
1453.857422 71.6857492286199
1505.859375 71.35364667642
1558.59375 71.72925780444655
1613.525391 72.04642287800777
1670.654297 72.48935550257754
1729.980469 72.86427630794874
1790.771484 73.28407818455186
1854.492188 73.28221489563909
1919.677734 72.99849048925789
1987.792969 72.12575218359794
2058.105469 71.47510994792361
2130.615234 70.75922922005907
2206.054688 69.88935210586084
2283.691406 69.15116746606186
2364.257812 69.0962844760103
2447.753906 68.67431476670993
2534.179688 68.64217152820724
2624.267578 68.56258035852719
2716.552734 68.36140795265635
2812.5 68.45105903023044
2912.109375 67.85620437393571
3014.648438 67.55843265730431
3120.849609 66.06006844079879
3231.445312 65.47260657615864
3345.703125 64.0206826068861
3463.623047 63.282337517420615
3585.9375 62.22575390524956
3712.646484 61.83895406038387
3843.75 63.12994493948926
3979.248047 64.01224739921773
4119.873047 64.64629461719336
4264.892578 64.3636555016631
4415.771484 63.95456207980119
4571.044922 63.00777682574689
4732.910156 61.38377397054491
4899.902344 60.63898093700995
5072.753906 59.99157261277965
5251.464844 60.627917389389594
5436.767578 61.3817281522348
5628.662109 60.72193256696225
5827.148438 59.77155791376079
6032.958984 60.381969079972336
6246.09375 60.31738474774728
6466.552734 57.486914246060664
6694.335938 58.25244934280606
6930.908203 58.97920563174044
7175.537109 56.718895809247826
7428.222656 56.05968029041601
7690.429688 54.60780436788279
7962.158203 55.19059986040698
8242.675781 56.02049833880703
8533.447266 57.303672056207446
8834.472656 57.54064806452335
9146.484375 58.73079131346579
9468.75 60.60583770580068
9802.734375 60.03330414239714
10149.169922 59.2744869957841
10506.591797 58.61583367941178
10877.929688 58.061523526226196
11260.986328 57.90581358623477
11658.691406 56.27759000797009
12069.580078 55.23353989487542
12495.849609 56.160181699783564
12936.767578 54.07453716886117
13393.066406 52.80549399591557
13865.478516 49.298617899069214
14354.003906 39.38431221140239
14860.839844 37.05200704026642
15384.521484 37.2358810098812
15927.246094 42.61056538836955
16489.013672 46.61742786741489
17070.556641 46.80797967905862
17673.339844 45.02137172108546
18296.630859 45.518194011827646
18941.894531 45.302152308247386
19609.863281 48.86533176523345
