Freq "Listening Window"
22.4 93.04042520512124
23.0 93.21974171769017
23.6 93.41974171769016
24.0 93.57609754235355
25.0 93.73135747256723
25.8 93.86274716976301
26.5 94.01974171769015
27.2 94.11974171769016
28.0 94.21974171769016
29.0 94.35198584431099
30.0 94.41974171769016
30.7 94.51974171769015
31.5 94.61974171769015
32.5 94.68679936064285
33.5 94.75198584431098
34.5 94.81974171769015
35.5 94.86274716976301
36.5 94.91974171769016
37.5 94.95198584431098
38.7 94.97609754235356
40.0 95.01974171769015
41.2 94.97609754235356
42.5 94.97609754235356
43.7 94.93135747256723
45.0 94.91974171769016
46.2 94.93135747256723
47.5 94.97609754235356
48.7 95.04042520512124
50.0 95.15198584431097
51.5 95.31974171769015
53.0 95.49587177909265
54.5 95.75041431323578
56.0 96.00677287551098
58.0 96.27241774677333
60.0 96.51562702670427
61.5 96.81562702670426
63.0 97.03780696592429
65.0 97.23780696592428
67.0 97.41510903714911
69.0 97.59281257458092
71.0 97.7151090371491
73.0 97.8151090371491
75.0 97.91510903714911
77.5 97.98135430524292
80.0 98.03780696592429
82.5 98.08135430524293
85.0 98.08135430524293
87.5 98.08135430524293
90.0 98.04760422864295
92.5 97.98135430524292
95.0 97.90270583906477
97.5 97.80270583906477
100.0 97.70270583906478
103.0 97.54760422864294
106.0 97.3588834215156
109.0 97.15888342151561
112.0 96.95888342151561
115.0 96.69128553286038
118.0 96.42547439637511
122.0 96.10271175171533
125.0 95.79128553286039
128.0 95.46912192483536
132.0 95.09103101868087
136.0 94.73527628154024
140.0 94.40219813270075
145.0 94.10219813270075
150.0 93.81333660609178
155.0 93.55786932580656
160.0 93.42471091441162
165.0 93.30373880755074
170.0 93.27267335407477
175.0 93.27893627446826
180.0 93.29460585823296
185.0 93.31680823106237
190.0 93.3021429682426
195.0 93.30408118085671
200.0 93.21275844295963
206.0 93.0753363276822
212.0 92.86356956213201
218.0 92.65063081133422
224.0 92.43906655976393
230.0 92.28996140497087
236.0 92.18996140497087
240.0 92.19574154290278
250.0 92.37223067168799
258.0 92.6342440513302
265.0 93.07646901069833
272.0 93.52858763916798
280.0 94.09784451691768
290.0 94.65019952759879
300.0 95.16096527476897
307.0 95.63722082297856
315.0 95.96592213706386
325.0 96.22449996708195
335.0 96.32449996708195
345.0 96.32904615590613
355.0 96.22904615590613
365.0 96.02904615590614
375.0 95.75328519460815
387.0 95.4656348937299
400.0 95.08918140213645
412.0 94.69995701042969
425.0 94.29574154290279
437.0 93.92462618782407
450.0 93.60081166592184
462.0 93.37205286695644
475.0 93.2212470518171
487.0 93.24689523833263
500.0 93.3983058934077
515.0 93.71299641464006
530.0 94.17330548899001
545.0 94.68808067679814
560.0 95.17330548899002
580.0 95.62215405452218
600.0 95.94876656301052
615.0 96.00749452973122
630.0 95.85978638967885
650.0 95.39830589340771
670.0 94.6983058934077
690.0 93.864511275533
710.0 92.94487029910242
730.0 92.00684843122286
750.0 91.1587842226108
775.0 90.53390499242416
800.0 90.16059360689357
825.0 90.14142293150347
850.0 90.359570907577
875.0 90.89854003852736
900.0 91.52301910110486
925.0 92.31657570823117
950.0 93.14034870328624
975.0 93.96416938251241
1000.0 94.69788519110952
1030.0 95.35443124480764
1060.0 95.84941976503598
1090.0 96.19444981562276
1120.0 96.40296268179728
1150.0 96.53458909127583
1180.0 96.49245933200606
1220.0 96.36663007219886
1250.0 96.06167335285596
1280.0 95.70041642140664
1320.0 95.1844756053089
1360.0 94.68224673542483
1400.0 94.13450659302981
1450.0 93.61710959656224
1500.0 93.13679485185583
1550.0 92.81111207286997
1600.0 92.56738129684899
1650.0 92.52421626939284
1700.0 92.55486064756258
1750.0 92.7589093565511
1800.0 93.06783920095702
1850.0 93.44902636446149
1900.0 93.8955628333589
1950.0 94.38943804445915
2000.0 94.90523397831967
2060.0 95.45459036032646
2120.0 96.05274504561415
2180.0 96.62995755692975
2240.0 97.25168185969343
2300.0 97.81439511623364
2360.0 98.35749040379432
2400.0 98.7905120399806
2500.0 99.09392870716559
2580.0 99.25365541933856
2650.0 99.27681738306734
2720.0 99.16873509710958
2800.0 99.00640252917611
2900.0 98.77974618913021
3000.0 98.55173269521343
3070.0 98.31609158669103
3150.0 98.09535969129112
3250.0 97.8968828650177
3350.0 97.74175928532162
3450.0 97.5477016438204
3550.0 97.42725764305153
3650.0 97.28287166615266
3750.0 97.15316127215095
3870.0 97.03671839734959
4000.0 96.9644681623528
4120.0 96.95056442836619
4250.0 96.94297469189534
4370.0 96.90903504773732
4500.0 96.8973787623963
4620.0 96.85223672775741
4750.0 96.75400627084109
4870.0 96.59483858890181
5000.0 96.32924387361848
5150.0 95.96224045470166
5300.0 95.55201536886393
5450.0 95.08521883160658
5600.0 94.57083806432192
5800.0 94.09831524759012
6000.0 93.68674594824675
6150.0 93.30469826703703
6300.0 93.00837750740652
6500.0 92.8577065795305
6700.0 92.76313660358562
6900.0 92.85240024790916
7100.0 93.01460574134815
7300.0 93.24139563433928
7500.0 93.51883296651872
7750.0 93.77561870177988
8000.0 94.04626231920966
8250.0 94.24232474381681
8500.0 94.40902337845343
8750.0 94.50979200077639
9000.0 94.53510270961543
9250.0 94.54727783164282
9500.0 94.46151927330197
9750.0 94.3156926715529
10000.0 94.05352572809542
10300.0 93.63178078115098
10600.0 93.07935473063799
10900.0 92.41209169350165
11200.0 91.61586996556457
11500.0 90.6628901975616
11800.0 89.59515591791182
12200.0 88.3673992359158
12500.0 87.04095053726519
12800.0 85.57744061346256
13200.0 84.08544778937201
13600.0 82.57378155078311
14000.0 81.12757116464627
14500.0 79.77854087702406
15000.0 78.57587432781256
15500.0 77.5291142695866
16000.0 76.71743666305446
16500.0 76.12838343047024
17000.0 75.76981924790772
17500.0 75.55597361858558
18000.0 75.43944453230495
18500.0 75.4144048546657
19000.0 75.37096085275002
19500.0 75.28549293693953
