Freq "Estimated In-Room Response"
22.4 13.662649019937618
23.0 14.42656902823606
23.6 15.548452055913202
24.0 18.40622312853131
25.0 20.46924609553841
25.8 22.28968212510611
26.5 23.869032329176434
27.2 25.242530983727477
28.0 26.423371962783108
29.0 27.495693516180182
30.0 28.9566541222961
30.7 31.270510944563824
31.5 33.29299949631272
32.5 34.95318599439773
33.5 36.33486337211943
34.5 37.53728021207391
35.5 38.82460326784431
36.5 41.164217464345654
37.5 43.183392179182505
38.7 44.796817366545866
40.0 46.17681725086854
41.2 47.53683586734829
42.5 49.453412873883195
43.7 51.3601889622004
45.0 52.93150555757623
46.2 54.30627655593261
47.5 55.70067878142763
48.7 57.64660239692628
50.0 59.36434595800631
51.5 60.86661904457222
53.0 62.258903522305275
54.5 63.84745490865903
56.0 65.42910984153373
58.0 66.95603338326329
60.0 68.36550090680896
61.5 69.82124312768237
63.0 71.12292267060172
65.0 72.31438747767262
67.0 73.61700188155022
69.0 74.89024899558866
71.0 76.01719448352664
73.0 76.94029037902422
75.0 77.78818341832442
77.5 78.5108465051855
80.0 79.05428855413727
82.5 79.63466850004923
85.0 80.21845660996726
87.5 80.63386646115738
90.0 80.95917868483762
92.5 81.16155265785069
95.0 81.29289526347323
97.5 81.53420740531739
100.0 81.8007697504092
103.0 81.97677216334428
106.0 82.09659549125828
109.0 82.3512879241211
112.0 82.54736555226465
115.0 82.635332613934
118.0 82.66607621118396
122.0 82.75274244618433
125.0 82.77667979269148
128.0 82.69611166103655
132.0 82.69526239753547
136.0 82.72490041186995
140.0 82.69731950176234
145.0 82.66501664318216
150.0 82.64457807030146
155.0 82.61557351087836
160.0 82.60598821372996
165.0 82.61568943724158
170.0 82.5851847385673
175.0 82.54530895527321
180.0 82.5419972091642
185.0 82.55834743560732
190.0 82.53333350225955
195.0 82.53476706473049
200.0 82.53610075265622
206.0 82.5703979642097
212.0 82.58721840239653
218.0 82.57931893244852
224.0 82.58132491419525
230.0 82.56572938693866
236.0 82.55824662561776
240.0 82.52467022334572
250.0 82.44304968307003
258.0 82.36384863462156
265.0 82.25356982714483
272.0 82.13891739734352
280.0 82.00863051030213
290.0 81.88326949451245
300.0 81.76939501000889
307.0 81.64200520700668
315.0 81.53140659919849
325.0 81.44042721396485
335.0 81.37012025403965
345.0 81.34731104903179
355.0 81.35277065032476
365.0 81.40271456750376
375.0 81.43170236058793
387.0 81.48928061921012
400.0 81.43083124103342
412.0 81.40291232856163
425.0 81.32448061857183
437.0 81.13548963246696
450.0 81.02600148248791
462.0 80.84971342463619
475.0 80.74191811374378
487.0 80.55634359162826
500.0 80.55081077977785
515.0 80.57717747019285
530.0 80.62404923168626
545.0 80.60651307160293
560.0 80.56593233608092
580.0 80.45090144435189
600.0 80.27387351223942
615.0 80.12651696421113
630.0 80.01927231481058
650.0 79.97444361560468
670.0 80.00324495551065
690.0 80.04131542210352
710.0 80.01396226505612
730.0 79.98790063375618
750.0 79.74482329005066
775.0 79.4340010080179
800.0 79.31582392282708
825.0 79.24740211973621
850.0 79.21745265492765
875.0 79.02824326016935
900.0 78.75274962054354
925.0 78.57831397079495
950.0 78.58165826758942
975.0 78.64844395245336
1000.0 78.70417697496472
1030.0 78.31448298012393
1060.0 77.95391664143217
1090.0 78.37160324919738
1120.0 78.84406614655683
1150.0 78.93559721095463
1180.0 78.77326684472088
1220.0 78.69370256767881
1250.0 78.46907987220737
1280.0 78.09027709255363
1320.0 77.70351030223851
1360.0 77.71844045549105
1400.0 77.58286476318486
1450.0 77.44383683599837
1500.0 77.54211511135034
1550.0 77.75097118612797
1600.0 77.93414666876878
1650.0 78.05971196930572
1700.0 78.1169928048504
1750.0 78.03502364814508
1800.0 77.87943711522688
1850.0 77.6072918156961
1900.0 77.35882679097345
1950.0 77.20293724812953
2000.0 77.11618274535309
2060.0 77.1877235892957
2120.0 77.41208979870481
2180.0 77.51230251908436
2240.0 77.43982328162681
2300.0 77.37018226988988
2360.0 77.43160091865363
2400.0 77.66548453800932
2500.0 78.05373248554262
2580.0 78.32726674908268
2650.0 78.33959920032464
2720.0 77.9118594753474
2800.0 77.26418040150125
2900.0 76.7825999891936
3000.0 76.61476355626911
3070.0 76.593758802313
3150.0 76.3950865833733
3250.0 75.98525297456999
3350.0 75.30258819091324
3450.0 75.06498246105416
3550.0 75.46302459448329
3650.0 75.90111798528167
3750.0 76.24133981437049
3870.0 76.4877458116809
4000.0 76.36380059243389
4120.0 76.01511462037062
4250.0 76.06102742921756
4370.0 76.5687668073866
4500.0 77.03854426949941
4620.0 76.95160934475648
4750.0 76.81067535401725
4870.0 76.88865253836502
5000.0 76.85077485832987
5150.0 76.21066907838744
5300.0 75.41176153572226
5450.0 75.13262233494724
5600.0 75.30972113430353
5800.0 75.54810660543856
6000.0 75.88036492987854
6150.0 76.25777695244489
6300.0 76.4030259875996
6500.0 76.41346547921042
6700.0 76.63889084154762
6900.0 76.8020328526903
7100.0 76.55478255995605
7300.0 76.22627716652423
7500.0 75.9968897217038
7750.0 75.87957471652197
8000.0 76.00538684854571
8250.0 76.22638274448585
8500.0 76.42750952249918
8750.0 76.6443876529271
9000.0 76.5092496076011
9250.0 76.2184557100315
9500.0 76.10662108673888
9750.0 76.12910423934018
10000.0 76.26026412663643
10300.0 76.54000744752366
10600.0 76.61199621331465
10900.0 76.44368403416385
11200.0 76.40209093471768
11500.0 76.19369615283172
11800.0 75.87806449187205
12200.0 76.00004887391205
12500.0 76.54864058748389
12800.0 76.7313641813675
13200.0 76.19339759333052
13600.0 75.87747607858319
14000.0 76.12261357945707
14500.0 77.74454820601508
15000.0 78.07395693035012
15500.0 76.29230565788103
16000.0 74.17371303719621
16500.0 72.51638409787712
17000.0 72.08623265016521
17500.0 70.30280956868756
18000.0 70.33023569016521
18500.0 69.64099290732582
19000.0 62.92594978468273
19500.0 65.14615373040226
