Freq,Floor Bounce,Ceiling Bounce,Front Wall Bounce,Side Wall Bounce,Rear Wall Bounce,Total Early Reflection
20.5078,53.99968162838218,54.08141498978594,53.47351804500042,53.844561026611615,60.7550120052872,56.3585661235893
21.9727,56.75025534598848,56.96500405588253,56.371879800182484,56.83568598003805,62.68094064652965,58.739660175813526
23.4375,58.99927382663793,58.76938177028515,58.61048238137357,58.79425395516384,63.721036656787845,60.32362173480598
24.9023,60.51848873256441,60.26806427623791,60.140004160426145,60.35691605745899,64.84869722810706,61.680786481066065
26.3672,61.24683200257596,61.08109702511675,60.90896946134961,61.090698269618485,65.52649262970039,62.407166128173486
27.832,61.9492065116665,61.946686958671194,61.65538528016728,61.98741052226697,66.32894330362546,63.21003113570626
29.2969,64.44091761727957,64.66138705249516,64.24250989182354,64.73577244651376,68.23600452549698,65.56280343219748
30.7617,65.45873583860293,65.44291603744401,65.22639497152137,65.56098554862004,68.65473660972368,66.29051269081836
32.2266,67.14542537324951,67.28120213373597,66.99343451318288,67.35894899227246,70.05853807196058,67.93977100425468
33.6914,68.96110070878458,68.88442138103252,68.78575697412079,69.03121772740096,71.28826239944283,69.5057779023335
35.1562,69.39438155971094,69.21386304908593,69.17519676221337,69.43463597292381,71.7983427689858,69.93190037083592
36.6211,70.56539402639038,70.67030777017891,70.40010825122309,70.84462768545482,72.93771519471593,71.19518017307877
38.0859,72.06116305650986,72.07978557040497,71.9364817902227,72.2164677104451,73.84422977019014,72.49091286016414
39.5508,72.9474847792349,72.90213254440732,72.806336973921,73.07461193787015,74.61614314070849,73.32637782015087
41.0156,73.78984986630365,73.70642787135336,73.64394284761192,73.90093760019619,75.28013670631222,74.11057689313412
42.4805,74.60464793917096,74.50269907096906,74.45628980321112,74.7093347355451,75.96872517456674,74.88761584572003
43.9453,75.33160178027549,75.21312676827965,75.18177821466676,75.42807682012385,76.57488924999679,75.5790057327522
45.4102,75.9089701772983,75.79873953425405,75.76109393735207,76.02089710479447,77.11543970326862,76.15201239486845
46.875,76.58848130330699,76.43960931013427,76.43461575993885,76.6733489963384,77.6355982214154,76.77871722587673
48.3398,77.14842315065547,76.9842454279141,76.99321535012861,77.2214593757703,78.07380639746475,77.30389435335852
51.2695,78.10801071098172,77.91775269320429,77.95408058800462,78.16179129084558,78.89682568894165,78.22282425431354
52.7344,78.44952857884759,78.26918691123211,78.28961688346352,78.52887048431327,79.2829054454632,78.58055691037909
54.1992,78.85622981194334,78.65913954134186,78.69515522118024,78.92214244850193,79.58774840127673,78.9575081499373
55.6641,79.23304954344792,79.01626906609347,79.07050465493492,79.28045004242603,79.86793726809044,79.30451848763846
58.5938,79.85988284750374,79.6236032326863,79.69567229943917,79.89210783734846,80.37977132118885,79.89841513655276
60.0586,80.15651736975633,79.90685615362034,79.9903978667812,80.17873213703542,80.61945675233457,80.17750300128417
62.9883,80.68445613186763,80.4119743230955,80.51460822674454,80.69093562260183,81.05327646712401,80.67659683189684
64.4531,80.92856699299095,80.64686891937431,80.76007428383156,80.92367356919479,81.2326149856724,80.90289741646757
67.3828,81.45712164499191,81.14990139792017,81.2861676777114,81.43133734774057,81.64684752494756,81.39751132068251
68.8477,81.65754074571868,81.33736981824555,81.48215365076878,81.62654146944038,81.82086745889458,81.58798696891878
71.7773,82.01641405740568,81.68604039682964,81.8387807271508,81.97792795833914,82.13080185362779,81.93269661997459
74.707,82.37353947274704,82.0275499949372,82.19390464256117,82.32077090250917,82.41849297235296,82.26913469891622
77.6367,82.7200411883229,82.34953309688001,82.5353997836503,82.64971090341147,82.69504296825735,82.5920525789518
79.1016,82.87081023360007,82.48677684372771,82.68314063752133,82.79127214763108,82.81163561986256,82.73081726584675
82.0312,83.14038595530806,82.73133057219623,82.9463104000063,83.04512114159587,83.02700212137987,82.98020200482944
84.9609,83.40041313847361,82.97471718523545,83.20361162904308,83.29269423009308,83.24316352514506,83.22517732425072
87.8906,83.66887856399272,83.23395856907891,83.46916444830222,83.55049621775663,83.49740016138401,83.48630119069477
90.8203,83.96558788177782,83.50889226198196,83.76354026174236,83.82671305436767,83.73412594757401,83.76230302421826
95.2148,84.29974346819363,83.81279534764107,84.09624705877387,84.12833673175894,83.94333632240038,84.05926969843425
98.1445,84.47316398431548,83.96314241256674,84.2659448715446,84.28167382414112,84.05959861244872,84.21241460259917
101.074,84.63049716063378,84.09591486158754,84.42207197394498,84.41326938305923,84.13454998552847,84.34382980058172
105.469,84.88575171922699,84.33262790612976,84.6785502879066,84.64006434972404,84.2778950204142,84.5689127321985
108.398,84.98826122126388,84.43667529983634,84.77377699421146,84.74857335893174,84.42387441024304,84.67960519809067
112.793,85.06104229332541,84.47918045835553,84.83440166296607,84.80222514446837,84.52537028913937,84.7457481791676
117.188,85.18480127890702,84.51057815066444,84.93715111439595,84.85939334890104,84.50636242020113,84.80751051535967
120.117,85.34289684302115,84.58609931558928,85.08000260462327,84.97058845518401,84.54322680562618,84.91514980058993
124.512,85.65497293221681,84.93367456317344,85.40951442797152,85.29234270035634,84.85453977194169,85.23926985982595
128.906,85.64486055717825,84.92419848372441,85.3989818407577,85.27321971448475,84.85178944246688,85.22871502186088
133.301,85.74519704416701,84.94847270075604,85.48758705914915,85.31699578073159,84.75409554883998,85.26523669575724
139.16,85.69670761973003,84.93812353083064,85.43902686287609,85.30167383948172,84.76923705677925,85.24191718766542
143.555,85.60325459430234,84.8042994141286,85.32909830883138,85.18020188805747,84.70523589176219,85.13715178191168
147.949,85.67754401854594,84.77969855759369,85.38090559994887,85.17695469956789,84.73306818732736,85.16449925751742
153.809,85.81392550067247,84.9287644308242,85.54431958578937,85.29594468892834,84.68951517875166,85.27342041231003
159.668,85.5913023191066,84.76356674201523,85.32424641722574,85.11633576167085,84.45978616148192,85.06942870141206
165.527,85.31984569687621,84.45444436479974,85.01804386473448,84.81862108206425,84.32400650291972,84.80230081264583
171.387,85.30572391295183,84.18202583842684,84.93293346086655,84.5438510413548,83.8967796162952,84.60176156595973
177.246,85.18555916595571,83.9660043595429,84.74419549297698,84.52306468609018,84.04048940088762,84.51566007297059
183.105,84.93691986803398,83.41004761313597,84.4535111957939,84.13817422607815,83.95104767795092,84.20770834345308
188.965,84.98271216269278,83.54659731693228,84.64579905683323,84.16551669307893,83.74402697177733,84.2503744391064
196.289,84.96577681578873,83.94431887660346,84.79445160718083,84.24422617799851,83.70716718112926,84.3580392758784
203.613,84.71338205655275,83.69823421282746,84.56892620920596,83.91837717757564,83.19252079887552,84.05444781639935
210.938,84.66105872447324,83.71818504984778,84.54874682022901,83.86467718698125,82.74632462704383,83.96060029290565
218.262,84.48993922454449,83.71666356240561,84.39846482613453,83.82884188964644,82.67102657649107,83.86779965699857
225.586,83.86292359707579,83.46106081959645,83.80444720273141,83.4382222882429,83.20252442821376,83.56082592023887
232.91,83.61343407426655,82.52256460036833,83.34576035070133,82.43543101876354,82.82054149543838,82.97219637840965
241.699,84.43749084270436,82.74230554577184,84.10095163951306,82.83806312269685,82.41832842233927,83.38327626600032
250.488,84.47500895978455,82.30929565522923,84.08072965635887,82.66207354288267,81.11275017064622,83.0967459076857
259.277,85.15129345403024,83.16120491043321,84.82249228407885,83.46764525957337,81.34050848563082,83.78922348398403
268.066,85.12727721256019,83.34979817463801,84.78429713470882,83.66765441007165,81.93708667839407,83.91532420155852
276.855,84.45927536967824,82.57494941270625,84.13037498068745,82.84279448925783,81.56535388891797,83.2420148700866
287.109,84.53125552566618,82.32033541142589,84.09279039357178,82.83753117553555,80.64763122987269,83.09370370271607
297.363,84.84935967701679,82.77051550804578,84.55501745971345,83.1334691981564,80.27128850163874,83.39385657251967
307.617,84.5900278059357,82.99111116425343,84.32920924448291,83.36160069522204,81.33898534089089,83.46663037103394
319.336,83.69406665413419,82.02429304233475,83.46604057739792,82.2061476392292,80.48117685401333,82.52134239612712
329.59,83.87517099182605,82.03243444888602,83.62167079696314,82.21324637068304,79.96340772500551,82.55083437758236
341.309,83.92615029340112,81.96975318329476,83.61898701398022,82.18439324270446,79.64342623910659,82.5135309128002
353.027,83.9032303589573,81.67826583137887,83.60345487177266,81.93702300689222,79.37884744441891,82.38034017695578
366.211,84.11718590381766,82.08335841546531,83.87936061320217,82.60917821216152,79.03101151991339,82.6777401555704
379.395,83.61378458431777,81.56076442622732,83.38269150236002,81.86290826491368,79.19835018711522,82.18889472197665
392.578,83.71696338737507,81.62026305070188,83.49825393843115,82.08178962876354,78.50384765412036,82.23600866383478
405.762,83.44670881378522,81.29632643842098,83.18010763825188,81.58965530798254,78.84735462947073,81.95782563899141
420.41,83.2505841701436,81.2187492909246,83.09079951408638,81.58473621090948,78.0592125845149,81.79272399413304
435.059,83.58806072337747,81.42091065428616,83.38926559978812,81.69311447723004,78.54237933569465,82.06590537189958
451.172,83.70809317180955,81.7977641742718,83.4800262473125,82.30473196857427,78.61892188122253,82.31343486661842
465.82,83.68105773643757,81.73926843709494,83.63698875647576,81.97800821348861,77.72848634323714,82.20455294538812
483.398,83.53046570490814,81.26988708659387,83.32004106681461,81.83732445049115,77.9474083829665,81.98214958847804
499.512,83.2963910658834,81.47017049728214,83.25984443034221,82.03071762933612,78.05537845639832,81.98246651673186
517.09,83.10325547568047,80.70084614399755,82.93974274473004,81.67683358792348,77.59778514189586,81.60321512467793
536.133,83.91118722364212,80.80523558563034,83.76652528240366,81.88060778189285,78.25664924962774,82.17823526336984
555.176,84.31769486063209,81.42441067978984,84.16750522607397,81.97982455744963,78.20819773297633,82.52408270605082
574.219,84.78573047655259,81.54091005674478,84.80490771053367,82.51433823157339,77.63737962620804,82.93313588483755
594.727,84.43701705645967,81.76595520114658,84.75558615435313,82.92900150898883,78.24781083339224,82.96651523127937
615.234,84.05490166033454,81.6696130802722,84.38267708703432,82.75399208334127,78.13078746904449,82.6911728546676
637.207,84.56242586446761,81.82358833822548,84.84853460759058,82.98639017700664,77.28239774001247,82.99235306892308
659.18,83.85013196782364,81.87622693309456,84.41735654990211,83.30380743943451,78.02645686389525,82.79071366363969
682.617,84.00697172699708,81.1963535933818,84.47935448180053,82.58786093378309,78.0354391064741,82.59538350847825
707.52,84.37525207724146,81.73807594898165,85.14243434450242,82.66781171490535,77.68904712483703,82.98159343665104
732.422,83.88941262077988,81.89245900958653,84.91738684539044,83.12612957000786,77.58163780179501,82.88902862039468
757.324,83.95041793335001,82.04641294151983,85.01598769231745,82.67113321907243,77.90792215872546,82.88995794966833
785.156,84.09645025621671,82.1719857063731,85.44389950258217,82.55987874886775,77.18799553128173,83.03028932014254
811.523,81.93760608617438,81.67223215956801,83.95841746566678,81.8312166834573,76.57504864495994,81.76025685809975
840.82,81.74620965502834,80.9703207715161,83.27178230190025,81.09105882375866,76.43346011597116,81.20237535444218
870.117,82.27419787735263,82.12173288441699,83.89812504812643,81.0399308199996,78.51901384240098,81.90521378489824
900.879,84.77419108194081,82.54787285581929,85.56459999914725,81.54574653632797,80.1833100684585,83.37337897605039
933.105,84.19718274170533,80.91006634844771,85.34301999227357,80.07589096905596,79.90787008284902,82.68601235882838
965.332,83.18000883491504,79.38284661571647,85.33500802671668,79.3230311598136,80.78625030950383,82.2619892571142
1000.49,78.25580490276741,80.25649901366961,84.83219952596353,81.19589817558723,80.14523147997228,81.53724756431525
1035.64,77.65682996779734,81.60909258322485,84.12026883921098,81.35006059100174,76.98100648624059,81.12438148310626
1072.27,77.82640954826428,81.80821608468537,83.25590669877388,80.91001867315894,76.17683028407536,80.7090847964251
1108.89,78.94877384449177,81.75363562177353,83.57774906956689,80.7751720692344,75.09576791902103,80.84958756699147
1148.44,78.79979121538649,82.13183466961259,84.17508923565433,80.67618733949533,74.43763491061824,81.10845524982248
1189.45,77.69497872552893,81.82627877602204,84.20053299777211,80.22434577812842,74.15022310588537,80.83111568166434
1230.47,76.3913201884694,81.92120984697699,83.80945346195551,80.11502920887249,73.57228927211796,80.53122540361343
1274.41,75.96176711203086,81.8095233354742,83.55335589011017,79.87285263125537,73.35949336007141,80.30663619299861
1319.82,75.38086057176447,81.66109188681494,83.32453907555055,79.94544874264855,73.2064219871621,80.13508085108047
1366.7,76.57464490514559,81.40088509328606,83.82577895887914,80.17864804496071,73.27996473361821,80.41630494528262
1413.57,78.02285773385955,81.9219675392029,84.70316412746621,80.54774815387172,73.64622337752682,81.14629550433155
1463.38,77.72120106265655,81.29539119594152,84.89762993903406,80.5715045234455,74.3533398482511,81.09982705453815
1516.11,77.63741323599055,81.5895664360772,84.78754077010164,79.19624127882865,73.39910654529075,80.85181061419983
1568.85,78.56792869160154,82.22286946544277,84.30403371015682,79.89597363757339,70.95941050460998,80.92197211496241
1624.51,78.92128530273584,80.42542684444766,84.63419234815396,80.48173158625876,71.5239132431002,80.82724149447742
1681.64,78.77600288389435,79.64070138858123,85.34482369572002,80.68412842917337,71.18711307164158,81.07253223736498
1741.7,79.3725392666712,78.93810437973968,85.00572199486678,80.70453325555104,72.21327195643187,80.90441441316793
1803.22,78.94635347914198,75.96069918614657,84.58518770295066,80.5379804022831,73.25937781191708,80.33181518469493
1866.21,79.2149637882207,74.67946648210945,84.76023277919316,80.91231735417446,72.85223725425647,80.45119735202277
1932.13,78.85019488487356,70.38731009061075,85.40530454235186,81.32386316470075,72.27480104046361,80.69931944471062
1999.51,78.12930619160232,69.9425860545873,85.64170373322307,81.86958534005774,72.95771088605363,80.89914056082583
2069.82,78.04847811420052,70.15685842066408,85.47889825580498,81.8906934328686,73.55688393238012,80.82424747679696
2143.07,79.45879607649172,74.30028688720033,86.13527158527509,82.38466154639951,73.87607513713613,81.60458087703763
2219.24,80.5536945376535,74.60423362030616,86.15343458009013,83.1048025334012,74.61352574810319,81.97677252122972
2296.88,81.36960123308567,76.47542228361925,85.72215208517652,82.78846409507717,73.94979348827515,81.87406658224926
2378.91,81.65154894631537,78.48257684027263,85.78946740031706,83.18307609068157,74.38013033156301,82.20935633546367
2462.4,82.07334641460656,79.9153677453276,86.21110750032216,83.92032837501907,74.67480721323076,82.80195694045008
2548.83,81.98839696324472,80.29735301035137,85.673322466432,83.44053238629787,74.5289690997922,82.47292127684544
2639.65,82.22320360764579,80.86549889838768,86.01544436743822,83.61724610017764,74.2680985974915,82.76527632005903
2731.93,82.06210348381933,82.06850430971029,86.4695747179587,84.05383772772774,74.33786839840512,83.2090169821846
2828.61,82.03865607455748,82.82462311674212,86.32590616524439,84.1085648495247,74.36799535443156,83.2860568987947
2928.22,81.7376269658571,82.84302090976387,86.2043220858628,83.67309421456417,73.81860917382254,83.07920169499421
3030.76,81.5619162736798,83.55733082410705,86.70335787870594,83.83218212081142,73.40406377288839,83.4312942134997
3137.7,81.96929442128638,83.99897146604593,86.39716140036693,84.14126576875445,74.21171625349149,83.54338892933941
3249.02,82.14591272636117,84.19914138957505,85.90011816407082,83.44847391539994,73.69922429835995,83.26583666729849
3363.28,83.05464776662659,84.21834982342436,86.28506137451288,84.1251374475492,73.85844493379977,83.70754673024098
3481.93,82.86363277922729,84.08549179400755,85.95916006014724,84.21008383309655,74.64116821129358,83.56666337746061
3604.98,83.4453899205755,83.89284526802021,86.30065476791691,84.64413974031064,74.31538201576468,83.8422630864423
3732.42,84.19963426360698,83.94174112225092,86.1750217810673,84.74889313105909,74.68253740643424,83.99043696657
3864.26,84.28540613818478,84.08542058081838,86.52535991830428,84.89614484791153,74.26422060557826,84.18028727399913
4000.49,85.18103761240025,84.17697415972738,86.41785912214898,84.42350340907835,74.04277410825583,84.25509421108528
4141.11,85.67178016252466,84.48143577138707,87.46334485008737,84.80513564133469,73.72599761601377,84.8666154573809
4287.6,86.07913938090772,83.85768873479573,87.49955441737973,84.74599531770052,73.74773888882456,84.86506225520684
4438.48,86.18149235125482,84.14763887778028,87.06452752009338,84.93861041662214,74.06769299445267,84.83148759529043
4595.21,86.10826496462508,84.00692105087174,85.94785098528348,84.78404957086161,73.96281377062067,84.4056078495571
4756.35,86.60268761179447,84.27770872726664,86.00993040864299,84.72441015587839,73.84346322649198,84.60951680250287
4924.8,86.71196954170823,84.59730678625415,86.28651920653854,84.93042025124068,73.77356767062248,84.82173678737726
5097.66,86.80478531662725,84.5966270441501,86.7588114949684,85.00724764313415,73.52793313649553,84.9988957028545
5277.83,86.99533860448688,84.49225503631808,86.84780936214358,84.81572581802257,73.48997129562133,85.0279302200417
5463.87,86.90878711029177,84.62715424766186,86.94827134567032,84.61559612955728,73.17512160173501,85.01456435234363
5657.23,86.86781849215029,84.69615598187045,86.43794934883984,84.36772784790121,73.23246318767895,84.81672808865089
5856.45,86.5908504120437,84.57715860728791,86.6098118543159,84.3674849637095,72.59536460796414,84.74998069307345
6062.99,86.37722907645644,84.28487290138025,86.57961542135203,83.87558378976378,72.28114830012895,84.5282934938919
6276.86,85.93300415725598,83.97600943909924,86.66494348465417,83.88137285734874,71.8436550218297,84.36322154244029
6498.05,85.39720648906605,83.78431909298341,86.80152399068606,83.688012434216,71.37440546219085,84.1890759620645
6726.56,85.30529814519002,83.56313954456598,86.75363286801242,83.42722872779353,70.83812841402568,84.05597815944208
6963.87,85.28268382299022,83.46866547594756,87.02100903593232,83.16912340399446,70.8714168575099,84.0927274796285
7209.96,85.51152203056415,83.35540896949615,87.13290395569557,82.89002690314405,70.47459583092741,84.13216285037379
7464.84,85.5832491399274,83.4433837047364,87.0923065519394,82.55298773127893,70.0676543975561,84.09856894564928
7727.05,85.5916093697789,83.49623139018078,87.07472579161602,82.37892646296449,69.76428254699928,84.07680173631566
7999.51,85.72121348836542,83.19415026058758,87.05281690515405,82.22694397626839,68.93951062373978,84.02827722471766
8282.23,85.77956713771248,82.86879999482508,87.07596177061431,81.90522331244655,67.72843986831688,83.95507858911324
8573.73,85.60060572582272,82.48961671746298,87.09564655500142,81.61839761968973,66.3404076538697,83.8105830041096
8876.95,85.33582956007801,81.60177903902263,87.18711985676417,81.48494161196243,64.69534971710257,83.62942386232778
9188.96,85.36504222446116,80.95104476344173,87.26853095349955,81.21646602658262,63.96600934044092,83.56565697588152
9514.16,85.53538894289909,80.70185503125037,87.44589703893307,80.61359337731251,63.64518625765186,83.61019482775309
