Freq "Rear Wall Bounce"
20.5078 62.06434570816356
21.9727 63.15739444377712
23.4375 64.60765525074193
24.9023 65.34189307882936
26.3672 66.26236174794631
27.832 67.1677884699692
29.2969 67.86050618361134
30.7617 68.68503645504049
32.2266 69.44967891935016
33.6914 70.15543406825489
35.1562 70.70870397742516
36.6211 71.40894891771187
38.0859 71.99334506001267
39.5508 72.67909773251613
41.0156 73.2507709482544
42.4805 73.76180917995882
43.9453 74.23124667818706
45.4102 74.7615626433927
46.875 75.397988659038
48.3398 75.88422430396388
51.2695 76.84248352274243
52.7344 77.30086886879984
54.1992 77.67405972647774
55.6641 78.04556059753946
58.5938 78.88642274966541
60.0586 79.27356723329342
62.9883 80.10418366853541
64.4531 80.2961224709706
67.3828 81.04694966452949
68.8477 81.36478012432173
71.7773 81.93283358092995
74.707 82.50209333979507
77.6367 83.08791802274462
79.1016 83.31929116519129
82.0312 83.72907419153132
84.9609 84.1058787190776
87.8906 84.60436947444902
90.8203 84.99755608018899
95.2148 85.36548475055781
98.1445 85.57321628540103
101.074 85.72641567540722
105.469 85.99349069536059
108.398 86.16108848059467
112.793 86.27634960701883
117.188 86.22314024412542
120.117 86.44973980806061
124.512 86.68661479672045
128.906 86.64069313879831
133.301 86.41212036202307
139.16 86.3093326159935
143.555 86.09338764252573
147.949 86.30374090883289
153.809 85.83031077732088
159.668 85.31822718365214
165.527 85.06788095680467
171.387 85.40912672792415
177.246 85.45958014749611
183.105 85.18385270635817
188.965 85.2075577980285
196.289 84.6055097024547
203.613 84.12849056635541
210.938 83.7451866420603
218.262 83.8724378126371
225.586 83.66145082461698
232.91 83.14102470650207
241.699 82.71180840654543
250.488 81.81726290919731
259.277 82.15510523690848
268.066 82.92185900848531
276.855 82.02095923426208
287.109 81.03216492504251
297.363 81.09000959467107
307.617 82.79426216928299
319.336 81.35513120576495
329.59 81.45602582048542
341.309 81.25054599854896
353.027 80.1828655012506
366.211 79.07350956261666
379.395 78.25306153704015
392.578 78.03960027234807
405.762 78.25422808375886
420.41 77.76543548064272
435.059 77.48425025775587
451.172 76.99041486578649
465.82 75.05927247447629
483.398 74.08809962479012
499.512 74.22296268259568
517.09 75.02778833126521
536.133 74.97045825252924
555.176 75.15948149890234
574.219 73.74129972299399
594.727 71.78231645196851
615.234 71.9628127364393
637.207 71.93207222048953
659.18 73.0522264782742
682.617 73.90488672289072
707.52 74.64038795393623
732.422 72.87540288240305
757.324 73.39912798452775
785.156 73.44319845437103
811.523 72.3497260414187
840.82 72.80357482243144
870.117 71.83832642189188
900.879 74.19104410575467
933.105 74.70659038027568
965.332 74.29916449078769
1000.49 74.51331259307769
1035.64 74.84941377778534
1072.27 74.72733919076995
1108.89 74.83656347771307
1148.44 74.73285524333275
1189.45 74.97024468021502
1230.47 74.02593976387803
1274.41 73.05635870705802
1319.82 72.81071852478664
1366.7 72.61582050794534
1413.57 72.68295579417699
1463.38 72.51843664066261
1516.11 71.59598081018567
1568.85 71.71481615159591
1624.51 71.6298075896849
1681.64 72.13053678009896
1741.7 71.57329062329913
1803.22 70.77306069644382
1866.21 71.2777730916994
1932.13 70.98777073000518
1999.51 70.94864473365864
2069.82 71.74120474717596
2143.07 71.62481923989625
2219.24 70.20233192424148
2296.88 69.8055772416418
2378.91 71.27192773041273
2462.4 71.5454342496796
2548.83 70.66342664190938
2639.65 71.07759579318487
2731.93 71.36537909654609
2828.61 71.6536782535968
2928.22 71.10455495305625
3030.76 71.04687585595114
3137.7 71.59159804943454
3249.02 71.57625754861334
3363.28 72.13152076601672
3481.93 71.70984474864166
3604.98 71.30138365998751
3732.42 71.03502448131294
3864.26 70.45540352971405
4000.49 70.35229817634747
4141.11 69.9321025712734
4287.6 69.30558458830755
4438.48 70.25086859118849
4595.21 69.54229345242813
4756.35 69.3099243085057
4924.8 68.3707689339226
5097.66 68.5529920491717
5277.83 67.8150314379223
5463.87 67.75113727635228
5657.23 67.63349581301057
5856.45 67.48316183098039
6062.99 67.06745647099501
6276.86 67.05780615568759
6498.05 66.31347240567467
6726.56 65.78416828106964
6963.87 65.79214488417185
7209.96 63.96554302983202
7464.84 62.98697761206759
7727.05 63.93367991648327
7999.51 62.91508108121525
8282.23 62.37495740013483
8573.73 62.51360469248078
8876.95 60.193542280341944
9188.96 59.85411670147272
9514.16 59.73041234872875
9849.61 59.800329583398735
10196.8 58.56958514767928
10555.7 58.06271237630369
10927.7 56.65446893464025
11313.0 56.568446099444856
11712.9 56.26197352906459
12126.0 54.69930421865607
12553.7 56.13773639943861
12996.1 54.61186526494353
13454.6 53.393808453081874
13929.2 50.73984510167571
14419.9 50.885711065946055
14928.2 50.61501373578881
15455.6 49.554534701828885
16000.5 48.64387348538628
16564.5 47.43799160631082
17148.9 47.56768696985611
17752.4 44.34783816897644
18379.4 43.27954749044787
19026.9 43.8114291590405
19697.8 45.10731132331034
19999.5 50.16823609431421
