Freq "Side Wall Bounce"
20.5078 62.46072848964501
21.9727 63.54139582610752
23.4375 64.85493039917009
24.9023 65.51263999361545
26.3672 66.43677713598053
27.832 67.43442345981276
29.2969 68.07179148789986
30.7617 68.81398379824078
32.2266 69.57705078824905
33.6914 70.27906049346062
35.1562 70.90058681501311
36.6211 71.57758045015312
38.0859 72.19426842286349
39.5508 72.83733059725068
41.0156 73.3663989226017
42.4805 74.03001974654461
43.9453 74.481718108149
45.4102 75.06623899649726
46.875 75.52568682744577
48.3398 76.02277616216254
51.2695 76.91868379742426
52.7344 77.41951748359112
54.1992 77.85700151234123
55.6641 78.232367579757
58.5938 79.00925259226035
60.0586 79.41864380321202
62.9883 80.21971011398281
64.4531 80.52032998607507
67.3828 81.24488598895645
68.8477 81.52207718936445
71.7773 82.12517563292619
74.707 82.6630453392644
77.6367 83.14199289168614
79.1016 83.37246978143821
82.0312 83.79168116110556
84.9609 84.18642827367735
87.8906 84.665043675688
90.8203 85.08747544490642
95.2148 85.49041832146277
98.1445 85.7151109752251
101.074 85.91490529880188
105.469 86.21564336556104
108.398 86.32048091518686
112.793 86.3549408085371
117.188 86.38990455013185
120.117 86.67018918532908
124.512 86.81938796332463
128.906 86.81891414426299
133.301 86.8119678263275
139.16 86.59086756821951
143.555 86.36594665995912
147.949 86.53747383960315
153.809 86.36065658961697
159.668 85.74310171129376
165.527 85.48187370982318
171.387 85.9479293783375
177.246 85.69419167467662
183.105 85.73846005177577
188.965 85.63478480296051
196.289 85.11107915490722
203.613 84.69118197001413
210.938 84.72660130947772
218.262 84.63509553171788
225.586 84.31992668756641
232.91 84.01455811595936
241.699 83.47151879751996
250.488 83.49364912699077
259.277 83.8365611721604
268.066 83.64411039494235
276.855 82.9058256464634
287.109 82.29575866707546
297.363 82.4901193133113
307.617 82.04605418049897
319.336 81.58878475547239
329.59 81.8119609016088
341.309 81.24693016583235
353.027 81.32538320636617
366.211 81.17261930874265
379.395 80.74749717995759
392.578 79.68108807274145
405.762 80.05999782101101
420.41 78.29220641471576
435.059 78.04240289658995
451.172 76.32725803516865
465.82 76.62484909662152
483.398 75.63613768971065
499.512 75.31538139490318
517.09 73.83712190676276
536.133 71.82103793713442
555.176 70.85968922879478
574.219 71.49274842163332
594.727 71.93885142570765
615.234 70.46325876840156
637.207 70.28746851382357
659.18 71.73031099172245
682.617 70.39976128011514
707.52 71.97584256325685
732.422 71.6962893770651
757.324 72.29281876226851
785.156 72.39034673887262
811.523 72.80301225886708
840.82 73.82149653058168
870.117 74.73509754375355
900.879 76.67662849488576
933.105 76.72008342801166
965.332 76.92702590513133
1000.49 78.1475891820166
1035.64 78.4563665213313
1072.27 79.65643315118061
1108.89 80.11924139781817
1148.44 81.46029482383283
1189.45 81.46543206338788
1230.47 81.26711933070757
1274.41 80.76163098237305
1319.82 81.28529555801938
1366.7 81.87382052640035
1413.57 81.33521676823224
1463.38 80.31481648535834
1516.11 80.52534652260887
1568.85 80.6981027413382
1624.51 81.11929139966878
1681.64 80.95310193918866
1741.7 80.12863364911645
1803.22 80.87357248481838
1866.21 81.79351626657173
1932.13 81.77344088563505
1999.51 80.98491511214023
2069.82 81.66324819699945
2143.07 82.41927393073253
2219.24 81.74383179275188
2296.88 81.48671582623358
2378.91 82.35556342723036
2462.4 82.0364037500709
2548.83 82.00781662213024
2639.65 82.79710859290124
2731.93 82.75878758787262
2828.61 82.76753471605855
2928.22 83.09406886711947
3030.76 83.76831565430068
3137.7 83.42355445812045
3249.02 83.37552641673325
3363.28 83.35618873066457
3481.93 83.36835772517352
3604.98 83.14245306955945
3732.42 83.62285594728588
3864.26 82.82779223551043
4000.49 83.04763508563782
4141.11 82.68536142805327
4287.6 82.46491295565693
4438.48 82.8135932144401
4595.21 82.28078766017912
4756.35 82.45090931876716
4924.8 81.94731619701723
5097.66 81.72916173402453
5277.83 81.65427147306463
5463.87 81.69044651447346
5657.23 81.74047196121411
5856.45 81.55026065581718
6062.99 81.83590870231751
6276.86 81.95818334920322
6498.05 81.73543922777496
6726.56 81.68368431933736
6963.87 81.8859308585774
7209.96 81.78742569793546
7464.84 81.55244104453068
7727.05 81.77257036363771
7999.51 81.67828624932558
8282.23 81.6298157705695
8573.73 81.45972468480123
8876.95 80.86325156330571
9188.96 80.52541052186558
9514.16 79.93760625905998
9849.61 79.46631121665119
10196.8 79.23422129272306
10555.7 78.82049113707409
10927.7 78.28748528077143
11313.0 78.09721620732041
11712.9 77.47911457501822
12126.0 76.99477316000765
12553.7 76.86378425787314
12996.1 77.06869039330148
13454.6 76.84137734619033
13929.2 76.30856219941481
14419.9 76.54849357997313
14928.2 76.30853668483005
15455.6 76.3553365408675
16000.5 75.33318269390327
16564.5 73.58233186210859
17148.9 73.31750733503726
17752.4 72.03518511393801
18379.4 70.46247278361234
19026.9 70.69680606074829
19697.8 70.44287973730765
19999.5 70.09905549000665
