Freq,Floor Bounce,Ceiling Bounce,Front Wall Bounce,Side Wall Bounce,Rear Wall Bounce,Total Early Reflection
20.0,59.06505297070359,60.36632625880563,58.09786660969553,60.60208320194238,63.42436517721407,60.71030036831917
20.2909,59.56131505648776,60.83334735759718,58.60332116911721,61.074016121958664,63.88373165268807,61.183666424261645
20.586,60.092337048718235,61.335771068661785,59.14455700497285,61.58066179656464,64.37871634537406,61.692395243097366
20.8855,60.632324403236964,61.84512793617978,59.69539770138013,62.09527571900992,64.88309631475067,62.20981311553095
21.1893,61.19841192856546,62.380886720575404,60.27436251254173,62.63619556512862,65.41469979894619,62.75413254043232
21.4975,61.776325643093,62.92866293298391,60.86505497956358,63.18926980612673,65.95792675294378,63.310355038588455
21.8102,62.35961224465029,63.4814565618627,61.46205317164333,63.74691286532287,66.50618732287222,63.871775960033744
22.1274,62.94338936535398,64.03457069617518,62.05937183800003,64.30528889325625,67.05520038428608,64.43384699413392
22.4492,63.524595940559195,64.58571728496563,62.65565071394832,64.86153608811503,67.60144918641119,64.99371785591845
22.7758,64.10318181946852,65.13324621238057,63.2494334455742,65.41471515860185,68.14514918111055,65.55081088805007
23.1071,64.67886917714884,65.67773320807613,63.841173209514295,65.96490545048951,68.6858583761762,66.10510133494206
23.4432,65.25337234754248,66.2216153261545,64.43226433406299,66.51382846032394,69.22565885641083,66.6585336150508
23.7841,65.8891585445362,66.829152354579,65.07963722675399,67.12602566343196,69.82157835933717,67.27167351445422
24.1301,66.52336010319215,67.43476281951725,65.72545855696771,67.73649576048196,70.41613176013324,67.88329755512726
24.4811,67.15531314228915,68.03833589785964,66.37020081920036,68.34404803812035,71.00811887237688,68.4926873076456
24.8372,67.78434985179973,68.63860774506894,67.01176708245181,68.94966843737936,71.59759355300424,69.0994721419228
25.1984,68.4108021663835,69.23621780107621,67.65106438752458,69.55233663435683,72.18440942474349,69.70367825059995
25.5649,69.03433830271817,69.83089589407703,68.28769898279803,70.15187305204437,72.76808937200444,70.30495691840457
25.9368,69.65462667731452,70.42222087691603,68.92178372796185,70.74790828588097,73.3489328339276,70.90323323774757
26.3141,70.27163118488988,71.00988507969997,69.55281614319522,71.3410007159627,73.9258892316677,71.49812363952813
26.6968,70.90411070618634,71.61999122175664,70.19749950741353,71.95395666669816,74.5210135057672,72.11136580523943
27.0851,71.53466814229832,72.22879969631795,70.84126758633674,72.56636069853884,75.11529737585892,72.72363629358712
27.4791,72.160940977748,72.83362103645631,71.48026425574079,73.17421441733391,75.70442280633019,73.33132621045738
27.8788,72.78126078066353,73.4317675988263,72.11348944595633,73.77547269012085,76.2875821725314,73.9328993231461
28.2843,73.39495877385322,74.0236150765676,72.73994306351901,74.37060643232765,76.86447477471353,74.5281758581996
28.6957,74.00101231060451,74.60816212887917,73.36010562292793,74.95835057114925,77.4340291212785,75.11627218521811
29.1131,74.5998055339496,75.18434850598463,73.97253508808964,75.53877163163062,77.99564488271112,75.69667720906462
29.5365,75.19045414143835,75.75692029459557,74.57640989271292,76.1130932461494,78.5521758297023,76.27118791274614
29.9661,75.7718862253409,76.32255029832217,75.17159850464112,76.68004409696887,79.10115578020722,76.83793678074241
30.402,76.3430114622122,76.8775047985635,75.75591013682423,77.23643894290348,79.63913138996713,77.39401083162856
30.8442,76.90013651439752,77.41815456152911,76.32634469774271,77.77885360471232,80.16359920396728,77.93627466826857
31.2929,77.44431084138877,77.9457709474905,76.88390208907487,78.30769813737712,80.67483957655676,78.46542952206539
31.748,77.9735093266088,78.4594411499081,77.42726426977197,78.82274296469664,81.17185015690109,78.98043303589589
32.2098,78.48806253910863,78.95776398909373,77.9555270398328,79.32262677035433,81.6535126109031,79.48032953692524
32.6783,78.97774007519757,79.43546509793029,78.4589780911233,79.79998837785745,82.11465177651819,79.95805679904552
33.1536,79.44979430981206,79.89549286265874,78.94481859541551,80.25979420866406,82.5578225250552,80.41810140239791
33.6359,79.90417890339197,80.33788600305361,79.41311018343998,80.70156822518778,82.98337047235992,80.86049392004617
34.1251,80.33857597457472,80.76061683682762,79.86124093928889,81.123185008409,83.3891557510279,81.28302068788159
34.6215,80.75266486632006,81.16267509300604,80.28985628771916,81.5254073339177,83.7744871574553,81.68546658892885
35.125,81.14843445601804,81.546414326006,80.69913414772631,81.90824280893756,84.14129031554903,82.06922132726451
35.6359,81.51160585883518,81.90050503583743,81.07567743529752,82.25995046053657,84.4789896318669,82.42233483710842
36.1543,81.85413020341971,82.2342761808531,81.43185723798345,82.59126859700899,84.79674852950578,82.75521694987356
36.6802,82.17731234945248,82.54805726497065,81.76864745763855,82.90281228361654,85.0947429425207,83.0684559123785
37.2137,82.48016951870582,82.8421797374873,82.08579276624509,83.194744527381,85.37277253476185,83.36188113364618
37.755,82.76638533149708,83.11930009393943,82.38512783743928,83.46911522922109,85.63358333166008,83.63810602874364
38.3041,83.02860506271035,83.37344408649462,82.66078992611804,83.72030208087114,85.87234738531653,83.89137554223794
38.8613,83.26820184462805,83.60591839688306,82.91167412406207,83.9483454742913,86.08997724672989,84.12226939043029
39.4265,83.49145527800236,83.82208439907933,83.14700310016777,84.16059070264355,86.29191344064114,84.33728442509874
40.0,83.70105556370756,84.02492730984879,83.36923472135427,84.35947579784563,86.48019455940131,84.53887526247505
40.5818,83.89765745742731,84.21511455493345,83.577937255689,84.54473975933867,86.65530641756463,84.72730503096557
41.1721,84.07993630599506,84.3899533576005,83.77095276864469,84.71564767139587,86.81644674724411,84.90115242339809
41.771,84.24324241315847,84.54782729767956,83.94271726304207,84.86742320648356,86.9611990313841,85.05682995667173
42.3785,84.39687410913149,84.69503197347966,84.10522036070115,85.00941031599211,87.09614012577029,85.20267691352964
42.9949,84.54218215747991,84.83492584796262,84.2600414531174,85.14401153699056,87.22309151870027,85.34078427253002
43.6203,84.68115914358644,84.968150950023,84.40760331439176,85.27163464094006,87.34367392049586,85.47224142804457
44.2548,84.80914438843294,85.09039029516526,84.54232810933267,85.38788955641527,87.45432946725015,85.59269383747116
44.8985,84.92714938255958,85.20330027372157,84.66506002686899,85.4940347407133,87.55661298767521,85.70345030948079
45.5515,85.04148817699298,85.31187781959946,84.78323407005436,85.59637060598082,87.6544981016914,85.81004321229392
46.2141,85.15215261157864,85.4171425623781,84.89828817514174,85.69531766952177,87.74974856727442,85.91349918249777
46.8863,85.26016111605293,85.519736219364,85.01107828611677,85.79149182155989,87.84197060075195,86.01423568910458
47.5683,85.35984692490976,85.61399856931563,85.10983141631604,85.87858481013572,87.92750043484618,86.106104265075
48.2602,85.45719146914757,85.70560354315504,85.2063126030229,85.96387593404799,88.01068056835534,86.19569399424418
48.9621,85.55254616082499,85.7962125508489,85.30108398801067,86.04697563693067,88.09256330055238,86.28369598192526
49.6743,85.64723602528645,85.88548879776462,85.39544546233054,86.12952359177751,88.17320924165084,86.37081027942453
50.3968,85.7379273089827,85.97076229970885,85.48232682373899,86.20812301673482,88.25166869658209,86.4539340944272
51.1299,85.82894282491014,86.05603842843128,85.56776966158921,86.2857868563317,88.32979021992503,86.53660985979042
51.8736,85.91930179637986,86.14097856402762,85.65335509273959,86.36403714829285,88.40796622031492,86.61926934592942
52.6281,86.00299688444449,86.21959585372255,85.73194366630636,86.43552149990371,88.47934304054215,86.6952177908222
53.3936,86.09700265757829,86.30854600426436,85.81934393080331,86.51764172275276,88.56228432560505,86.78168485911351
54.1702,86.18433123077624,86.39117231757493,85.89958342264781,86.59361111430205,88.6384038253396,86.8615202772572
54.9581,86.27333785309071,86.47478951081482,85.980684716358,86.67055704858613,88.71635409441296,86.94269783099828
55.7575,86.36300294910798,86.55942013728401,86.06320761570441,86.74932655247137,88.79548886855845,87.02510091878253
56.5685,86.45230564238982,86.64472325860461,86.14554618643712,86.8276981798183,88.87519477073724,87.10763360665632
57.3914,86.54128029575426,86.72970368968303,86.22789077170464,86.90725989642002,88.95490322113234,87.19027988077423
58.2261,86.6315779578694,86.81535110382501,86.31052084943823,86.98642516735435,89.03525919080717,87.2734430583119
59.073,86.72020446578334,86.90134727356451,86.39371762954899,87.06694014832402,89.1156858508255,87.35674831322196
59.9323,86.80879524130594,86.9873665915998,86.47820355831428,87.14803442035208,89.19681620412115,87.44057964622124
60.804,86.89908271197467,87.07538014337986,86.5639802895829,87.23029453224642,89.27977005481816,87.52603699593001
61.6884,86.99034180129448,87.16407022233338,86.65148613100769,87.31476067598604,89.36388183237503,87.61282247332662
62.5857,87.0799275265988,87.25378973351577,86.74142365807361,87.40024143467987,89.44874010841801,87.700307786582
63.496,87.17050103612523,87.3441871989177,86.83137297797846,87.48655812945836,89.53469214911668,87.78857295272334
64.4196,87.26175892518313,87.43524282228402,86.92290762174007,87.57347253175675,89.6207305998795,87.87746858146286
65.3566,87.34966699625849,87.5246654240532,87.01416833931526,87.66059248692903,89.7069728875304,87.96554414123857
66.3073,87.43792004224935,87.61542826105047,87.10686731428112,87.7482621675352,89.79394254883589,88.05447340196021
67.2717,87.52750481732929,87.70686382902691,87.20014543727297,87.836958699196,89.88160141468612,88.14424659447317
68.2502,87.61476881489281,87.79798278402036,87.29371651438595,87.92527758155397,89.96991043665186,88.23373159293364
69.2429,87.70270002120253,87.88978588822485,87.38814918892007,88.01559711116099,90.0590919907118,88.32422888127749
70.2501,87.79131249865281,87.98291286253155,87.48429899735167,88.10649170498958,90.14937252991055,88.4157967056201
71.2719,87.8772636539568,88.07406778749953,87.57759198872162,88.19587709372345,90.23921895563434,88.50567623137233
72.3086,87.96356124348242,88.16555406012938,87.67145630606512,88.28569444106392,90.32959637116666,88.59600788282339
73.3603,88.05019382018637,88.25770465386731,87.76532177152885,88.37587050722672,90.42025428354636,88.68666953755654
74.4274,88.13351132888982,88.34718329586624,87.85560893911723,88.46303212951891,90.51012871851572,88.77490202723914
75.5099,88.21715935935828,88.43701280181492,87.94660893911723,88.55102482865419,90.60006357659059,88.86354462599907
76.6083,88.30048545255372,88.52614346250064,88.03575274711801,88.63759345592862,90.68999212574464,88.951438895525
77.7226,88.38182556307119,88.61392662651912,88.12217877533955,88.72200771466558,90.77967997282357,89.03783565473225
78.8531,88.46449586807685,88.70236728915249,88.21017446424365,88.80783475205764,90.87031129472139,89.12538110530647
80.0,88.54485141414528,88.78877700162785,88.29402728268808,88.88991778332286,90.96007796523376,89.21053721558688
81.1636,88.62487907719314,88.87484219990986,88.37730742726964,88.971411915961,91.049826879231,89.29537014514098
82.3442,88.70491368530324,88.96021044071335,88.46030292097797,89.05234165498922,91.13980785241023,89.37999976675636
83.5419,88.78429898749769,89.04418923478232,88.54030186974268,89.13072124994866,91.22980040407606,89.46331584928717
84.757,88.8636832527084,89.12853138530694,88.62072964545068,89.20932471669887,91.32020688490203,89.54693815915346
85.9899,88.9417502635033,89.21083099549185,88.69887888816484,89.28517265392702,91.41033759944752,89.62900970849711
87.2406,89.01949104923509,89.2927854153793,88.77660484885017,89.36044570961164,91.5003574492278,89.71076244914249
88.5096,89.09689772728942,89.37374118890753,88.85248232056199,89.43454013017909,91.59048201337279,89.79180134881413
89.797,89.17363689655522,89.45368555058184,88.92665330223548,89.50705529844444,91.68097795401206,89.87209983733274
91.1031,89.25038554634509,89.53363096127394,89.00068984220363,89.5797750611579,91.77193229863477,89.95256718585553
92.4282,89.32577703705235,89.61124456234211,89.07202163387079,89.65052986315324,91.86242440013405,90.03145805255956
93.7726,89.40083382950662,89.68887221668876,89.14236182265276,89.72107658090098,91.95294027782415,90.11012001277521
95.1366,89.47386046267906,89.76385977357091,89.20956387715566,89.78904966314667,92.04308778914472,90.18689026084745
96.5204,89.54689263445029,89.83884748695246,89.27633865936875,89.85720118357663,92.13311820130373,90.26360980928237
97.9243,89.61756645560448,89.91152905410715,89.3356610695726,89.92300650569189,92.22232074616352,90.33766557165987
99.3486,89.68757175455991,89.98321128001537,89.39454849657625,89.98898818437738,92.31148918717021,90.41140725234652
100.794,89.75222397740558,90.04960057718839,89.44410533139177,90.04924722250945,92.39686752748003,90.47962702681008
102.26,89.81488277513922,90.11399127439483,89.49180144567356,90.10791243341235,92.48058707115118,90.54608698702087
103.747,89.87953656256467,90.1803833712934,89.54177588886964,90.168033830055,92.56771481851332,90.61497059003497
105.256,89.9445298810956,90.24746917090692,89.59218149463078,90.22934133179805,92.65613138418755,90.68476442637916
106.787,90.0081923849377,90.31287537926988,89.64215297174738,90.28772765553754,92.74466828043361,90.75351924480327
108.34,90.07085616663848,90.3772828373962,89.69155167405243,90.34572091958765,92.83295884780587,90.82173566402564
109.916,90.1315212266901,90.44004961645788,89.7415174677278,90.4015800014299,92.92182177646947,90.8892568058981
111.515,90.19152898869767,90.50145403637927,89.79120717526807,90.45626235158775,93.01037898860231,90.95612493351834
113.137,90.24787144443114,90.56023611618731,89.84017709741669,90.50738798334794,93.09822488049032,91.02099076532541
114.783,90.30287262590375,90.61735076540553,89.88929355084923,90.55712369044794,93.18596599490348,91.08513532120998
116.452,90.35488344532861,90.67181644737187,89.93855939890555,90.60450928634282,93.27380338974872,91.14800915001331
118.146,90.40288577721522,90.7226344941999,89.98583035512316,90.64830389060671,93.35909600892418,91.20786719897032
119.865,90.44855425463619,90.77147215158965,90.03325529880269,90.690304028158,93.44489224165757,91.26693390698622
121.608,90.48755735509066,90.81469946903549,90.07811943439114,90.72811873468098,93.52804248031143,91.32198963679987
123.377,90.52290829416934,90.85593635001192,90.11955965403321,90.76352151525384,93.60950652035487,91.37468699227745
125.171,90.55058383941719,90.88986735638073,90.15529569856314,90.79271219211465,93.68703097288127,91.42167744444772
126.992,90.57361739034235,90.92078975504975,90.18603669219709,90.81890254173317,93.761888032927,91.46532477712066
128.839,90.5919757049499,90.94775877459563,90.211779928247,90.84207864614046,93.8340770208681,91.5054636756548
130.713,90.6013663204199,90.96836451931391,90.22637864256265,90.85800340676958,93.90004873179844,91.53813464235976
132.615,90.60675947381726,90.98564330333932,90.23483211827337,90.86975310644829,93.96222519819298,91.56678535021416
134.543,90.60651655207552,90.99788823914477,90.23556484140381,90.87607500190103,94.01912909990656,91.58990235439613
136.5,90.60095417450177,91.00644935621958,90.22657609433277,90.87499846747787,94.06915632606314,91.60658795100646
138.486,90.60107570596142,91.02066032567053,90.22043716264935,90.8779004466665,94.12340176192086,91.62787912972252
140.5,90.59288342647085,91.02685419173628,90.20243716264933,90.86978470846213,94.16702667671163,91.63926487093042
142.544,90.57671153694103,91.02502872120236,90.17128687687845,90.84889361883745,94.19822790762535,91.63966843087906
144.617,90.56788194005455,91.03058454612437,90.14542287409039,90.83280533338471,94.23449306970758,91.64602062524628
146.721,90.55906186491943,91.03614421490732,90.11612357943275,90.81274710717254,94.268045860241,91.65038238666673
148.855,90.54256711693009,91.0330879537962,90.07696432860484,90.78129114400075,94.29083483620526,91.64499192139462
151.02,90.5257588525503,91.03039457561474,90.03551965913235,90.74624131155007,94.31217161749879,91.63831104269799
153.217,90.50926180574444,91.02742366779256,89.99350179970972,90.70985767058988,94.3326972446179,91.63117317746614
155.445,90.49243307007876,91.02348784336723,89.95062524791994,90.67109883026606,94.35264234011942,91.62323975117816
157.706,90.47459193050392,91.01825471183483,89.90674962806094,90.62900995694389,94.37181563310537,91.61411124982746
160.0,90.45605637268392,91.01103350252573,89.86216200561444,90.58463065001445,94.39051210778189,91.6040407545361
162.327,90.43550607624199,91.00115621594772,89.81686163945159,90.53712936902274,94.40891831935446,91.59265727341432
164.688,90.42459118136706,90.99859695551132,89.78027558806895,90.49654187240779,94.43685811503238,91.59008429941888
167.084,90.40699728678665,90.98898699224307,89.73655009170011,90.44748616843565,94.459824611634,91.5812652172348
169.514,90.38270614387035,90.97171633026713,89.68582516061385,90.38939215799961,94.47908252956546,91.56654012052878
171.98,90.35641745760276,90.95242181000779,89.63095412317367,90.3284094000293,94.49961753142263,91.55090535693472
174.481,90.33481459346638,90.93910239640354,89.57837021606068,90.27136205465075,94.52687350787168,91.54081313471366
177.019,90.31022971284268,90.92342520177813,89.51878246799578,90.2105302342385,94.55360261174891,91.52846905611773
179.594,90.27334656727547,90.89775343996848,89.44519706160636,90.13777417519364,94.57095352114811,91.5055444039155
182.206,90.22515002464567,90.86211894980161,89.35547380140767,90.05245272690789,94.57782853095775,91.47142519402263
184.856,90.16934507488803,90.82185522341122,89.25589788017685,89.95995305255026,94.57999189465501,91.43154019488773
187.545,90.11025177469806,90.77999635940434,89.15047372103373,89.86337273955387,94.58117212373253,91.38957206762358
190.273,90.03087455137086,90.7206449579755,89.02391564200116,89.74703294420645,94.56801555913269,91.3306798876397
193.041,89.93723438969425,90.65011153326667,88.88151231341368,89.61744216078317,94.54758523915042,91.2614402803722
195.849,89.82933692209653,90.56807611463822,88.72411460742077,89.47718292619601,94.52249273695111,91.18347176839308
198.697,89.70283287506264,90.47091860684385,88.54816064217977,89.32399793311221,94.48951008409108,91.09353852449007
201.587,89.5690732129734,90.36998877830614,88.36420909344861,89.17096963149288,94.4595392004131,91.00307773507734
204.52,89.4346704567405,90.271307182312,88.17940546736375,89.0256499731581,94.43675793747491,90.91782855528461
207.494,89.3079536743023,90.18181560309525,87.99989063092067,88.89232582863517,94.42372479496876,90.84260569204551
210.512,89.18847334283498,90.10023702969511,87.82564475931929,88.76907424712807,94.41645771883893,90.77507210306447
213.574,89.08390772524103,90.03317341132743,87.6645459927897,88.6605106160336,94.41949536326756,90.72085745385482
216.681,88.99784775962647,89.9815513651819,87.5200134666554,88.56655603189856,94.43436119935575,90.68157622515236
219.833,88.91499695594705,89.93108566843028,87.37862778947853,88.47289237045678,94.44801476391126,90.64339750520138
223.03,88.83171446075048,89.87669292548294,87.23597179763439,88.37521686424292,94.45836980045765,90.60297850132437
226.274,88.7460905131332,89.81874904856939,87.09002847763614,88.27308951207489,94.46775439214161,90.56101812770626
229.565,88.66090101590487,89.76141457692738,86.93921572604253,88.16789318117831,94.4779105880672,90.51950459430384
232.905,88.57785824334032,89.70778458603647,86.78136826441455,88.05994733710737,94.48965042978313,90.47949215488609
236.292,88.49705975571605,89.66044045678886,86.61292620696844,87.95195910326017,94.50511434619249,90.44259764767413
239.729,88.41954100607518,89.62104005829838,86.43231268055163,87.8444988023721,94.52504944260569,90.40967479127512
