Freq,Floor Bounce,Ceiling Bounce,Front Wall Bounce,Side Wall Bounce,Rear Wall Bounce,Total Early Reflection
20.0,59.065052970703576,60.36632625880564,58.097866609695515,60.60208320194239,63.42436517721407,60.71030036831917
20.2909,59.56131505648774,60.83334735759718,58.60332116911722,61.07401612195865,63.883731652688084,61.183666424261645
20.586,60.09233704871825,61.33577106866176,59.14455700497284,61.58066179656463,64.37871634537406,61.692395243097366
20.8855,60.63232440323695,61.84512793617979,59.695397701380145,62.09527571900993,64.88309631475067,62.20981311553096
21.1893,61.19841192856548,62.38088672057542,60.27436251254174,62.63619556512862,65.41469979894619,62.75413254043234
21.4975,61.77632564309302,62.928662932983926,60.86505497956358,63.18926980612672,65.95792675294378,63.310355038588455
21.8102,62.35961224465031,63.481456561862714,61.46205317164332,63.74691286532287,66.50618732287221,63.871775960033744
22.1274,62.94338936535398,64.03457069617518,62.059371838000004,64.30528889325626,67.05520038428608,64.43384699413392
22.4492,63.524595940559195,64.58571728496563,62.65565071394833,64.86153608811505,67.60144918641119,64.99371785591845
22.7758,64.10318181946853,65.13324621238057,63.24943344557421,65.41471515860185,68.14514918111055,65.55081088805007
23.1071,64.67886917714884,65.67773320807613,63.84117320951428,65.9649054504895,68.68585837617621,66.10510133494206
23.4432,65.25337234754248,66.22161532615452,64.43226433406299,66.51382846032394,69.22565885641083,66.65853361505079
23.7841,65.88915854453622,66.82915235457901,65.07963722675397,67.12602566343196,69.82157835933717,67.27167351445424
24.1301,66.52336010319216,67.43476281951725,65.72545855696771,67.73649576048197,70.41613176013324,67.88329755512726
24.4811,67.15531314228915,68.03833589785964,66.37020081920035,68.34404803812033,71.0081188723769,68.4926873076456
24.8372,67.78434985179973,68.63860774506894,67.01176708245181,68.94966843737936,71.59759355300424,69.09947214192279
25.1984,68.4108021663835,69.23621780107621,67.65106438752458,69.55233663435683,72.18440942474349,69.70367825059994
25.5649,69.03433830271815,69.83089589407703,68.28769898279803,70.15187305204437,72.76808937200444,70.30495691840456
25.9368,69.65462667731451,70.42222087691603,68.92178372796185,70.74790828588098,73.3489328339276,70.90323323774759
26.3141,70.2716311848899,71.00988507969997,69.55281614319522,71.3410007159627,73.92588923166771,71.49812363952815
26.6968,70.90411070618634,71.61999122175664,70.19749950741353,71.95395666669816,74.52101350576719,72.11136580523943
27.0851,71.53466814229832,72.22879969631795,70.84126758633674,72.56636069853884,75.11529737585892,72.72363629358712
27.4791,72.16094097774801,72.83362103645631,71.4802642557408,73.17421441733391,75.70442280633019,73.33132621045739
27.8788,72.78126078066353,73.4317675988263,72.11348944595633,73.77547269012085,76.2875821725314,73.93289932314609
28.2843,73.39495877385323,74.0236150765676,72.73994306351901,74.37060643232765,76.86447477471353,74.5281758581996
28.6957,74.00101231060451,74.60816212887917,73.36010562292795,74.95835057114924,77.4340291212785,75.11627218521811
29.1131,74.5998055339496,75.18434850598464,73.97253508808964,75.53877163163064,77.99564488271112,75.69667720906463
29.5365,75.19045414143835,75.75692029459557,74.5764098927129,76.1130932461494,78.5521758297023,76.27118791274614
29.9661,75.77188622534088,76.32255029832216,75.17159850464112,76.68004409696887,79.10115578020721,76.83793678074242
30.402,76.3430114622122,76.87750479856352,75.75591013682423,77.23643894290346,79.63913138996715,77.39401083162856
30.8442,76.90013651439752,77.41815456152912,76.32634469774271,77.77885360471234,80.16359920396728,77.93627466826855
31.2929,77.44431084138877,77.9457709474905,76.88390208907485,78.3076981373771,80.67483957655678,78.46542952206539
31.748,77.9735093266088,78.4594411499081,77.42726426977198,78.82274296469664,81.17185015690109,78.98043303589587
32.2098,78.48806253910863,78.95776398909373,77.95552703983279,79.32262677035435,81.6535126109031,79.48032953692524
32.6783,78.97774007519756,79.43546509793029,78.45897809112329,79.79998837785745,82.1146517765182,79.95805679904554
33.1536,79.44979430981205,79.89549286265874,78.9448185954155,80.25979420866405,82.55782252505519,80.41810140239791
33.6359,79.90417890339195,80.33788600305363,79.41311018343998,80.70156822518778,82.98337047235992,80.86049392004617
34.1251,80.33857597457472,80.76061683682762,79.86124093928889,81.12318500840901,83.38915575102791,81.2830206878816
34.6215,80.75266486632007,81.16267509300604,80.28985628771916,81.5254073339177,83.77448715745531,81.68546658892885
35.125,81.14843445601805,81.546414326006,80.69913414772631,81.90824280893756,84.14129031554903,82.06922132726451
35.6359,81.51160585883518,81.90050503583741,81.07567743529752,82.25995046053657,84.4789896318669,82.42233483710841
36.1543,81.85413020341971,82.23427618085309,81.43185723798346,82.591268597009,84.79674852950578,82.75521694987357
36.6802,82.17731234945246,82.54805726497067,81.76864745763855,82.90281228361656,85.09474294252071,83.06845591237851
37.2137,82.48016951870581,82.8421797374873,82.08579276624509,83.19474452738099,85.37277253476184,83.36188113364618
37.755,82.76638533149709,83.11930009393943,82.38512783743927,83.46911522922109,85.63358333166006,83.63810602874364
38.3041,83.02860506271035,83.37344408649462,82.66078992611806,83.72030208087114,85.87234738531653,83.89137554223792
38.8613,83.26820184462805,83.60591839688304,82.91167412406209,83.9483454742913,86.08997724672987,84.12226939043029
39.4265,83.49145527800236,83.82208439907933,83.14700310016778,84.16059070264355,86.29191344064115,84.33728442509876
40.0,83.70105556370757,84.02492730984879,83.36923472135427,84.35947579784565,86.48019455940131,84.53887526247505
40.5818,83.89765745742731,84.21511455493344,83.577937255689,84.54473975933867,86.65530641756463,84.72730503096554
41.1721,84.07993630599505,84.3899533576005,83.7709527686447,84.71564767139587,86.81644674724411,84.90115242339809
41.771,84.24324241315847,84.54782729767953,83.94271726304207,84.86742320648356,86.96119903138411,85.05682995667173
42.3785,84.39687410913149,84.69503197347967,84.10522036070115,85.00941031599213,87.09614012577028,85.20267691352963
42.9949,84.54218215747991,84.83492584796262,84.2600414531174,85.14401153699058,87.22309151870027,85.34078427253
43.6203,84.68115914358644,84.968150950023,84.40760331439178,85.27163464094006,87.34367392049587,85.47224142804457
44.2548,84.80914438843295,85.09039029516528,84.54232810933267,85.38788955641527,87.45432946725016,85.59269383747117
44.8985,84.92714938255956,85.20330027372158,84.66506002686896,85.4940347407133,87.5566129876752,85.70345030948079
45.5515,85.041488176993,85.31187781959947,84.78323407005436,85.59637060598082,87.65449810169142,85.81004321229393
46.2141,85.15215261157866,85.41714256237809,84.89828817514176,85.69531766952177,87.74974856727442,85.91349918249779
46.8863,85.26016111605293,85.519736219364,85.01107828611677,85.79149182155989,87.84197060075194,86.01423568910458
47.5683,85.35984692490976,85.61399856931563,85.10983141631606,85.87858481013572,87.92750043484618,86.10610426507499
48.2602,85.45719146914756,85.70560354315505,85.20631260302288,85.96387593404798,88.01068056835534,86.19569399424418
48.9621,85.55254616082499,85.79621255084892,85.30108398801067,86.04697563693068,88.09256330055238,86.28369598192526
49.6743,85.64723602528643,85.88548879776461,85.39544546233053,86.12952359177751,88.17320924165084,86.37081027942453
50.3968,85.73792730898272,85.97076229970887,85.48232682373899,86.2081230167348,88.2516686965821,86.4539340944272
51.1299,85.82894282491014,86.0560384284313,85.5677696615892,86.28578685633171,88.32979021992504,86.53660985979043
51.8736,85.91930179637987,86.14097856402762,85.6533550927396,86.36403714829284,88.40796622031492,86.61926934592944
52.6281,86.00299688444449,86.21959585372255,85.73194366630636,86.43552149990373,88.47934304054213,86.6952177908222
53.3936,86.09700265757827,86.30854600426436,85.8193439308033,86.51764172275276,88.56228432560506,86.7816848591135
54.1702,86.18433123077624,86.39117231757493,85.89958342264781,86.59361111430206,88.63840382533958,86.86152027725718
54.9581,86.2733378530907,86.4747895108148,85.980684716358,86.67055704858613,88.71635409441298,86.94269783099828
55.7575,86.36300294910798,86.559420137284,86.06320761570441,86.74932655247137,88.79548886855845,87.02510091878251
56.5685,86.45230564238982,86.64472325860461,86.14554618643712,86.82769817981831,88.87519477073722,87.10763360665631
57.3914,86.54128029575425,86.72970368968303,86.22789077170464,86.90725989642002,88.95490322113234,87.19027988077421
58.2261,86.6315779578694,86.81535110382501,86.31052084943823,86.98642516735435,89.03525919080717,87.27344305831188
59.073,86.72020446578334,86.9013472735645,86.39371762954899,87.06694014832401,89.1156858508255,87.35674831322196
59.9323,86.80879524130594,86.9873665915998,86.47820355831426,87.14803442035208,89.19681620412113,87.44057964622122
60.804,86.89908271197469,87.07538014337987,86.5639802895829,87.23029453224642,89.27977005481817,87.52603699593003
61.6884,86.99034180129448,87.16407022233338,86.65148613100767,87.31476067598604,89.36388183237503,87.61282247332662
62.5857,87.0799275265988,87.25378973351577,86.74142365807361,87.40024143467987,89.448740108418,87.700307786582
63.496,87.17050103612524,87.3441871989177,86.83137297797846,87.48655812945834,89.53469214911668,87.78857295272336
64.4196,87.26175892518312,87.43524282228402,86.92290762174008,87.57347253175674,89.6207305998795,87.87746858146285
65.3566,87.34966699625849,87.5246654240532,87.01416833931528,87.66059248692905,89.7069728875304,87.96554414123857
66.3073,87.43792004224936,87.61542826105047,87.1068673142811,87.74826216753522,89.79394254883589,88.05447340196021
67.2717,87.52750481732929,87.70686382902693,87.20014543727295,87.836958699196,89.8816014146861,88.14424659447319
68.2502,87.61476881489283,87.79798278402036,87.29371651438595,87.92527758155398,89.96991043665186,88.23373159293364
69.2429,87.70270002120253,87.88978588822485,87.38814918892007,88.01559711116097,90.0590919907118,88.32422888127749
70.2501,87.7913124986528,87.98291286253153,87.48429899735169,88.10649170498958,90.14937252991056,88.4157967056201
71.2719,87.87726365395682,88.07406778749953,87.57759198872162,88.19587709372345,90.23921895563434,88.50567623137233
72.3086,87.96356124348242,88.16555406012937,87.67145630606514,88.28569444106391,90.32959637116666,88.59600788282339
73.3603,88.05019382018635,88.25770465386731,87.76532177152885,88.37587050722672,90.42025428354636,88.68666953755654
74.4274,88.13351132888981,88.34718329586624,87.85560893911723,88.46303212951891,90.51012871851573,88.77490202723912
75.5099,88.21715935935826,88.4370128018149,87.94660893911723,88.55102482865418,90.60006357659059,88.86354462599907
76.6083,88.30048545255372,88.52614346250066,88.03575274711802,88.63759345592864,90.68999212574464,88.95143889552502
77.7226,88.38182556307119,88.61392662651913,88.12217877533955,88.72200771466558,90.77967997282356,89.03783565473226
78.8531,88.46449586807685,88.7023672891525,88.21017446424365,88.80783475205766,90.87031129472139,89.12538110530649
80.0,88.54485141414527,88.78877700162785,88.29402728268808,88.88991778332286,90.96007796523376,89.21053721558688
81.1636,88.62487907719314,88.87484219990986,88.37730742726966,88.97141191596099,91.049826879231,89.29537014514099
82.3442,88.70491368530323,88.96021044071335,88.46030292097797,89.05234165498923,91.13980785241023,89.37999976675634
83.5419,88.78429898749769,89.04418923478231,88.54030186974268,89.13072124994866,91.22980040407607,89.46331584928717
84.757,88.86368325270841,89.12853138530694,88.62072964545068,89.20932471669887,91.32020688490203,89.54693815915346
85.9899,88.94175026350331,89.21083099549186,88.69887888816484,89.28517265392702,91.41033759944752,89.6290097084971
87.2406,89.0194910492351,89.2927854153793,88.77660484885017,89.36044570961164,91.5003574492278,89.71076244914249
88.5096,89.09689772728942,89.37374118890752,88.852482320562,89.43454013017909,91.59048201337278,89.79180134881415
89.797,89.17363689655522,89.45368555058184,88.92665330223548,89.50705529844446,91.68097795401206,89.87209983733273
91.1031,89.25038554634509,89.53363096127394,89.00068984220361,89.57977506115789,91.77193229863475,89.95256718585553
92.4282,89.32577703705236,89.6112445623421,89.0720216338708,89.65052986315325,91.86242440013405,90.03145805255956
93.7726,89.40083382950662,89.68887221668876,89.14236182265276,89.72107658090098,91.95294027782415,90.1101200127752
95.1366,89.47386046267906,89.76385977357093,89.20956387715566,89.78904966314668,92.04308778914472,90.18689026084745
96.5204,89.5468926344503,89.83884748695245,89.27633865936875,89.85720118357663,92.13311820130374,90.26360980928239
97.9243,89.61756645560448,89.91152905410713,89.3356610695726,89.9230065056919,92.2223207461635,90.33766557165987
99.3486,89.6875717545599,89.98321128001537,89.39454849657625,89.98898818437736,92.31148918717022,90.41140725234654
100.794,89.75222397740558,90.04960057718839,89.44410533139175,90.04924722250945,92.39686752748003,90.47962702681008
102.26,89.81488277513922,90.11399127439482,89.49180144567357,90.10791243341235,92.48058707115118,90.54608698702089
103.747,89.87953656256467,90.18038337129339,89.54177588886962,90.168033830055,92.56771481851332,90.61497059003497
105.256,89.9445298810956,90.24746917090692,89.59218149463076,90.22934133179805,92.65613138418755,90.68476442637913
106.787,90.00819238493771,90.31287537926988,89.64215297174738,90.28772765553755,92.74466828043361,90.75351924480327
108.34,90.07085616663848,90.37728283739618,89.69155167405243,90.34572091958763,92.83295884780587,90.82173566402564
109.916,90.1315212266901,90.44004961645788,89.74151746772782,90.4015800014299,92.92182177646947,90.88925680589809
111.515,90.19152898869767,90.50145403637926,89.79120717526807,90.45626235158775,93.01037898860231,90.95612493351834
113.137,90.24787144443115,90.56023611618731,89.84017709741669,90.50738798334794,93.09822488049033,91.02099076532541
114.783,90.30287262590375,90.61735076540555,89.88929355084923,90.55712369044794,93.1859659949035,91.08513532120999
116.452,90.35488344532861,90.67181644737188,89.93855939890555,90.6045092863428,93.27380338974872,91.14800915001331
118.146,90.40288577721523,90.72263449419991,89.98583035512316,90.64830389060671,93.35909600892418,91.20786719897032
119.865,90.44855425463619,90.77147215158966,90.03325529880269,90.690304028158,93.44489224165757,91.26693390698622
121.608,90.48755735509066,90.8146994690355,90.07811943439114,90.72811873468096,93.52804248031141,91.32198963679988
123.377,90.52290829416934,90.85593635001192,90.11955965403321,90.76352151525383,93.60950652035487,91.37468699227745
125.171,90.55058383941719,90.88986735638072,90.15529569856314,90.79271219211466,93.68703097288126,91.42167744444774
126.992,90.57361739034233,90.92078975504974,90.18603669219708,90.81890254173315,93.76188803292699,91.46532477712064
128.839,90.5919757049499,90.94775877459561,90.211779928247,90.84207864614048,93.83407702086811,91.5054636756548
130.713,90.6013663204199,90.96836451931391,90.22637864256265,90.8580034067696,93.90004873179844,91.53813464235976
132.615,90.60675947381726,90.98564330333933,90.23483211827337,90.86975310644829,93.96222519819297,91.56678535021416
134.543,90.60651655207552,90.99788823914479,90.23556484140381,90.87607500190101,94.01912909990658,91.58990235439613
136.5,90.60095417450177,91.00644935621956,90.22657609433277,90.87499846747787,94.06915632606312,91.60658795100646
138.486,90.60107570596142,91.02066032567053,90.22043716264935,90.8779004466665,94.12340176192086,91.62787912972252
140.5,90.59288342647085,91.02685419173628,90.20243716264933,90.86978470846212,94.16702667671164,91.63926487093042
142.544,90.57671153694103,91.02502872120236,90.17128687687847,90.84889361883745,94.19822790762535,91.63966843087907
144.617,90.56788194005455,91.03058454612436,90.14542287409039,90.83280533338473,94.23449306970758,91.64602062524628
146.721,90.55906186491943,91.03614421490731,90.11612357943275,90.81274710717254,94.26804586024102,91.65038238666675
148.855,90.5425671169301,91.0330879537962,90.07696432860482,90.78129114400076,94.29083483620526,91.64499192139462
151.02,90.5257588525503,91.03039457561472,90.03551965913235,90.74624131155007,94.31217161749878,91.63831104269799
153.217,90.50926180574443,91.02742366779256,89.99350179970973,90.70985767058988,94.3326972446179,91.63117317746614
155.445,90.49243307007876,91.02348784336723,89.95062524791994,90.67109883026606,94.35264234011942,91.62323975117816
157.706,90.47459193050393,91.01825471183481,89.90674962806095,90.6290099569439,94.37181563310537,91.61411124982747
160.0,90.45605637268392,91.01103350252573,89.86216200561442,90.58463065001446,94.39051210778187,91.6040407545361
162.327,90.43550607624199,91.00115621594772,89.8168616394516,90.53712936902274,94.40891831935444,91.59265727341432
164.688,90.42459118136706,90.9985969555113,89.78027558806893,90.49654187240779,94.43685811503236,91.59008429941888
167.084,90.40699728678665,90.98898699224306,89.7365500917001,90.44748616843565,94.459824611634,91.5812652172348
169.514,90.38270614387035,90.97171633026711,89.68582516061385,90.38939215799961,94.47908252956545,91.56654012052878
171.98,90.35641745760276,90.95242181000778,89.63095412317365,90.32840940002932,94.49961753142263,91.55090535693472
174.481,90.33481459346638,90.93910239640353,89.57837021606069,90.27136205465075,94.52687350787168,91.54081313471364
177.019,90.31022971284268,90.92342520177813,89.51878246799578,90.21053023423849,94.55360261174891,91.52846905611773
179.594,90.27334656727545,90.8977534399685,89.44519706160638,90.13777417519363,94.57095352114811,91.50554440391551
182.206,90.22515002464566,90.8621189498016,89.35547380140768,90.05245272690789,94.57782853095775,91.47142519402263
184.856,90.16934507488804,90.82185522341122,89.25589788017682,89.95995305255026,94.57999189465501,91.43154019488773
187.545,90.11025177469807,90.77999635940434,89.15047372103372,89.86337273955387,94.58117212373251,91.38957206762358
190.273,90.03087455137084,90.7206449579755,89.02391564200114,89.74703294420645,94.56801555913269,91.3306798876397
193.041,89.93723438969424,90.65011153326667,88.88151231341367,89.61744216078318,94.54758523915044,91.26144028037221
195.849,89.82933692209653,90.56807611463822,88.72411460742077,89.47718292619602,94.5224927369511,91.18347176839306
198.697,89.70283287506264,90.47091860684387,88.54816064217977,89.32399793311221,94.48951008409108,91.09353852449007
201.587,89.5690732129734,90.36998877830614,88.3642090934486,89.17096963149288,94.4595392004131,91.00307773507734
204.52,89.43467045674052,90.27130718231199,88.17940546736376,89.0256499731581,94.43675793747491,90.91782855528461
207.494,89.30795367430228,90.18181560309525,87.99989063092067,88.89232582863517,94.42372479496875,90.8426056920455
210.512,89.18847334283497,90.10023702969511,87.82564475931927,88.76907424712807,94.41645771883891,90.77507210306447
213.574,89.08390772524105,90.03317341132741,87.6645459927897,88.6605106160336,94.41949536326756,90.72085745385482
216.681,88.99784775962647,89.9815513651819,87.52001346665541,88.56655603189856,94.43436119935575,90.68157622515236
219.833,88.91499695594705,89.93108566843027,87.37862778947853,88.47289237045678,94.44801476391126,90.64339750520138
223.03,88.83171446075046,89.87669292548293,87.23597179763438,88.37521686424292,94.45836980045765,90.60297850132436
226.274,88.7460905131332,89.81874904856939,87.09002847763615,88.27308951207489,94.46775439214163,90.56101812770628
229.565,88.66090101590488,89.76141457692738,86.93921572604252,88.16789318117831,94.47791058806722,90.51950459430385
232.905,88.57785824334032,89.70778458603645,86.78136826441455,88.05994733710737,94.48965042978313,90.47949215488607
236.292,88.49705975571607,89.66044045678886,86.61292620696844,87.95195910326018,94.5051143461925,90.44259764767415
