Freq "Ceiling Bounce"
20.0 60.36632625880564
20.2909 60.83334735759718
20.586 61.33577106866176
20.8855 61.84512793617979
21.1893 62.38088672057542
21.4975 62.928662932983926
21.8102 63.481456561862714
22.1274 64.03457069617518
22.4492 64.58571728496563
22.7758 65.13324621238057
23.1071 65.67773320807613
23.4432 66.22161532615452
23.7841 66.82915235457901
24.1301 67.43476281951725
24.4811 68.03833589785964
24.8372 68.63860774506894
25.1984 69.23621780107621
25.5649 69.83089589407703
25.9368 70.42222087691603
26.3141 71.00988507969997
26.6968 71.61999122175664
27.0851 72.22879969631795
27.4791 72.83362103645631
27.8788 73.4317675988263
28.2843 74.0236150765676
28.6957 74.60816212887917
29.1131 75.18434850598464
29.5365 75.75692029459557
29.9661 76.32255029832216
30.402 76.87750479856352
30.8442 77.41815456152912
31.2929 77.9457709474905
31.748 78.4594411499081
32.2098 78.95776398909373
32.6783 79.43546509793029
33.1536 79.89549286265874
33.6359 80.33788600305363
34.1251 80.76061683682762
34.6215 81.16267509300604
35.125 81.546414326006
35.6359 81.90050503583741
36.1543 82.23427618085309
36.6802 82.54805726497067
37.2137 82.8421797374873
37.755 83.11930009393943
38.3041 83.37344408649462
38.8613 83.60591839688304
39.4265 83.82208439907933
40.0 84.02492730984879
40.5818 84.21511455493344
41.1721 84.3899533576005
41.771 84.54782729767953
42.3785 84.69503197347967
42.9949 84.83492584796262
43.6203 84.968150950023
44.2548 85.09039029516528
44.8985 85.20330027372158
45.5515 85.31187781959947
46.2141 85.41714256237809
46.8863 85.519736219364
47.5683 85.61399856931563
48.2602 85.70560354315505
48.9621 85.79621255084892
49.6743 85.88548879776461
50.3968 85.97076229970887
51.1299 86.0560384284313
51.8736 86.14097856402762
52.6281 86.21959585372255
53.3936 86.30854600426436
54.1702 86.39117231757493
54.9581 86.4747895108148
55.7575 86.559420137284
56.5685 86.64472325860461
57.3914 86.72970368968303
58.2261 86.81535110382501
59.073 86.9013472735645
59.9323 86.9873665915998
60.804 87.07538014337987
61.6884 87.16407022233338
62.5857 87.25378973351577
63.496 87.3441871989177
64.4196 87.43524282228402
65.3566 87.5246654240532
66.3073 87.61542826105047
67.2717 87.70686382902693
68.2502 87.79798278402036
69.2429 87.88978588822485
70.2501 87.98291286253153
71.2719 88.07406778749953
72.3086 88.16555406012937
73.3603 88.25770465386731
74.4274 88.34718329586624
75.5099 88.4370128018149
76.6083 88.52614346250066
77.7226 88.61392662651913
78.8531 88.7023672891525
80.0 88.78877700162785
81.1636 88.87484219990986
82.3442 88.96021044071335
83.5419 89.04418923478231
84.757 89.12853138530694
85.9899 89.21083099549186
87.2406 89.2927854153793
88.5096 89.37374118890752
89.797 89.45368555058184
91.1031 89.53363096127394
92.4282 89.6112445623421
93.7726 89.68887221668876
95.1366 89.76385977357093
96.5204 89.83884748695245
97.9243 89.91152905410713
99.3486 89.98321128001537
100.794 90.04960057718839
102.26 90.11399127439482
103.747 90.18038337129339
105.256 90.24746917090692
106.787 90.31287537926988
108.34 90.37728283739618
109.916 90.44004961645788
111.515 90.50145403637926
113.137 90.56023611618731
114.783 90.61735076540555
116.452 90.67181644737188
118.146 90.72263449419991
119.865 90.77147215158966
121.608 90.8146994690355
123.377 90.85593635001192
125.171 90.88986735638072
126.992 90.92078975504974
128.839 90.94775877459561
130.713 90.96836451931391
132.615 90.98564330333933
134.543 90.99788823914479
136.5 91.00644935621956
138.486 91.02066032567053
140.5 91.02685419173628
142.544 91.02502872120236
144.617 91.03058454612436
146.721 91.03614421490731
148.855 91.0330879537962
151.02 91.03039457561472
153.217 91.02742366779256
155.445 91.02348784336723
157.706 91.01825471183481
160.0 91.01103350252573
162.327 91.00115621594772
164.688 90.9985969555113
167.084 90.98898699224306
169.514 90.97171633026711
171.98 90.95242181000778
174.481 90.93910239640353
177.019 90.92342520177813
179.594 90.8977534399685
182.206 90.8621189498016
184.856 90.82185522341122
187.545 90.77999635940434
190.273 90.7206449579755
193.041 90.65011153326667
195.849 90.56807611463822
198.697 90.47091860684387
201.587 90.36998877830614
204.52 90.27130718231199
207.494 90.18181560309525
210.512 90.10023702969511
213.574 90.03317341132741
216.681 89.9815513651819
219.833 89.93108566843027
223.03 89.87669292548293
226.274 89.81874904856939
229.565 89.76141457692738
232.905 89.70778458603645
236.292 89.66044045678886
239.729 89.62104005829839
243.216 89.59062403779798
246.754 89.56920525492562
250.343 89.54952503955361
253.984 89.53150823423722
257.678 89.51209348679215
261.426 89.48557375986654
265.229 89.45619565535141
269.087 89.4266702978196
273.001 89.40564700862237
276.972 89.39413104454505
281.0 89.3906256281039
285.088 89.38317692582335
289.234 89.36127021322821
293.441 89.3176233619012
297.709 89.25557204529512
302.04 89.20756427346281
306.433 89.24085815399276
310.89 89.31031196539017
315.412 89.40993665616806
320.0 89.48808130115201
324.655 89.50184158303976
329.377 89.41462606692717
334.168 89.22894717145165
339.028 88.96004795856183
343.959 88.65748900023459
348.962 88.36492267145229
354.038 88.12509397795228
359.188 87.97330993162002
364.412 87.92138166809852
369.713 87.96238639116247
375.09 88.05476709286496
380.546 88.13511772795314
386.081 88.14832557522254
391.697 88.07542338366402
397.394 87.93071233609051
403.175 87.74983230689944
409.039 87.56516026423324
414.989 87.40595024015481
421.025 87.28570017998874
427.149 87.1876688916567
433.362 87.06802307109824
439.665 86.87779300621538
446.06 86.60280063019127
452.548 86.27798516946119
459.131 85.9662398564365
465.809 85.7242210705199
472.584 85.57532562783992
479.458 85.4971219980827
486.432 85.44851632235951
493.507 85.37385084906808
500.686 85.22184866810467
507.968 84.88873439881856
515.357 84.59207056350395
522.853 84.21408779083055
530.458 83.85462661404925
538.174 83.52988772304364
546.002 83.1974223163655
553.943 82.79047555010641
562.001 82.274891524951
570.175 81.69468690048582
578.469 81.14138552330179
586.883 80.67051004402312
595.419 80.2130225927491
604.08 79.67312020456534
612.866 78.99951434133378
621.78 78.1743079123773
630.824 77.24235134092434
640.0 76.43262697237145
649.309 75.98176280588586
658.753 75.9371654506607
668.335 76.16975425643754
678.056 76.47953539808339
687.919 76.72355314559137
697.925 76.85353638146277
708.077 76.91567663274509
718.376 77.01366201495604
728.825 77.17750075092947
739.426 77.35455877623284
750.181 77.41858996153996
761.093 77.26988699255904
772.163 77.02445166417142
783.394 76.95383547394171
794.789 77.16868924634521
806.349 77.45857719377751
818.078 77.5478632957478
829.977 77.44569443033346
842.05 77.44555434876392
854.298 77.75723188314214
866.724 78.283457210273
879.33 78.8428206126382
892.12 79.3398509369484
905.097 79.78436290149692
918.262 80.30547588739037
931.618 80.88279065769866
945.169 81.47960217352951
958.917 81.89728768476448
972.864 82.1254858097056
987.015 82.32309007872308
1001.37 82.56777269619403
1015.94 82.71966993640834
1030.71 82.58413201150563
1045.71 82.12386443778007
1060.92 81.5498631980336
1076.35 81.26678155410946
1092.0 81.40334745250745
1107.89 81.75548416004592
1124.0 82.12669381452218
1140.35 82.61601305009737
1156.94 83.33689159091091
1173.77 84.22799710940306
1190.84 85.20124756591026
1208.16 86.20531688095865
1225.73 87.14160006259806
1243.56 87.77127219954761
1261.65 88.22568770539691
1280.0 88.76922874721818
1298.62 89.1212798457624
1317.51 89.09563983909733
1336.67 88.93795612088294
1356.11 88.69582246713507
1375.84 88.5263736305114
1395.85 88.60459678629839
1416.15 88.85155974685664
1436.75 89.0278032934849
1457.65 89.00819106749815
1478.85 88.9917808777961
1500.36 89.04752078110752
1522.19 88.97464972159763
1544.33 88.8067814886782
1566.79 88.62061332069224
1589.58 88.33486554210208
1612.7 87.89987927316052
1636.16 87.54739617672406
1659.95 87.37545250433226
1684.1 87.52389927253013
1708.6 88.1043804517764
1733.45 88.76950808258113
1758.66 89.30624290342433
1784.24 89.57750951550098
1810.19 89.53839828065766
1836.52 89.34596315307688
1863.24 88.9602321152057
1890.34 88.20968665041879
1917.83 87.18712103696416
1945.73 86.56557022424677
1974.03 86.26161351446551
2002.74 85.88938738359288
2031.87 85.4718386815036
2061.43 85.07599016434523
2091.41 84.45656360798874
2121.83 83.56231346862945
2152.69 82.61860722925262
2184.01 81.73073862612304
2215.77 81.07603245822874
2248.0 80.85567505319116
2280.7 80.87444526582664
2313.87 80.68168164482834
2347.53 80.23686759728788
2381.68 79.77778715279631
2416.32 79.67503051090998
2451.46 79.87698725904367
2487.12 80.6037184944626
2523.3 81.70486814217153
2560.0 82.7355917194638
2597.24 83.58042079686429
2635.01 84.42019827829752
2673.34 85.06098448896668
2712.23 85.2155661254996
2751.68 85.18493991433304
2791.7 85.10099763961439
2832.31 84.8516293684779
2873.5 84.33626852394387
2915.3 83.50451374817955
2957.7 82.71927009156336
3000.72 82.28570247300067
3044.37 82.04865906724883
3088.65 81.53754900878302
3133.58 80.73918093507443
3179.16 79.82928671411844
3225.4 78.60946633999605
3272.31 76.85339171978804
3319.91 74.82588654817155
3368.2 73.75427242921533
3417.19 74.779792382732
3466.89 76.77970873438586
3517.32 78.55409464276163
3568.48 79.43393028021707
3620.39 79.29084789387414
3673.05 78.31591325514577
3726.47 76.6113179080419
3780.67 74.94234689967307
3835.67 74.4443902217312
3891.46 75.02487662604089
3948.06 75.19054659264296
4005.49 75.10476174870358
4063.75 75.5803788173557
4122.86 75.9402229220129
4182.82 75.78181553549177
4243.66 75.69987442912237
4305.39 75.72240675254739
4368.01 75.37505871584682
4431.55 74.1679762621821
4496.01 72.82325006705659
4561.4 72.39209574826909
4627.75 72.54854699726253
4695.06 71.65017626987218
4763.35 68.5539633706527
4832.64 66.1123083021367
4902.93 65.61511132796228
4974.24 66.87750568499598
5046.6 69.468602762786
5120.0 72.09613009055036
5194.47 73.30392211198965
5270.03 73.34420534608665
5346.68 73.33810727512099
5424.45 72.69560465926857
5503.35 71.00785938402046
5583.4 71.07216780973386
5664.61 72.22433713469519
5747.01 72.52041265198675
5830.6 71.82392638427754
5915.41 70.58178047350496
6001.45 68.0850638545301
6088.74 65.46105650946664
6177.3 64.8795776294002
6267.15 67.2626371785825
6358.31 69.50485648635313
6450.8 70.33032195519294
6544.62 70.22647363452974
6639.82 70.30589836452683
6736.4 71.15503378638728
6834.38 72.43494914909739
6933.79 74.02561056833677
7034.64 75.41333019036156
7136.96 75.47296523274656
7240.77 74.42454843489229
7346.09 73.3535127303235
7452.94 71.45859543650319
7561.35 69.29024585249432
7671.33 68.68107115836936
7782.91 68.72788404656372
7896.12 67.06163452241488
8010.97 64.6721078543938
8127.49 66.4959273152501
8245.71 70.73187706932124
8365.65 72.97104952115022
8487.33 73.12504534990644
8610.78 72.44966406776534
8736.03 72.93656625980265
8863.09 75.93844718906374
8992.01 79.17024353274694
9122.8 80.32921606372628
9255.5 80.12061640984062
9390.12 79.21408253543198
9526.7 77.71373105966127
9665.27 75.07671959573734
9805.86 71.80176493074148
9948.49 70.64030899230448
10093.2 71.3768880675942
10240.0 71.2755515718437
10388.9 70.08750180456794
10540.1 68.24343660309192
10693.4 68.82188189450689
10848.9 72.3878942929856
11006.7 74.52226403453392
11166.8 74.41819517188829
11329.2 73.40380698979072
11494.0 73.05331278196867
11661.2 73.5043310394186
11830.8 73.93416383025003
12002.9 73.46611323982886
12177.5 71.72121585463148
12354.6 69.1607251122586
12534.3 66.83266473076905
12716.6 65.64753328373062
12901.6 64.71977009476805
13089.2 66.06186984905125
13279.6 69.32415328885844
13472.8 70.52589266919423
13668.8 70.67400575747227
13867.6 71.7259931709677
14069.3 73.09222790364869
14273.9 73.44283195231738
14481.5 71.09399107786925
14692.2 66.88561478167996
14905.9 64.99292534714218
15122.7 67.27256210434773
15342.7 67.99686025383184
15565.8 65.86349785678054
15792.2 63.99376085643371
16021.9 61.30495806467154
16255.0 57.37125448623679
16491.4 55.54793665803196
16731.3 54.90488241423749
16974.7 53.960335630967464
17221.6 55.16579720342945
17472.1 57.46117850224282
17726.2 61.33895622721484
17984.0 61.46011894505669
18245.6 59.93163717461975
18511.0 60.20345559373639
18780.2 62.02316672585961
19053.4 63.43496003784573
19330.5 63.416711131916614
19611.7 62.54126551753238
19897.0 61.91460516801344
