Freq "Floor Bounce"
20.0 59.06505297070359
20.2909 59.56131505648776
20.586 60.092337048718235
20.8855 60.632324403236964
21.1893 61.19841192856546
21.4975 61.776325643093
21.8102 62.35961224465029
22.1274 62.94338936535398
22.4492 63.524595940559195
22.7758 64.10318181946852
23.1071 64.67886917714884
23.4432 65.25337234754248
23.7841 65.8891585445362
24.1301 66.52336010319215
24.4811 67.15531314228915
24.8372 67.78434985179973
25.1984 68.4108021663835
25.5649 69.03433830271817
25.9368 69.65462667731452
26.3141 70.27163118488988
26.6968 70.90411070618634
27.0851 71.53466814229832
27.4791 72.160940977748
27.8788 72.78126078066353
28.2843 73.39495877385322
28.6957 74.00101231060451
29.1131 74.5998055339496
29.5365 75.19045414143835
29.9661 75.7718862253409
30.402 76.3430114622122
30.8442 76.90013651439752
31.2929 77.44431084138877
31.748 77.9735093266088
32.2098 78.48806253910863
32.6783 78.97774007519757
33.1536 79.44979430981206
33.6359 79.90417890339197
34.1251 80.33857597457472
34.6215 80.75266486632006
35.125 81.14843445601804
35.6359 81.51160585883518
36.1543 81.85413020341971
36.6802 82.17731234945248
37.2137 82.48016951870582
37.755 82.76638533149708
38.3041 83.02860506271035
38.8613 83.26820184462805
39.4265 83.49145527800236
40.0 83.70105556370756
40.5818 83.89765745742731
41.1721 84.07993630599506
41.771 84.24324241315847
42.3785 84.39687410913149
42.9949 84.54218215747991
43.6203 84.68115914358644
44.2548 84.80914438843294
44.8985 84.92714938255958
45.5515 85.04148817699298
46.2141 85.15215261157864
46.8863 85.26016111605293
47.5683 85.35984692490976
48.2602 85.45719146914757
48.9621 85.55254616082499
49.6743 85.64723602528645
50.3968 85.7379273089827
51.1299 85.82894282491014
51.8736 85.91930179637986
52.6281 86.00299688444449
53.3936 86.09700265757829
54.1702 86.18433123077624
54.9581 86.27333785309071
55.7575 86.36300294910798
56.5685 86.45230564238982
57.3914 86.54128029575426
58.2261 86.6315779578694
59.073 86.72020446578334
59.9323 86.80879524130594
60.804 86.89908271197467
61.6884 86.99034180129448
62.5857 87.0799275265988
63.496 87.17050103612523
64.4196 87.26175892518313
65.3566 87.34966699625849
66.3073 87.43792004224935
67.2717 87.52750481732929
68.2502 87.61476881489281
69.2429 87.70270002120253
70.2501 87.79131249865281
71.2719 87.8772636539568
72.3086 87.96356124348242
73.3603 88.05019382018637
74.4274 88.13351132888982
75.5099 88.21715935935828
76.6083 88.30048545255372
77.7226 88.38182556307119
78.8531 88.46449586807685
80.0 88.54485141414528
81.1636 88.62487907719314
82.3442 88.70491368530324
83.5419 88.78429898749769
84.757 88.8636832527084
85.9899 88.9417502635033
87.2406 89.01949104923509
88.5096 89.09689772728942
89.797 89.17363689655522
91.1031 89.25038554634509
92.4282 89.32577703705235
93.7726 89.40083382950662
95.1366 89.47386046267906
96.5204 89.54689263445029
97.9243 89.61756645560448
99.3486 89.68757175455991
100.794 89.75222397740558
102.26 89.81488277513922
103.747 89.87953656256467
105.256 89.9445298810956
106.787 90.0081923849377
108.34 90.07085616663848
109.916 90.1315212266901
111.515 90.19152898869767
113.137 90.24787144443114
114.783 90.30287262590375
116.452 90.35488344532861
118.146 90.40288577721522
119.865 90.44855425463619
121.608 90.48755735509066
123.377 90.52290829416934
125.171 90.55058383941719
126.992 90.57361739034235
128.839 90.5919757049499
130.713 90.6013663204199
132.615 90.60675947381726
134.543 90.60651655207552
136.5 90.60095417450177
138.486 90.60107570596142
140.5 90.59288342647085
142.544 90.57671153694103
144.617 90.56788194005455
146.721 90.55906186491943
148.855 90.54256711693009
151.02 90.5257588525503
153.217 90.50926180574444
155.445 90.49243307007876
157.706 90.47459193050392
160.0 90.45605637268392
162.327 90.43550607624199
164.688 90.42459118136706
167.084 90.40699728678665
169.514 90.38270614387035
171.98 90.35641745760276
174.481 90.33481459346638
177.019 90.31022971284268
179.594 90.27334656727547
182.206 90.22515002464567
184.856 90.16934507488803
187.545 90.11025177469806
190.273 90.03087455137086
193.041 89.93723438969425
195.849 89.82933692209653
198.697 89.70283287506264
201.587 89.5690732129734
204.52 89.4346704567405
207.494 89.3079536743023
210.512 89.18847334283498
213.574 89.08390772524103
216.681 88.99784775962647
219.833 88.91499695594705
223.03 88.83171446075048
226.274 88.7460905131332
229.565 88.66090101590487
232.905 88.57785824334032
236.292 88.49705975571605
239.729 88.41954100607518
243.216 88.34277435406466
246.754 88.26623176531389
250.343 88.18397282576797
253.984 88.09926639146937
257.678 88.01154426726968
261.426 87.91961142778926
265.229 87.82868692980405
269.087 87.74027467715965
273.001 87.6656575273293
276.972 87.60696548537797
281.0 87.56364862420564
285.088 87.52362500385404
289.234 87.46216842808427
293.441 87.34605799994182
297.709 87.13843121823453
302.04 86.90125694267446
306.433 86.81416402053
310.89 86.854079754411
315.412 86.97787103589962
320.0 87.12254337699576
324.655 87.219915120515
329.377 87.1975919214953
334.168 87.02611612466343
339.028 86.68329140283859
343.959 86.2082695406619
348.962 85.6429271184274
354.038 85.03188260695357
359.188 84.43740614986692
364.412 83.92893902966645
369.713 83.58013413518326
375.09 83.4285569768391
380.546 83.43990910324204
386.081 83.50460749538661
391.697 83.52083787294299
397.394 83.43803563939062
403.175 83.25510374033763
409.039 82.98685046409206
414.989 82.6517680116977
421.025 82.26788977604302
427.149 81.84676610463046
433.362 81.3925161331261
439.665 80.91066358048244
446.06 80.43547059569364
452.548 80.01010053181818
459.131 79.65881066109597
465.809 79.3763401929967
472.584 79.1414062634569
479.458 78.92106545006294
486.432 78.68406251781745
493.507 78.42072652762288
500.686 78.17891127497111
507.968 78.03640781003196
515.357 78.04038237134264
522.853 78.14277268120006
530.458 78.27595712260188
538.174 78.35517448767614
546.002 78.3533120842723
553.943 78.33113261369388
562.001 78.40910493380434
570.175 78.65359360505451
578.469 78.98838904691635
586.883 79.256846188841
595.419 79.33399200293641
604.08 79.26224094585206
612.866 79.21703288522015
621.78 79.3631938063912
630.824 79.73022272727394
640.0 80.21418901805663
649.309 80.61656815282518
658.753 80.78466536054839
668.335 80.7022433073794
678.056 80.53496684351431
687.919 80.55233256861531
697.925 80.89857243265283
708.077 81.46662342088428
718.376 81.77991315270903
728.825 81.91032631613365
739.426 81.8619598325811
750.181 81.8570977007791
761.093 82.06055798381503
772.163 82.41324290861486
783.394 82.72805062294395
794.789 82.88049774960011
806.349 82.88477615143368
818.078 82.84290472989727
829.977 82.83475280196215
842.05 82.86478333462556
854.298 82.8845928309459
866.724 82.86715862812132
879.33 82.87147313361233
892.12 83.00652719762451
905.097 83.34243913963476
918.262 83.88159792374083
931.618 84.42985834251385
945.169 84.97644551123253
958.917 85.44266482414511
972.864 85.84494420040755
987.015 86.25073298469995
1001.37 86.66365255728375
1015.94 86.93549977155959
1030.71 86.93107064026113
1045.71 86.73202378859916
1060.92 86.50225764177587
1076.35 86.19818332568013
1092.0 85.72196561246103
1107.89 85.1348129585561
1124.0 84.42790469852933
1140.35 83.80481573440008
1156.94 83.60791020934062
1173.77 83.97220041569943
1190.84 84.90965390567195
1208.16 86.25449057876767
1225.73 87.59897333365325
1243.56 88.65192459857336
1261.65 89.57103596151387
1280.0 90.44890994367451
1298.62 90.90404567125195
1317.51 90.94527623477606
1336.67 90.89397868364875
1356.11 90.78192552076476
1375.84 90.59028410723268
1395.85 90.37677420258623
1416.15 90.17505453340321
1436.75 89.90936558921945
1457.65 89.6240673570691
1478.85 89.61429860023632
1500.36 89.75266072196021
1522.19 89.71376696539124
1544.33 89.62199700064772
1566.79 89.65493176027147
1589.58 89.62948041670815
1612.7 89.21437631446348
1636.16 88.63534746755747
1659.95 88.10231077781064
1684.1 87.58194389820707
1708.6 87.22161785461864
1733.45 87.03941881147703
1758.66 86.89403082571677
1784.24 86.66927506713544
1810.19 86.62142713900144
1836.52 86.93299998309365
1863.24 87.24093690797127
1890.34 87.1120958599162
1917.83 86.59513907050881
1945.73 86.12359925340026
1974.03 85.43576098639738
2002.74 84.20168956992829
2031.87 82.91871618802783
2061.43 81.89475836559646
2091.41 81.30467365301125
2121.83 81.31231521299621
2152.69 81.65147448726452
2184.01 82.01380605453667
2215.77 82.22352425358596
2248.0 82.18583130560712
2280.7 82.03104670505796
2313.87 81.95882166428291
2347.53 81.96680720752505
2381.68 82.28623657247343
2416.32 82.87445789663693
2451.46 83.04636896386826
2487.12 82.24418793176208
2523.3 80.44634860856786
2560.0 78.82555359723715
2597.24 78.2071932956288
2635.01 78.93826623892295
2673.34 80.8894766788359
2712.23 82.27541209088889
2751.68 83.11318675927144
2791.7 83.46190156792805
2832.31 83.61721407936282
2873.5 83.43569789990526
2915.3 82.72045652138148
2957.7 82.01394240592657
3000.72 81.89688677694095
3044.37 82.16721976979892
3088.65 82.28187930204403
3133.58 81.79740928263362
3179.16 81.02820657860923
3225.4 80.17364938218665
3272.31 79.43713933542588
3319.91 79.150851966591
3368.2 79.16084192772861
3417.19 79.38627287708259
3466.89 79.36096384501754
3517.32 79.50953353470463
3568.48 79.7471709440076
3620.39 79.86925505793583
3673.05 79.69796154610381
3726.47 78.82392731314187
3780.67 77.79227587959133
3835.67 77.3992304541959
3891.46 77.906688486668
3948.06 78.32100098380354
4005.49 78.39856619743483
4063.75 78.5716209993529
4122.86 78.55906949567134
4182.82 78.34176262327068
4243.66 78.28428019427585
4305.39 78.42372680694838
4368.01 78.35634792971594
4431.55 77.87788513652646
4496.01 77.17378540622258
4561.4 76.63455202992435
4627.75 76.79628977005096
4695.06 76.72986283928677
4763.35 76.29428607430177
4832.64 75.87473626078642
4902.93 75.95977121007324
4974.24 76.46300478501999
5046.6 76.77668788781719
5120.0 77.41198213960654
5194.47 78.42766997710417
5270.03 79.30643743567398
5346.68 80.06444841144653
5424.45 80.3445939605219
5503.35 79.54075888988626
5583.4 78.38035140253487
5664.61 77.99890834424042
5747.01 77.64791884584189
5830.6 77.0057738751234
5915.41 77.01208320479783
6001.45 76.85801062466362
6088.74 76.22307887240021
6177.3 76.11580160014873
6267.15 76.54652445113356
6358.31 76.67441474585
6450.8 76.03822971784847
6544.62 75.54906287199852
6639.82 75.21844256022395
6736.4 74.16801383015019
6834.38 72.83354610469986
6933.79 73.38933836203984
7034.64 74.90825554083577
7136.96 75.53124801195044
7240.77 75.64351366945712
7346.09 75.57417782496427
7452.94 75.07719565632752
7561.35 74.4737145729016
7671.33 74.1838412084291
7782.91 74.2557592453737
7896.12 73.93188361196493
8010.97 73.25888147370435
8127.49 72.37593315150303
8245.71 70.20556601490722
8365.65 69.4650315860066
8487.33 70.97724497264271
8610.78 72.22278301815567
8736.03 71.69270238002507
8863.09 74.06672757065083
8992.01 78.54062339980227
9122.8 81.00960225420134
9255.5 81.00485144983418
9390.12 79.7027025279533
9526.7 78.00734986214896
9665.27 75.9242757576523
9805.86 76.15408729811116
9948.49 78.24373223885786
10093.2 78.85157026323806
10240.0 79.20177497559357
10388.9 79.85201401516093
10540.1 79.24418575973841
10693.4 76.40562907501722
10848.9 72.77377371872657
11006.7 71.98949302716312
11166.8 71.50865195066095
11329.2 71.0693911240775
11494.0 71.02741670096285
11661.2 72.701948004996
11830.8 74.59519530024382
12002.9 74.97827373982271
12177.5 74.03956100428866
12354.6 72.17342019233358
12534.3 69.92376529871521
12716.6 68.49682108053884
12901.6 68.34221173365094
13089.2 68.85502889026779
13279.6 69.0924990305895
13472.8 70.00037769056618
13668.8 72.58144650158076
13867.6 75.02767437130616
14069.3 76.41206721858151
14273.9 76.90978319675435
14481.5 75.6561718551113
14692.2 72.9569563630046
14905.9 71.4690667220296
15122.7 71.82362928696767
15342.7 71.77797168012694
15565.8 69.59121652658305
15792.2 66.49136875942307
16021.9 65.10681408084847
16255.0 64.42531921860686
16491.4 64.11101671276862
16731.3 63.549011999085764
16974.7 62.56551463287616
17221.6 63.26461029169646
17472.1 65.22622514907653
17726.2 66.42593258154812
17984.0 65.31381996469132
18245.6 63.02541760304935
18511.0 61.709864354283354
18780.2 62.01486604881251
19053.4 62.2273543630354
19330.5 61.648723779739726
19611.7 61.06979736653585
19897.0 60.9996434483819
