Freq "Rear Wall Bounce"
20.0 63.42436517721407
20.2909 63.88373165268807
20.586 64.37871634537406
20.8855 64.88309631475067
21.1893 65.41469979894619
21.4975 65.95792675294378
21.8102 66.50618732287222
22.1274 67.05520038428608
22.4492 67.60144918641119
22.7758 68.14514918111055
23.1071 68.6858583761762
23.4432 69.22565885641083
23.7841 69.82157835933717
24.1301 70.41613176013324
24.4811 71.00811887237688
24.8372 71.59759355300424
25.1984 72.18440942474349
25.5649 72.76808937200444
25.9368 73.3489328339276
26.3141 73.9258892316677
26.6968 74.5210135057672
27.0851 75.11529737585892
27.4791 75.70442280633019
27.8788 76.2875821725314
28.2843 76.86447477471353
28.6957 77.4340291212785
29.1131 77.99564488271112
29.5365 78.5521758297023
29.9661 79.10115578020722
30.402 79.63913138996713
30.8442 80.16359920396728
31.2929 80.67483957655676
31.748 81.17185015690109
32.2098 81.6535126109031
32.6783 82.11465177651819
33.1536 82.5578225250552
33.6359 82.98337047235992
34.1251 83.3891557510279
34.6215 83.7744871574553
35.125 84.14129031554903
35.6359 84.4789896318669
36.1543 84.79674852950578
36.6802 85.0947429425207
37.2137 85.37277253476185
37.755 85.63358333166008
38.3041 85.87234738531653
38.8613 86.08997724672989
39.4265 86.29191344064114
40.0 86.48019455940131
40.5818 86.65530641756463
41.1721 86.81644674724411
41.771 86.9611990313841
42.3785 87.09614012577029
42.9949 87.22309151870027
43.6203 87.34367392049586
44.2548 87.45432946725015
44.8985 87.55661298767521
45.5515 87.6544981016914
46.2141 87.74974856727442
46.8863 87.84197060075195
47.5683 87.92750043484618
48.2602 88.01068056835534
48.9621 88.09256330055238
49.6743 88.17320924165084
50.3968 88.25166869658209
51.1299 88.32979021992503
51.8736 88.40796622031492
52.6281 88.47934304054215
53.3936 88.56228432560505
54.1702 88.6384038253396
54.9581 88.71635409441296
55.7575 88.79548886855845
56.5685 88.87519477073724
57.3914 88.95490322113234
58.2261 89.03525919080717
59.073 89.1156858508255
59.9323 89.19681620412115
60.804 89.27977005481816
61.6884 89.36388183237503
62.5857 89.44874010841801
63.496 89.53469214911668
64.4196 89.6207305998795
65.3566 89.7069728875304
66.3073 89.79394254883589
67.2717 89.88160141468612
68.2502 89.96991043665186
69.2429 90.0590919907118
70.2501 90.14937252991055
71.2719 90.23921895563434
72.3086 90.32959637116666
73.3603 90.42025428354636
74.4274 90.51012871851572
75.5099 90.60006357659059
76.6083 90.68999212574464
77.7226 90.77967997282357
78.8531 90.87031129472139
80.0 90.96007796523376
81.1636 91.049826879231
82.3442 91.13980785241023
83.5419 91.22980040407606
84.757 91.32020688490203
85.9899 91.41033759944752
87.2406 91.5003574492278
88.5096 91.59048201337279
89.797 91.68097795401206
91.1031 91.77193229863477
92.4282 91.86242440013405
93.7726 91.95294027782415
95.1366 92.04308778914472
96.5204 92.13311820130373
97.9243 92.22232074616352
99.3486 92.31148918717021
100.794 92.39686752748003
102.26 92.48058707115118
103.747 92.56771481851332
105.256 92.65613138418755
106.787 92.74466828043361
108.34 92.83295884780587
109.916 92.92182177646947
111.515 93.01037898860231
113.137 93.09822488049032
114.783 93.18596599490348
116.452 93.27380338974872
118.146 93.35909600892418
119.865 93.44489224165757
121.608 93.52804248031143
123.377 93.60950652035487
125.171 93.68703097288127
126.992 93.761888032927
128.839 93.8340770208681
130.713 93.90004873179844
132.615 93.96222519819298
134.543 94.01912909990656
136.5 94.06915632606314
138.486 94.12340176192086
140.5 94.16702667671163
142.544 94.19822790762535
144.617 94.23449306970758
146.721 94.268045860241
148.855 94.29083483620526
151.02 94.31217161749879
153.217 94.3326972446179
155.445 94.35264234011942
157.706 94.37181563310537
160.0 94.39051210778189
162.327 94.40891831935446
164.688 94.43685811503238
167.084 94.459824611634
169.514 94.47908252956546
171.98 94.49961753142263
174.481 94.52687350787168
177.019 94.55360261174891
179.594 94.57095352114811
182.206 94.57782853095775
184.856 94.57999189465501
187.545 94.58117212373253
190.273 94.56801555913269
193.041 94.54758523915042
195.849 94.52249273695111
198.697 94.48951008409108
201.587 94.4595392004131
204.52 94.43675793747491
207.494 94.42372479496876
210.512 94.41645771883893
213.574 94.41949536326756
216.681 94.43436119935575
219.833 94.44801476391126
223.03 94.45836980045765
226.274 94.46775439214161
229.565 94.4779105880672
232.905 94.48965042978313
236.292 94.50511434619249
239.729 94.52504944260569
243.216 94.55181063249366
246.754 94.58807611057172
250.343 94.62774806049842
253.984 94.67180709801778
257.678 94.71828715152644
261.426 94.76574124039217
265.229 94.81758900998696
269.087 94.87293923562603
273.001 94.93419608541689
276.972 94.99939288838766
281.0 95.07015735294897
285.088 95.14367003414431
289.234 95.21294513598244
293.441 95.25975287884289
297.709 95.25402235860784
302.04 95.2131856303007
306.433 95.212109559702
310.89 95.24506801618374
315.412 95.30381883422868
320.0 95.3652360008117
324.655 95.4181797067126
329.377 95.45595629706288
334.168 95.47996192597832
339.028 95.49528349699298
343.959 95.50956734911955
348.962 95.52573672179076
354.038 95.54444151841902
359.188 95.56315503671615
364.412 95.5797188024412
369.713 95.59411642632477
375.09 95.60512720444113
380.546 95.61191060559368
386.081 95.62003586645491
391.697 95.63679530385845
397.394 95.6697503202297
403.175 95.71704020712434
409.039 95.76622781763149
414.989 95.80754702618518
421.025 95.84288120167193
427.149 95.87478007387321
433.362 95.90179318001572
439.665 95.91638682533942
446.06 95.9202587453398
452.548 95.92209894555523
459.131 95.93586427630443
465.809 95.97876793014984
472.584 96.06593351912343
479.458 96.19931539102757
486.432 96.36812529853322
493.507 96.54817238756138
500.686 96.7109772556377
507.968 96.85226709651928
515.357 96.89995184489285
522.853 96.94298994783438
530.458 96.96259252712755
538.174 96.96246214887336
546.002 96.94097003343241
553.943 96.8921645786337
562.001 96.81296444035615
570.175 96.70655072889384
578.469 96.57788332505663
586.883 96.43126947163798
595.419 96.26176942996169
604.08 96.07090115291683
612.866 95.87960719814693
621.78 95.71381544314835
630.824 95.58297960602961
640.0 95.48815849850173
649.309 95.42291744237265
658.753 95.37869278595011
668.335 95.35792816174819
678.056 95.37413536122041
687.919 95.44635267519114
697.925 95.5813496787825
708.077 95.7689149147437
718.376 95.9196919269093
728.825 96.05550539866644
739.426 96.15190685691175
750.181 96.21922415175027
761.093 96.2602095808005
772.163 96.25412811702564
783.394 96.17158429802464
794.789 95.99816718406484
806.349 95.74873663259326
818.078 95.46386813625563
829.977 95.17543237571968
842.05 94.8965400699422
854.298 94.64334512958605
866.724 94.44474331528635
879.33 94.34034632807706
892.12 94.3361312214669
905.097 94.41142310910588
918.262 94.5505888172332
931.618 94.73144914787387
945.169 94.94082782023499
958.917 95.1503607793401
972.864 95.33449998819212
987.015 95.478047748029
1001.37 95.58099207043179
1015.94 95.6588521170078
1030.71 95.72940491954513
1045.71 95.7945120873507
1060.92 95.85794945075699
1076.35 95.9642220534677
1092.0 96.1291792677892
1107.89 96.29464597068979
1124.0 96.4037274700858
1140.35 96.47030894581559
1156.94 96.5473153926116
1173.77 96.64195669817347
1190.84 96.71528657363706
1208.16 96.73366833211158
1225.73 96.72747183058847
1243.56 96.73922153610316
1261.65 96.74296649457452
1280.0 96.71831242317543
1298.62 96.73209946553737
1317.51 96.76704990527854
1336.67 96.72951920712991
1356.11 96.57537801892569
1375.84 96.4077192089989
1395.85 96.29740659407025
1416.15 96.18934146842699
1436.75 96.04790741718114
1457.65 95.89425703775092
1478.85 95.79401129541911
1500.36 95.79513914646238
1522.19 95.82238356286922
1544.33 95.80275381518429
1566.79 95.7722234404841
1589.58 95.79209554865581
1612.7 95.84447303854373
1636.16 95.91839241836406
1659.95 96.05399641123344
1684.1 96.20686722665582
1708.6 96.28872465415414
1733.45 96.30056294505746
1758.66 96.20078105465556
1784.24 95.9115671032661
1810.19 95.35959779556966
1836.52 94.56311674673557
1863.24 93.73576723377721
1890.34 93.12316133377828
1917.83 92.91995825450579
1945.73 93.16673839300779
1974.03 93.66028630466683
2002.74 94.19080910117046
2031.87 94.52059658230476
2061.43 94.54397230939269
2091.41 94.16030631524815
2121.83 93.37193626883506
2152.69 92.45657322246228
2184.01 91.59747227868985
2215.77 91.05098203155748
2248.0 90.9848290160711
2280.7 91.39000414885321
2313.87 91.99410814638341
2347.53 92.52150049152841
2381.68 92.97391187834715
2416.32 93.43733789176008
2451.46 93.86738880733803
2487.12 94.17317038205314
2523.3 94.26918566268009
2560.0 94.29605544035721
2597.24 94.39385560916517
2635.01 94.50462571745985
2673.34 94.57627170038057
2712.23 94.54148299828073
2751.68 94.43342637040844
2791.7 94.35685294803979
2832.31 94.31811857203246
2873.5 94.29098281769579
2915.3 94.26422907138365
2957.7 94.22589937488112
3000.72 94.13262383249472
3044.37 93.88565134764302
3088.65 93.52431839042316
3133.58 93.1675305206411
3179.16 92.8966230310105
3225.4 92.60464940473678
3272.31 92.1623517127695
3319.91 91.69389896982548
3368.2 91.39176333320653
3417.19 91.25714015150601
3466.89 91.210770137269
3517.32 91.32508710177997
3568.48 91.53924686858134
3620.39 91.71151095636706
3673.05 91.92116648286245
3726.47 92.17149962809799
3780.67 92.32108056713571
3835.67 92.33229930073321
3891.46 92.31011383991525
3948.06 92.36930080168682
4005.49 92.57703924634166
4063.75 92.79681899806609
4122.86 92.9317588502602
4182.82 93.06136726413473
4243.66 93.25071915215436
4305.39 93.49154336253496
4368.01 93.72891014944722
4431.55 93.86423059662448
4496.01 93.91516026277162
4561.4 94.04956995150887
4627.75 94.39658837493903
4695.06 94.93825507705164
4763.35 95.40571898952973
4832.64 95.40921016736435
4902.93 95.07420491644976
4974.24 94.7494557028678
5046.6 94.52885320682115
5120.0 94.2909358076279
5194.47 94.13047112116412
5270.03 94.10230121352666
5346.68 94.02328478785805
5424.45 93.92864288277526
5503.35 94.03140685063549
5583.4 94.15195071454194
5664.61 94.07507857509023
5747.01 93.96151019966685
5830.6 93.95798106131383
5915.41 94.04811774137792
6001.45 94.17878280986082
6088.74 94.32546377539805
6177.3 94.49120703410127
6267.15 94.60630177801391
6358.31 94.57134172846172
6450.8 94.30450106666031
6544.62 94.01612281321871
6639.82 94.13499296900969
6736.4 94.45600957904526
6834.38 94.75980576352522
6933.79 95.0344884141933
7034.64 95.01406315263995
7136.96 94.6718971516541
7240.77 94.21280852393298
7346.09 93.7656598298995
7452.94 93.17876304844413
7561.35 92.663475771066
7671.33 92.71005349740457
7782.91 92.68514133514526
7896.12 92.45093812305848
8010.97 92.07031696773005
8127.49 91.66535570370844
8245.71 91.3752670224837
8365.65 90.98546065033992
8487.33 90.33282963884393
8610.78 89.98466467724815
8736.03 90.40349110536047
8863.09 91.1941069102449
8992.01 91.85533493778622
9122.8 92.33490024526478
9255.5 92.86478814016742
9390.12 93.49648239399362
9526.7 93.97126866781079
9665.27 94.28168858267536
9805.86 94.48836677626433
9948.49 94.45044800035257
10093.2 94.33529138651136
10240.0 94.66183765512756
10388.9 95.30780203203047
10540.1 95.96323962657277
10693.4 96.308651094084
10848.9 95.96869268057421
11006.7 95.07779927996259
11166.8 94.06248392671701
11329.2 93.00142186155907
11494.0 91.4129586284821
11661.2 88.84999605223709
11830.8 85.97474152940592
12002.9 84.97298042466238
12177.5 84.72014161546625
12354.6 84.35926191983641
12534.3 84.35219892226357
12716.6 85.21052486460755
12901.6 85.7437543197283
13089.2 85.95750907150305
13279.6 86.47413809148593
13472.8 87.3239258712263
13668.8 87.45107379905048
13867.6 87.99876596241953
14069.3 89.89692075860751
14273.9 91.37380277950112
14481.5 90.56437241414858
14692.2 88.459818229261
14905.9 87.31226595082936
15122.7 87.32946796382154
15342.7 87.48100334778059
15565.8 86.81742408615222
15792.2 85.39269049306787
16021.9 84.2044865845481
16255.0 83.21378216611565
16491.4 81.5682301486118
16731.3 81.07046904171403
16974.7 81.83445376443137
17221.6 81.78064343498663
17472.1 80.75434435400615
17726.2 78.59307303533296
17984.0 76.18194114580109
18245.6 74.89695893114649
18511.0 73.91772371745854
18780.2 72.53485401168471
19053.4 70.43861378404299
19330.5 69.47476875568216
19611.7 68.6995965836162
19897.0 68.903755185901
