Freq "Total Early Reflection"
20.0 63.15033810416823
20.2909 63.623704160110705
20.586 64.13243297894643
20.8855 64.64985085138002
21.1893 65.1941702762814
21.4975 65.75039277443751
21.8102 66.3118136958828
22.1274 66.87388472998298
22.4492 67.43375559176751
22.7758 67.99084862389913
23.1071 68.54513907079112
23.4432 69.09857135089985
23.7841 69.7117112503033
24.1301 70.32333529097632
24.4811 70.93272504349466
24.8372 71.53950987777185
25.1984 72.143715986449
25.5649 72.74499465425362
25.9368 73.34327097359665
26.3141 73.9381613753772
26.6968 74.55140354108849
27.0851 75.16367402943618
27.4791 75.77136394630645
27.8788 76.37293705899515
28.2843 76.96821359404866
28.6957 77.55630992106717
29.1131 78.13671494491369
29.5365 78.7112256485952
29.9661 79.27797451659148
30.402 79.83404856747762
30.8442 80.37631240411761
31.2929 80.90546725791445
31.748 81.42047077174493
32.2098 81.9203672727743
32.6783 82.3980945348946
33.1536 82.85813913824697
33.6359 83.30053165589523
34.1251 83.72305842373066
34.6215 84.1255043247779
35.125 84.50925906311357
35.6359 84.86237257295747
36.1543 85.19525468572263
36.6802 85.50849364822757
37.2137 85.80191886949524
37.755 86.0781437645927
38.3041 86.33141327808698
38.8613 86.56230712627935
39.4265 86.77732216094782
40.0 86.9789129983241
40.5818 87.1673427668146
41.1721 87.34119015924715
41.771 87.4968676925208
42.3785 87.64271464937869
42.9949 87.78082200837906
43.6203 87.91227916389363
44.2548 88.03273157332023
44.8985 88.14348804532985
45.5515 88.250080948143
46.2141 88.35353691834685
46.8863 88.45427342495364
47.5683 88.54614200092405
48.2602 88.63573173009324
48.9621 88.72373371777432
49.6743 88.81084801527359
50.3968 88.89397183027626
51.1299 88.97664759563949
51.8736 89.0593070817785
52.6281 89.13525552667126
53.3936 89.22172259496256
54.1702 89.30155801310624
54.9581 89.38273556684734
55.7575 89.46513865463157
56.5685 89.54767134250537
57.3914 89.63031761662327
58.2261 89.71348079416094
59.073 89.79678604907102
59.9323 89.88061738207028
60.804 89.96607473177909
61.6884 90.05286020917568
62.5857 90.14034552243106
63.496 90.22861068857242
64.4196 90.31750631731191
65.3566 90.40558187708763
66.3073 90.49451113780927
67.2717 90.58428433032225
68.2502 90.6737693287827
69.2429 90.76426661712655
70.2501 90.85583444146916
71.2719 90.9457139672214
72.3086 91.03604561867245
73.3603 91.1267072734056
74.4274 91.21493976308818
75.5099 91.30358236184813
76.6083 91.39147663137408
77.7226 91.47787339058132
78.8531 91.56541884115555
80.0 91.65057495143594
81.1636 91.73540788099005
82.3442 91.8200375026054
83.5419 91.90335358513623
84.757 91.98697589500252
85.9899 92.06904744434615
87.2406 92.15080018499155
88.5096 92.2318390846632
89.797 92.31213757318179
91.1031 92.39260492170459
92.4282 92.47149578840862
93.7726 92.55015774862426
95.1366 92.62692799669651
96.5204 92.70364754513145
97.9243 92.77770330750893
99.3486 92.8514449881956
100.794 92.91966476265914
102.26 92.98612472286995
103.747 93.05500832588403
105.256 93.12480216222819
106.787 93.19355698065233
108.34 93.2617733998747
109.916 93.32929454174715
111.515 93.3961626693674
113.137 93.46102850117447
114.783 93.52517305705905
116.452 93.58804688586237
118.146 93.64790493481938
119.865 93.70697164283528
121.608 93.76202737264894
123.377 93.8147247281265
125.171 93.8617151802968
126.992 93.9053625129697
128.839 93.94550141150386
130.713 93.97817237820882
132.615 94.00682308606322
134.543 94.02994009024519
136.5 94.04662568685552
138.486 94.06791686557158
140.5 94.07930260677948
142.544 94.07970616672813
144.617 94.08605836109534
146.721 94.09042012251581
148.855 94.08502965724368
151.02 94.07834877854705
153.217 94.0712109133152
155.445 94.06327748702722
157.706 94.05414898567653
160.0 94.04407849038516
162.327 94.03269500926338
164.688 94.03012203526794
167.084 94.02130295308386
169.514 94.00657785637785
171.98 93.99094309278378
174.481 93.9808508705627
177.019 93.96850679196679
179.594 93.94558213976457
182.206 93.91146292987169
184.856 93.87157793073679
187.545 93.82960980347264
190.273 93.77071762348876
193.041 93.70147801622127
195.849 93.62350950424212
198.697 93.53357626033913
201.587 93.4431154709264
204.52 93.35786629113367
207.494 93.28264342789456
210.512 93.21510983891353
213.574 93.16089518970388
216.681 93.12161396100142
219.833 93.08343524105044
223.03 93.04301623717342
226.274 93.00105586355534
229.565 92.95954233015291
232.905 92.91952989073513
236.292 92.88263538352321
239.729 92.84971252712418
243.216 92.82229572250554
246.754 92.80233997482375
250.343 92.78461085050651
253.984 92.77139395011777
257.678 92.76204922062932
261.426 92.75607279350506
265.229 92.75764790881188
269.087 92.76594575735302
273.001 92.78337522647315
276.972 92.80615880435255
281.0 92.83330923183864
285.088 92.85924532781773
289.234 92.876752426086
293.441 92.87031819599936
297.709 92.81558274466761
302.04 92.73540748506666
306.433 92.71128829831379
310.89 92.73366764396638
315.412 92.78439900525943
320.0 92.83535365428123
324.655 92.86560391595161
329.377 92.85727074174125
334.168 92.80844583426965
339.028 92.72320723395556
343.959 92.62108231599224
348.962 92.51829186937687
354.038 92.4290399901048
359.188 92.36356693248696
364.412 92.32547059720588
369.713 92.31492755682386
375.09 92.32279499683658
380.546 92.33376495497404
386.081 92.33724861979563
391.697 92.33226708737776
397.394 92.32622075673912
403.175 92.32400454600048
409.039 92.32139706472009
414.989 92.31573512806436
421.025 92.31175717432765
427.149 92.31119384306349
433.362 92.30907722021671
439.665 92.29486710813231
446.06 92.27021804924196
452.548 92.24610035402787
459.131 92.23767334800216
465.809 92.26073862216784
472.584 92.32822307245353
479.458 92.44113525236885
486.432 92.5889113698506
493.507 92.74823201982159
500.686 92.89147886037243
507.968 93.01001611899991
515.357 93.04338791711022
522.853 93.07208076859962
530.458 93.08483364196104
538.174 93.0890558476485
546.002 93.08190287073623
553.943 93.05183840528412
562.001 92.98866906549955
570.175 92.89430469090736
578.469 92.7815694005171
586.883 92.66708908659604
595.419 92.5513544022679
604.08 92.43595713648656
612.866 92.33361336935698
621.78 92.25174329682855
630.824 92.17855216762632
640.0 92.11522618217418
649.309 92.0683213449988
658.753 92.04095936910373
668.335 92.04004887606156
678.056 92.07921577417547
687.919 92.17655204459665
697.925 92.33381632876505
708.077 92.52516042015253
718.376 92.65424888170887
728.825 92.74711057449618
739.426 92.80054372869017
750.181 92.84296166093998
761.093 92.87476325497973
772.163 92.8551187303334
783.394 92.7424543794935
794.789 92.53115729072326
806.349 92.24964513332277
818.078 91.93580827659815
829.977 91.61123942107646
842.05 91.29400531703477
854.298 91.01793388219289
866.724 90.82180436439268
879.33 90.74112331862102
892.12 90.77552769683766
905.097 90.90490485268907
918.262 91.13079578892999
931.618 91.41340485158804
945.169 91.7374760555723
958.917 92.04308761987548
972.864 92.30893559141089
987.015 92.54733912172543
1001.37 92.7573582361926
1015.94 92.9055251445393
1030.71 92.97169432560798
1045.71 92.98447982388868
1060.92 92.98313036178722
1076.35 92.98001350352575
1092.0 92.97806092676639
1107.89 92.97653952875146
1124.0 92.93995928639916
1140.35 92.89816489048012
1156.94 92.92779029032658
1173.77 93.04885002369667
1190.84 93.23010925405288
1208.16 93.43106476904947
1225.73 93.64816106725186
1243.56 93.85777411929985
1261.65 94.0363217736494
1280.0 94.22964479896197
1298.62 94.428988814097
1317.51 94.52612992532354
1336.67 94.45759344009655
1356.11 94.24019468908408
1375.84 94.02935748801066
1395.85 93.89244768789031
1416.15 93.75092858980553
1436.75 93.55946331017422
1457.65 93.34936586889607
1478.85 93.2216767980267
1500.36 93.20128545570527
1522.19 93.17363229343562
1544.33 93.11079379032397
1566.79 93.06249851607224
1589.58 93.0537330293861
1612.7 92.99876627962665
1636.16 92.8961367355068
1659.95 92.86189679365232
1684.1 92.910310672776
1708.6 92.96983245490563
1733.45 93.01981840808044
1758.66 93.01198269047394
1784.24 92.87437826717489
1810.19 92.56756719680675
1836.52 92.14372282388491
1863.24 91.7004786683322
1890.34 91.25892423752201
1917.83 90.951388129072
1945.73 90.94153081170415
1974.03 91.08288503112435
2002.74 91.25230506465566
2031.87 91.36277040965498
2061.43 91.29206143166599
2091.41 90.90176172694673
2121.83 90.19491148665
2152.69 89.3883499064619
2184.01 88.65422412651446
2215.77 88.18238103438074
2248.0 88.05051672194358
2280.7 88.2625588471592
2313.87 88.65667332763438
2347.53 89.01055125878938
2381.68 89.36373564867733
2416.32 89.79658817999965
2451.46 90.2193329812415
2487.12 90.53980332093833
2523.3 90.71494287890488
2560.0 90.86830226449274
2597.24 91.08323319556624
2635.01 91.31769266579369
2673.34 91.51135772274111
2712.23 91.51256861788
2751.68 91.39772330630895
2791.7 91.29329289786571
2832.31 91.21543313070839
2873.5 91.12860106361393
2915.3 90.98806218283875
2957.7 90.85799558751508
3000.72 90.74572095239512
3044.37 90.55548981557027
3088.65 90.26011083384705
3133.58 89.89195578915765
3179.16 89.53267642853031
3225.4 89.14885443941203
3272.31 88.69090703533146
3319.91 88.22401174583217
3368.2 87.88035346603526
3417.19 87.7298495117563
3466.89 87.67656217601771
3517.32 87.79486280400806
3568.48 88.00170962584049
3620.39 88.1398368498137
3673.05 88.27213705404863
3726.47 88.36476912754473
3780.67 88.3938806040916
3835.67 88.36782998292009
3891.46 88.36412704390406
3948.06 88.43283294812086
4005.49 88.61023705693195
4063.75 88.81342235949307
4122.86 88.93238260999175
4182.82 89.04051080876252
4243.66 89.20797399772897
4305.39 89.42173283699213
4368.01 89.62584989428592
4431.55 89.7173528111891
4496.01 89.73800235636874
4561.4 89.86274955805266
4627.75 90.21313929261217
4695.06 90.74714050321776
4763.35 91.21546130014241
4832.64 91.25221600259844
4902.93 90.97056364545512
4974.24 90.68278701568315
5046.6 90.47139522972482
5120.0 90.25430817993028
5194.47 90.15134310608875
5270.03 90.21180160766151
5346.68 90.27862065378476
5424.45 90.30026038615745
5503.35 90.35716350169035
5583.4 90.38002206808333
5664.61 90.26449702499424
5747.01 90.1188059039267
5830.6 90.06294194166554
5915.41 90.11320811609282
6001.45 90.20907835228661
6088.74 90.33028172288581
6177.3 90.48580457854659
6267.15 90.5895063796884
6358.31 90.53548845057126
6450.8 90.2761388291312
6544.62 90.03434276824603
6639.82 90.16484946705836
6736.4 90.44568702974881
6834.38 90.71879356548617
6933.79 91.00742353175904
7034.64 91.0398717891918
7136.96 90.7702176081754
7240.77 90.39630332906475
7346.09 90.03991141013249
7452.94 89.50727743502517
7561.35 88.94693668014379
7671.33 88.82926063594354
7782.91 88.6879472885433
7896.12 88.4020571923707
8010.97 88.00293907865158
8127.49 87.6120326742964
8245.71 87.35439812112124
8365.65 87.02997477108279
8487.33 86.48919038764011
8610.78 86.20563193536961
8736.03 86.5739648826119
8863.09 87.34383500239689
8992.01 88.16802086445388
9122.8 88.85545917842626
9255.5 89.33985563787947
9390.12 89.67737942681619
9526.7 89.90159915372865
9665.27 90.05506164730392
9805.86 90.2226237496618
9948.49 90.27503858208978
10093.2 90.30395016540587
10240.0 90.76113528777307
10388.9 91.4502863955095
10540.1 91.98867415687354
10693.4 92.14742014078575
10848.9 91.71144977044364
11006.7 90.82451097361604
11166.8 89.85124771974542
11329.2 88.82342209783482
11494.0 87.29498197948138
11661.2 84.9768682209012
11830.8 82.5975013658923
12002.9 81.65538156827566
12177.5 81.14183662332377
12354.6 80.50240701565434
12534.3 80.29188783246954
12716.6 81.0794906226631
12901.6 81.69352067219296
13089.2 82.01695520364811
13279.6 82.72787462731131
13472.8 83.61580637858262
13668.8 83.9104083366507
13867.6 84.70208308738553
14069.3 86.37430651252106
14273.9 87.38362269108147
14481.5 86.33264475462842
14692.2 84.17625145338577
14905.9 83.05577933581463
15122.7 83.12091415133196
15342.7 83.24075163334552
15565.8 82.52340886675447
15792.2 81.12452738017285
16021.9 79.96649003493167
16255.0 78.92541885004778
16491.4 77.3262272728644
16731.3 76.91872111724523
16974.7 77.64315609729357
17221.6 77.64355404116553
17472.1 76.81304872789146
17726.2 75.06737235907028
17984.0 73.13686682823388
18245.6 71.92082023733509
18511.0 70.90941964190283
18780.2 69.75382602141694
19053.4 68.04024269646472
19330.5 66.94598031728727
19611.7 66.03950300235616
19897.0 66.02944099990383
