Freq,On Axis,Listening Window,Sound Power,Early Reflections,Early Reflections DI,Sound Power DI,DI offset
22.4,28.500000000000014,27.598369945369868,26.80349465212565,27.16875059872082,40.42961934664905,40.79487529324422,40
23.0,30.10000000000001,29.31284508564839,28.3960156233061,28.810513393451785,40.502331692196606,40.91682946234229,40
23.6,31.39999999999999,30.672811647527297,29.665637533336294,30.114629957086677,40.55818169044062,41.007174114191,40
24.0,32.39999999999999,31.814084258358818,30.72345783548441,31.197952612882958,40.61613164547586,41.09062642287441,40
25.0,33.39999999999999,32.782127137528946,31.644064755205235,32.142841471402406,40.63928566612654,41.13806238232371,40
25.8,34.2,33.656125606946446,32.45333044405997,32.986875669995314,40.66924993695113,41.202795162886474,40
26.5,34.89999999999999,34.45919553209599,33.21503311959343,33.75417608308187,40.70501944901412,41.24416241250256,40
27.2,35.89999999999999,35.45399234391205,34.170319558002134,34.725625891126796,40.72836645278525,41.283672785909914,40
28.0,36.8,36.3838071953998,35.05783841391646,35.635722512056546,40.74808468334325,41.32596878148334,40
29.0,37.60000000000001,37.18380719539981,35.846988321233326,36.43192738103993,40.75187981435988,41.33681887416648,40
30.0,38.8,38.45927869541434,37.0668784798563,37.66112004886942,40.79815864654492,41.39240021555804,40
30.7,40.8,40.43692492104795,39.019955606674515,39.641022020889054,40.79590290015889,41.41696931437343,40
31.5,42.2,41.8678081359803,40.461511737174064,41.07564646789926,40.792161668081036,41.406296398806234,40
32.5,43.7,43.41297514113181,41.98668020151827,42.610464670940345,40.802510470191464,41.42629493961354,40
33.5,46.7,46.4343267962558,44.99935448604073,45.62712689006317,40.807199906192636,41.43497231021507,40
34.5,48.7,48.489024606504316,47.04593814060745,47.66970729243026,40.819317314074056,41.44308646589687,40
35.5,50.39999999999999,50.18070899535219,48.70847296850347,49.332138647495256,40.848570347856935,41.47223602684872,40
36.5,52.60000000000001,52.43967781516223,51.009027625929335,51.620428604899004,40.81924921026322,41.43065018923289,40
37.5,54.3,54.15380359421228,52.745906479377126,53.34461540854706,40.80918818566522,41.40789711483515,40
38.7,55.89999999999999,55.77401041100104,54.43276207767157,55.00396754496869,40.770042866032355,41.341248333329474,40
40.0,57.89999999999999,57.803159863099566,56.528447144781424,57.075080431437826,40.72807943166174,41.27471271831814,40
41.2,59.3,59.30024127958809,58.11629745388008,58.61946532411538,40.68077595547271,41.18394382570801,40
42.5,61.0,61.043406267617,59.957624462420895,60.41832401129433,40.62508225632267,41.085781805196106,40
43.7,62.60000000000001,62.636019478489274,61.58297727026688,62.03252538019579,40.60349409829348,41.053042208222394,40
45.0,63.7,63.7033024536923,62.67065441764798,63.11315125058475,40.59015120310755,41.03264803604432,40
46.2,64.3,64.26165612391057,63.22273528900321,63.68136250567541,40.58029361823516,41.03892083490736,40
47.5,64.9,64.87836202527991,63.7931341836929,64.26598160675493,40.61238041852498,41.08522784158701,40
48.7,66.10000000000001,66.04014358506178,64.9201676852699,65.41144552521838,40.6286980598434,41.11997589979188,40
50.0,67.2,67.08333935656229,65.93374315771291,66.44621479406925,40.63712456249304,41.14959619884938,40
51.5,68.3,68.17051878801425,66.97373483623042,67.51619393739288,40.654324850621364,41.19678395178383,40
53.0,69.3,69.21378897689496,67.98180386388326,68.53320391062563,40.68058506626933,41.2319851130117,40
54.5,70.8,70.67024958908999,69.43480101222019,69.9995996527695,40.67064993632049,41.2354485768698,40
56.0,72.1,71.98129519967763,70.69709397897688,71.26958953516517,40.711705664512465,41.28420122070075,40
58.0,73.2,73.05917581404755,71.7733257592573,72.36167700976463,40.697498804282915,41.285850054790245,40
60.0,74.3,74.12498486321259,72.8266032484949,73.41106784463128,40.71391701858131,41.298381614717684,40
61.5,75.39999999999999,75.29157854454641,74.01218015212788,74.60710913664245,40.68446940790396,41.27939839241853,40
63.0,76.8,76.63745053767758,75.31918324455204,75.91365149429141,40.723799043386165,41.318267293125544,40
65.0,78.1,77.98030208071265,76.66814492202502,77.24762501835984,40.732677062352806,41.312157158687626,40
67.0,79.5,79.40282580483277,78.11604322543882,78.68613448302851,40.71669132180426,41.28678257939396,40
69.0,80.9,80.82422729361926,79.49884348416272,80.07706917146923,40.747158122150026,41.32538380945654,40
71.0,82.2,82.1351366410682,80.81832639826077,81.40796650982188,40.727170131246325,41.316810242807435,40
73.0,83.5,83.4351366410682,82.07913754896141,82.6871033643413,40.7480332767269,41.355999092106785,40
75.0,84.9,84.80204066493431,83.42869745145674,84.04798608741952,40.75405457751479,41.37334321347757,40
77.5,86.0,85.9020406649343,84.5104058524448,85.14748265767922,40.754558007255085,41.3916348124895,40
80.0,86.3,86.24601865321388,84.8472071825703,85.49596766467569,40.75005098853819,41.39881147064358,40
82.5,86.8,86.77925578640907,85.33674744230412,86.00626087488739,40.77299491152168,41.44250834410495,40
85.0,87.3,87.1905349637499,85.77057303129122,86.44988689792531,40.74064806582459,41.419961932458676,40
87.5,87.50000000000001,87.42419779300914,86.01114315846344,86.68915468381539,40.735043109193754,41.4130546345457,40
90.0,87.59999999999998,87.46846270750856,86.08341449869192,86.7479372695568,40.720525437951764,41.38504820881664,40
92.5,87.4,87.35712598473216,85.98278148502679,86.64359584435854,40.71353014037362,41.37434449970537,40
95.0,87.2,87.12472454359539,85.74688969041911,86.39810332142757,40.72662122216782,41.37783485317628,40
97.5,86.9,86.81378897689495,85.44151342829277,86.0895748486571,40.72421412823786,41.37227554860219,40
100.0,86.6,86.5351366410682,85.12898075154904,85.78431142206934,40.75082521899887,41.40615588951917,40
103.0,86.3,86.24601865321388,84.84524597750747,85.50696896761504,40.73904968559884,41.400772675706406,40
106.0,86.2,86.10204066493431,84.62243049051663,85.30983141915449,40.792209245779816,41.47961017441767,40
109.0,86.0,85.9343573213356,84.45189521820463,85.15096066507276,40.78339665626284,41.48246210313097,40
112.0,85.9,85.83435732133559,84.30584163807178,85.02866161958377,40.805695701751816,41.528515683263805,40
115.0,85.8,85.69104775809429,84.14611332135622,84.87576323996812,40.81528451812616,41.54493443673806,40
118.0,85.6,85.4910477580943,83.94711753688416,84.6756943568993,40.815353401195,41.54393022121013,40
122.0,85.3,85.2343573213356,83.71485344502379,84.44015905998637,40.79419826134922,41.5195038763118,40
125.0,84.9,84.8130058166541,83.3125956694355,84.0331321162768,40.779873700377294,41.5004101472186,40
128.0,84.5,84.43435732133558,82.94903633045287,83.66032874056285,40.774028580772736,41.48532099088271,40
132.0,84.3,84.2130058166541,82.70164815275496,83.41822851922807,40.79477729742604,41.51135766389915,40
136.0,83.99999999999999,83.91300581665409,82.35954520033802,83.09140499443428,40.82160082221981,41.55346061631607,40
140.0,83.8,83.64575355685861,82.07277460584989,82.83316860393124,40.81258495292737,41.57297895100872,40
145.0,83.7,83.55686156553041,81.92112423384798,82.70268357060952,40.85417799492089,41.635737331682435,40
150.0,83.7,83.57899271118895,81.86598071453808,82.69112170215975,40.8878710090292,41.71301199665086,40
155.0,83.8,83.7130058166541,81.94083025283607,82.78965034227835,40.923355474375754,41.77217556381804,40
160.0,83.99999999999999,83.91300581665409,82.1469241840637,82.97471304182079,40.9382927748333,41.766081632590385,40
165.0,84.3,84.14675460676936,82.45708670245303,83.25165159303626,40.895103013733106,41.68966790431634,40
170.0,84.5,84.3130058166541,82.70068549605188,83.44283296863728,40.87017284801682,41.61232032060222,40
175.0,84.6,84.41300581665409,82.82178508640503,83.56873646739147,40.84426934926262,41.59122073024906,40
180.0,84.6,84.5015232095018,82.88234919757114,83.64489426910392,40.85662894039788,41.61917401193065,40
185.0,84.6,84.51274477799038,82.7949608037258,83.60582801010116,40.906916767889214,41.71778397426458,40
190.0,84.6,84.45837672536983,82.55914750054569,83.4537731852477,41.00460354012213,41.89922922482414,40
195.0,84.6,84.40354610191523,82.34392616151446,83.31470720986214,41.08883889205309,42.059619940400765,40
200.0,84.5,84.31476245148907,82.22560139040475,83.2072000795376,41.107562371951474,42.089161061084326,40
206.0,84.4,84.20354610191525,82.14500503475249,83.11545219081032,41.088093911104934,42.058541067162764,40
212.0,84.3,84.13762776013772,82.0471222697714,83.03572956732937,41.10189819280835,42.09050549036631,40
218.0,84.2,84.04901542823474,81.82680201672413,82.8810944715934,41.16792095664134,42.22221341151061,40
224.0,83.99999999999999,83.84901542823474,81.43042597863808,82.59328435799962,41.255731070235115,42.41858944959665,40
230.0,83.90000000000002,83.68378881309229,81.0781147821868,82.32079201226077,41.362996800831525,42.60567403090549,40
236.0,83.90000000000002,83.66063752019828,80.90594129290612,82.22918527310865,41.431452247089624,42.75469622729216,40
240.0,83.90000000000002,83.64928032556396,80.7778604653564,82.17369453336704,41.475585792196924,42.87141986020757,40
250.0,83.90000000000002,83.64928032556396,80.58352441745477,82.07295116296584,41.57632916259813,43.065755908109196,40
258.0,83.90000000000002,83.68378881309229,80.44154530871903,82.01600253061383,41.66778628247846,43.24224350437326,40
265.0,83.99999999999999,83.72896215694925,80.44137094186554,82.04676534034307,41.68219681660618,43.28759121508371,40
272.0,84.1,83.82896215694925,80.54241802727897,82.18341356680273,41.64554859014652,43.286544129670276,40
280.0,84.3,84.04928032556396,80.64474543237061,82.36887419320976,41.68040613235419,43.40453489319334,40
290.0,84.4,84.22647038441902,80.6887110135042,82.52321996545807,41.70325041896095,43.53775937091481,40
300.0,84.5,84.33815288443361,80.74995021077582,82.60659108742637,41.731561797007245,43.58820267365779,40
307.0,84.5,84.26169432147411,80.77317427940648,82.60104088228314,41.660653439190966,43.488520042067634,40
315.0,84.2,84.03920322092232,80.60973785393796,82.42407459946695,41.61512862145537,43.42946536698436,40
325.0,83.5,83.39413710327554,79.99917812681846,81.80504279199586,41.58909431127968,43.394958976457076,40
335.0,82.8,82.66151289664782,79.34266166999187,81.108087569707,41.553425326940825,43.31885122665595,40
345.0,82.4,82.26360426603732,78.9044460330929,80.67408530092955,41.58951896510777,43.359158232944424,40
355.0,82.3,82.1074711025647,78.72426445583473,80.50091922753127,41.60655187503343,43.383206646729974,40
365.0,82.59999999999998,82.44077894527068,79.06915815206656,80.85122022152835,41.58955872374233,43.371620793204116,40
375.0,83.2,83.0056392298125,79.56879736528967,81.38755815679143,41.618081073021074,43.43684186452283,40
387.0,83.7,83.46301548663156,79.90541492362304,81.7752409991579,41.68777448747366,43.55760056300852,40
400.0,83.90000000000002,83.68615414027435,80.05111053520396,81.95921222037552,41.726941919898834,43.63504360507039,40
412.0,83.99999999999999,83.80813689250785,80.05324397222563,82.04074165827865,41.7673952342292,43.75489292028222,40
425.0,83.90000000000002,83.66301548663156,79.85580039818029,81.85657025563204,41.80644523099953,43.80721508845127,40
437.0,83.7,83.43054076386274,79.620692175186,81.61001223546042,41.82052852840232,43.80984858867674,40
450.0,83.7,83.44276162535267,79.50292757275703,81.51661288148117,41.92614874387151,43.93983405259564,40
462.0,83.90000000000002,83.59987890724902,79.57766932038885,81.5952720114796,42.00460689576943,44.02220958686017,40
475.0,84.1,83.75813009595909,79.5550631961402,81.6541463388224,42.10398375713669,44.20306689981889,40
487.0,84.1,83.77055613246183,79.35722862544266,81.54572260067272,42.224833531789116,44.413327507019176,40
500.0,83.90000000000002,83.57055613246182,78.94228073293318,81.24374066868934,42.326815463772476,44.62827539952863,40
515.0,83.7,83.2953085929133,78.54726745336929,80.88460000022842,42.410708592684884,44.748041139544014,40
530.0,83.60000000000001,83.28565904836826,78.57495897991195,80.87576206647586,42.4098969818924,44.710700068456305,40
545.0,83.7,83.43008076438988,78.80128270530872,81.05143553903669,42.378645225353196,44.62879805908116,40
560.0,83.90000000000002,83.58862266232376,79.13348328552031,81.27171526568104,42.31690739664272,44.455139376803444,40
580.0,83.99999999999999,83.60530908335602,79.1449586197752,81.28995174085516,42.31535734250086,44.46035046358082,40
600.0,83.8,83.27741177172364,78.7365488721443,80.95871801630838,42.318693755415254,44.54086289957934,40
615.0,83.3,82.81070283478886,78.1506252065543,80.4806697413422,42.33003309344666,44.66007762823456,40
630.0,83.0,82.43764387677045,77.73371277469094,80.12983559540484,42.30780828136561,44.70393110207951,40
650.0,83.0,82.52631566765763,77.82065693249908,80.21027141428978,42.31604425336785,44.70565873515855,40
670.0,83.4,82.99391938272045,78.27356382875611,80.62831483815019,42.36560454457026,44.72035555396434,40
690.0,83.90000000000002,83.56418035436764,78.79208639869609,81.20473700674746,42.35944334762017,44.77209395567155,40
710.0,84.2,83.86619265662236,78.8618422440576,81.49454263804769,42.37165001857467,45.00435041256476,40
730.0,84.2,83.76008405770047,78.54382618200714,81.37851904560166,42.381565012098804,45.21625787569333,40
750.0,83.90000000000002,83.4764793065038,78.10576431775934,81.08869816915114,42.38778113735266,45.37071498874447,40
775.0,83.60000000000001,83.11689226459681,77.6811104897111,80.78359193525603,42.33330032934079,45.43578177488571,40
800.0,83.3,82.79139987003263,77.30190968718203,80.48381495673672,42.30758491329591,45.4894901828506,40
825.0,83.1,82.63737081041468,77.11799804819059,80.37332238812841,42.264048422286265,45.519372762224094,40
850.0,83.0,82.56318138146226,76.91631482410669,80.21285785316519,42.35032352829707,45.646866557355565,40
875.0,83.2,82.66401090890173,76.81598457198653,80.20391808093034,42.460092827971394,45.8480263369152,40
900.0,83.3,82.79590032892266,76.6409131409323,80.14609676139435,42.64980356752831,46.15498718799036,40
925.0,83.60000000000001,83.00535925755828,76.54685659942612,80.18466342931453,42.82069582824376,46.45850265813216,40
950.0,83.7,83.06622288134082,76.29979383516478,80.03161067057013,43.03461221077069,46.76642904617604,40
975.0,83.4,82.75434501169967,75.81956169122837,79.53489019367274,43.21945481802693,46.9347833204713,40
1000.0,83.1,82.44456490017889,75.47407110739994,79.10527030653951,43.33929459363938,46.97049379277895,40
1030.0,82.50000000000001,82.03777558073911,75.18089021472218,78.66749660357388,43.37027897716523,46.856885366016925,40
1060.0,82.2,81.75827502467784,75.01228851006032,78.38948633588248,43.36878868879536,46.74598651461753,40
1090.0,82.2,81.79260053588041,75.09641795714192,78.42892217849756,43.36367835738285,46.69618257873849,40
1120.0,82.50000000000001,82.07508066333224,75.20536428728565,78.59055880309087,43.48452186024137,46.8697163760466,40
1150.0,83.0,82.31533663276089,74.76299905695684,78.32269225919208,43.99264437356881,47.552337575804046,40
1180.0,83.3,82.28483378720031,73.91056435549109,77.71826324232029,44.56657054488002,48.37426943170922,40
1220.0,83.60000000000001,82.43966780492951,73.5643165910459,77.53007905683417,44.909588748095345,48.87535121388362,40
1250.0,83.7,82.53684599503073,73.58764254346052,77.48492907482752,45.05191692020321,48.94920345157021,40
1280.0,83.7,82.69062314879325,73.8541447883164,77.58645326532745,45.1041698834658,48.836478360476846,40
1320.0,83.7,82.84840939795824,74.04786774213055,77.62925472411848,45.21915467383975,48.800541655827686,40
1360.0,83.60000000000001,82.6152927662692,73.79647730505471,77.26565643965232,45.34963632661689,48.8188154612145,40
1400.0,83.5,82.43501908689066,73.78363398238334,77.11197643663316,45.323042650257506,48.65138510450733,40
1450.0,83.3,82.09369754552678,73.61572399116864,76.82475444908785,45.26894309643893,48.477973554358144,40
1500.0,82.89999999999999,81.72443751207338,73.49306807967415,76.49589765923903,45.228539852834345,48.231369432399234,40
1550.0,82.4,81.2669238559563,73.47060021281652,76.03536797433718,45.23155588161913,47.796323643139786,40
1600.0,81.8,80.77693226193563,73.62624285501126,75.81332842200906,44.96360383992656,47.15068940692437,40
1650.0,81.49999999999999,80.86491504083897,74.33765319422973,76.2936999644589,44.57121507638007,46.527261846609235,40
1700.0,81.49999999999999,81.30541314175231,75.58773734121252,77.44909916311285,43.85631397863946,45.717675800539794,40
1750.0,81.49999999999999,81.66284481211191,76.31243154008109,78.31155623257322,43.35128857953869,45.35041327203082,40
1800.0,81.7,81.99424276126625,76.37738208951026,78.77472255721064,43.21952020405561,45.61686067175599,40
1850.0,81.8,81.91839472727065,76.55557745997821,79.21032642816562,42.70806829910504,45.36281726729244,40
1900.0,81.6,81.7089125698748,76.38099348580577,79.14368422845321,42.56522834142159,45.32791908406902,40
1950.0,81.6,81.36545426979721,76.48872552890855,79.47909552769613,41.88635874210108,44.876728740888666,40
2000.0,81.9,81.14000140633311,75.96425588725977,79.33202280838407,41.807978597949045,45.175745519073345,40
2060.0,82.1,81.17371932510586,75.69447671981773,79.54113178174487,41.632587543361,45.479242605288135,40
2120.0,82.50000000000001,81.87348907252417,75.9550378453614,79.91398604283103,41.95950302969314,45.91845122716276,40
2180.0,83.3,82.81022750091577,76.76689738397836,80.84479346681694,41.965434034098834,46.04333011693741,40
2240.0,83.90000000000002,82.80207538699617,76.48309929342146,80.93783828019266,41.8642371068035,46.318976093574705,40
2300.0,83.99999999999999,82.65312439946851,75.87248462707248,80.50542151329303,42.14770288617548,46.78063977239603,40
2360.0,83.99999999999999,83.15490836189774,75.38791454086305,80.14132211270808,43.01358624918966,47.76699382103469,40
2400.0,83.7,82.74731458769449,74.21486702427949,79.21162621284321,43.535688374851276,48.532447563415005,40
2500.0,83.60000000000001,82.44346471927675,74.11516704699538,78.88032487904256,43.563139840234186,48.328297672281366,40
2580.0,83.99999999999999,83.09555804768343,74.85122612554657,79.21603462918523,43.879523418498195,48.24433192213685,40
2650.0,84.4,83.38921167253743,74.82514051539295,79.05366667714586,44.33554499539157,48.56407115714448,40
2720.0,84.4,82.75992190151156,73.8520145622488,78.47080862979034,44.28911327172122,48.90790733926276,40
2800.0,84.5,82.61732662476906,73.77201326200945,78.26784080072761,44.34948582404145,48.84531336275961,40
2900.0,84.4,82.5430682359226,73.69043532874151,77.83496651188703,44.70810172403557,48.85263290718109,40
3000.0,84.3,81.84316793183986,72.61881689235832,76.94156276715741,44.90160516468245,49.22435103948153,40
3070.0,83.8,81.4398639284341,72.62124863953449,76.67745355983963,44.76241036859446,48.81861528889961,40
3150.0,83.4,81.78280083665403,72.96002342934489,77.1010112549633,44.68178958169074,48.82277740730915,40
3250.0,83.1,81.27310728374997,71.79186789275752,75.87086165820533,45.40224562554464,49.48123939099244,40
3350.0,83.1,81.67583933038503,73.69791305722333,77.12605828446814,44.54978104591689,47.9779262731617,40
3450.0,83.3,82.38347732952595,73.43670762556832,77.42733445439085,44.9561428751351,48.94676970395763,40
3550.0,83.3,81.70037601317325,73.73924282349503,77.4436983293261,44.25667768384716,47.96113318967822,40
3650.0,83.3,82.43458883784918,74.43692600687405,78.51079841676447,43.9237904210847,47.99766283097513,40
3750.0,83.2,81.56475725084572,72.36653996444988,76.78466950121052,44.7800877496352,49.19821728639583,40
3870.0,83.2,82.1850359386635,74.32858581626081,78.51660415750777,43.66843178115573,47.85645012240269,40
4000.0,83.5,82.48544190322393,73.14548792904235,77.80932245047399,44.676119452749944,49.33995397418158,40
4120.0,83.7,82.83246806876951,74.74768383419125,78.91445417605648,43.918013892713034,48.084784234578265,40
4250.0,83.99999999999999,83.32980452662991,74.08716331359294,78.76546451497241,44.56434001165751,49.242641213036976,40
4370.0,84.4,83.12765577564709,75.25043766105925,79.21875139223992,43.90890438340716,47.87721811458783,40
