Freq "On Axis"
22.4 29.245569620253207
23.0 30.8455696202532
23.6 32.145569620253184
24.0 33.145569620253184
25.0 34.145569620253184
25.8 34.945569620253195
26.5 35.645569620253184
27.2 36.645569620253184
28.0 37.54556962025319
29.0 38.3455696202532
30.0 39.54556962025319
30.7 41.54556962025319
31.5 42.945569620253195
32.5 44.445569620253195
33.5 47.445569620253195
34.5 49.445569620253195
35.5 51.145569620253184
36.5 53.3455696202532
37.5 55.04556962025319
38.7 56.645569620253184
40.0 58.645569620253184
41.2 60.04556962025319
42.5 61.74556962025319
43.7 63.3455696202532
45.0 64.4455696202532
46.2 65.04556962025319
47.5 65.6455696202532
48.7 66.8455696202532
50.0 67.9455696202532
51.5 69.04556962025319
53.0 70.04556962025319
54.5 71.54556962025319
56.0 72.84556962025319
58.0 73.9455696202532
60.0 75.04556962025319
61.5 76.14556962025318
63.0 77.54556962025319
65.0 78.84556962025319
67.0 80.24556962025319
69.0 81.6455696202532
71.0 82.9455696202532
73.0 84.24556962025319
75.0 85.6455696202532
77.5 86.74556962025319
80.0 87.04556962025319
82.5 87.54556962025319
85.0 88.04556962025319
87.5 88.2455696202532
90.0 88.34556962025317
92.5 88.1455696202532
95.0 87.9455696202532
97.5 87.6455696202532
100.0 87.34556962025319
103.0 87.04556962025319
106.0 86.9455696202532
109.0 86.74556962025319
112.0 86.6455696202532
115.0 86.54556962025319
118.0 86.34556962025319
122.0 86.04556962025319
125.0 85.6455696202532
128.0 85.24556962025319
132.0 85.04556962025319
136.0 84.74556962025318
140.0 84.54556962025319
145.0 84.4455696202532
150.0 84.4455696202532
155.0 84.54556962025319
160.0 84.74556962025318
165.0 85.04556962025319
170.0 85.24556962025319
175.0 85.34556962025319
180.0 85.34556962025319
185.0 85.34556962025319
190.0 85.34556962025319
195.0 85.34556962025319
200.0 85.24556962025319
206.0 85.1455696202532
212.0 85.04556962025319
218.0 84.9455696202532
224.0 84.74556962025318
230.0 84.64556962025321
236.0 84.64556962025321
240.0 84.64556962025321
250.0 84.64556962025321
258.0 84.64556962025321
265.0 84.74556962025318
272.0 84.84556962025319
280.0 85.04556962025319
290.0 85.1455696202532
300.0 85.24556962025319
307.0 85.24556962025319
315.0 84.9455696202532
325.0 84.24556962025319
335.0 83.54556962025319
345.0 83.1455696202532
355.0 83.04556962025319
365.0 83.34556962025317
375.0 83.9455696202532
387.0 84.4455696202532
400.0 84.64556962025321
412.0 84.74556962025318
425.0 84.64556962025321
437.0 84.4455696202532
450.0 84.4455696202532
462.0 84.64556962025321
475.0 84.84556962025319
487.0 84.84556962025319
500.0 84.64556962025321
515.0 84.4455696202532
530.0 84.3455696202532
545.0 84.4455696202532
560.0 84.64556962025321
580.0 84.74556962025318
600.0 84.54556962025319
615.0 84.04556962025319
630.0 83.74556962025319
650.0 83.74556962025319
670.0 84.1455696202532
690.0 84.64556962025321
710.0 84.9455696202532
730.0 84.9455696202532
750.0 84.64556962025321
775.0 84.3455696202532
800.0 84.04556962025319
825.0 83.84556962025319
850.0 83.74556962025319
875.0 83.9455696202532
900.0 84.04556962025319
925.0 84.3455696202532
950.0 84.4455696202532
975.0 84.1455696202532
1000.0 83.84556962025319
1030.0 83.2455696202532
1060.0 82.9455696202532
1090.0 82.9455696202532
1120.0 83.2455696202532
1150.0 83.74556962025319
1180.0 84.04556962025319
1220.0 84.3455696202532
1250.0 84.4455696202532
1280.0 84.4455696202532
1320.0 84.4455696202532
1360.0 84.3455696202532
1400.0 84.24556962025319
1450.0 84.04556962025319
1500.0 83.64556962025318
1550.0 83.1455696202532
1600.0 82.54556962025319
1650.0 82.24556962025318
1700.0 82.24556962025318
1750.0 82.24556962025318
1800.0 82.4455696202532
1850.0 82.54556962025319
1900.0 82.34556962025319
1950.0 82.34556962025319
2000.0 82.6455696202532
2060.0 82.84556962025319
2120.0 83.2455696202532
2180.0 84.04556962025319
2240.0 84.64556962025321
2300.0 84.74556962025318
2360.0 84.74556962025318
2400.0 84.4455696202532
2500.0 84.3455696202532
2580.0 84.74556962025318
2650.0 85.1455696202532
2720.0 85.1455696202532
2800.0 85.24556962025319
2900.0 85.1455696202532
3000.0 85.04556962025319
3070.0 84.54556962025319
3150.0 84.1455696202532
3250.0 83.84556962025319
3350.0 83.84556962025319
3450.0 84.04556962025319
3550.0 84.04556962025319
3650.0 84.04556962025319
3750.0 83.9455696202532
3870.0 83.9455696202532
4000.0 84.24556962025319
4120.0 84.4455696202532
4250.0 84.74556962025318
4370.0 85.1455696202532
4500.0 85.34556962025319
4620.0 85.24556962025319
4750.0 85.04556962025319
4870.0 84.64556962025321
5000.0 84.1455696202532
5150.0 83.54556962025319
5300.0 82.84556962025319
5450.0 83.04556962025319
5600.0 83.84556962025319
5800.0 84.9455696202532
6000.0 85.84556962025317
6150.0 86.24556962025319
6300.0 86.34556962025319
6500.0 86.6455696202532
6700.0 86.9455696202532
6900.0 86.8455696202532
7100.0 85.9455696202532
7300.0 85.04556962025319
7500.0 84.84556962025319
7750.0 84.9455696202532
8000.0 85.54556962025319
8250.0 86.14556962025318
8500.0 85.9455696202532
8750.0 84.9455696202532
9000.0 83.84556962025319
9250.0 83.04556962025319
9500.0 83.1455696202532
9750.0 84.9455696202532
10000.0 86.6455696202532
10300.0 87.6455696202532
10600.0 87.74556962025319
10900.0 86.54556962025319
11200.0 85.6455696202532
11500.0 85.54556962025319
11800.0 86.34556962025319
12200.0 87.6455696202532
12500.0 87.9455696202532
12800.0 86.74556962025319
13200.0 87.04556962025319
13600.0 87.84556962025319
14000.0 87.6455696202532
14500.0 87.14556962025321
15000.0 85.34556962025319
15500.0 83.84556962025319
16000.0 83.9455696202532
16500.0 83.64556962025318
17000.0 83.1455696202532
17500.0 81.04556962025319
18000.0 74.1455696202532
18500.0 68.4455696202532
19000.0 65.54556962025319
19500.0 63.145569620253184
