Freq,Floor Bounce,Ceiling Bounce,Front Wall Bounce,Side Wall Bounce,Rear Wall Bounce,Total Early Reflection
20.5078,53.57514060456731,50.99030105702761,52.03727567436334,52.25468481528702,52.65536180608106,52.38353562120702
21.9727,56.05241285999827,53.502934538974415,54.67219237133648,54.78282207579406,54.89972723506648,54.857256152738074
23.4375,57.92681631638874,55.137567544233264,56.533892425634036,56.5491684410693,56.60511397734854,56.63964316266333
24.9023,59.945903206096816,57.16373370855504,58.59353493098911,58.615368994731654,58.649430290889114,58.681922974115736
26.3672,62.29598543120197,59.88183141150206,61.160467122569784,61.154480302861,61.07673404130996,61.180676718903
27.832,63.505057476009625,61.18008250234084,62.40899984183551,62.404257547697085,62.34129093914133,62.429850603222434
29.2969,65.18495153065987,62.949114361533105,64.15193979184826,64.12918918731357,64.03017287146434,64.14650093250674
30.7617,66.83255256805813,64.73818448723178,65.8665104928842,65.84517774284237,65.76435570877081,65.8597069621784
32.2266,68.16896065063878,66.10418086786486,67.21903670932693,67.19595660799432,67.10637918883296,67.20788891708725
33.6914,69.66898065828195,67.71652446023867,68.81327465191157,68.74722244458759,68.51791173953856,68.7377232318395
35.1562,71.0948962718755,69.08023422361514,70.19527470237401,70.11162077318396,69.86993212736142,70.11857522134731
36.6211,72.25484251774795,70.28223557255782,71.37766912435379,71.28816890420048,71.04973214179302,71.29679876610486
38.0859,73.6424483751746,71.74835600657585,72.81433568675945,72.70422632253948,72.40146926588842,72.70589769797627
39.5508,74.91400933999748,73.09816677469782,74.1222493144696,74.00922940173201,73.71387325593196,74.01183816927212
41.0156,76.15477763092548,74.37767112040744,75.3921676034597,75.25942742328567,74.91304029688955,75.25906274725372
42.4805,77.41237998578298,75.67655610548987,76.67610819299964,76.53140069967992,76.16599283039925,76.53088291033369
43.9453,78.55563085266375,76.84049952644392,77.8384763546066,77.68208197343348,77.2988530949577,77.6810771577893
45.4102,79.6111289347779,77.93996581857337,78.92047445286315,78.75240265815651,78.34469354859323,78.75055159593144
46.875,80.56596008452324,78.9621867400947,79.90640542689755,79.74101125882866,79.34472937017105,79.73808313056608
48.3398,81.36797192716186,79.80171095886143,80.72685467487969,80.5649444053543,80.18569603085183,80.5617311830557
51.2695,82.71309279240349,81.2026304204226,82.10600713605393,81.93175623817523,81.53175534958703,81.92785199305597
52.7344,83.20650189659429,81.71902741879364,82.61818275243928,82.42686394030787,81.99280760521833,82.42353503975244
54.1992,83.58080581612239,82.12634320374329,83.01210859006477,82.80696723096261,82.35505870705862,82.80656045087197
55.6641,83.74726653828436,82.29280425431274,83.17695598544347,82.98110627161333,82.55131782267374,82.97960484696634
58.5938,84.02897981390431,82.53423009746852,83.46353061767478,83.22910169641395,82.70602879115401,83.22594376626301
60.0586,84.11965696305239,82.66168503462512,83.57402181291087,83.33364605566891,82.77210010280058,83.32553246554957
62.9883,84.09350095063292,82.66778154672676,83.56053898174571,83.33010198430611,82.81494411055112,83.32433771957274
64.4531,84.03360964054471,82.61778599667855,83.5064173992498,83.27633001503419,82.7765022018663,83.27241265224009
67.3828,83.85297606080854,82.43730522959027,83.32904773166476,83.10549676273972,82.62318579927378,83.09934123996493
68.8477,83.78396873210043,82.35223540244095,83.25361048283224,83.04253899119556,82.61299474957323,83.03804494982668
71.7773,83.72476672395936,82.32382964105324,83.2187997303179,82.98236589109231,82.53499230697592,82.98566018346474
74.707,83.73089459539486,82.38836755139442,83.2555499151726,83.0058550852728,82.50270551484854,83.0049332021396
77.6367,83.65297795207415,82.33715480589072,83.18811069912488,82.9516627010441,82.48750162260461,82.94984004931104
79.1016,83.5932125165844,82.26176567737345,83.12460024238695,82.88697280118294,82.41995092285529,82.88418769513456
82.0312,83.42944988666514,82.08222002814654,82.96196752934333,82.70638551343404,82.25367913427866,82.71411779634694
84.9609,83.3576298108583,82.07303292882251,82.94639752412928,82.66143207668007,82.1402697703074,82.66307991279338
87.8906,83.226570748358,81.90859517512585,82.77778043758158,82.51823154069483,82.17673237412701,82.5460700681394
90.8203,83.73103724686845,82.31944442959337,83.31054094971702,82.86488613190923,82.00711427943273,82.89218639702885
95.2148,83.03589588433925,81.71384907734463,82.58558708032642,82.33700597380829,81.96923299212817,82.35316682493053
98.1445,83.110538341459,81.81433687830642,82.70356779230794,82.36883611234185,81.84627874548806,82.39751482091606
101.074,82.91317002605291,81.52689978775285,82.45345569364284,82.18083625602141,81.91338366972556,82.2231476698485
105.469,83.15312017491834,81.8277743825644,82.76841717537216,82.37569671902807,81.7340967083583,82.40582213087102
108.398,83.29994610003475,81.95173284596567,82.91523934558907,82.45721314585356,81.70729709494637,82.50637190190281
112.793,83.2696790049676,81.9462192303694,82.92081086462922,82.43294647500541,81.74295369754806,82.50055334616077
117.188,83.27074649552736,81.82040656621919,82.86855952644694,82.3575458306456,81.50928877152123,82.41373968807335
120.117,83.37583337718986,82.03241621832316,83.03248658040206,82.52333239137297,81.42209101755697,82.53236922158372
124.512,83.01091984355627,81.73428247292276,82.67079965725043,82.26015707816302,81.41654036170075,82.2578010935361
128.906,82.94697973687006,81.61657391079828,82.55600327042231,82.1536296109825,81.61578235303844,82.20946607106488
133.301,82.90218374102314,81.49252406424739,82.50372582274373,82.0678556135612,81.46086278088353,82.12211848475069
139.16,82.86644419196058,81.41013899343696,82.47664816922841,81.96618225762643,81.24008412883367,82.03591514689498
143.555,82.7735999139264,81.29341491379554,82.39153853612743,81.83127046896678,81.12463432860233,81.92864304635214
147.949,82.69508165668623,81.16706509075716,82.3217185844301,81.74594949395848,80.96764175232056,81.8295395067926
153.809,82.59169131429556,81.06229153688179,82.23602123683439,81.62026850360735,80.70164895947796,81.69926448498282
159.668,82.56859749245614,81.06867739843304,82.20657993818872,81.59364542788072,80.72597883025566,81.68671791952065
165.527,82.5206186223588,81.06026145530055,82.17720278154978,81.57492286799427,80.89479617145017,81.69090412323888
171.387,82.58308419116521,81.14973354076338,82.29219624600987,81.55140732205768,80.68294368513148,81.70880905777743
177.246,82.42078206142868,80.90474563613438,82.13211952873465,81.3963096592023,80.19708025245012,81.48432121052684
183.105,81.91719137906244,80.45291342182125,81.63070388201277,80.99909949115965,80.12601311733256,81.07798506839721
188.965,82.0233842835075,80.338217699919,81.68716723322757,80.92529350985996,79.96834403565818,81.05808246372109
196.289,82.08995705649616,80.57197441552498,81.83600088806625,80.98593833987078,79.77590344502954,81.13245032587845
203.613,81.8704931065491,80.30626250318112,81.64253606290154,80.69259594701907,79.44405163797937,80.88051024346905
210.938,81.86422744375547,80.3948796346952,81.6731529864082,80.79989114231303,79.27398264842265,80.89875414392253
218.262,81.60947058930125,80.09124038645159,81.31274280622344,80.57931146108496,79.38220588463066,80.66910997772423
225.586,81.64654324779083,79.93393038892155,81.28226941047436,80.44737146702951,79.34024389959748,80.61222312810257
232.91,81.72089518685553,80.04625672385518,81.46209891856024,80.50471178977038,78.87939583716243,80.63935272116419
241.699,81.1331092352674,79.52090409150816,80.7977211552847,80.10409892718218,78.35920703071483,80.09018556195255
250.488,80.438933623821,78.59061067661662,79.83610882160147,79.57363051135997,78.43059127239997,79.44028479694884
259.277,78.97765891217465,76.06816685156966,78.655303203544,77.3018143901904,80.9258140744426,78.69611499722492
268.066,83.25433986125785,79.56200308097945,83.10582212909526,80.23151777148065,81.1360818711723,81.7131084873985
276.855,83.14616858052312,80.40264899835599,82.9901531357621,81.04215737478367,79.5536144929383,81.65836249411653
287.109,82.71134261957035,80.38244376580043,82.6802335411451,80.92365521709452,79.04904012149775,81.36909420528647
297.363,82.88326738942722,80.55679490272703,82.84818912022708,81.18606827079728,79.29195181929654,81.56516012130425
307.617,83.30982212256922,80.83263749007848,83.16644992923105,81.43415156569269,78.86156388146003,81.8115983156872
319.336,83.20477735878534,80.38274123183616,82.87309449255751,81.11739534133216,78.7428534206527,81.56161837313736
329.59,83.47748826652764,80.59388432703426,83.25838189599102,81.68058631920856,78.79200857912747,81.88700790026365
341.309,83.87183323747799,80.84138856349391,83.50723405026474,82.06000112531156,79.55911618411376,82.25592385592802
353.027,85.12794230046404,80.83742140602718,84.50769308398448,82.96847104696253,80.11923706233905,83.1393203383353
366.211,85.81678392961491,78.81604624754196,84.19667554348699,82.83232419763658,79.83975122833725,83.04909362356958
379.395,79.20340629366714,69.84630279068092,74.9275466878407,73.36553927288395,72.08645093030725,75.10185116696158
392.578,77.9927253604894,76.26002934742661,77.07447124710816,75.76636043528472,71.59880526361142,76.19966981803319
405.762,78.56660057092404,76.7368462175699,78.37018941645758,76.83637137086855,73.41138685045232,77.12601002602668
420.41,79.63086734520196,77.80909405501751,79.58513417351682,78.13301821299353,73.71573885896082,78.21787079860933
435.059,79.23895077268705,77.58762592729055,79.31528884433511,78.08954965338826,73.66126574237289,77.98463274222419
451.172,80.2869457624387,77.5923329091145,80.201921424625,78.76298557230548,74.28699001934723,78.70498521768096
465.82,80.61574772454917,77.99687653450184,80.35683125024451,79.19281430523716,74.45992488130008,79.0070565184122
483.398,80.64445117387194,78.06304705665077,80.49309939146998,79.4630328696783,75.0911111555252,79.1666608089111
499.512,80.44997363820673,77.99247306045868,80.5964762152964,79.10567576019879,74.58606043511648,79.01744597911437
517.09,81.50773415926602,78.88300153901062,81.6729929254979,80.39844046773422,75.36179463038512,80.0842927373407
536.133,80.70298112839356,78.75365252104756,81.40912213873429,79.47759317751485,74.98921616041417,79.55362915951565
555.176,81.08849048490859,78.86016813701767,81.9127668852686,80.30510268753297,74.65054433773321,79.9755542482298
574.219,81.4342947708463,79.49299713229743,82.05364750214626,80.57666849089378,75.35922423433964,80.31104055916649
594.727,81.32505361060777,79.71184871536711,81.84318800796981,80.08298288142781,75.82406738303497,80.18937748903966
615.234,81.03001419566381,80.64490158731336,82.35261776377268,79.96311375045843,74.87694272043021,80.37077482400967
637.207,80.26767949510298,80.94646552671362,82.2685294085143,79.8826211090144,75.62261474210989,80.2786856691159
659.18,80.6494070522529,82.01745692964145,83.68485033477349,80.92726623019273,75.62504598154715,81.26574722775806
682.617,81.36880693455556,82.9920183767462,85.23193244063854,82.41396342752702,78.10382165204277,82.59473073653783
707.52,83.08470291181564,82.64695915671176,84.80827206717012,81.79758945411841,78.02052461335686,82.57506723708664
732.422,82.00949696011676,81.09931384725476,84.07894369017549,80.9600436707062,76.13558236312163,81.51829353338674
757.324,80.82874165584983,78.93917525978361,81.89119050359625,78.24534230346912,74.25572106089876,79.51653860436778
785.156,80.26482263855999,84.18494859396947,83.1105364641832,80.78385565118225,76.76526627328204,81.7045895154096
811.523,77.25074885962518,74.75523397156606,80.56210255695885,78.49719432010936,74.64030464364424,77.732938406858
840.82,76.47288330419278,76.90677133628867,81.21598938318375,78.56727938338182,75.41303888276046,78.22735857243534
870.117,81.07568126092188,74.77742115984748,77.71489327349707,74.81179977319263,73.52655415414141,77.32460282448592
900.879,76.38445127466106,78.24991738469848,79.38824443682657,76.14978757093303,71.77821096687997,77.0493467320221
933.105,78.54223640281589,70.92589357636122,78.5777208015517,75.95457521484353,72.80509765070235,76.32273173790558
965.332,77.80954349616904,78.71292431780981,81.36934511706124,78.82023956089597,74.06240127998088,78.73323480899305
1000.49,79.43462864919749,72.46202242825157,80.3445128020066,77.4949085997982,73.88321269332158,77.69817348829542
1035.64,80.79477499610184,75.17770147713533,79.8184302429626,77.02393882569304,72.7337351469463,78.03583606901833
1072.27,81.3325546548781,74.65238740823392,79.53679181770818,78.1243005420398,71.81283711690814,78.26195401957727
1108.89,81.99618549029863,78.11786519586832,79.56747662583466,77.28359833727659,72.90664710816841,78.88439487258898
1148.44,80.0692264454828,77.35242183088752,78.44211475081805,75.34200838710488,70.93843683148917,77.36309110810429
1189.45,82.04088333658609,79.11801720091378,77.39253680396132,75.5406202993427,71.16271909432075,78.39294089352578
1230.47,80.59241712310516,80.44679499914214,81.25055619020627,78.46011120869524,70.52846290098483,79.44740441720478
1274.41,80.58586068179395,78.93740419513475,80.75497721820955,78.05681969796714,71.33518605139767,78.91259559033782
1319.82,82.0044978788867,78.87272224964241,83.21579296676924,78.5265981983811,72.59005597878436,80.29276506846921
1366.7,84.08952638841032,75.376247905041,83.84877276086718,79.50715678036784,71.96038653549968,81.06173596563275
1413.57,84.98294892775759,75.64644347560062,82.93816679163449,78.54186893919581,72.25964603916039,81.04963577950635
1463.38,86.08869058689038,79.93551939560076,82.00931525001185,77.18483710845545,69.43113390949446,81.61216310540456
1516.11,85.06438974260625,81.12745338746598,80.34408505125761,76.75908323973869,70.1429799762845,80.91024444033147
1568.85,84.37932259271423,83.732826710074,78.58382017736912,76.09074412280171,70.67582525262337,81.03684311029636
1624.51,82.59425692977533,80.8029089608566,81.40531827786484,78.64254490376138,70.63673189969361,80.21172753781832
1681.64,83.15856364649355,79.57857943513002,83.10301929864278,79.13293664441296,71.83870962022183,80.78592230247304
1741.7,83.02423248301398,81.19514116146537,83.3534805207838,79.20442712628997,68.90137838825191,81.0706901048436
1803.22,83.07364476154795,79.15931875543808,84.1707344410202,80.18480295854866,71.33868961462449,81.23562318359777
1866.21,83.41802218651372,79.3513452428136,84.18770219907769,79.78509723119281,71.48044821880134,81.31829701579909
1932.13,82.89663721070048,79.50700256032769,82.33671550869505,78.60262317346557,69.65851786978114,80.3108498897883
1999.51,81.24018794116073,78.98691899970754,82.57790295352392,78.25822763459615,68.97773122123884,79.71420109836885
2069.82,80.73119082471331,78.75287549817564,82.19467766739194,77.52193047605621,67.46710533750807,79.25550232018442
2143.07,80.16043929322765,77.9794062889123,81.00392965924667,75.70900522822748,64.52884548423766,78.2299780748792
2219.24,80.45091159309925,78.5568032663175,78.1480079167066,71.65905838220826,59.47231362812714,77.21791448471647
2296.88,81.427685885423,81.06469129255323,81.41975275779237,76.08980851332734,65.89698144010511,79.54146988067228
2378.91,79.41072883239633,81.52753276531321,83.46141051819774,78.66585712388991,69.04320284252904,80.27699180843346
2462.4,76.52444220124681,80.8111234840598,85.02448502747592,80.30193949513459,69.8686354567431,80.79450957444719
2548.83,74.94897923143887,78.08738446350966,83.74578973277288,79.16817262553732,68.35883608476425,79.26302586345378
2639.65,70.9359328203319,75.16843006540094,80.44126299275123,75.46848832986346,64.3188280193072,75.88609587990868
2731.93,75.33183963919552,78.41761287116503,82.23850000181895,77.316814239334,66.45043273988395,78.18703591532638
2828.61,78.6984564390298,80.53402610424286,83.87834363248797,79.57607807521177,68.75385356828338,80.25014584245135
2928.22,79.61363581526581,80.68194853690014,85.08192873165885,81.05201124717779,69.29684102526777,81.24930978155712
3030.76,79.59827379694751,80.46874144658977,85.25322291726766,81.24560090054379,69.6172693284176,81.3363450619249
3137.7,79.48051452240904,79.82923808481996,84.59287379836911,80.38075783640814,68.99138545496481,80.71802060773099
3249.02,79.83789241059043,79.58939808804946,83.46274095733636,79.44628926165326,68.67825595241648,80.04046313599025
3363.28,80.28232032029662,78.60118655120876,83.03716251842869,78.87023345515061,67.75409293602428,79.6705877625223
3481.93,79.69527205550553,77.78053048297241,82.52998315931484,78.51172807696696,66.80971649102847,79.11746837202458
3604.98,80.28653420674152,76.78587217877543,82.03613110264075,78.38757777646619,66.8215177539622,78.90014713739266
3732.42,78.60931573046298,74.53526704859544,81.10152885239229,77.26685832582922,65.51013309919705,77.58509860048149
3864.26,80.04311422615031,73.70418565346071,82.18549438951808,77.79137809184313,65.97986112664229,78.49992760274938
4000.49,81.38448839271886,77.67656571054728,83.24241052769617,79.16630091094224,68.09409347427658,79.96577233095222
4141.11,80.51246611894035,77.5730643729985,83.57446321738706,79.62559000803606,67.85229337829142,79.95893847534518
4287.6,80.45255316339788,76.43808246374326,83.81737371477936,79.70572253077442,67.82389927072248,79.95960512164828
4438.48,79.88851653118718,76.38503008229293,83.2344900933885,79.24422916996278,67.76492871793491,79.46027021137003
4595.21,78.10159417753053,76.70276176151802,82.23554080972626,78.46416305165782,65.52173405463617,78.4818114619952
4756.35,78.88486315656607,76.83137493651802,82.61148396230885,78.42957621000757,65.61139510459697,78.82311318941223
4924.8,78.78345088627347,74.36596932874683,82.16744500817262,78.49920114286162,65.77577584142281,78.35282292507073
5097.66,79.33977181110666,75.50103689475509,82.86728001982216,79.75336061956912,67.63584224094976,79.19275689919407
5277.83,79.67456210625748,75.96590939874494,83.90072008363971,80.28546306033981,67.17152545968908,79.91047954142103
5463.87,79.82193851777528,75.39589304608211,83.95019197677043,80.7253592580627,67.00203054495572,80.01854915771989
5657.23,77.99632629759569,75.8671314580664,83.29236752110019,79.33150008635559,66.15487177251053,79.08413561128125
5856.45,79.92439588652039,75.60625806914287,83.62121508715053,80.02676430824408,66.60034674107511,79.73157772768275
6062.99,79.4165745875073,78.35204974826324,85.0535262623551,80.9236385147839,68.28245979520344,80.8381361530383
6276.86,78.26294282973024,77.53964805178825,83.24526427619304,79.47048281477637,66.88074627182905,79.32777887844853
6498.05,75.90183582774574,79.12156608263925,81.59105226102508,77.85615655822419,64.7219340407234,78.1804295489418
6726.56,78.35548288542176,77.17707307037465,81.0973236784332,77.40171979418567,63.505816886830075,77.87666099281572
6963.87,81.3535371568723,79.1636427713878,86.03610881996663,81.73783123408724,67.8799527518671,81.90794274653092
7209.96,80.96712168623142,78.79910103244461,88.32079796878756,83.81633780815696,68.93031797014777,83.5361538097225
7464.84,74.6178674580877,77.90081990668382,87.80084751832044,82.56798243522218,68.38916970088142,82.459280576809
7727.05,79.39696278888394,77.8231482900272,83.88835590707542,79.1501740548716,65.00095935139726,79.80292157243188
7999.51,79.9998279561018,73.78704127610958,85.69607113878462,80.90485299564801,65.91845616173782,80.94948566606953
8282.23,81.24790885810752,67.712435181645,87.78242909699462,82.606669928033,67.71267174199856,82.68332362316715
8573.73,79.26012503283089,69.2951440289321,88.28992846022999,82.85718849855193,67.48964698170849,82.86023538116437
8876.95,79.1977118238022,73.23127431912002,86.29371411344434,80.7720132667891,65.26612477295825,81.15913483196269
9188.96,80.09640694150055,69.31927792315656,88.24161613280427,82.52986631197041,67.00463916791703,82.84169480722593
9514.16,77.6711843353624,65.84069070386698,89.73531812142345,83.81831921207116,68.39344173865639,83.98291662712933
