Freq "Floor Bounce"
20.5078 53.571978483355196
21.9727 56.04925073878616
23.4375 57.923654195176624
24.9023 59.9427410848847
26.3672 62.292823309989856
27.832 63.50189535479751
29.2969 65.18178940944776
30.7617 66.82939044684602
32.2266 68.16579852942667
33.6914 69.66581853706984
35.1562 71.09173415066338
36.6211 72.25168039653583
38.0859 73.63928625396248
39.5508 74.91084721878536
41.0156 76.15161550971337
42.4805 77.40921786457086
43.9453 78.55246873145164
45.4102 79.60796681356578
46.875 80.56279796331113
48.3398 81.36480980594975
51.2695 82.70993067119137
52.7344 83.20333977538218
54.1992 83.57764369491028
55.6641 83.74410441707225
58.5938 84.0258176926922
60.0586 84.11649484184028
62.9883 84.0903388294208
64.4531 84.0304475193326
67.3828 83.84981393959643
68.8477 83.78080661088832
71.7773 83.72160460274725
74.707 83.72773247418274
77.6367 83.64981583086204
79.1016 83.59005039537229
82.0312 83.42628776545303
84.9609 83.35446768964619
87.8906 83.22340862714589
90.8203 83.72787512565634
95.2148 83.03273376312714
98.1445 83.10737622024689
101.074 82.9100079048408
105.469 83.14995805370623
108.398 83.29678397882263
112.793 83.26651688375549
117.188 83.26758437431525
120.117 83.37267125597775
124.512 83.00775772234415
128.906 82.94381761565795
133.301 82.89902161981102
139.16 82.86328207074847
143.555 82.77043779271429
147.949 82.69191953547411
153.809 82.58852919308345
159.668 82.56543537124402
165.527 82.51745650114668
171.387 82.5799220699531
177.246 82.41761994021657
183.105 81.91402925785033
188.965 82.02022216229538
196.289 82.08679493528405
203.613 81.86733098533699
210.938 81.86106532254335
218.262 81.60630846808914
225.586 81.64338112657872
232.91 81.71773306564342
241.699 81.12994711405528
250.488 80.43577150260889
259.277 78.97449679096253
268.066 83.25117774004573
276.855 83.14300645931101
287.109 82.70818049835823
297.363 82.8801052682151
307.617 83.3066600013571
319.336 83.20161523757322
329.59 83.47432614531553
341.309 83.86867111626587
353.027 85.12478017925193
366.211 85.8136218084028
379.395 79.20024417245503
392.578 77.98956323927729
405.762 78.56343844971192
420.41 79.62770522398985
435.059 79.23578865147493
451.172 80.28378364122659
465.82 80.61258560333705
483.398 80.64128905265983
499.512 80.44681151699461
517.09 81.50457203805391
536.133 80.69981900718145
555.176 81.08532836369648
574.219 81.43113264963418
594.727 81.32189148939565
615.234 81.0268520744517
637.207 80.26451737389087
659.18 80.64624493104078
682.617 81.36564481334345
707.52 83.08154079060353
732.422 82.00633483890465
757.324 80.82557953463771
785.156 80.26166051734788
811.523 77.24758673841306
840.82 76.46972118298066
870.117 81.07251913970977
900.879 76.38128915344895
933.105 78.53907428160377
965.332 77.80638137495693
1000.49 79.43146652798538
1035.64 80.79161287488972
1072.27 81.32939253366598
1108.89 81.99302336908652
1148.44 80.06606432427068
1189.45 82.03772121537398
1230.47 80.58925500189305
1274.41 80.58269856058183
1319.82 82.00133575767458
1366.7 84.0863642671982
1413.57 84.97978680654548
1463.38 86.08552846567827
1516.11 85.06122762139414
1568.85 84.37616047150212
1624.51 82.59109480856321
1681.64 83.15540152528143
1741.7 83.02107036180186
1803.22 83.07048264033584
1866.21 83.41486006530161
1932.13 82.89347508948836
1999.51 81.23702581994861
2069.82 80.7280287035012
2143.07 80.15727717201554
2219.24 80.44774947188714
2296.88 81.42452376421089
2378.91 79.40756671118422
2462.4 76.5212800800347
2548.83 74.94581711022676
2639.65 70.93277069911979
2731.93 75.32867751798341
2828.61 78.69529431781768
2928.22 79.6104736940537
3030.76 79.5951116757354
3137.7 79.47735240119692
3249.02 79.83473028937831
3363.28 80.2791581990845
3481.93 79.69210993429341
3604.98 80.28337208552941
3732.42 78.60615360925087
3864.26 80.0399521049382
4000.49 81.38132627150675
4141.11 80.50930399772824
4287.6 80.44939104218577
4438.48 79.88535440997506
4595.21 78.09843205631842
4756.35 78.88170103535396
4924.8 78.78028876506136
5097.66 79.33660968989454
5277.83 79.67139998504537
5463.87 79.81877639656317
5657.23 77.99316417638357
5856.45 79.92123376530827
6062.99 79.41341246629518
6276.86 78.25978070851812
6498.05 75.89867370653363
6726.56 78.35232076420965
6963.87 81.35037503566019
7209.96 80.96395956501931
7464.84 74.61470533687559
7727.05 79.39380066767183
7999.51 79.99666583488968
8282.23 81.24474673689541
8573.73 79.25696291161877
8876.95 79.19454970259008
9188.96 80.09324482028843
9514.16 77.66802221415028
9849.61 76.61001462915985
10196.8 76.82381589976106
10555.7 76.73575284323061
10927.7 76.93014592785859
11313.0 77.05980647514784
11712.9 79.60541449615766
12126.0 75.50340358167074
12553.7 79.68470188799373
12996.1 81.6208031846918
13454.6 80.79515841981438
13929.2 78.40697125717114
14419.9 78.07822734210797
14928.2 80.01949238417986
15455.6 80.09559741765125
16000.5 76.34953755263311
16564.5 73.00695266503057
17148.9 74.63549446101494
17752.4 72.42454873260849
18379.4 74.38250347849856
19026.9 71.55151728325828
19697.8 69.8168979206528
19999.5 69.67974512496987
