Freq "Floor Bounce"
20.5078 53.57514060456731
21.9727 56.05241285999827
23.4375 57.92681631638874
24.9023 59.945903206096816
26.3672 62.29598543120197
27.832 63.505057476009625
29.2969 65.18495153065987
30.7617 66.83255256805813
32.2266 68.16896065063878
33.6914 69.66898065828195
35.1562 71.0948962718755
36.6211 72.25484251774795
38.0859 73.6424483751746
39.5508 74.91400933999748
41.0156 76.15477763092548
42.4805 77.41237998578298
43.9453 78.55563085266375
45.4102 79.6111289347779
46.875 80.56596008452324
48.3398 81.36797192716186
51.2695 82.71309279240349
52.7344 83.20650189659429
54.1992 83.58080581612239
55.6641 83.74726653828436
58.5938 84.02897981390431
60.0586 84.11965696305239
62.9883 84.09350095063292
64.4531 84.03360964054471
67.3828 83.85297606080854
68.8477 83.78396873210043
71.7773 83.72476672395936
74.707 83.73089459539486
77.6367 83.65297795207415
79.1016 83.5932125165844
82.0312 83.42944988666514
84.9609 83.3576298108583
87.8906 83.226570748358
90.8203 83.73103724686845
95.2148 83.03589588433925
98.1445 83.110538341459
101.074 82.91317002605291
105.469 83.15312017491834
108.398 83.29994610003475
112.793 83.2696790049676
117.188 83.27074649552736
120.117 83.37583337718986
124.512 83.01091984355627
128.906 82.94697973687006
133.301 82.90218374102314
139.16 82.86644419196058
143.555 82.7735999139264
147.949 82.69508165668623
153.809 82.59169131429556
159.668 82.56859749245614
165.527 82.5206186223588
171.387 82.58308419116521
177.246 82.42078206142868
183.105 81.91719137906244
188.965 82.0233842835075
196.289 82.08995705649616
203.613 81.8704931065491
210.938 81.86422744375547
218.262 81.60947058930125
225.586 81.64654324779083
232.91 81.72089518685553
241.699 81.1331092352674
250.488 80.438933623821
259.277 78.97765891217465
268.066 83.25433986125785
276.855 83.14616858052312
287.109 82.71134261957035
297.363 82.88326738942722
307.617 83.30982212256922
319.336 83.20477735878534
329.59 83.47748826652764
341.309 83.87183323747799
353.027 85.12794230046404
366.211 85.81678392961491
379.395 79.20340629366714
392.578 77.9927253604894
405.762 78.56660057092404
420.41 79.63086734520196
435.059 79.23895077268705
451.172 80.2869457624387
465.82 80.61574772454917
483.398 80.64445117387194
499.512 80.44997363820673
517.09 81.50773415926602
536.133 80.70298112839356
555.176 81.08849048490859
574.219 81.4342947708463
594.727 81.32505361060777
615.234 81.03001419566381
637.207 80.26767949510298
659.18 80.6494070522529
682.617 81.36880693455556
707.52 83.08470291181564
732.422 82.00949696011676
757.324 80.82874165584983
785.156 80.26482263855999
811.523 77.25074885962518
840.82 76.47288330419278
870.117 81.07568126092188
900.879 76.38445127466106
933.105 78.54223640281589
965.332 77.80954349616904
1000.49 79.43462864919749
1035.64 80.79477499610184
1072.27 81.3325546548781
1108.89 81.99618549029863
1148.44 80.0692264454828
1189.45 82.04088333658609
1230.47 80.59241712310516
1274.41 80.58586068179395
1319.82 82.0044978788867
1366.7 84.08952638841032
1413.57 84.98294892775759
1463.38 86.08869058689038
1516.11 85.06438974260625
1568.85 84.37932259271423
1624.51 82.59425692977533
1681.64 83.15856364649355
1741.7 83.02423248301398
1803.22 83.07364476154795
1866.21 83.41802218651372
1932.13 82.89663721070048
1999.51 81.24018794116073
2069.82 80.73119082471331
2143.07 80.16043929322765
2219.24 80.45091159309925
2296.88 81.427685885423
2378.91 79.41072883239633
2462.4 76.52444220124681
2548.83 74.94897923143887
2639.65 70.9359328203319
2731.93 75.33183963919552
2828.61 78.6984564390298
2928.22 79.61363581526581
3030.76 79.59827379694751
3137.7 79.48051452240904
3249.02 79.83789241059043
3363.28 80.28232032029662
3481.93 79.69527205550553
3604.98 80.28653420674152
3732.42 78.60931573046298
3864.26 80.04311422615031
4000.49 81.38448839271886
4141.11 80.51246611894035
4287.6 80.45255316339788
4438.48 79.88851653118718
4595.21 78.10159417753053
4756.35 78.88486315656607
4924.8 78.78345088627347
5097.66 79.33977181110666
5277.83 79.67456210625748
5463.87 79.82193851777528
5657.23 77.99632629759569
5856.45 79.92439588652039
6062.99 79.4165745875073
6276.86 78.26294282973024
6498.05 75.90183582774574
6726.56 78.35548288542176
6963.87 81.3535371568723
7209.96 80.96712168623142
7464.84 74.6178674580877
7727.05 79.39696278888394
7999.51 79.9998279561018
8282.23 81.24790885810752
8573.73 79.26012503283089
8876.95 79.1977118238022
9188.96 80.09640694150055
9514.16 77.6711843353624
9849.61 76.61317675037196
10196.8 76.82697802097317
10555.7 76.73891496444273
10927.7 76.9333080490707
11313.0 77.06296859635995
11712.9 79.60857661736978
12126.0 75.50656570288285
12553.7 79.68786400920584
12996.1 81.62396530590391
13454.6 80.7983205410265
13929.2 78.41013337838325
14419.9 78.08138946332008
14928.2 80.02265450539197
15455.6 80.09875953886336
16000.5 76.35269967384522
16564.5 73.01011478624268
17148.9 74.63865658222706
17752.4 72.4277108538206
18379.4 74.38566559971068
19026.9 71.55467940447039
19697.8 69.82006004186492
19999.5 69.68290724618198
