Freq "Listening Window"
22.4 52.51407627120602
23.0 53.51407627120602
23.6 54.448012707207226
24.0 55.51407627120602
25.0 56.53638052444043
25.8 57.71407627120604
26.5 58.814076271206034
27.2 60.04801270720719
28.0 61.21407627120604
29.0 62.49216267193465
30.0 63.69216267193465
30.7 64.91407627120604
31.5 66.14801270720722
32.5 67.37014379237311
33.5 68.61407627120603
34.5 69.83638052444044
35.5 71.00288104114273
36.5 72.21407627120603
37.5 73.34801270720722
38.7 74.47014379237311
40.0 75.59216849450864
41.2 76.68091657455948
42.5 77.74801270720721
43.7 78.74801270720721
45.0 79.68091657455946
46.2 80.62627588157454
47.5 81.49216849450863
48.7 82.29216849450864
50.0 83.07014379237312
51.5 83.72627588157454
53.0 84.34801270720722
54.5 84.89216849450865
56.0 85.3814236213741
58.0 85.78142362137409
60.0 86.0814236213741
61.5 86.32627588157453
63.0 86.51561516623029
65.0 86.61561516623028
67.0 86.62627588157454
69.0 86.61561516623028
71.0 86.59320373576463
73.0 86.51561516623029
75.0 86.49320373576461
77.5 86.4156151662303
80.0 86.4156151662303
82.5 86.4156151662303
85.0 86.47169248071404
87.5 86.51561516623029
90.0 86.51561516623029
92.5 86.54981010830791
95.0 86.54981010830791
97.5 86.60517177478027
100.0 86.62757489604016
103.0 86.68270624735521
106.0 86.7171602588108
109.0 86.7171602588108
112.0 86.7171602588108
115.0 86.67325327616433
118.0 86.51716025881078
122.0 86.32939382738671
125.0 86.1293938273867
128.0 85.92939382738669
132.0 85.79783834378094
136.0 85.69783834378094
140.0 85.51041219537075
145.0 85.26677804283372
150.0 85.07944201222165
155.0 85.03664693791937
160.0 85.08335584337857
165.0 85.06129215386156
170.0 84.96129215386156
175.0 84.85142379082262
180.0 84.85142379082262
185.0 84.83010937767762
190.0 84.78530883415937
195.0 84.87571859253893
200.0 85.1434815292846
206.0 85.35509473358205
212.0 85.35929184649362
218.0 85.25929184649361
224.0 85.05929184649362
230.0 84.8962372518724
236.0 84.8530345448718
240.0 85.08710213813136
250.0 85.3129691503088
258.0 85.29298835613898
265.0 85.24026522473383
272.0 85.68981520039831
280.0 86.44628472548163
290.0 86.95283200183188
300.0 86.98480093162418
307.0 86.79479202378849
315.0 86.82227525965668
325.0 86.81901049959646
335.0 86.42559524162297
345.0 85.9637646251944
355.0 85.4924193064754
365.0 84.9606488548767
375.0 84.82107468766004
387.0 85.14577772052456
400.0 85.25271955057158
412.0 84.9606517258572
425.0 84.57566981241054
437.0 84.7117018309422
450.0 85.03947755700446
462.0 84.90564616303246
475.0 85.15681805720885
487.0 85.69357292330533
500.0 85.78327554859982
515.0 85.45493150042522
530.0 84.6721785682873
545.0 84.18275508073991
560.0 84.03041107799262
580.0 83.76860532689003
600.0 83.61488311709483
615.0 83.33810344238478
630.0 83.09823732951794
650.0 82.73346257839663
670.0 82.1209989945982
690.0 81.83456110390784
710.0 81.9393120690591
730.0 82.32019387611669
750.0 81.213702373167
775.0 80.26778103295403
800.0 80.57486084146386
825.0 81.6673714905368
850.0 83.10118835728267
875.0 82.46896157497265
900.0 82.07759416527911
925.0 82.37151383347754
950.0 82.57261560015576
975.0 82.96039425271937
1000.0 82.85331994385928
1030.0 82.85420291619882
1060.0 83.85851234807974
1090.0 84.6046308808545
1120.0 84.9394904497389
1150.0 85.37447229953148
1180.0 86.19319916066489
1220.0 86.43562802868078
1250.0 86.5321287611228
1280.0 86.90515722430926
1320.0 87.38733460111101
1360.0 86.81494744994652
1400.0 86.87668008629724
1450.0 86.41393725303482
1500.0 86.60105816576755
1550.0 86.97905555613451
1600.0 86.9073770708179
1650.0 86.4521348377203
1700.0 87.08020500846877
1750.0 86.0179821650389
1800.0 85.72969327396554
1850.0 84.06360603825742
1900.0 83.72755257596322
1950.0 84.04876075283474
2000.0 83.69417904777625
2060.0 83.50945502209531
2120.0 84.14462080381097
2180.0 86.16156017706447
2240.0 86.26805872499172
2300.0 86.68195416125964
2360.0 86.37379946214176
2400.0 85.60100751296466
2500.0 84.96259674066837
2580.0 85.0307227684493
2650.0 84.95560392980182
2720.0 85.09769704591693
2800.0 85.17773762329796
2900.0 86.01734530838519
3000.0 86.18839755617724
3070.0 86.23762496786878
3150.0 86.4030488504061
3250.0 85.91948661422524
3350.0 85.68846650425027
3450.0 85.50534369383155
3550.0 85.66022255277099
3650.0 85.59959865413651
3750.0 85.43279569730504
3870.0 85.29260724122481
4000.0 85.51621625021812
4120.0 85.64145148849367
4250.0 86.04404472688744
4370.0 86.38224550911342
4500.0 86.09598934815594
4620.0 85.88963637522039
4750.0 85.90748233353946
4870.0 86.46946655352946
5000.0 86.74118344856416
5150.0 87.2127165121909
5300.0 87.09995765632038
5450.0 86.5806870545342
5600.0 86.19462445971901
5800.0 85.3998590392526
6000.0 84.39445816440929
6150.0 83.67908088189066
6300.0 83.72598543518257
6500.0 83.96290876266961
6700.0 84.59997644877501
6900.0 84.73835027293585
7100.0 84.90020076577603
7300.0 84.40507310537338
7500.0 82.8584378081035
7750.0 84.2354325275569
8000.0 87.29729631107243
8250.0 87.90248890293641
8500.0 86.33396231544098
8750.0 84.302785010533
9000.0 82.91588424168263
9250.0 82.97912436894839
9500.0 83.07996631775491
9750.0 82.8812631899254
10000.0 81.89978008367572
10300.0 82.78057401260003
10600.0 84.37828022145568
10900.0 86.21816346501967
11200.0 87.27467573225806
11500.0 87.7570590693327
11800.0 85.10733901466442
12200.0 76.95504837844982
12500.0 75.99835726032781
12800.0 80.14816167860658
13200.0 82.63546681331287
13600.0 82.98765078063981
14000.0 83.79256823493766
14500.0 84.49515539137948
15000.0 86.69176033444691
15500.0 86.21301487923081
16000.0 85.2469194402035
16500.0 83.65492022313053
17000.0 86.76657930687568
17500.0 87.27648961355669
18000.0 83.21312060748086
18500.0 78.61086167164773
19000.0 72.2250118346144
19500.0 60.674388804515246
