Freq "Ceiling Bounce"
22.4 41.09233195920352
23.0 42.36101427019635
23.6 43.927204210401
24.0 45.46260121288624
25.0 46.96260121288621
25.8 48.49613788198657
26.5 49.79613788198655
27.2 50.83178795702385
28.0 52.231787957023855
29.0 53.33178795702385
30.0 54.66796798568784
30.7 55.86796798568783
31.5 57.00146339691635
32.5 58.101463396916344
33.5 58.93789587585469
34.5 59.83789587585467
35.5 60.437895875854664
36.5 61.33789587585467
37.5 62.208305734553804
38.7 62.708305734553804
40.0 62.90830573455379
41.2 62.945524769266356
42.5 63.74552476926637
43.7 65.44552476926636
45.0 67.64552476926634
46.2 69.51666134490345
47.5 71.11666134490345
48.7 72.48328339536756
50.0 73.78328339536755
51.5 74.91666134490346
53.0 75.91666134490346
54.5 76.81666134490345
56.0 77.95467065384089
58.0 79.15467065384088
60.0 80.1546706538409
61.5 81.05467065384089
63.0 81.65467065384088
65.0 81.95467065384089
67.0 82.25467065384089
69.0 82.45467065384089
71.0 82.82652590537461
73.0 83.25467065384089
75.0 83.75467065384089
77.5 84.22652590537461
80.0 84.69322397553192
82.5 85.1546706538409
85.0 85.52652590537463
87.5 85.82652590537462
90.0 85.82652590537462
92.5 85.69322397553192
95.0 85.2932239755319
97.5 84.92652590537462
100.0 84.5932239755319
103.0 84.46532876934783
106.0 84.46532876934783
109.0 84.6265259053746
112.0 84.86532876934784
115.0 85.06532876934784
118.0 85.26532876934783
122.0 85.36532876934784
125.0 85.36532876934784
128.0 85.46532876934783
132.0 85.46532876934783
136.0 85.56532876934784
140.0 85.63789433043219
145.0 85.66532876934782
150.0 85.63789433043219
155.0 85.60467979404005
160.0 85.5378943304322
165.0 85.40467979404004
170.0 85.30467979404007
175.0 85.40467979404004
180.0 85.3774935894206
185.0 84.93789433043219
190.0 84.50467979404006
195.0 84.33789433043218
200.0 84.2378943304322
206.0 83.97749358942059
212.0 83.57749358942058
218.0 83.4176448781693
224.0 84.31764487816929
230.0 85.45076078288994
236.0 85.95076078288993
240.0 85.79115883387846
250.0 85.49115883387846
258.0 85.39115883387846
265.0 85.39115883387846
272.0 85.42447654249955
280.0 85.46511868679183
290.0 85.46511868679183
300.0 85.46511868679183
307.0 85.33951954420759
315.0 85.13951954420757
325.0 84.95603733192992
335.0 84.75603733192992
345.0 84.4560373319299
355.0 84.13154227780309
365.0 84.07402164438135
375.0 84.31706457875927
387.0 84.71706457875926
400.0 84.83730828786585
412.0 84.61435344271034
425.0 84.25900004082094
437.0 83.7042163571197
450.0 83.32814869460807
462.0 83.25350604635021
475.0 83.11217933667992
487.0 82.74014382616173
500.0 82.51892125038765
515.0 82.53224966285234
530.0 82.8483537574416
545.0 83.06715558353484
560.0 82.58857712909686
580.0 81.61254056806072
600.0 81.00869420131318
615.0 80.89483589212111
630.0 80.58567208179547
650.0 79.93042760389956
670.0 79.12901713837307
690.0 78.34660005852052
710.0 77.63167220929047
730.0 76.52857933874955
750.0 75.01731005679584
775.0 73.85915829310663
800.0 74.19432342825739
825.0 76.23488527861541
850.0 77.8407659593471
875.0 78.75244587869189
900.0 79.41105527399215
925.0 80.12701371686904
950.0 80.99623121430987
975.0 81.49623121430986
1000.0 82.02659220260456
1030.0 82.52659220260455
1060.0 83.0070137983399
1090.0 83.45744221377934
1120.0 83.52847294741849
1150.0 83.38027613941061
1180.0 83.51820942318683
1220.0 83.73093444047913
1250.0 83.60504510422885
1280.0 83.19579891345371
1320.0 82.65102877268147
1360.0 82.01226635057019
1400.0 81.48502663674522
1450.0 80.98107323330476
1500.0 80.33485066924356
1550.0 79.85131336186606
1600.0 79.78774113712981
1650.0 79.43017873382105
1700.0 78.09868603893138
1750.0 76.51941848230489
1800.0 75.85210481819233
1850.0 76.28342628917694
1900.0 77.19692673290002
1950.0 78.03273811880025
2000.0 78.44428798176624
2060.0 78.66014433962224
2120.0 78.93730808752751
2180.0 78.47234487238454
2240.0 77.20803802678238
2300.0 75.96965272341437
2360.0 75.20406355315588
2400.0 75.34959262771353
2500.0 76.190866204051
2580.0 76.67026483162563
2650.0 76.98892514051205
2720.0 77.40767823206711
2800.0 77.92463422926436
2900.0 77.92518619273939
3000.0 77.45716101190551
3070.0 77.62966793324568
3150.0 78.74436304551666
3250.0 78.95437621886076
3350.0 76.93867149844132
3450.0 74.83578275129643
3550.0 75.61838176527444
3650.0 77.79115883387846
3750.0 78.78860109245291
3870.0 78.15164905061759
4000.0 76.70613628781241
4120.0 76.09318886263036
4250.0 75.92147810278625
4370.0 75.85792004332451
4500.0 77.00350370564068
4620.0 77.02759734194146
4750.0 76.22662869484589
4870.0 75.33474797800962
5000.0 75.43350515973937
5150.0 75.46685702012421
5300.0 76.91809097289601
5450.0 77.03776440026773
5600.0 77.07341022514389
5800.0 76.36409637712619
6000.0 76.31289990715281
6150.0 77.07588914353539
6300.0 76.61633617996658
6500.0 76.31370916805942
6700.0 76.27649289388665
6900.0 75.77788775228677
7100.0 74.84536819045348
7300.0 74.56343315352409
7500.0 74.64641540691072
7750.0 74.51550004584583
8000.0 75.80687771778764
8250.0 75.8137091680594
8500.0 75.14869757764943
8750.0 78.70497840984378
9000.0 79.86566226141217
9250.0 78.87192115301129
9500.0 76.33789629967181
9750.0 73.50867612615609
10000.0 74.73450165088289
10300.0 81.31436504428416
10600.0 75.98075861021975
10900.0 76.13948837809647
11200.0 75.17245173739973
11500.0 70.96083011023985
11800.0 72.63987133105924
12200.0 75.1520216814328
12500.0 71.77405770679786
12800.0 72.01309327643793
13200.0 71.02687228540321
13600.0 70.95794827214844
14000.0 74.87767420632697
14500.0 75.10704094976573
15000.0 71.76400605002046
15500.0 70.73030724889826
16000.0 73.77163182832703
16500.0 71.74408494229097
17000.0 70.96967988840551
17500.0 60.60963955956278
18000.0 60.8225430294401
18500.0 49.918375463795954
19000.0 58.64764036609937
19500.0 51.623722405281924
