Freq,Floor Bounce,Ceiling Bounce,Front Wall Bounce,Side Wall Bounce,Rear Wall Bounce,Total Early Reflection
20.5078,50.72882803993505,52.22959766039463,50.85712320464248,52.67762526686005,59.620132163934045,54.79628357119162
21.9727,53.415470600441665,53.437924571443006,53.189283157157206,54.01579552064584,59.44715200460527,55.51752858160384
23.4375,54.12704504536816,54.535796310144946,53.95549226414923,55.05454926153669,61.06163075592673,56.79171000295321
24.9023,55.44272065898349,56.25266998253264,55.399029646147284,56.628822187428966,62.361596367916576,58.19729861059949
26.3672,58.32876593281304,58.68536286589824,58.21770598685464,59.083885557020295,63.87210815719101,60.27887479527624
27.832,60.274432379779284,60.5944621827212,60.18496577287263,60.967483393475135,65.3518023835552,62.005257769466795
29.2969,62.220422748454865,62.37315958140164,62.08370883346211,62.78119918254342,66.7829246075294,63.68286522666766
30.7617,64.26743039567353,64.20772377724047,64.08194087980063,64.63528911598553,68.09673099751805,65.37198065888994
32.2266,65.79245000885378,65.75921677505937,65.61810772040079,66.16096468978627,69.39129729826624,66.81805318492933
33.6914,67.54148415612812,67.4377596129,67.35094105044512,67.84417331449185,70.75393691181884,68.40576044019839
35.1562,69.1598159528951,69.0221190046347,68.96249692081489,69.42734878907233,72.06897961316628,69.90935143836076
36.6211,70.63038392816865,70.43727156500586,70.42024772734567,70.84123270394024,73.22719915569145,71.25800007795252
38.0859,71.97078778405726,71.79519250963335,71.76560060095429,72.18909070622257,74.40743016030444,72.55375918999931
39.5508,73.24731303795873,73.05068059276189,73.03643447049943,73.44590265785932,75.47679203924554,73.75962225222418
41.0156,74.4567012426237,74.28001909893702,74.25484631684682,74.65383487503316,76.51308150331192,74.92302522188584
42.4805,75.2281990419331,74.88521067474761,74.97263022934459,75.308265882766,76.93905455714838,75.53689140617445
43.9453,75.57184573523395,75.33315784194754,75.35628392802974,75.70496900781512,77.2452797232714,75.90553270845119
45.4102,76.09129485863134,75.8476691847715,75.88204540249592,76.20808393702937,77.61208116521604,76.38105514501062
46.875,76.46648722868143,76.19527333846767,76.2439456975271,76.57185795553062,77.90568900210985,76.72525297341517
48.3398,76.79345808567047,76.5194263065053,76.56783713139976,76.89433213538572,78.14168880587204,77.02660247101676
51.2695,77.30209150408513,76.9980954505403,77.06639682431872,77.38141185802155,78.46520303996043,77.47669115328897
52.7344,77.50979338659991,77.21649307411391,77.27728051056192,77.5917735770783,78.61585078875069,77.67316288647207
54.1992,77.74516345466836,77.44069346216745,77.51110184248277,77.81688101413428,78.75379551825675,77.88019845548526
55.6641,77.89479880780186,77.58442563446054,77.66338389741605,77.95520112461205,78.80895919555512,78.00409564119063
58.5938,78.3546882861589,78.0046933075692,78.11902473009022,78.37570876161566,79.07146447109263,78.40138497551693
60.0586,78.42867352414399,78.05594727813383,78.18328231731572,78.43405226450365,79.07114115704124,78.44903303525415
62.9883,78.78853725143261,78.4269680625399,78.553033117456,78.79115245298553,79.33480652849826,78.79025051686853
64.4531,78.90977811255964,78.54860019271642,78.67416143831466,78.91265017480079,79.42880954648115,78.9054332260624
67.3828,79.18153237846424,78.80915929437599,78.94148405748541,79.17403766126472,79.62414197901447,79.15506613707402
68.8477,79.3568074511603,78.97041875680608,79.11306420461264,79.33950377191891,79.753357010665,79.31484940912452
71.7773,79.70880579568066,79.30874734689525,79.45975898218862,79.68435988647512,80.05171934080578,79.65005253110205
74.707,80.14654206959113,79.73256828669783,79.90332665634807,80.09504038527601,80.33855869568617,80.04818484096592
77.6367,80.54361502880494,80.10963436218975,80.29808994327783,80.47014348953877,80.63084786492675,80.41442144695465
79.1016,80.6823735709119,80.23956789898563,80.43249210555541,80.60499631362853,80.75365960097152,80.54654633897209
82.0312,80.94278013297007,80.50203438830628,80.69260973337789,80.86460279059038,80.9885559901185,80.8017797668636
84.9609,81.24434160315948,80.79336819076092,80.98890590862224,81.15877384017725,81.25582618661589,81.0917628575435
87.8906,81.55258396302938,81.07404601836683,81.29727388105036,81.44473356965734,81.48029281288616,81.37306814582826
90.8203,81.97105545141225,81.46614180508088,81.71930479405533,81.83283667867998,81.76673337481851,81.75435939734658
95.2148,82.30194349631898,81.83157427947091,82.07573299388763,82.16024278073382,81.97610420939894,82.07205660306641
98.1445,82.4691002131857,81.9638997270545,82.21341453961907,82.32488865220807,82.22612615670812,82.24262151635165
101.074,82.70686244312242,82.22069806804697,82.47418609674311,82.54980716031267,82.3849844149434,82.47034066989956
105.469,83.05957230491897,82.54565928993111,82.82717145391281,82.86705810053084,82.57174484681585,82.77853192540961
108.398,83.38970499717414,82.88866324430002,83.15806555633193,83.20024597176761,82.93661996092968,83.11852669424887
112.793,83.7293032708607,83.19985866808568,83.50201902588597,83.52685638905287,83.22092722615615,83.44041789115781
117.188,83.99270358479964,83.45352799360649,83.76781588598192,83.77983887958685,83.43535984439482,83.69106503748624
120.117,84.13996219390816,83.56890734516398,83.90187169822205,83.90273421280494,83.58352499828848,83.82481631776236
124.512,84.47199989540186,83.89592752759381,84.24366041459317,84.19374796369532,83.81674535582172,84.13102087551614
128.906,84.65696501118887,84.06227435250074,84.42522039787606,84.36486901079151,83.93324039686757,84.29628001389936
133.301,84.77755826882407,84.15585041908048,84.53927134346033,84.46468870291214,84.01532063432171,84.39912171232339
139.16,84.97879847572892,84.30228668848446,84.73104003204008,84.619862090959,84.11979640173675,84.56110799685788
143.555,85.07571670279438,84.38052558173425,84.8332941307782,84.69363166838446,84.14779117918513,84.63854609250208
147.949,85.20246401224438,84.47057230789784,84.95939842489321,84.77753946356685,84.15042522797845,84.72761719571619
153.809,85.27475530166099,84.50826886873375,85.0254347052774,84.82925932338516,84.14920813964132,84.7751080274024
159.668,85.36846217926612,84.6313346465939,85.13531458146969,84.94649155162094,84.292460832747,84.89113628257813
165.527,85.4934754748628,84.79322201976711,85.27871264717545,85.08693799605196,84.52886244394001,85.04968555043325
171.387,85.53718603328215,84.81242402348815,85.32420203657095,85.08283629885868,84.52492648420004,85.07110839515617
177.246,85.57372604034684,84.82204455494002,85.3766463488312,85.06615378906604,84.41038384874221,85.06900234257394
183.105,85.52194100675074,84.67931447050444,85.32432561041853,84.93320347758909,84.1678117474582,84.95145181539411
188.965,85.53113794039885,84.69253067326915,85.35465506136582,84.90202544799273,83.9279213562325,84.91737959513691
196.289,85.49007344885254,84.63854205464472,85.2908931851814,84.87826137402294,83.91950970689535,84.87753129756908
203.613,85.4800475478076,84.73241667721568,85.36106186970085,84.83679882775627,83.7898304708716,84.87999930866393
210.938,85.58818801410771,84.68066264202294,85.42803686418665,84.83880589878731,83.72099769803795,84.90000349158778
218.262,85.52982053256025,84.6488861093661,85.37896961866885,84.81279077461264,83.63508612783684,84.85101834457689
225.586,85.45558400815537,84.61623296219925,85.36117593878657,84.71336648471451,83.60067299906623,84.79860289491018
232.91,85.59139536156354,84.71179299866945,85.50630693211966,84.77080029321837,83.41710012319992,84.8663521768519
241.699,85.63903425255691,84.68385578993872,85.519084304785,84.74328943816418,83.13391895679425,84.83047828181334
250.488,85.48060519658257,84.42366376692792,85.35557559944466,84.53494562553101,82.88259035507943,84.62903237133514
259.277,85.8170420887633,84.77799445352309,85.71375203826219,84.90062200105002,83.16213552157723,84.9722177046657
268.066,85.53146278885944,84.45146078963676,85.4099948972617,84.5404715699646,83.14586719681091,84.69661034438288
276.855,85.66155939170201,84.43920974252032,85.59363928770108,84.66957467467182,82.80648009399059,84.74979201611944
287.109,85.93608082226535,85.0046741335175,85.9839823542784,85.01364797656309,82.99471425318531,85.11082790626062
297.363,85.90947712048616,85.05823611402376,85.98573026093695,84.84697638078072,83.01265260528025,85.08551505345524
307.617,86.25237194979319,85.239189633345,86.3197519188863,85.30156763515257,83.12500957233758,85.3880063667485
319.336,85.97181393014006,85.0492483435974,86.03416106977333,84.9474415102361,82.93583529272262,85.12054574594262
329.59,86.27975691337821,85.25934038313899,86.36299502674117,85.21570406407199,82.65717833421151,85.33977085575067
341.309,86.09913545134695,85.00132500746807,86.10851409859941,84.98564457451471,83.00603045671282,85.17668440611287
353.027,86.16630624009609,84.7303364687267,86.19658659626909,84.78786758772776,82.1198653178667,85.02824755166282
366.211,86.19943595709522,84.91819529698671,86.31458637502489,84.95890519853104,81.9605025256596,85.12006529129272
379.395,86.6678110553789,85.54488802743305,86.88613869663597,85.65500043399176,82.40520217115557,85.68833410501917
392.578,86.34473897021492,85.10763391164176,86.42577048143372,85.24845525002954,82.42737303624705,85.32499215918683
405.762,85.95745622340522,84.73304458511586,86.17180745201142,84.67843728635735,81.9906275214023,84.93480433069514
420.41,86.36813272693358,85.23301759728756,86.6534806779579,85.1508837738362,81.31559767979441,85.2956467649576
435.059,85.88244690892445,85.16793306031828,86.33920862817916,85.019617131567,81.72010616106564,85.08630926293324
451.172,86.37236106887259,85.05536544475063,86.75356043591017,85.2931870113122,81.42402292993751,85.3267490242201
465.82,86.01991905257046,84.96915506158572,86.4633161162285,84.97593562681799,81.22053055907725,85.06175935829023
483.398,86.20387230003482,84.94499937779207,86.64745585696195,85.11769993074971,81.29287167322252,85.18827019520786
499.512,86.2715178685282,84.62609119553488,86.65862413132375,84.86114640170763,81.52438388807002,85.12032581795843
517.09,87.05033306589458,85.20663435543514,87.5173104368528,85.33268198157009,81.90640961549673,85.7973062255799
536.133,87.74001857393758,85.60554302667029,88.20199159408756,84.46522845702033,80.96111298107297,86.07067536916185
555.176,88.86674675066789,86.95010340982257,89.53160074650324,86.5732252998661,78.91860257506406,87.3171518670634
574.219,88.61171342533545,86.8713745769705,89.27411989737563,87.09693893078729,80.5089716718623,87.29807435830179
594.727,87.58035681110195,86.47391348232026,88.34714339321737,86.59866322894405,80.91073051993376,86.5907765895964
615.234,87.55157171067981,86.18160115698701,88.39404362578385,86.70516408060122,80.61301512330286,86.54850142175293
637.207,87.80238986854727,86.44536283092145,88.45862456675476,87.00266396810905,81.50378346191742,86.79081644482524
659.18,87.63334777798559,86.75400920574458,88.57265204845197,86.83376664014168,80.58305647961588,86.75794190812792
682.617,86.98287032555359,87.13142186784256,88.31397364638035,86.94740194747254,80.1694609171982,86.6147090542354
707.52,86.88638576887904,87.37986412590949,88.34019018634555,87.88693595988418,80.47047034690365,86.89095268834339
732.422,85.68545317719403,87.19543879795756,87.63558177355392,88.06261562186775,82.83551039992743,86.64068933060742
757.324,86.77091150767838,87.39413246283829,88.22297250334262,88.49632055972097,85.53341119446905,87.40888461420114
785.156,89.41523934702886,86.73144261058349,90.1045765346303,87.52462055677547,85.41989832193434,88.17353571916527
811.523,88.98873511620216,87.15920145799035,90.08985261758659,86.5681599332725,84.05636642063715,87.84088562981003
840.82,88.97829584037868,88.07616643559331,90.2593733663489,86.53768435918265,83.22583057960868,87.99999602007576
870.117,88.42439949212374,88.45092628859034,90.07224233632147,86.58465339367177,82.74994561036102,87.86230516385194
900.879,88.43143849362151,89.19774531294684,90.25652689868843,86.76566625884249,82.01791978697429,88.09295955787854
933.105,87.79870285642366,89.10901881870457,90.10290610707429,86.90742524115443,81.89741764814157,87.9046593451541
965.332,88.20921689003927,89.19233727146754,90.10982353970627,86.87167996739974,81.2577786460512,87.9770943106051
1000.49,87.96984612343522,88.86485470900907,90.2772107342438,87.33753988074187,81.41046801472487,87.98313458888487
1035.64,88.19156031814558,88.92805810388735,89.93382331560134,86.92856517072612,80.89059219315885,87.84094750985994
1072.27,88.28996783756082,88.71519082356076,90.0010799457664,86.69897159574793,80.2689914954132,87.77092231294685
1108.89,87.91006933099436,88.86744794157083,89.56027650965066,86.06126743674842,79.44075413217413,87.45678103493722
1148.44,87.5287300030954,88.58374559286895,89.07725234554654,85.58472496501226,79.1436015885209,87.05913988418628
1189.45,87.14486441897357,88.00685179240585,88.79286976107144,85.03755290550308,78.40321204805191,86.61941715158983
1230.47,86.63646704175862,87.33947421956188,88.76887721803988,85.22310817285813,78.23505071135918,86.34586282747756
1274.41,86.23408662194285,86.92963507099705,88.4104899108122,84.90792672298309,78.17661139676765,85.98155368795685
1319.82,86.04200317958967,86.51377136832885,87.95581685446864,84.51824162683599,77.66532681070105,85.60167352414837
1366.7,85.56914308529184,86.7231818271562,87.45969174156315,83.88241537701498,77.15586492986334,85.27454937582215
1413.57,85.79424575379399,87.31028886735947,87.54476060357,83.49599199157034,77.48832085633003,85.47997912914356
1463.38,86.47259539711733,87.99183462076202,88.28663985694034,83.50709741637048,77.39852915119002,86.07846482531068
1516.11,86.3964767089011,87.56762209271744,88.5301703786352,84.53787091923093,77.14997342393073,86.14136544359879
1568.85,86.20153336315575,87.26735513403897,88.45739099308622,84.4036058090606,77.10910080409624,85.97279594802876
1624.51,85.95839419307724,86.82738071076142,87.73540036402184,83.34493412914449,76.10353294369838,85.38177127414322
1681.64,85.9722286599714,87.11489062859428,88.29486045850695,84.04698897999529,76.32065467000692,85.75709202702699
1741.7,86.2907596035386,86.86156412284296,89.13137674988718,84.80821267417143,76.92020158465583,86.19434262479302
1803.22,86.6616030084652,86.77300011351127,88.48133151734771,83.73252230665484,76.90944820923872,85.86465860048214
1866.21,87.16145855883545,86.29500866714288,88.78440287955195,83.97473186136915,77.43943429746801,86.03643382364663
1932.13,87.52627860664676,86.06625352118881,88.70131617707301,84.45554281742714,77.25939690587626,86.11444512671028
1999.51,87.99791351000543,86.00812243328795,88.81892337163579,84.46952966719792,76.24321282567244,86.26005214903856
2069.82,88.4616172439122,85.74021619804681,88.01129146467957,83.81681925460471,75.44446835241783,85.98823939636458
2143.07,88.15752927469066,85.37569873517421,87.97118410549253,83.51462319954727,76.770671011242,85.79330487339888
2219.24,87.6818714305854,83.80969314289146,87.94567577340362,83.04439503147026,76.52666502311526,85.30569513278941
2296.88,87.90369881959495,82.00375234851282,86.06854333805157,81.49275856155326,75.772456006399,84.34244308029206
2378.91,87.72895213675889,81.65057577561028,85.17740076929658,80.87242559380303,75.44011072871436,83.89405507710647
2462.4,87.43995797801114,80.42967431342507,83.53484022121881,79.44354512256452,75.65506232315857,83.07684402941688
2548.83,88.08209185279563,80.75279428905665,82.1991718401408,77.90873707234398,74.85184230698735,83.09714021024547
2639.65,88.20175494617163,80.59836616452478,82.00736059081018,77.82374205696269,75.13826366728621,83.12905994170589
2731.93,88.46125387522287,79.89814993962591,81.16645794456566,77.31283559531096,75.0217063272396,83.07835968096212
2828.61,88.68059207043945,79.03716509704395,80.68430787283346,77.28367618786618,74.76432673476262,83.09050937824951
2928.22,89.16243565900452,80.1094273443038,82.2658933778415,78.57140422762045,75.23591235647561,83.805745378187
3030.76,89.55625429012602,80.89644028044057,84.56405056684319,80.14322058019701,75.30557530651686,84.62129222813161
3137.7,88.87463169802336,81.40305435151873,86.134768913029,80.9565591457584,74.68416200531246,84.69692627513518
3249.02,87.47664239150862,81.28712131651491,85.37706820920326,80.10421381399078,74.17071776836264,83.68207738602746
3363.28,86.0772312663172,80.81812413672299,83.162611901475,79.16968989490454,75.14478158828581,82.29636108200782
3481.93,85.62810341655178,82.04580939637151,81.59960649656755,78.85163981788361,75.2949168558626,81.93539691958554
3604.98,86.24879098152958,83.75694644858956,80.03856941099032,79.13855979446268,75.82738922435355,82.45638775612463
3732.42,86.86508603993502,84.81181127682079,79.88488497672606,79.37658308994978,75.84561502719949,83.05827257246557
3864.26,87.19698361734618,86.04317267337733,82.3020388803419,81.52512881815026,76.93369063871839,84.10900126600313
4000.49,87.51182466913333,86.78319376673734,83.80432753299507,83.01750715866142,76.42153159074185,84.8429390299139
4141.11,86.80227579443341,86.6588634206997,83.45566479763175,83.68287182477333,76.3057613359694,84.59398424931727
4287.6,86.26914297670444,86.82533733849385,82.8925422186999,83.91679140365541,75.95857726568227,84.42634819503418
4438.48,86.11952976519932,87.48668840505971,81.82079174256957,84.06298654990118,76.11142710686478,84.52590665580892
4595.21,85.44726616114318,87.74145203840071,80.97880905500104,83.9465989569878,75.97782028249037,84.33938925888009
4756.35,85.44736625387443,88.1072817688313,82.20804345688613,84.16837148093146,75.79544889783273,84.66167617635726
4924.8,85.81352475529322,87.82362076437751,82.754013035954,83.74348971615602,75.9249247619102,84.62898084644435
5097.66,85.5599657319373,87.46138564960275,83.7479791365054,84.08654222759608,75.84047619233736,84.62025344256634
5277.83,85.97425852029916,87.24494556392224,84.13198405039509,84.30020728511069,75.75462332594499,84.74726361199772
5463.87,86.4986259480918,86.77288780964622,84.58443752292476,84.10933391253243,75.38321372686012,84.77612528041988
5657.23,86.45405463515385,85.96793076850291,85.501818519984,84.23718665242927,74.93464607897623,84.73797009695163
5856.45,87.05298210308399,84.81465410157907,86.47981516990468,84.06980452237983,75.05464558395808,84.89184499543623
6062.99,86.90063664470941,84.16765949022222,87.06066773550947,83.87749142471677,74.38199336754738,84.85946714761822
6276.86,87.15568454613404,84.31688622272078,87.63323092686507,83.89503511142723,74.78181262349686,85.17144479096252
6498.05,86.76542309549092,84.21884402507888,88.0854036353233,83.69058612344013,74.53014589246558,85.17140030578292
6726.56,86.62016728108972,84.30710773585908,88.41169452685958,83.49202821489257,74.77919517931115,85.25310024768267
6963.87,86.02877465996409,84.54349597359587,88.56051311004266,83.32278265472135,74.87503561023496,85.18238653127939
7209.96,85.82439501704826,84.68495313382383,88.76892582725225,83.60905376885074,75.09804797635547,85.29304592598578
7464.84,86.2718943880416,85.05621676707693,88.72414422838415,83.96853541105953,74.77549331871565,85.48763588706593
7727.05,86.38695325768208,85.27828325545192,88.44258800886963,84.27152441444166,74.1087525504662,85.4756781061777
7999.51,86.04409035856065,85.27543665829269,88.11127110308789,84.3064668333472,73.27611132568492,85.25628173445499
8282.23,85.67316891596877,85.00804138344778,87.79643058540756,84.03899130554352,72.24078334649815,84.93689916417753
8573.73,85.15237174358094,84.82997422239347,87.57929510053219,83.88296215007716,71.31446305516494,84.66082415484196
8876.95,84.9100816801934,84.82817864734375,87.36566161607315,83.93409407913502,71.12331447162495,84.5309779592447
9188.96,84.30472452373934,84.54618979157772,87.14079091608262,83.31831780567079,70.70496889975212,84.14459122444424
9514.16,84.10590136259054,84.44634035048236,86.5529081596466,82.86120582510307,71.25496399460562,83.78225637992314
