Freq "Ceiling Bounce"
20.5078 52.22959766039463
21.9727 53.437924571443006
23.4375 54.535796310144946
24.9023 56.25266998253264
26.3672 58.68536286589824
27.832 60.5944621827212
29.2969 62.37315958140164
30.7617 64.20772377724047
32.2266 65.75921677505937
33.6914 67.4377596129
35.1562 69.0221190046347
36.6211 70.43727156500586
38.0859 71.79519250963335
39.5508 73.05068059276189
41.0156 74.28001909893702
42.4805 74.88521067474761
43.9453 75.33315784194754
45.4102 75.8476691847715
46.875 76.19527333846767
48.3398 76.5194263065053
51.2695 76.9980954505403
52.7344 77.21649307411391
54.1992 77.44069346216745
55.6641 77.58442563446054
58.5938 78.0046933075692
60.0586 78.05594727813383
62.9883 78.4269680625399
64.4531 78.54860019271642
67.3828 78.80915929437599
68.8477 78.97041875680608
71.7773 79.30874734689525
74.707 79.73256828669783
77.6367 80.10963436218975
79.1016 80.23956789898563
82.0312 80.50203438830628
84.9609 80.79336819076092
87.8906 81.07404601836683
90.8203 81.46614180508088
95.2148 81.83157427947091
98.1445 81.9638997270545
101.074 82.22069806804697
105.469 82.54565928993111
108.398 82.88866324430002
112.793 83.19985866808568
117.188 83.45352799360649
120.117 83.56890734516398
124.512 83.89592752759381
128.906 84.06227435250074
133.301 84.15585041908048
139.16 84.30228668848446
143.555 84.38052558173425
147.949 84.47057230789784
153.809 84.50826886873375
159.668 84.6313346465939
165.527 84.79322201976711
171.387 84.81242402348815
177.246 84.82204455494002
183.105 84.67931447050444
188.965 84.69253067326915
196.289 84.63854205464472
203.613 84.73241667721568
210.938 84.68066264202294
218.262 84.6488861093661
225.586 84.61623296219925
232.91 84.71179299866945
241.699 84.68385578993872
250.488 84.42366376692792
259.277 84.77799445352309
268.066 84.45146078963676
276.855 84.43920974252032
287.109 85.0046741335175
297.363 85.05823611402376
307.617 85.239189633345
319.336 85.0492483435974
329.59 85.25934038313899
341.309 85.00132500746807
353.027 84.7303364687267
366.211 84.91819529698671
379.395 85.54488802743305
392.578 85.10763391164176
405.762 84.73304458511586
420.41 85.23301759728756
435.059 85.16793306031828
451.172 85.05536544475063
465.82 84.96915506158572
483.398 84.94499937779207
499.512 84.62609119553488
517.09 85.20663435543514
536.133 85.60554302667029
555.176 86.95010340982257
574.219 86.8713745769705
594.727 86.47391348232026
615.234 86.18160115698701
637.207 86.44536283092145
659.18 86.75400920574458
682.617 87.13142186784256
707.52 87.37986412590949
732.422 87.19543879795756
757.324 87.39413246283829
785.156 86.73144261058349
811.523 87.15920145799035
840.82 88.07616643559331
870.117 88.45092628859034
900.879 89.19774531294684
933.105 89.10901881870457
965.332 89.19233727146754
1000.49 88.86485470900907
1035.64 88.92805810388735
1072.27 88.71519082356076
1108.89 88.86744794157083
1148.44 88.58374559286895
1189.45 88.00685179240585
1230.47 87.33947421956188
1274.41 86.92963507099705
1319.82 86.51377136832885
1366.7 86.7231818271562
1413.57 87.31028886735947
1463.38 87.99183462076202
1516.11 87.56762209271744
1568.85 87.26735513403897
1624.51 86.82738071076142
1681.64 87.11489062859428
1741.7 86.86156412284296
1803.22 86.77300011351127
1866.21 86.29500866714288
1932.13 86.06625352118881
1999.51 86.00812243328795
2069.82 85.74021619804681
2143.07 85.37569873517421
2219.24 83.80969314289146
2296.88 82.00375234851282
2378.91 81.65057577561028
2462.4 80.42967431342507
2548.83 80.75279428905665
2639.65 80.59836616452478
2731.93 79.89814993962591
2828.61 79.03716509704395
2928.22 80.1094273443038
3030.76 80.89644028044057
3137.7 81.40305435151873
3249.02 81.28712131651491
3363.28 80.81812413672299
3481.93 82.04580939637151
3604.98 83.75694644858956
3732.42 84.81181127682079
3864.26 86.04317267337733
4000.49 86.78319376673734
4141.11 86.6588634206997
4287.6 86.82533733849385
4438.48 87.48668840505971
4595.21 87.74145203840071
4756.35 88.1072817688313
4924.8 87.82362076437751
5097.66 87.46138564960275
5277.83 87.24494556392224
5463.87 86.77288780964622
5657.23 85.96793076850291
5856.45 84.81465410157907
6062.99 84.16765949022222
6276.86 84.31688622272078
6498.05 84.21884402507888
6726.56 84.30710773585908
6963.87 84.54349597359587
7209.96 84.68495313382383
7464.84 85.05621676707693
7727.05 85.27828325545192
7999.51 85.27543665829269
8282.23 85.00804138344778
8573.73 84.82997422239347
8876.95 84.82817864734375
9188.96 84.54618979157772
9514.16 84.44634035048236
9849.61 84.1413199965519
10196.8 83.62486097419954
10555.7 83.07787673632853
10927.7 82.1305740041244
11313.0 81.85609342099355
11712.9 81.84620708452596
12126.0 82.2414720769536
12553.7 82.7338890203623
12996.1 83.0367494397272
13454.6 82.73182505945725
13929.2 82.40897069746454
14419.9 81.82873126903759
14928.2 81.44842837005213
15455.6 80.76560409895521
16000.5 79.60912189041193
16564.5 78.40846100523295
17148.9 77.03272952966019
17752.4 75.74696113828038
18379.4 74.75668672106684
19026.9 73.25245272871435
19697.8 72.00185800930612
19999.5 71.57562177328336
