Freq "Front Wall Bounce"
20.5078 49.36558684100615
21.9727 51.69774679352088
23.4375 52.4639559005129
24.9023 53.90749328251093
26.3672 56.72616962321831
27.832 58.69342940923627
29.2969 60.592172469825755
30.7617 62.590404516164256
32.2266 64.12657135676446
33.6914 65.85940468680877
35.1562 67.47096055717853
36.6211 68.92871136370934
38.0859 70.27406423731797
39.5508 71.54489810686309
41.0156 72.76330995321048
42.4805 73.48109386570825
43.9453 73.86474756439338
45.4102 74.39050903885958
46.875 74.75240933389075
48.3398 75.07630076776343
51.2695 75.57486046068237
52.7344 75.7857441469256
54.1992 76.01956547884643
55.6641 76.17184753377971
58.5938 76.62748836645389
60.0586 76.69174595367937
62.9883 77.06149675381965
64.4531 77.18262507467833
67.3828 77.44994769384905
68.8477 77.6215278409763
71.7773 77.96822261855228
74.707 78.41179029271173
77.6367 78.8065535796415
79.1016 78.94095574191907
82.0312 79.20107336974155
84.9609 79.4973695449859
87.8906 79.80573751741402
90.8203 80.22776843041899
95.2148 80.58419663025127
98.1445 80.72187817598271
101.074 80.98264973310675
105.469 81.33563509027647
108.398 81.66652919269558
112.793 82.01048266224964
117.188 82.27627952234556
120.117 82.41033533458571
124.512 82.75212405095684
128.906 82.93368403423972
133.301 83.04773497982399
139.16 83.23950366840376
143.555 83.34175776714187
147.949 83.46786206125687
153.809 83.53389834164105
159.668 83.64377821783334
165.527 83.78717628353911
171.387 83.83266567293461
177.246 83.88510998519486
183.105 83.8327892467822
188.965 83.86311869772948
196.289 83.79935682154508
203.613 83.86952550606449
210.938 83.93650050055031
218.262 83.8874332550325
225.586 83.86963957515023
232.91 84.01477056848333
241.699 84.02754794114867
250.488 83.86403923580832
259.277 84.22221567462584
268.066 83.91845853362537
276.855 84.10210292406474
287.109 84.49244599064207
297.363 84.4941938973006
307.617 84.82821555524995
319.336 84.54262470613699
329.59 84.87145866310483
341.309 84.61697773496309
353.027 84.70505023263274
366.211 84.82305001138855
379.395 85.39460233299963
392.578 84.93423411779736
405.762 84.68027108837506
420.41 85.16194431432156
435.059 84.84767226454281
451.172 85.26202407227385
465.82 84.97177975259217
483.398 85.15591949332561
499.512 85.1670877676874
517.09 86.02577407321645
536.133 86.7104552304512
555.176 88.0400643828669
574.219 87.78258353373928
594.727 86.85560702958102
615.234 86.90250726214751
637.207 86.96708820311842
659.18 87.08111568481563
682.617 86.82243728274399
707.52 86.84865382270921
732.422 86.14404540991758
757.324 86.73143613970629
785.156 88.61304017099394
811.523 88.59831625395023
840.82 88.76783700271255
870.117 88.58070597268514
900.879 88.7649905350521
933.105 88.61136974343795
965.332 88.61828717606994
1000.49 88.78567437060745
1035.64 88.442286951965
1072.27 88.50954358213008
1108.89 88.06874014601432
1148.44 87.5857159819102
1189.45 87.3013333974351
1230.47 87.27734085440352
1274.41 86.91895354717586
1319.82 86.46428049083228
1366.7 85.96815537792679
1413.57 86.05322423993364
1463.38 86.795103493304
1516.11 87.03863401499886
1568.85 86.96585462944988
1624.51 86.24386400038551
1681.64 86.80332409487062
1741.7 87.63984038625084
1803.22 86.98979515371137
1866.21 87.29286651591559
1932.13 87.20977981343667
1999.51 87.32738700799945
2069.82 86.51975510104323
2143.07 86.47964774185617
2219.24 86.4541394097673
2296.88 84.57700697441523
2378.91 83.68586440566023
2462.4 82.04330385758247
2548.83 80.70763547650446
2639.65 80.51582422717385
2731.93 79.67492158092932
2828.61 79.19277150919712
2928.22 80.77435701420515
3030.76 83.07251420320685
3137.7 84.64323254939265
3249.02 83.88553184556692
3363.28 81.67107553783866
3481.93 80.1080701329312
3604.98 78.54703304735398
3732.42 78.39334861308971
3864.26 80.81050251670555
4000.49 82.31279116935873
4141.11 81.96412843399541
4287.6 81.40100585506357
4438.48 80.32925537893323
4595.21 79.48727269136468
4756.35 80.71650709324979
4924.8 81.26247667231766
5097.66 82.25644277286906
5277.83 82.64044768675875
5463.87 83.09290115928843
5657.23 84.01028215634766
5856.45 84.98827880626833
6062.99 85.56913137187314
6276.86 86.14169456322873
6498.05 86.59386727168696
6726.56 86.92015816322323
6963.87 87.0689767464063
7209.96 87.27738946361589
7464.84 87.2326078647478
7727.05 86.95105164523329
7999.51 86.61973473945154
8282.23 86.3048942217712
8573.73 86.08775873689586
8876.95 85.8741252524368
9188.96 85.64925455244628
9514.16 85.06137179601025
9849.61 84.57632915129857
10196.8 84.60594783814015
10555.7 84.47136763178301
10927.7 84.40141484197906
11313.0 84.44123202371017
11712.9 84.39010263502823
12126.0 84.64724026385935
12553.7 85.19869379445858
12996.1 85.81256063955979
13454.6 86.22831327399481
13929.2 86.36378708805444
14419.9 86.544806637792
14928.2 86.85227012391982
15455.6 86.79706375741377
16000.5 86.09453676891468
16564.5 85.01855344570123
17148.9 83.81094128528305
17752.4 83.07352780403379
18379.4 82.56131157525664
19026.9 81.89922047440844
19697.8 81.1307850554848
19999.5 80.76719540711223
