Freq "Side Wall Bounce"
20.5078 52.67762526686006
21.9727 54.015795520645824
23.4375 55.05454926153665
24.9023 56.62882218742898
26.3672 59.08388555702031
27.832 60.96748339347512
29.2969 62.78119918254343
30.7617 64.63528911598551
32.2266 66.16096468978627
33.6914 67.84417331449187
35.1562 69.42734878907233
36.6211 70.84123270394024
38.0859 72.18909070622257
39.5508 73.4459026578593
41.0156 74.65383487503316
42.4805 75.30826588276601
43.9453 75.70496900781512
45.4102 76.20808393702937
46.875 76.57185795553062
48.3398 76.89433213538571
51.2695 77.38141185802155
52.7344 77.59177357707829
54.1992 77.81688101413428
55.6641 77.95520112461205
58.5938 78.37570876161566
60.0586 78.43405226450365
62.9883 78.79115245298551
64.4531 78.91265017480079
67.3828 79.17403766126473
68.8477 79.33950377191891
71.7773 79.68435988647512
74.707 80.09504038527601
77.6367 80.47014348953877
79.1016 80.60499631362855
82.0312 80.86460279059038
84.9609 81.15877384017726
87.8906 81.44473356965734
90.8203 81.83283667867998
95.2148 82.16024278073382
98.1445 82.32488865220807
101.074 82.54980716031267
105.469 82.86705810053084
108.398 83.20024597176761
112.793 83.52685638905287
117.188 83.77983887958683
120.117 83.90273421280494
124.512 84.19374796369532
128.906 84.3648690107915
133.301 84.46468870291214
139.16 84.61986209095902
143.555 84.69363166838446
147.949 84.77753946356685
153.809 84.82925932338516
159.668 84.94649155162094
165.527 85.08693799605196
171.387 85.08283629885868
177.246 85.06615378906604
183.105 84.93320347758907
188.965 84.90202544799273
196.289 84.87826137402294
203.613 84.83679882775628
210.938 84.83880589878733
218.262 84.81279077461264
225.586 84.71336648471451
232.91 84.77080029321837
241.699 84.74328943816418
250.488 84.53494562553101
259.277 84.90062200105002
268.066 84.54047156996458
276.855 84.66957467467181
287.109 85.01364797656309
297.363 84.84697638078072
307.617 85.30156763515255
319.336 84.9474415102361
329.59 85.21570406407199
341.309 84.98564457451471
353.027 84.78786758772776
366.211 84.95890519853104
379.395 85.65500043399176
392.578 85.24845525002955
405.762 84.67843728635735
420.41 85.1508837738362
435.059 85.019617131567
451.172 85.29318701131221
465.82 84.97593562681799
483.398 85.11769993074971
499.512 84.86114640170764
517.09 85.33268198157009
536.133 84.46522845702032
555.176 86.57322529986608
574.219 87.09693893078729
594.727 86.59866322894406
615.234 86.70516408060122
637.207 87.00266396810905
659.18 86.83376664014168
682.617 86.94740194747254
707.52 87.88693595988418
732.422 88.06261562186774
757.324 88.49632055972098
785.156 87.52462055677547
811.523 86.5681599332725
840.82 86.53768435918265
870.117 86.58465339367179
900.879 86.76566625884247
933.105 86.90742524115443
965.332 86.87167996739974
1000.49 87.33753988074189
1035.64 86.92856517072612
1072.27 86.69897159574793
1108.89 86.06126743674842
1148.44 85.58472496501226
1189.45 85.03755290550308
1230.47 85.22310817285813
1274.41 84.90792672298309
1319.82 84.51824162683597
1366.7 83.882415377015
1413.57 83.49599199157034
1463.38 83.50709741637048
1516.11 84.53787091923094
1568.85 84.4036058090606
1624.51 83.3449341291445
1681.64 84.04698897999529
1741.7 84.80821267417141
1803.22 83.73252230665484
1866.21 83.97473186136914
1932.13 84.45554281742713
1999.51 84.46952966719792
2069.82 83.81681925460471
2143.07 83.51462319954726
2219.24 83.04439503147027
2296.88 81.49275856155326
2378.91 80.87242559380304
2462.4 79.44354512256452
2548.83 77.90873707234397
2639.65 77.82374205696267
2731.93 77.31283559531097
2828.61 77.28367618786618
2928.22 78.57140422762045
3030.76 80.143220580197
3137.7 80.9565591457584
3249.02 80.1042138139908
3363.28 79.16968989490454
3481.93 78.85163981788362
3604.98 79.13855979446268
3732.42 79.37658308994979
3864.26 81.52512881815026
4000.49 83.01750715866142
4141.11 83.68287182477333
4287.6 83.91679140365541
4438.48 84.0629865499012
4595.21 83.9465989569878
4756.35 84.16837148093147
4924.8 83.743489716156
5097.66 84.08654222759607
5277.83 84.30020728511069
5463.87 84.10933391253243
5657.23 84.23718665242926
5856.45 84.06980452237984
6062.99 83.87749142471677
6276.86 83.89503511142725
6498.05 83.69058612344013
6726.56 83.49202821489257
6963.87 83.32278265472137
7209.96 83.60905376885076
7464.84 83.96853541105953
7727.05 84.27152441444166
7999.51 84.3064668333472
8282.23 84.03899130554352
8573.73 83.88296215007718
8876.95 83.93409407913502
9188.96 83.31831780567079
9514.16 82.86120582510307
9849.61 82.5173212334192
10196.8 82.21897175247362
10555.7 81.56651303051827
10927.7 81.3751768689952
11313.0 80.99539961411291
11712.9 80.84173677572268
12126.0 81.36138627249314
12553.7 81.31035767915805
12996.1 81.09932501311633
13454.6 80.8522344022981
13929.2 80.08528278466576
14419.9 78.86925383539504
14928.2 77.72239407794477
15455.6 76.24686337776296
16000.5 74.55532322782521
16564.5 73.09562960239909
17148.9 72.21401473031709
17752.4 71.18435154954594
18379.4 69.77990314547024
19026.9 68.08006592578124
19697.8 65.71535009792325
19999.5 63.89819027041058
