Freq "Estimated In-Room Response"
22.4 47.27098429541746
23.0 48.847223244479636
23.6 50.41550177076982
24.0 51.9429277760421
25.0 53.46635886523529
25.8 54.99380139861026
26.5 56.52377484707105
27.2 58.032266892099415
28.0 59.53110065139083
29.0 61.029053520119646
30.0 62.48213205758174
30.7 63.92377484707106
31.5 65.33370895087086
32.5 66.72377484707104
33.5 68.05199805808209
34.5 69.35231798754924
35.5 70.62905352011964
36.5 71.83226689209943
37.5 72.97043255297132
38.7 74.08243479795826
40.0 75.12655998587167
41.2 76.08243479795827
42.5 76.99474532412685
43.7 77.83253149264866
45.0 78.6010846219842
46.2 79.29882420357976
47.5 79.93110065139085
48.7 80.48213205758174
50.0 80.97043255297132
51.5 81.37688790360293
53.0 81.73384432668051
54.5 82.04062275983014
56.0 82.26691210877556
58.0 82.46059025077948
60.0 82.62982933243985
61.5 82.74292777604208
63.0 82.84062275983014
65.0 82.92270378324662
67.0 82.97017540015382
69.0 83.03970399807656
71.0 83.06988644009886
73.0 83.11483148920271
75.0 83.16210582526661
77.5 83.2115029187816
80.0 83.26119678966754
82.5 83.33730339324227
85.0 83.4362113185489
87.5 83.50398828802577
90.0 83.59588073940189
92.5 83.66985843743805
95.0 83.72164228936764
97.5 83.761192617293
100.0 83.76710518806236
103.0 83.75622563736161
106.0 83.71464060476677
109.0 83.66167066679279
112.0 83.59185954911177
115.0 83.49666763997088
118.0 83.39506208663248
122.0 83.27129367476967
125.0 83.15675830040774
128.0 83.03819087209966
132.0 82.91375533054386
136.0 82.78682623159919
140.0 82.66089708594133
145.0 82.53503722577753
150.0 82.42043380238273
155.0 82.29766592145961
160.0 82.17302525049936
165.0 82.06729587790629
170.0 81.962148151233
175.0 81.84222698551235
180.0 81.7456547987167
185.0 81.62971817499972
190.0 81.5236699958646
195.0 81.42211256024729
200.0 81.28790668585326
206.0 81.16537602818838
212.0 81.04044349077888
218.0 80.91647955195855
224.0 80.77958621236166
230.0 80.69224427285643
236.0 80.55949027652352
240.0 80.46229954812898
250.0 80.36122243477126
258.0 80.27142031330283
265.0 80.19443915219514
272.0 80.12757193967911
280.0 80.096010605428
290.0 80.07237602665143
300.0 80.071459847958
307.0 80.11282603528261
315.0 80.17856961077435
325.0 80.27112667980859
335.0 80.3720000252928
345.0 80.51251729594412
355.0 80.66962449401478
365.0 80.84751993349832
375.0 81.01652936206634
387.0 81.17423422285749
400.0 81.29579209180558
412.0 81.40192746634307
425.0 81.45381844810615
437.0 81.48382432585896
450.0 81.49283259446479
462.0 81.4610941037123
475.0 81.41273263887084
487.0 81.36447214791427
500.0 81.28920016081534
515.0 81.2036072320223
530.0 81.15388692772784
545.0 81.1033507448371
560.0 81.10467240526901
580.0 81.08579207908824
600.0 81.09237446605795
615.0 81.07293535628865
630.0 81.03527043938657
650.0 80.95338864113835
670.0 80.82443109866159
690.0 80.71078333934872
710.0 80.57684096570938
730.0 80.47637794902928
750.0 80.41654909265826
775.0 80.40672229874468
800.0 80.44098830203913
825.0 80.52810711226229
850.0 80.63974195182219
875.0 80.76652698504782
900.0 80.87853254061723
925.0 80.9866767466363
950.0 81.0757695669004
975.0 81.1021556399681
1000.0 81.08774636875431
1030.0 80.99603537540875
1060.0 80.86924431011096
1090.0 80.69866935767728
1120.0 80.4918462584258
1150.0 80.30748612966079
1180.0 80.09708386138102
1220.0 79.89744289337007
1250.0 79.76016893781207
1280.0 79.62140411122755
1320.0 79.52154798802798
1360.0 79.43075317917445
1400.0 79.37430687001853
1450.0 79.3005357244416
1500.0 79.22710801448574
1550.0 79.12503204812056
1600.0 79.01109375350595
1650.0 78.84378034743276
1700.0 78.66625559869863
1750.0 78.4670471147287
1800.0 78.31162001342379
1850.0 78.16393124722937
1900.0 78.0658661210891
1950.0 78.00029590957182
2000.0 77.97381804481499
2060.0 77.99524567974763
2120.0 78.05828161614464
2180.0 78.16351215583184
2240.0 78.31832077309639
2300.0 78.49533620593871
2360.0 78.73612000685384
2400.0 78.93186942343799
2500.0 79.15464592975266
2580.0 79.32428888706812
2650.0 79.45686667047187
2720.0 79.58086081343873
2800.0 79.6441013376153
2900.0 79.70424265547217
3000.0 79.7240730459185
3070.0 79.73835819468627
3150.0 79.76319933025465
3250.0 79.7258893194119
3350.0 79.69504695671233
3450.0 79.65756060869327
3550.0 79.59267822166487
3650.0 79.53099528918538
3750.0 79.48377244447686
3870.0 79.4212053571585
4000.0 79.40573278043871
4120.0 79.39794152284855
4250.0 79.39513648991183
4370.0 79.41729197176491
4500.0 79.4270266050181
4620.0 79.45974534478702
4750.0 79.47683276968141
4870.0 79.47893202038154
5000.0 79.47712643998392
5150.0 79.4552824451801
5300.0 79.3914763543221
5450.0 79.34104780582304
5600.0 79.26155574261145
5800.0 79.18969148760794
6000.0 79.13072962557814
6150.0 79.06260867704444
6300.0 78.99820762871136
6500.0 78.94505273261964
6700.0 78.90538177498405
6900.0 78.89727093242202
7100.0 78.87116697495927
7300.0 78.85336715611157
7500.0 78.8427995629897
7750.0 78.81922988413157
8000.0 78.7748655547689
8250.0 78.73604145170334
8500.0 78.67449271360172
8750.0 78.5909524175731
9000.0 78.55178729581371
9250.0 78.4922608889185
9500.0 78.43353889674925
9750.0 78.4055399310213
10000.0 78.35927113975222
10300.0 78.33918837180165
10600.0 78.28660317513037
10900.0 78.269901905226
11200.0 78.19311087338014
11500.0 78.172809082112
11800.0 78.10935809960932
12200.0 78.05328022993642
12500.0 78.00086842125772
12800.0 77.9287719779277
13200.0 77.84055486868473
13600.0 77.74480799424657
14000.0 77.6408768865391
14500.0 77.53991099347925
15000.0 77.42926048506867
15500.0 77.30163091896964
16000.0 77.13704438300248
16500.0 77.01447969494212
17000.0 76.83089423949227
17500.0 76.66836268127494
18000.0 76.46839812483913
18500.0 76.26851849573892
19000.0 76.03092741562585
19500.0 75.8152563900978
