Freq "Estimated In-Room Response"
22.4 -24.418987341772144
23.0 -23.01898734177211
23.6 -21.618987341772133
24.0 -20.31898734177212
25.0 -19.01898734177211
25.8 -17.7189873417721
26.5 -16.418987341772116
27.2 -15.218987341772099
28.0 -13.918987341772116
29.0 -12.718987341772099
30.0 -11.418987341772116
30.7 -10.118987341772133
31.5 -8.718987341772099
32.5 -7.318987341772122
33.5 -5.818987341772122
34.5 -4.318987341772122
35.5 -2.8189873417721216
36.5 -1.2189873417721273
37.5 0.381012658227867
38.7 2.081012658227884
40.0 3.6810126582278784
41.2 5.381012658227867
42.5 6.98101265822789
43.7 8.581012658227884
45.0 10.281012658227873
46.2 11.881012658227867
47.5 13.381012658227867
48.7 14.98101265822789
50.0 16.48101265822789
51.5 17.98101265822789
53.0 19.381012658227867
54.5 20.68101265822788
56.0 22.081012658227884
58.0 23.381012658227867
60.0 24.68101265822788
61.5 25.98101265822789
63.0 27.18101265822788
65.0 28.48101265822789
67.0 29.68101265822788
69.0 30.881012658227867
71.0 32.081012658227884
73.0 33.28101265822787
75.0 34.48101265822789
77.5 35.581012658227884
80.0 36.68101265822788
82.5 37.78101265822787
85.0 38.78101265822787
87.5 39.78101265822787
90.0 40.78101265822787
92.5 41.68101265822788
95.0 42.581012658227884
97.5 43.48101265822789
100.0 44.28101265822787
103.0 45.081012658227884
106.0 45.88101265822788
109.0 46.581012658227884
112.0 47.29070737029513
115.0 47.98101265822789
118.0 48.67630463966898
122.0 49.28101265822787
125.0 49.88101265822788
128.0 50.485825062947434
132.0 51.08943511450523
136.0 51.66137678691994
140.0 52.18173038717928
145.0 52.69704144039168
150.0 53.17628352421615
155.0 53.61848125985953
160.0 54.015481106306176
165.0 54.39460757456171
170.0 54.72252197139765
175.0 55.02716847914699
180.0 55.30565549144749
185.0 55.567999919795575
190.0 55.81939517581569
195.0 56.03268200330995
200.0 56.27075410105787
206.0 56.489849086755704
212.0 56.71272778161562
218.0 56.92804415540275
224.0 57.139867824426524
230.0 57.32258643239579
236.0 57.48665684592982
240.0 57.650457409526446
250.0 57.778680162087916
258.0 57.8831815589758
265.0 57.97974333415042
272.0 58.03891205418595
280.0 58.089373665061295
290.0 58.12466812314958
300.0 58.150392503534725
307.0 58.16985340642348
315.0 58.15960166972169
325.0 58.146805645154096
335.0 58.13435498179475
345.0 58.11323808778952
355.0 58.09696093711789
365.0 58.06459113345807
375.0 58.05045252728316
387.0 58.02462546636176
400.0 58.000699583197395
412.0 57.96073041438644
425.0 57.91878633498036
437.0 57.89456303412069
450.0 57.86455761061108
462.0 57.81969268028569
475.0 57.78660596688527
487.0 57.76166382142765
500.0 57.72567216575798
515.0 57.67580919808615
530.0 57.62524062044955
545.0 57.56109196759029
560.0 57.51168460376676
580.0 57.45995555536144
600.0 57.38852816218421
615.0 57.32357742966904
630.0 57.26400695179671
650.0 57.18321980427128
670.0 57.10228567328493
690.0 57.034273621405525
710.0 56.96481919059523
730.0 56.89715037479173
750.0 56.83081468468091
775.0 56.78535974697915
800.0 56.771810934560115
825.0 56.77020233596094
850.0 56.76927612875313
875.0 56.76228406326944
900.0 56.78238028650055
925.0 56.81442821426963
950.0 56.845570187434596
975.0 56.87451011635704
1000.0 56.891816836893234
1030.0 56.919444573899874
1060.0 56.95327986681708
1090.0 56.959234226725364
1120.0 56.968183756390424
1150.0 56.9773275437009
1180.0 56.97751902332907
1220.0 56.95045316741432
1250.0 56.908682059502105
1280.0 56.88766896116656
1320.0 56.80330120093681
1360.0 56.726477811040816
1400.0 56.64228022103523
1450.0 56.572924036945956
1500.0 56.5105205941313
1550.0 56.40847817235326
1600.0 56.344051646593094
1650.0 56.28789971455242
1700.0 56.22761261075076
1750.0 56.17795464743893
1800.0 56.11788930583925
1850.0 56.09607384461939
1900.0 56.08669004212897
1950.0 56.0483149698589
2000.0 56.005107934627
2060.0 55.93147947115478
2120.0 55.899837003596566
2180.0 55.83830396817472
2240.0 55.79021197626776
2300.0 55.70668063610271
2360.0 55.62366337246349
2400.0 55.5169785992527
2500.0 55.38069538827508
2580.0 55.27127887672794
2650.0 55.12881522151867
2720.0 54.98685755274369
2800.0 54.87866254577623
2900.0 54.785862632208996
3000.0 54.73425584578286
3070.0 54.708787414082714
3150.0 54.767261991274616
3250.0 54.839926528851215
3350.0 55.019921766234326
3450.0 55.18813150048775
3550.0 55.40704628354042
3650.0 55.6432012579812
3750.0 55.81404912795876
3870.0 55.968346879275096
4000.0 56.013222299035085
4120.0 56.000584916745716
4250.0 55.946081690434575
4370.0 55.81303574978501
4500.0 55.67778464980096
4620.0 55.552352688729364
4750.0 55.39044644544591
4870.0 55.1968602599943
5000.0 55.04112035323114
5150.0 54.80762837157378
5300.0 54.60188703619992
5450.0 54.39555551116052
5600.0 54.26502912559038
5800.0 54.15027087650285
6000.0 54.04754958444827
6150.0 54.025838771976446
6300.0 54.04932830879961
6500.0 54.070097581283555
6700.0 54.13313498682411
6900.0 54.26968796668955
7100.0 54.41958625990856
7300.0 54.63826153520849
7500.0 54.90961446521508
7750.0 55.20824596687735
8000.0 55.473138369555635
8250.0 55.77273410044821
8500.0 56.02973796201409
8750.0 56.276074467415235
9000.0 56.46441844550218
9250.0 56.58120432551346
9500.0 56.60619131332293
9750.0 56.589875162816675
10000.0 56.43486165819436
10300.0 56.21085018590821
10600.0 55.89085727168568
10900.0 55.5916330609756
11200.0 55.24139050569867
11500.0 54.8776053145129
11800.0 54.55200643343661
12200.0 54.31719333984095
12500.0 54.10407785259353
12800.0 54.01864685341915
13200.0 53.978080904528774
13600.0 54.06644255849222
14000.0 54.112919619646824
14500.0 54.21985765690376
15000.0 54.34580580730859
15500.0 54.384609807658315
16000.0 54.37925318706727
16500.0 54.332321338726864
17000.0 54.171275768505204
17500.0 54.03119158313883
18000.0 53.77129444123933
18500.0 53.55148377140474
19000.0 53.28024520936214
19500.0 53.01253302873402
