Freq,On Axis,Listening Window,Sound Power,Early Reflections,Early Reflections DI,Sound Power DI,DI offset
22.4,23.599999999999994,23.478992711188937,22.712058984169033,23.082232528224893,20.396760182964044,20.766933727019904,20
23.0,24.200000000000017,24.07899271118896,23.301878591328403,23.67616168188465,20.40283102930431,20.777114119860556,20
23.6,24.700000000000017,24.667683478171398,23.877302266329565,24.258367333086227,20.40931614508517,20.790381211841833,20
24.0,25.200000000000017,25.16768347817137,24.35350942095812,24.749896096500407,20.417787381670962,20.81417405721325,20
25.0,25.700000000000017,25.64549447919879,24.848362081874,25.241112822338636,20.404381656860153,20.797132397324788,20
25.8,26.200000000000017,26.09027257090358,25.28116198934603,25.68823092359824,20.40204164730534,20.809110581557547,20
26.5,26.700000000000017,26.57899271118896,25.720410269370348,26.130593243335653,20.448399467853307,20.858582441818612,20
27.2,27.099999999999994,27.000511678040482,26.15897965571719,26.587655090500533,20.41285658753995,20.841532022323292,20
28.0,27.599999999999994,27.478992711188937,26.60874584288112,27.03797175607096,20.441020955117978,20.870246868307817,20
29.0,28.099999999999994,28.000511678040482,27.101245166335815,27.543790088684574,20.456721589355908,20.899266511704667,20
30.0,28.700000000000017,28.545494479198794,27.65184834446015,28.09542857611845,20.450065903080343,20.893646134738646,20
30.7,29.299999999999983,29.178490197129094,28.261727464816573,28.717002043272174,20.46148815385692,20.91676273231252,20
31.5,30.099999999999994,29.9454944791988,29.018577420599513,29.476526987871495,20.468967491327305,20.926917058599287,20
32.5,30.900000000000006,30.81173585711585,29.88879675266938,30.346395216233674,20.465340640882175,20.92293910444647,20
33.5,31.900000000000006,31.81173585711585,30.884851245412506,31.339402782035194,20.472333075080655,20.926884611703343,20
34.5,33.099999999999994,32.9454944791988,32.00307776242025,32.465506178917366,20.479988300281434,20.942416716778553,20
35.5,34.29999999999998,34.17849019712909,33.241699063528586,33.70772650465898,20.470763692470115,20.936791133600508,20
36.5,35.599999999999994,35.48977136039707,34.57808236273269,35.031804817975626,20.457966542421445,20.911688997664385,20
37.5,37.0,36.87849019712911,35.97284847404097,36.42916506376312,20.44932513336599,20.905641723088138,20
38.7,38.5,38.345494479198805,37.41309892633464,37.866385033039535,20.47910944615927,20.932395552864165,20
40.0,39.900000000000006,39.778490197129116,38.86228834696672,39.3036380210377,20.474852176091417,20.916201850162395,20
41.2,41.400000000000006,41.22319152961714,40.339032547186264,40.76774026101302,20.455451268604122,20.884158982430876,20
42.5,42.79999999999998,42.67849019712909,41.81031056595725,42.232324187484636,20.446166009644458,20.86817963117184,20
43.7,44.29999999999998,44.14549447919879,43.27994385974142,43.70112052488261,20.444373954316177,20.865550619457366,20
45.0,45.7,45.57849019712911,44.73881956408958,45.14484366475209,20.433646532377026,20.839670633039532,20
46.2,47.2,47.045494479198794,46.1999695539417,46.609750483317214,20.43574399588158,20.845524925257095,20
47.5,48.599999999999994,48.45686156553042,47.63197158962983,48.025123881106595,20.431737684423823,20.82488997590059,20
48.7,50.0,49.85686156553042,49.04440819682267,49.43044706811607,20.426414497414356,20.81245336870775,20
50.0,51.400000000000006,51.24549447919878,50.44531823855125,50.83212659630942,20.41336788288936,20.80017624064753,20
51.5,52.69999999999999,52.600511678040476,51.80527163200955,52.204407136952966,20.39610454108751,20.795240046030926,20
53.0,54.099999999999994,53.9454944791988,53.13816940597407,53.52489542559843,20.42059905360037,20.80732507322473,20
54.5,55.400000000000006,55.27899271118895,54.448623347524276,54.838373644284815,20.440619066904134,20.830369363664673,20
56.0,56.599999999999994,56.556344718472346,55.734522291397965,56.127971964952636,20.42837275351971,20.82182242707438,20
58.0,57.900000000000006,57.80051167804048,56.970413241692555,57.36636945356136,20.434142224479118,20.830098436347924,20
60.0,59.099999999999994,58.97899271118895,58.13744645668481,58.542269813357166,20.436722897831785,20.841546254504138,20
61.5,60.3,60.167683478171355,59.30149507404178,59.720099543007734,20.44758393516362,20.866188404129574,20
63.0,61.400000000000006,61.24549447919878,60.38191553336816,60.80860516941064,20.436889309788143,20.863578945830625,20
65.0,62.400000000000006,62.33409756292211,61.42636048631495,61.856940457136446,20.477157105785665,20.907737076607162,20
67.0,63.400000000000006,63.322931102480624,62.391815787220395,62.83846373933372,20.484467363146905,20.93111531526023,20
69.0,64.3,64.2340975629221,63.30368341824702,63.75164966419575,20.48244789872635,20.930414144675083,20
71.0,65.19999999999999,65.0454944791988,64.12741338990749,64.5812196773039,20.464274801894888,20.918081089291306,20
73.0,65.9,65.83409756292211,64.88720932163064,65.34589012519876,20.488207437723347,20.946888241291475,20
75.0,66.6,66.53409756292211,65.56916015128444,66.02962157212787,20.504475990794248,20.964937411637678,20
77.5,67.2,67.13409756292211,66.15862494367379,66.62341398700929,20.51068357591282,20.975472619248322,20
80.0,67.8,67.64549447919879,66.6829209906964,67.14625498700028,20.499239492198512,20.962573488502386,20
82.5,68.2,68.13409756292211,67.13801465269242,67.61212682667903,20.521970736243077,20.99608291022969,20
85.0,68.6,68.5340975629221,67.55842253424777,68.02505795131938,20.509039611602716,20.97567502867433,20
87.5,69.0,68.91274477799038,67.91829546403136,68.39370057035923,20.519044207631154,20.994449313959024,20
90.0,69.3,69.21274477799038,68.2270141368214,68.70445506571762,20.508289712272756,20.985730641168985,20
92.5,69.6,69.46819897766142,68.50325622552359,68.96176510241534,20.506433875246074,20.96494275213783,20
95.0,69.80000000000001,69.7127447779904,68.7092921475724,69.18178080406122,20.530963973929175,21.003452630417996,20
97.5,70.0,69.82419779300913,68.81678255831116,69.30902261035206,20.515175182657075,21.007415234697973,20
100.0,70.0,69.85686156553042,68.84027985861904,69.32466399853621,20.532197566994213,21.01658170691138,20
103.0,69.9,69.81274477799039,68.77654871520895,69.28691624571232,20.52582853227807,21.036196062781443,20
106.0,69.80000000000001,69.6907853962292,68.66433442632587,69.16403357279839,20.526751823430814,21.026450969903337,20
109.0,69.80000000000001,69.6454944791988,68.57285960366983,69.08326938938616,20.562225089812642,21.072634875528976,20
112.0,69.7,69.55686156553043,68.50313065864262,69.00943222364299,20.547429341887437,21.053730906887807,20
115.0,69.7,69.5454944791988,68.46248314600949,68.97973239309883,20.565762086099966,21.083011333189305,20
118.0,69.6,69.4568615655304,68.3701175935213,68.88949312798206,20.56736843754834,21.086743972009103,20
122.0,69.4,69.2795068701197,68.19357684587257,68.71127701931302,20.568229850806688,21.085930024247133,20
125.0,69.2,69.05686156553043,67.94343610990231,68.45809601761162,20.598765547918802,21.113425455628118,20
128.0,68.9,68.75686156553043,67.63729678406784,68.15517041637983,20.601691149150597,21.119564781462586,20
132.0,68.6,68.52419779300914,67.38887983157503,67.90543537885188,20.61876241415726,21.13531796143411,20
136.0,68.6,68.4356206840857,67.27687021210232,67.80389104924129,20.63172963484442,21.15875047198338,20
140.0,68.6,68.4356206840857,67.25741575077907,67.79318608473787,20.642434599347837,21.17820493330663,20
145.0,68.5,68.3356206840857,67.17124937336001,67.70253093515498,20.633089748930715,21.164371310725684,20
150.0,68.3,68.13562068408571,66.95206446128411,67.48482310004823,20.650797584037477,21.1835562228016,20
155.0,68.0,67.83562068408571,66.66285306142282,67.19127746803849,20.64434321604722,21.17276762266289,20
160.0,67.9,67.68127710423244,66.50261722707378,67.03681769133672,20.644459412895714,21.17865987715865,20
165.0,68.0,67.76997382606369,66.55294466694201,67.10029830904887,20.669675517014824,21.21702915912168,20
170.0,68.1,67.92445814420117,66.63497357502686,67.21025828183116,20.71419986237001,21.289484569174306,20
175.0,68.1,67.88154004111531,66.54082042003918,67.1559723837363,20.725567657379017,21.340719621076133,20
180.0,67.9,67.73562068408569,66.29173256338899,66.94953219997006,20.786088484115623,21.4438881206967,20
185.0,67.9,67.68154004111531,66.1210785908969,66.83093659986426,20.850603441251053,21.560461450218412,20
190.0,68.1,67.88154004111531,66.20804169236081,66.97362633527376,20.90791370584155,21.673498348754507,20
195.0,68.4,68.1381589295137,66.30787607930324,67.13992143257786,20.99823749693583,21.830282850210452,20
200.0,68.4,68.07276168478319,66.10954487905444,67.00980003837948,21.062961646403707,21.96321680572875,20
206.0,68.4,68.05255333093841,65.97771217904311,66.93885336653089,21.113699964407516,22.0748411518953,20
212.0,68.79999999999998,68.45255333093843,66.26364896067614,67.27734554846735,21.175207782471077,22.188904370262293,20
218.0,69.2,68.90761365943237,66.62791658734403,67.7050444241761,21.202569235256277,22.27969707208834,20
224.0,69.5,69.17276168478318,66.80406146516106,67.93784167409058,21.234920010692605,22.368700219622127,20
230.0,69.9,69.57276168478319,67.11384334342803,68.31525377347667,21.25750791130652,22.458918341355158,20
236.0,70.4,70.08458936020946,67.49805699145102,68.79396928782012,21.290620072389345,22.58653236875844,20
240.0,70.5,70.24063796503015,67.4841352763062,68.8685016024361,21.37213636259405,22.75650268872394,20
250.0,70.4,70.11881952234125,67.21977155236017,68.7011408967743,21.41767862556695,22.899047969981083,20
258.0,70.4,70.05255333093841,67.0279724494727,68.58301953200231,21.469533798936098,23.02458088146571,20
265.0,69.9,69.53079481760015,66.45786647460892,68.03602431959706,21.494770498003092,23.072928342991233,20
272.0,68.79999999999998,68.46390198076043,65.35465554457261,66.94464606078381,21.519255919976615,23.109246436187817,20
280.0,68.1,67.80708482926707,64.58185244335891,66.21548482128367,21.591600007983402,23.225232385908157,20
290.0,67.4,67.06390198076043,63.60617151059836,65.36426707515537,21.699634905605066,23.457730470162076,20
300.0,66.29999999999998,65.99855684849737,62.252300608050774,64.1679560213395,21.830600827157866,23.7462562404466,20
307.0,65.7,65.38703592431402,61.39032643091855,63.464110008219194,21.922925916094826,23.99670949339547,20
315.0,65.6,65.25255333093841,61.147157596339326,63.32858908262388,21.923964248314533,24.105395734599085,20
325.0,66.5,66.18756720128135,61.99596991244266,64.24331526115387,21.944251940127486,24.191597288838693,20
335.0,67.5,67.18756720128135,62.97260898505256,65.25931749070332,21.92824971057803,24.214958216228794,20
345.0,67.6,67.26443609510353,63.082522129565575,65.36570088254118,21.898735212562357,24.18191396553796,20
355.0,67.6,67.3414342834443,63.293262277476856,65.50979629036118,21.83163799308312,24.048172005967444,20
365.0,67.69999999999999,67.4414342834443,63.555005763648396,65.64881962800087,21.79261465544343,23.8864285197959,20
375.0,67.6,67.36169432147409,63.58424919643191,65.61497963122332,21.74671469025077,23.777445125042178,20
387.0,67.69999999999999,67.52725112058157,63.706692822889295,65.76554076266595,21.761710357915618,23.820558297692273,20
400.0,68.0,67.82725112058156,63.931050012333785,66.00432995305869,21.82292116752288,23.89620110824778,20
412.0,68.3,68.12725112058158,64.1745394833485,66.26326294328135,21.86398817730023,23.95271163723308,20
425.0,68.6,68.3185647670853,64.22495623927033,66.37702966685339,21.941535100231917,24.09360852781498,20
437.0,68.70000000000002,68.30068855672293,64.01423539007183,66.24855293501186,22.052135621711074,24.2864531666511,20
450.0,68.79999999999998,68.30575437474515,63.87042526534019,66.14870527173201,22.157049103013136,24.43532910940496,20
462.0,68.6,68.12109690438574,63.533371548746885,65.86822868658882,22.252868217796916,24.587725355638852,20
475.0,68.3,67.71906824205468,62.89038423693165,65.31524155353132,22.403826688523353,24.828684005123023,20
487.0,67.8,67.20083762081325,62.20083965936398,64.6644919386838,22.53634568212945,24.999997961449267,20
500.0,68.4,67.78984166453489,62.778916047691794,65.19933917375305,22.590502490781844,25.010925616843096,20
515.0,69.2,68.69551217035257,63.68787663873343,66.07918242372827,22.616329746624302,25.007635531619144,20
530.0,69.1,68.53739674356773,63.50008101715714,65.86849435918565,22.66890238438208,25.037315726410583,20
545.0,67.8,67.3015513631559,62.27723593249263,64.59582258386347,22.70572877929243,25.024315430663265,20
560.0,66.20000000000002,65.73627333729675,60.681557035222966,63.01174131458316,22.72453202271359,25.054716302073786,20
580.0,64.80000000000001,64.39187385526766,59.24325998705571,61.65433334149442,22.73754051377324,25.148613868211953,20
600.0,64.2,63.77310023463406,58.559933286973504,61.034462568721636,22.73863766591242,25.213166947660554,20
615.0,64.2,63.76799917019255,58.35550353031755,60.95830785504829,22.809691315144264,25.412495639875004,20
630.0,64.3,63.82820174452692,58.240225106207674,60.93323894670348,22.89496279782344,25.587976638319248,20
650.0,64.7,64.15439123971726,58.578334843478444,61.279381396596975,22.87500984312028,25.576056396238812,20
670.0,65.1,64.63994128864744,59.161652710000794,61.823278550215065,22.81666273843237,25.47828857864664,20
690.0,65.19999999999999,64.71081812763792,59.37926738185547,61.987402968985776,22.723415158652145,25.33155074578245,20
710.0,65.19999999999999,64.79449837054098,59.55284246654762,62.18522450143024,22.609273869110737,25.24165590399336,20
730.0,65.0,64.66276461716464,59.58186582071144,62.269651624197905,22.393112992966735,25.080898796453198,20
750.0,64.6,64.30097821510275,59.43742323281937,62.177093721538085,22.12388449356466,24.863554982283375,20
775.0,64.2,63.91098210659584,59.42954496951863,62.16363210761054,21.7473499989853,24.481437137077208,20
800.0,65.1,64.49667527576307,60.13196291433326,62.865696183532194,21.630979092230874,24.36471236142981,20
825.0,65.9,65.02272980912687,60.24967188973706,63.031222837910605,21.991506971216268,24.773057919389814,20
850.0,66.4,65.49310722423948,60.198580918788096,63.02775089222372,22.46535633201576,25.294526305451384,20
875.0,66.1,65.39516162801506,59.73359684737885,62.67464822009484,22.720513407920222,25.661564780636212,20
900.0,66.29999999999998,65.68953900309924,59.74975702553523,62.932720106217545,22.756818896881697,25.93978197756401,20
925.0,66.20000000000002,65.79459173450452,59.9002926947218,63.276979726700205,22.517612007804317,25.894299039782723,20
950.0,65.3,64.85081994383002,59.47004656626916,62.81932569187509,22.031494251954925,25.380773377560857,20
975.0,67.0,66.28860008662497,61.23153215284462,64.59804552782983,21.690554558795142,25.057067933780345,20
1000.0,68.2,67.46983021861865,62.196821261056385,65.71845858796482,21.751371630653836,25.27300895756227,20
1030.0,68.3,67.50611441868534,61.893225965190396,65.61288857653912,21.893225842146222,25.612888453494946,20
1060.0,68.0,67.17776399061803,61.24175707036673,65.11708775603225,22.060676234585785,25.9360069202513,20
1090.0,68.0,67.0529804371181,60.83361068924026,64.8359455583257,22.21703487879239,26.219369747877835,20
1120.0,68.0,67.1554702175172,60.789485270407354,64.8471222978141,22.30834791970311,26.36598494710985,20
1150.0,67.5,66.97040033466486,60.61412738057618,64.69832380276253,22.27207653190233,26.35627295408868,20
1180.0,66.9,66.68267498306442,60.45933938494147,64.58742845860357,22.095246524460848,26.223335598122944,20
1220.0,67.5,67.40965799552406,60.87890643839512,64.9424806566166,22.46717733890746,26.530751557128937,20
1250.0,68.9,68.69596162210667,61.8520117303523,65.94221825224875,22.753743369857915,26.843949891754363,20
1280.0,69.0,68.56736079296346,62.843028200406735,66.56952599454172,21.997834798421735,25.72433259255672,20
1320.0,67.2,66.38511959140745,62.38386075457046,65.54576221124144,20.839357380166007,24.001258836836982,20
1360.0,64.7,63.69422883467273,59.2316859075373,62.334952231636834,21.359276603035894,24.46254292713543,20
1400.0,64.9,64.2141522767744,58.43883036538486,61.77902408986216,22.435128186912237,25.77532191138954,20
1450.0,65.6,64.73006031364099,57.621859379899064,61.43697351088454,23.29308680275645,27.108200933741927,20
1500.0,66.0,65.02496062314405,57.52004297773418,61.50117688980622,23.523783733337837,27.504917645409876,20
1550.0,65.5,64.52600005224824,57.13771490175377,61.09138899358818,23.434611058660053,27.388285150494468,20
1600.0,65.7,64.7167254566161,56.9366805142741,61.095134298242044,23.62159115837406,27.780044942342002,20
1650.0,65.7,64.64877674005334,56.17747716550355,60.50857879281976,24.140197947233574,28.47129957454979,20
1700.0,67.1,65.95076563027195,56.635718463442714,61.16579138580468,24.784974244467264,29.31504716682923,20
1750.0,67.30000000000001,66.09816168772144,56.94752872534954,61.43782452815441,24.660337159567035,29.1506329623719,20
1800.0,67.69999999999999,66.38734073235015,57.578833114094266,62.08767593810677,24.299664794243384,28.808507618255888,20
1850.0,67.8,66.41448253663103,58.10008921298072,62.613130641791344,23.801351894839684,28.314393323650307,20
1900.0,67.8,66.81917002536501,59.08484669242799,63.30389970130844,23.515270324056573,27.734323332937024,20
1950.0,68.0,67.25862711528309,59.552120553735435,63.654079646209865,23.604547469073225,27.706506561547656,20
2000.0,67.6,66.8804581530312,59.11570245051324,63.117507743717326,23.762950409313873,27.76475570251796,20
2060.0,66.20000000000002,65.33080146588662,57.55068737689098,61.3166392258065,24.014162240080125,27.780114088995646,20
2120.0,63.79999999999998,63.27400955738527,55.540748419794966,58.83615157700903,24.437857980376236,27.733261137590304,20
2180.0,63.599999999999994,62.915860055621096,55.69538074429073,58.52048939274198,24.395370662879117,27.220479311330365,20
2240.0,65.0,64.29758419278414,57.107021798615904,60.049767580379765,24.247816612404378,27.19056239416824,20
2300.0,66.4,65.69180148650133,58.38004785400841,61.67523641082565,24.016565075675686,27.311753632492923,20
2360.0,66.29999999999998,65.50334210343433,58.13244416985921,61.44474134972165,24.058600753712682,27.370897933575122,20
2400.0,66.8,65.89266105969176,58.423458598480124,61.68033048333534,24.212330576356422,27.469202461211637,20
2500.0,66.29999999999998,65.67773731336572,58.628942081594815,61.776536030810405,23.90120128255532,27.04879523177091,20
2580.0,66.0,65.5846187735625,58.94527735909793,62.144205348785675,23.44041342477682,26.639341414464567,20
2650.0,65.4,65.30556420034597,58.54847539023284,61.92943264366173,23.376131556684243,26.75708881011313,20
2720.0,64.5,64.95408336621335,58.27311664205881,61.47697776183519,23.477105604378167,26.680966724154544,20
2800.0,64.3,64.45999663510185,57.75001917581068,60.91378061206855,23.546216023033296,26.709977459291167,20
2900.0,65.8,64.40696099369875,58.61181949313013,61.596663336796865,22.81029765690188,25.79514150056862,20
3000.0,66.8,64.55219154341904,58.82777687904691,61.869363794333765,22.682827749085277,25.724414664372134,20
3070.0,66.9,64.39761581447357,58.345281674085015,61.63330493150575,22.76431088296782,26.052334140388552,20
3150.0,66.8,65.08484074707566,58.28366242659047,61.8423388573907,23.24250188968496,26.801178320485192,20
3250.0,66.7,65.47623323337895,57.944945711504644,61.86155104888121,23.614682184497738,27.531287521874305,20
3350.0,66.4,65.31517815582404,57.12061773111154,61.48788499574462,23.82729316007942,28.194560424712506,20
3450.0,66.29999999999998,65.64861693720609,57.27989774814242,61.88810359397925,23.760513343226833,28.36871918906367,20
3550.0,65.6,65.82189477144158,57.470916738065014,62.07048287670213,23.751411894739448,28.350978033376563,20
3650.0,64.2,64.52902693985216,55.975907318918075,60.70374355596033,23.82528338389183,28.553119620934083,20
3750.0,64.3,64.0917758696012,55.36340886778797,60.12626450615852,23.965511363442673,28.728367001813226,20
3870.0,64.9,63.95355213388987,55.03348098821435,59.75328086399463,24.20027126989524,28.92007114567552,20
