Freq "Ceiling Bounce"
20.5078 48.903006856666494
21.2402 50.97180962987399
21.9727 51.0971041939528
22.7051 51.504897880305165
23.4375 53.04600537647572
24.1699 54.42175766283428
25.6348 56.40831119601593
26.3672 57.51806267755485
27.0996 58.458363376686165
27.832 59.328584086858925
29.2969 61.50887471531594
30.0293 62.551025638455116
31.4941 64.3293444386836
32.2266 65.0441334054813
33.6914 67.02768199743687
34.4238 68.08971694939926
35.8887 69.8580298428509
37.3535 71.81411447967837
38.8184 73.65303469465653
39.5508 74.55600094431512
41.0156 76.36781948872449
42.4805 77.98076521214314
43.9453 79.47545695042898
45.4102 80.61417800234082
47.6074 81.67741452436633
49.0723 82.07571122369482
50.5371 82.23052948578301
52.7344 82.27942013359431
54.1992 82.2083493577528
56.3965 82.10201004550079
58.5938 82.00899425941154
60.0586 81.93312590505046
62.2559 81.92697475252969
64.4531 82.00274872739327
66.6504 82.04591072176355
69.5801 82.20489314677167
71.7773 82.37268736995506
73.9746 82.57372975387179
76.9043 82.67927203183137
79.834 82.9168847091194
82.7637 83.09298569858065
85.6934 83.14580335961121
88.623 83.11551739373706
91.5527 83.00653273260907
94.4824 83.10985981803599
98.1445 83.24526960163311
101.807 83.08996457681587
105.469 82.98714500492183
109.131 82.90459588871855
112.793 82.83203049594067
116.455 82.69315236154826
120.85 82.64485298010503
125.244 82.55671631344568
129.639 82.37408493736793
134.033 82.13890146223254
138.428 81.92849258185014
143.555 81.68994811612367
148.682 81.54151254808228
153.809 81.54056388546731
159.668 81.8296358219422
164.795 81.97229366882239
170.654 81.69935626081623
176.514 81.00297096268874
183.105 80.02470009781635
189.697 79.55069786671955
196.289 78.92388979490933
202.881 78.41451527607632
210.205 78.54723455877102
217.529 78.92807471896525
225.586 79.87361162120278
232.91 80.89811215447993
241.699 81.25761130951149
249.756 82.23391212555913
258.545 82.95549574940011
268.066 82.89064192181617
277.588 83.38727950987807
287.109 83.44319095614661
297.363 83.94792170371446
307.617 84.14159310638969
318.604 84.24349401307508
329.59 84.34844475322922
341.309 84.26512486585445
353.76 83.7166666785106
366.211 83.51138807474375
378.662 83.59826803255804
392.578 83.0838262845969
405.762 83.420042637073
420.41 83.6332650754131
435.059 82.67205683912815
450.439 82.78540328127764
466.553 82.58016943695887
482.666 82.80294592890516
500.244 83.01044322379504
517.822 83.26680391096592
536.133 83.8622449352475
554.443 83.23249891365727
574.219 82.7098442267881
594.727 83.19783727638107
615.234 84.2471372932337
637.207 83.4812841321749
659.912 81.83734820899885
683.35 81.8053074615191
706.787 81.90361450800597
731.689 82.18237797533341
758.057 82.2697602088387
784.424 82.65160257697683
812.256 83.21795193573807
840.82 83.17636122366277
870.85 82.73777979304633
901.611 82.45651217913145
933.105 82.10651099568953
966.064 81.85056831245434
999.756 81.66350349809628
1034.91 81.16690806166511
1071.53 81.1956586812974
1109.62 80.99585812231788
1148.44 80.56302464435163
1189.45 79.6786458661694
1231.2 79.83615128646477
1274.41 79.6498831269438
1319.82 79.20938036399662
1365.97 78.68340696227496
1414.31 79.63136864607922
1464.11 78.78742919476524
1515.38 78.95202995709487
1568.85 79.46634573054703
1624.51 78.8994867848693
1681.64 80.00363408493128
1740.97 79.49054433939308
1802.49 80.50288952912041
1866.21 80.82684052742232
1932.13 81.36279052997041
2000.24 80.73502362285143
2070.56 81.78757524473694
2143.8 81.84305781653798
2219.24 81.52712703840778
2297.61 81.92715013405926
2378.17 81.30835115094543
2462.4 81.057663119448
2548.83 80.48437234701412
2638.92 81.20171666483381
2731.93 80.87348041439729
2828.61 80.72176271573811
2928.22 80.4108531143406
3031.49 80.78090331957881
3138.43 80.47134707002935
3249.02 80.52934720580247
3363.28 80.61005472364833
3481.93 80.45031863508409
3604.98 80.73480093131248
3732.42 80.74549794140704
3863.53 81.09413012762236
3999.76 81.07105873056467
4141.11 81.2249516200689
4286.87 81.24847710712079
4438.48 81.1743838336811
4594.48 81.36875442236807
4757.08 81.42393126867448
4924.8 81.0456381998231
5098.39 80.81304772501717
5277.83 80.55198565651419
5463.87 80.21466323399265
5656.49 80.40125600382233
5856.45 80.9786455437047
6062.99 80.92307361122415
6276.86 80.1457642003909
6498.05 79.76235844272274
6727.29 79.2100920443454
6964.6 78.80034106128679
7209.96 78.80683049346672
7464.11 78.42259199045033
7727.78 77.70293512598954
8000.24 77.50956140481827
8282.23 77.58471669636921
8574.46 77.26755581107248
8876.22 76.65830511893101
9189.7 75.60451626368379
9513.43 75.13525476152901
9848.88 75.36552279834488
10196.8 74.95194468963699
10556.4 73.4974017314795
10928.5 71.52696419673407
11313.7 71.21449841547732
11712.9 71.23755482583051
12126.0 70.3167729205027
12553.7 68.50373614337272
12996.1 69.73267533711146
13454.6 70.08426852576078
13928.5 69.34451257901107
14419.9 67.95975887492114
14928.2 69.04967024699994
15454.8 69.67986458911254
15999.8 69.14127472555832
16564.5 67.39225562256807
17148.2 67.61750853678679
17753.2 65.3688091259335
18379.4 63.099967804608966
19027.6 62.625863342559654
19698.5 60.87885781842617
19999.5 61.042865304392265
