Freq "Floor Bounce"
20.5078 49.34848819631155
21.2402 51.39450311834476
21.9727 51.913824987303386
22.7051 52.20925722810897
23.4375 53.83950707550211
24.1699 55.18393557246263
25.6348 57.19661354629933
26.3672 58.311290995049475
27.0996 59.2715604816034
27.832 60.1331574783231
29.2969 62.28762385759906
30.0293 63.340759151939295
31.4941 65.09688723817314
32.2266 65.83688839884482
33.6914 67.8773033946716
34.4238 68.92332254685061
35.8887 70.73913437148614
37.3535 72.67434201511871
38.8184 74.5040905481997
39.5508 75.42771813203808
41.0156 77.23619458467002
42.4805 78.8957595136549
43.9453 80.38736490653402
45.4102 81.51800184860248
47.6074 82.58146402582086
49.0723 82.99432090627134
50.5371 83.16420502027046
52.7344 83.18177587206732
54.1992 83.09300514498483
56.3965 83.01184075912889
58.5938 82.93034582878452
60.0586 82.86148075732943
62.2559 82.90373282806968
64.4531 82.96990842509696
66.6504 83.00852197621012
69.5801 83.20447633270413
71.7773 83.35066762734834
73.9746 83.52584772275644
76.9043 83.64846052976459
79.834 83.88100093825138
82.7637 84.12379369828925
85.6934 84.12497704669963
88.623 84.10887242981241
91.5527 84.05344659410515
94.4824 84.25232778763885
98.1445 84.35547333437991
101.807 84.18898202310581
105.469 84.1426800004675
109.131 84.12996157883627
112.793 84.05544969470829
116.455 83.9228001744082
120.85 83.90892778887505
125.244 83.87041515585979
129.639 83.66690797156868
134.033 83.45531299687543
138.428 83.33715330631732
143.555 83.21739821142886
148.682 83.1839208400561
153.809 83.2653963757599
159.668 83.52599777241555
164.795 83.61555125695506
170.654 83.4718138314937
176.514 83.03100418476293
183.105 82.40293114781791
189.697 81.90310492441178
196.289 81.38031282554778
202.881 81.09629000293053
210.205 80.82331647794207
217.529 80.77965207144923
225.586 81.21848881579156
232.91 82.01374778955774
241.699 82.17386514505084
249.756 82.57426017708427
258.545 83.02967306595322
268.066 82.92403901073307
277.588 83.07428431434603
287.109 82.96005159220587
297.363 83.48918073634054
307.617 83.89625402987991
318.604 84.1048869442064
329.59 84.36058458511798
341.309 84.06100298363764
353.76 84.00659370184532
366.211 83.69489125301509
378.662 84.40969319554387
392.578 84.14109029350128
405.762 84.21693758594465
420.41 84.78718797518206
435.059 84.06871526223216
450.439 84.4865712827271
466.553 84.5913058472873
482.666 84.45853451565259
500.244 84.34510058802303
517.822 84.83099513286015
536.133 85.63137623916948
554.443 85.09459114987175
574.219 86.10074601310993
594.727 86.20762746708091
615.234 86.49548391191125
637.207 85.19235245976199
659.912 84.2019181821761
683.35 85.11700913866423
706.787 84.98047041299485
731.689 85.24446965645011
758.057 84.6987341867807
784.424 83.80823819144929
812.256 84.27963536022965
840.82 84.51993156262493
870.85 84.68182569454184
901.611 84.716024134308
933.105 84.78631421730299
966.064 84.91927757977457
999.756 84.61791915693586
1034.91 84.26434200057287
1071.53 83.72345484232902
1109.62 83.08979345693835
1148.44 82.98111949462432
1189.45 82.22429391935704
1231.2 82.1692500885501
1274.41 81.75865259401887
1319.82 81.58018279138582
1365.97 81.21599996621826
1414.31 80.7475609151517
1464.11 80.5843962571817
1515.38 80.23262034737726
1568.85 80.33450023075942
1624.51 80.49531337155999
1681.64 80.729482343779
1740.97 81.24114621811472
1802.49 81.568666433935
1866.21 82.18037819693396
1932.13 82.2552740092233
2000.24 81.98009806895801
2070.56 82.72833036305896
2143.8 82.83795913956405
2219.24 83.37889505044917
2297.61 83.1781507080296
2378.17 82.09518794312875
2462.4 82.25614575573445
2548.83 82.35450938383154
2638.92 82.4035540296092
2731.93 82.60501561653997
2828.61 82.8618226834639
2928.22 83.14428796599539
3031.49 83.39020021017896
3138.43 83.21730835662487
3249.02 83.36820613284573
3363.28 83.76557340012201
3481.93 83.26000616698616
3604.98 83.45946766372606
3732.42 83.3713414356659
3863.53 82.95361682873174
3999.76 82.7275568641143
4141.11 83.19803808328125
4286.87 82.35708781179896
4438.48 82.73065668419459
4594.48 82.99327806493453
4757.08 82.95033409548154
4924.8 83.59676836644401
5098.39 83.44461693172465
5277.83 83.61328164247746
5463.87 83.37380679013161
5656.49 82.81134247932259
5856.45 81.90670646816015
6062.99 81.27422951020051
6276.86 80.45214213963646
6498.05 79.90313967827534
6727.29 79.4246203128984
6964.6 79.61827695289541
7209.96 80.83831139390975
7464.11 81.52469793060486
7727.78 81.87680313155708
8000.24 81.75036738913941
8282.23 81.3776276967185
8574.46 81.4526534126494
8876.22 81.63559359430039
9189.7 81.23185132428561
9513.43 80.42805799420648
9848.88 79.92211679841697
10196.8 79.46610624232125
10556.4 79.41705309881358
10928.5 79.31032280083286
11313.7 79.51153625079958
11712.9 79.10654527412848
12126.0 78.44858105435846
12553.7 78.0034729482337
12996.1 77.73420555865656
13454.6 76.88370300478788
13928.5 76.71656662952726
14419.9 76.57530905145174
14928.2 75.52595464751512
15454.8 75.04440626714782
15999.8 75.07288194843944
16564.5 75.27792236573082
17148.2 75.25313147329427
17753.2 74.79640160063397
18379.4 73.23683831624665
19027.6 70.42477526332476
19698.5 67.78190886710722
19999.5 67.2461616403417
