Freq "Ceiling Bounce"
22.4 3.0062524731060307
23.0 5.379766428815174
23.6 7.739368377826679
24.0 10.106252473106025
25.0 12.479766428815168
25.8 14.77976642881518
26.5 17.07976642881519
27.2 19.379766428815202
28.0 21.639368377826685
29.0 23.939368377826696
30.0 26.20625247310602
30.7 28.50625247310603
31.5 30.806252473106042
32.5 33.17976642881521
33.5 35.479766428815196
34.5 37.82072009478989
35.5 40.120720094789874
36.5 42.32072009478989
37.5 44.52072009478988
38.7 46.64695830087177
40.0 48.679766428815185
41.2 50.566101184357336
42.5 52.3874520585627
43.7 54.176875977933946
45.0 55.83087026058084
46.2 57.42408125537406
47.5 59.01879730777274
48.7 60.549621865133076
50.0 62.115811805337756
51.5 63.615811805337756
53.0 65.11431868004314
54.5 66.54737336851088
56.0 67.94737336851088
58.0 69.34737336851089
60.0 70.58093955414023
61.5 71.78093955414025
63.0 72.91502112242247
65.0 73.91502112242247
67.0 74.78093955414023
69.0 75.61502112242245
71.0 76.38093955414023
73.0 76.98093955414024
75.0 77.58093955414023
77.5 78.1127546355227
80.0 78.58093955414023
82.5 79.0127546355227
85.0 79.38093955414024
87.5 79.74737336851089
90.0 80.08093955414023
92.5 80.28093955414023
95.0 80.48093955414024
97.5 80.64962186513307
100.0 80.71581180533775
103.0 80.78474547692329
106.0 80.78474547692329
109.0 80.75417008419166
112.0 80.72039555196058
115.0 80.69007099185306
118.0 80.65657558062455
122.0 80.65657558062455
125.0 80.65657558062455
128.0 80.7265034707914
132.0 80.82650347079141
136.0 80.92650347079142
140.0 81.02650347079141
145.0 81.15657558062455
150.0 81.22650347079141
155.0 81.32650347079141
160.0 81.32650347079141
165.0 81.29691332949054
170.0 81.19691332949054
175.0 81.09691332949055
180.0 80.89691332949053
185.0 80.73413236420309
190.0 80.56780064812816
195.0 80.4052689398402
200.0 80.26780064812817
206.0 80.13413236420308
212.0 80.06780064812817
218.0 80.00526893984019
224.0 79.9341323642031
230.0 79.9341323642031
236.0 79.9341323642031
240.0 79.9341323642031
250.0 79.90097635676888
258.0 79.8718909903043
265.0 79.8718909903043
272.0 79.80526893984019
280.0 79.77687597793394
290.0 79.71513350031134
300.0 79.68745205856271
307.0 79.58745205856272
315.0 79.52650192536892
325.0 79.39952349055216
335.0 79.27299625114634
345.0 79.11308413743626
355.0 78.95372628172856
365.0 78.76956833675686
375.0 78.56956833675684
387.0 78.31156938606448
400.0 78.05413235303591
412.0 77.82969090212734
425.0 77.54928048423643
437.0 77.24928048423644
450.0 76.89345583745666
462.0 76.67032832103529
475.0 76.41530991758317
487.0 76.09282395205642
500.0 75.89282395205642
515.0 75.71675628954482
530.0 75.51675628954483
545.0 75.4633482953218
560.0 75.3849706170401
580.0 75.4633482953218
600.0 75.61675628954482
615.0 75.86086198924006
630.0 76.2153099175832
650.0 76.67305989875152
670.0 77.23668278556637
690.0 77.87976642881519
710.0 78.51513350031134
730.0 79.1341323642031
750.0 79.72039555196059
775.0 80.24962186513307
800.0 80.61502112242245
825.0 80.78394911722839
850.0 80.8533680976282
875.0 80.72923872207687
900.0 80.5456220769895
925.0 80.30289139871161
950.0 79.94695692998451
975.0 79.60392413946947
1000.0 79.2281337227549
1030.0 78.85555350468594
1060.0 78.51731588991248
1090.0 78.15576317847159
1120.0 77.88563365954462
1150.0 77.58179544607341
1180.0 77.4241007301545
1220.0 77.23820022265028
1250.0 77.16724742462836
1280.0 77.14841296385435
1320.0 77.24120364490524
1360.0 77.34863291996692
1400.0 77.54760763575766
1450.0 77.74464492686663
1500.0 77.93346009876478
1550.0 78.11098932536858
1600.0 78.17357056626258
1650.0 78.15603226184216
1700.0 77.99607300851062
1750.0 77.79236044502453
1800.0 77.56610432430811
1850.0 77.31731588991246
1900.0 77.04683353569592
1950.0 76.7131252326169
2000.0 76.35017205589986
2060.0 75.98681315386942
2120.0 75.50480172494765
2180.0 75.04526126732014
2240.0 74.53930438987373
2300.0 74.1678571710358
2360.0 73.74018254337113
2400.0 73.37518647104932
2500.0 73.11675686225482
2580.0 72.96938524895128
2650.0 72.89482992578242
2720.0 72.84895291958432
2800.0 72.86975503155547
2900.0 72.93879248679127
3000.0 73.05413235303591
3070.0 73.12188330207549
3150.0 73.16532994710343
3250.0 73.23003983611042
3350.0 73.17585595037889
3450.0 73.20656749896389
3550.0 73.12677132893164
3650.0 73.15841772584434
3750.0 73.14655586708514
3870.0 73.05603355156993
4000.0 73.02757608478268
4120.0 73.0002242312061
4250.0 72.97597803681825
4370.0 72.83513350106567
4500.0 72.72792891873117
4620.0 72.55284348188948
4750.0 72.31714279195563
4870.0 72.03296869777671
5000.0 71.69902823440015
5150.0 71.29902823440017
5300.0 70.79982006542448
5450.0 70.23530310630242
5600.0 69.69309080479754
5800.0 69.08659587389377
6000.0 68.51027781607755
6150.0 67.94113165793858
6300.0 67.4052174395762
6500.0 66.9141872978364
6700.0 66.46418050132732
6900.0 66.05305147931973
7100.0 65.70451900778136
7300.0 65.37802235728276
7500.0 65.11526704855852
7750.0 64.9262379762426
8000.0 64.76418050132733
8250.0 64.71418729783639
8500.0 64.7379431401086
8750.0 64.76268006719664
9000.0 64.78843267554336
9250.0 64.7969995925297
9500.0 64.81118720071883
9750.0 64.79867376157952
10000.0 64.71352315322805
10300.0 64.51352315322805
10600.0 64.35749134063684
10900.0 64.12904345586571
11200.0 63.935689201299624
11500.0 63.77103707852349
11800.0 63.696854460062866
12200.0 63.72636220190924
12500.0 63.93437608732897
12800.0 64.30410764078255
13200.0 64.74556650200134
13600.0 65.15906477092784
14000.0 65.50695169288318
14500.0 65.73508697752344
15000.0 65.60039988557504
15500.0 65.1726207501492
16000.0 64.27262075014922
16500.0 62.90673802494966
17000.0 61.07059853497441
17500.0 58.94416375575028
18000.0 56.461128733997924
18500.0 53.95258518381212
19000.0 51.37490417899801
19500.0 48.815267048558525
