Freq "Floor Bounce"
22.4 2.7072469991673245
23.0 5.076436178252095
23.6 7.434524153934774
24.0 9.807246999167347
25.0 12.176436178252061
25.8 14.507246999167364
26.5 16.776436178252084
27.2 19.10724699916736
28.0 21.33452415393478
29.0 23.63452415393479
30.0 25.934524153934746
30.7 28.234524153934785
31.5 30.507246999167336
32.5 32.87643617825208
33.5 35.14942181474029
34.5 37.492159159698076
35.5 39.79215915969809
36.5 41.992159159698076
37.5 44.192159159698065
38.7 46.34942181474028
40.0 48.37643617825208
41.2 50.29317164073086
42.5 52.14066256291329
43.7 53.96235742942079
45.0 55.648985148795504
46.2 57.30690501035457
47.5 58.96845083805432
48.7 60.50076749445563
50.0 62.10076749445561
51.5 63.668450838054326
53.0 65.2053180676647
54.5 66.7053180676647
56.0 68.1053180676647
58.0 69.5053180676647
60.0 70.80531806766471
61.5 71.97150800786937
63.0 73.10306957104252
65.0 74.10306957104252
67.0 75.00306957104252
69.0 75.83663575667187
71.0 76.60306957104252
73.0 77.20306957104253
75.0 77.80306957104251
77.5 78.37150800786937
80.0 78.83821129888743
82.5 79.27150800786939
85.0 79.67150800786939
87.5 80.03821129888743
90.0 80.33821129888743
92.5 80.57150800786937
95.0 80.77150800786939
97.5 80.97150800786937
100.0 81.07150800786938
103.0 81.17150800786938
106.0 81.17150800786938
109.0 81.2069050103546
112.0 81.2069050103546
115.0 81.2069050103546
118.0 81.17387961222818
122.0 81.17387961222818
125.0 81.2069050103546
128.0 81.30690501035458
132.0 81.40690501035459
136.0 81.50690501035459
140.0 81.64283030471972
145.0 81.77609175449221
150.0 81.87609175449222
155.0 81.9404416794549
160.0 81.9404416794549
165.0 81.9069050103546
170.0 81.80690501035458
175.0 81.70690501035459
180.0 81.54044167945491
185.0 81.37150800786938
190.0 81.2069050103546
195.0 81.10690501035458
200.0 80.9404416794549
206.0 80.87609175449222
212.0 80.77609175449223
218.0 80.77609175449223
224.0 80.71227178315618
230.0 80.71227178315618
236.0 80.71227178315618
240.0 80.71227178315618
250.0 80.71227178315618
258.0 80.71227178315618
265.0 80.71227178315618
272.0 80.64576719438469
280.0 80.64576719438469
290.0 80.61227178315617
300.0 80.61227178315617
307.0 80.58219967332305
315.0 80.58219967332305
325.0 80.51916705502754
335.0 80.48982856673473
345.0 80.46096514237183
355.0 80.39897445130926
365.0 80.37082970284297
375.0 80.28219812790056
387.0 80.19506458035829
400.0 80.06878033996792
412.0 79.9094224842602
425.0 79.70942248426019
437.0 79.52526453928849
450.0 79.30034112939828
462.0 79.14258273663015
475.0 78.94258273663014
487.0 78.76136837622765
500.0 78.6377673428554
515.0 78.5816120853342
530.0 78.5361070797735
545.0 78.5809849055068
560.0 78.60473949550547
580.0 78.65906263657509
600.0 78.77245249207645
615.0 78.88098490550678
630.0 79.0260245235669
650.0 79.20497668676808
670.0 79.36726558859611
690.0 79.56194867563767
710.0 79.77662798253905
730.0 79.98623512455238
750.0 80.17387961222818
775.0 80.36769521305294
800.0 80.50076749445563
825.0 80.60231994589776
850.0 80.70231994589774
875.0 80.73513059177982
900.0 80.73513059177982
925.0 80.7669218511605
950.0 80.73358982687998
975.0 80.76845083805432
1000.0 80.73964531976002
1030.0 80.7441577493485
1060.0 80.7493576647827
1090.0 80.72761355743555
1120.0 80.73563946709274
1150.0 80.75518710397395
1180.0 80.76668408046666
1220.0 80.71832613468223
1250.0 80.69393259456332
1280.0 80.61406839527002
1320.0 80.59693704381888
1360.0 80.52545123408709
1400.0 80.4361070797735
1450.0 80.34852015458804
1500.0 80.26268190818897
1550.0 80.15412591517942
1600.0 80.12364704950977
1650.0 80.05477168396808
1700.0 79.989595285612
1750.0 79.92812233674837
1800.0 79.82934077441656
1850.0 79.77662798253905
1900.0 79.66096514237182
1950.0 79.55768127821953
2000.0 79.42926676879422
2060.0 79.27383110211923
2120.0 79.06839968904116
2180.0 78.87346990883565
2240.0 78.6295216542878
2300.0 78.45334575272604
2360.0 78.23174271310296
2400.0 78.08835946822155
2500.0 77.90677539847123
2580.0 77.71101842217598
2650.0 77.58681963215335
2720.0 77.44132986207624
2800.0 77.2820681977361
2900.0 77.11326997082844
3000.0 77.01721049921987
3070.0 76.92332853367799
3150.0 76.80450671220272
3250.0 76.76097559154805
3350.0 76.64787232956238
3450.0 76.6105569656426
3550.0 76.53088119339841
3650.0 76.52715668025165
3750.0 76.5023727738261
3870.0 76.45450510839086
4000.0 76.40721172860908
4120.0 76.3791204846379
4250.0 76.30721172860908
4370.0 76.25872217728471
4500.0 76.21190408638131
4620.0 76.14472243308101
4750.0 76.05147543072806
4870.0 76.02239157432462
5000.0 75.9370245814502
5150.0 75.92057765478033
5300.0 75.82680426515608
5450.0 75.77979693268614
5600.0 75.6968278604702
5800.0 75.60586825843147
6000.0 75.53143825467693
6150.0 75.36049414662607
6300.0 75.23094714327505
6500.0 75.07441527740414
6700.0 74.85673906955853
6900.0 74.6112588086792
7100.0 74.33979099609552
7300.0 74.16673303082008
7500.0 73.95876018037256
7750.0 73.8231458270068
8000.0 73.81944560259757
8250.0 73.82755046916485
8500.0 73.8468073680351
8750.0 73.94011850025052
9000.0 74.03984210571483
9250.0 74.13904225782203
9500.0 74.10085214006432
9750.0 74.04618433305417
10000.0 73.81828671879964
10300.0 73.43245801864259
10600.0 72.9049364111578
10900.0 72.44721444595967
11200.0 71.92762111135458
11500.0 71.52223272343534
11800.0 71.29183853280188
12200.0 71.27375694892177
12500.0 71.52673277112045
12800.0 71.98126600255527
13200.0 72.74901290724301
13600.0 73.54133545707509
14000.0 74.30393928472864
14500.0 74.87787805979315
15000.0 75.1224527665923
15500.0 74.99985995828192
16000.0 74.21594999637279
16500.0 72.88558171302572
17000.0 70.98558171302572
17500.0 68.69264451419306
18000.0 66.02312685592393
18500.0 63.21476097345948
19000.0 60.28487039281674
19500.0 57.49297992422922
