Freq "Floor Bounce"
22.4 2.8515507966357063
23.0 5.22073997572042
23.6 7.578827951403099
24.0 9.951550796635729
25.0 12.320739975720443
25.8 14.651550796635718
26.5 16.92073997572041
27.2 19.251550796635712
28.0 21.47882795140316
29.0 23.778827951403144
30.0 26.078827951403127
30.7 28.37882795140314
31.5 30.651550796635718
32.5 33.02073997572043
33.5 35.29372561220865
34.5 37.63646295716646
35.5 39.93646295716644
36.5 42.13646295716646
37.5 44.33646295716645
38.7 46.493725612208635
40.0 48.52073997572043
41.2 50.43747543819924
42.5 52.284966360381645
43.7 54.106661226889145
45.0 55.793288946263885
46.2 57.45120880782298
47.5 59.112754635522705
48.7 60.645071291924
50.0 62.24507129192398
51.5 63.812754635522694
53.0 65.34962186513309
54.5 66.84962186513309
56.0 68.24962186513307
58.0 69.64962186513307
60.0 70.94962186513307
61.5 72.11581180533776
63.0 73.24737336851088
65.0 74.24737336851088
67.0 75.1473733685109
69.0 75.98093955414024
71.0 76.74737336851089
73.0 77.34737336851089
75.0 77.94737336851088
77.5 78.51581180533773
80.0 78.9825150963558
82.5 79.41581180533774
85.0 79.81581180533774
87.5 80.18251509635579
90.0 80.48251509635578
92.5 80.71581180533775
95.0 80.91581180533774
97.5 81.11581180533776
100.0 81.21581180533774
103.0 81.31581180533774
106.0 81.31581180533774
109.0 81.35120880782296
112.0 81.35120880782296
115.0 81.35120880782296
118.0 81.31818340969656
122.0 81.31818340969656
125.0 81.35120880782296
128.0 81.45120880782295
132.0 81.55120880782297
136.0 81.65120880782295
140.0 81.7871341021881
145.0 81.9203955519606
150.0 82.02039555196058
155.0 82.08474547692327
160.0 82.08474547692327
165.0 82.05120880782296
170.0 81.95120880782297
175.0 81.85120880782296
180.0 81.68474547692327
185.0 81.51581180533775
190.0 81.35120880782296
195.0 81.25120880782296
200.0 81.08474547692327
206.0 81.02039555196058
212.0 80.92039555196058
218.0 80.92039555196058
224.0 80.85657558062456
230.0 80.85657558062456
236.0 80.85657558062456
240.0 80.85657558062456
250.0 80.85657558062456
258.0 80.85657558062456
265.0 80.85657558062456
272.0 80.79007099185306
280.0 80.79007099185306
290.0 80.75657558062454
300.0 80.75657558062454
307.0 80.7265034707914
315.0 80.7265034707914
325.0 80.6634708524959
335.0 80.6341323642031
345.0 80.60526893984019
355.0 80.54327824877761
365.0 80.51513350031135
375.0 80.42650192536891
387.0 80.33936837782667
400.0 80.21308413743627
412.0 80.05372628172856
425.0 79.85372628172856
437.0 79.66956833675684
450.0 79.44464492686664
462.0 79.28688653409851
475.0 79.08688653409853
487.0 78.905672173696
500.0 78.78207114032377
515.0 78.72591588280258
530.0 78.68041087724187
545.0 78.72528870297516
560.0 78.74904329297385
580.0 78.80336643404347
600.0 78.91675628954481
615.0 79.02528870297516
630.0 79.17032832103529
650.0 79.34928048423643
670.0 79.51156938606448
690.0 79.70625247310602
710.0 79.92093178000741
730.0 80.13053892202075
750.0 80.31818340969653
775.0 80.51199901052131
800.0 80.64507129192398
825.0 80.74662374336611
850.0 80.84662374336611
875.0 80.87943438924819
900.0 80.87943438924819
925.0 80.91122564862886
950.0 80.87789362434835
975.0 80.9127546355227
1000.0 80.88394911722838
1030.0 80.88846154681688
1060.0 80.89366146225109
1090.0 80.87191735490393
1120.0 80.87994326456113
1150.0 80.8994909014423
1180.0 80.91098787793501
1220.0 80.8626299321506
1250.0 80.83823639203169
1280.0 80.75837219273838
1320.0 80.74124084128725
1360.0 80.66975503155547
1400.0 80.58041087724186
1450.0 80.49282395205643
1500.0 80.40698570565735
1550.0 80.29842971264779
1600.0 80.26795084697812
1650.0 80.19907548143644
1700.0 80.13389908308035
1750.0 80.07242613421674
1800.0 79.97364457188493
1850.0 79.92093178000741
1900.0 79.80526893984019
1950.0 79.7019850756879
2000.0 79.57357056626257
2060.0 79.4181348995876
2120.0 79.21270348650951
2180.0 79.01777370630401
2240.0 78.77382545175618
2300.0 78.5976495501944
2360.0 78.37604651057134
2400.0 78.23266326568992
2500.0 78.05107919593958
2580.0 77.85532221964436
2650.0 77.7311234296217
2720.0 77.58563365954461
2800.0 77.42637199520446
2900.0 77.25757376829682
3000.0 77.16151429668825
3070.0 77.06763233114634
3150.0 76.9488105096711
3250.0 76.9052793890164
3350.0 76.79217612703073
3450.0 76.75486076311097
3550.0 76.6751849908668
3650.0 76.67146047772002
3750.0 76.64667657129448
3870.0 76.59880890585924
4000.0 76.55151552607745
4120.0 76.52342428210628
4250.0 76.45151552607744
4370.0 76.40302597475309
4500.0 76.35620788384969
4620.0 76.2890262305494
4750.0 76.19577922819644
4870.0 76.16669537179297
5000.0 76.08132837891858
5150.0 76.0648814522487
5300.0 75.97110806262444
5450.0 75.9241007301545
5600.0 75.84113165793858
5800.0 75.75017205589985
6000.0 75.6757420521453
6150.0 75.50479794409442
6300.0 75.3752509407434
6500.0 75.21871907487251
6700.0 75.00104286702688
6900.0 74.75556260614755
7100.0 74.48409479356387
7300.0 74.31103682828847
7500.0 74.10306397784095
7750.0 73.96744962447517
8000.0 73.96374940006595
8250.0 73.9718542666332
8500.0 73.99111116550347
8750.0 74.08442229771887
9000.0 74.18414590318321
9250.0 74.2833460552904
9500.0 74.24515593753269
9750.0 74.19048813052255
10000.0 73.96259051626801
10300.0 73.57676181611097
10600.0 73.04924020862617
10900.0 72.59151824342803
11200.0 72.07192490882295
11500.0 71.66653652090369
11800.0 71.43614233027024
12200.0 71.41806074639013
12500.0 71.67103656858883
12800.0 72.12556980002364
13200.0 72.89331670471137
13600.0 73.68563925454345
14000.0 74.44824308219701
14500.0 75.0221818572615
15000.0 75.26675656406069
15500.0 75.1441637557503
16000.0 74.36025379384117
16500.0 73.0298855104941
17000.0 71.1298855104941
17500.0 68.83694831166144
18000.0 66.1674306533923
18500.0 63.359064770927844
19000.0 60.42917419028511
19500.0 57.63728372169763
