Freq,Floor Bounce,Ceiling Bounce,Front Wall Bounce,Side Wall Bounce,Rear Wall Bounce,Total Early Reflection
22.4,12.178900325072206,7.905961269785635,5.470906076694504,7.024741376675351,5.350878054012682,8.411488542761745
23.0,13.940421025791537,9.938087783530094,7.264277539291484,9.102965892750134,7.63089498437914,10.32544150425214
23.6,15.774373256474277,12.032772037597297,9.762559634380793,11.714674663501015,10.290282072932868,12.492696995800927
24.0,17.85656606505593,15.012176843419482,11.874637405184146,13.04933134610836,12.311579578996131,14.63486244020136
25.0,19.38906225374994,17.950703941920736,13.74265645253233,14.032958812646868,14.1051945493859,16.512382424983272
25.8,20.21188375155485,20.599576133400305,15.74948365276903,15.27366471905772,16.232008471303445,18.235499775524502
26.5,20.049222564189947,23.115044943295047,18.571063059585285,18.501103017650152,19.676059747049706,20.347163728271155
27.2,21.338991495290017,24.653610478107495,22.683887868341586,23.1636641965044,23.63885539291492,23.230258306645524
28.0,23.14423266861597,25.646996584950543,26.735489331149225,27.396647300859783,27.127831352727398,26.253414040045456
29.0,24.76880471390497,26.386496921228357,31.531671939890614,32.37463588115493,31.28005430692029,30.193933009042652
30.0,27.779648654361395,27.932184548044987,36.18997371752373,36.781890296839364,35.80393054525577,34.45657912916518
30.7,33.247960456586085,31.842826413406172,36.09016976860663,36.09404053762945,36.55484693523722,35.1315021517748
31.5,37.74002436004598,35.51340764950915,36.62622521318973,36.471925127674794,37.73323330887298,36.89705655800695
32.5,41.46581439267992,38.81978146152987,37.591151856822634,37.395153790201604,39.09506820192358,39.13666354883135
33.5,43.039553154003684,40.65569855386694,40.140137682687154,40.009260241943295,40.73322350617751,41.06893587631491
34.5,43.48094329652592,41.66404375323607,42.53120368027213,42.94786588724297,42.323089548889826,42.63194910763973
35.5,43.65063982419342,42.625252856707405,44.65266376467231,45.40504091295897,43.40617745434879,44.058426010137154
36.5,47.583574333660536,45.70397444935561,47.1332017289033,45.89233631955655,44.307493469711105,46.27349014470168
37.5,50.773838994258696,48.487515019940574,49.80291614427104,47.23592716445832,46.16899883518293,48.807750508904164
38.7,53.26416613785831,50.99094750745856,52.30289982965256,49.45416270938112,48.51421418563389,51.25040998202594
40.0,55.03760322619475,53.63861121575799,54.61144025862474,53.16693304656239,51.90163479541273,53.807750867941095
41.2,56.54144416194525,56.00515969881384,56.60904952498235,56.3608011578895,54.91070172675025,56.12778413564082
42.5,58.552988261595914,58.17417657627266,58.701202754074316,58.58831629846851,56.87557962260466,58.227498875178014
43.7,60.64144416194527,60.05523521205966,60.83117586425867,60.24215771678931,58.2449031134541,60.09263114999324
45.0,63.14884498052811,62.48311581551471,63.036610981048625,62.242657022628606,60.30897862484163,62.35430898317951
46.2,66.93142815195154,66.45298669253698,65.61351875274526,64.95957906516499,63.9135530828151,65.7029924112698
47.5,70.01053996287874,69.65515702791046,68.03904222169449,67.62418662679286,67.12656861926966,68.64204196993484
48.7,70.01713306130205,69.23314454496675,71.29736159623052,71.42143726907045,71.55264078678874,70.79702830678903
50.0,70.66032295789226,69.4589033709578,74.94281583431373,75.391270619345,76.67673737441184,74.2425268118196
51.5,72.56482986565898,71.78189970266983,74.90192840731288,74.623467786065,72.9313229647225,73.5286043949013
53.0,74.58908686814033,74.12322950242744,75.93037620525912,74.92699196527575,72.41993618133675,74.5435973581193
54.5,76.52653742749423,75.70672374333428,76.88325198151801,75.56702419623932,73.0625485398108,75.73377200836656
56.0,77.77001909877626,76.90821686862888,77.91684672263368,76.55963162786061,74.08810283929589,76.84361919654094
58.0,78.21890853408254,77.60515969881384,78.73786416116816,77.3235759106948,75.0168351974564,77.5509897683834
60.0,78.7465751474828,78.1420269284242,79.29435679830677,77.82552296835837,75.69724545226605,78.10054904361186
61.5,79.20821686862888,78.42294398531187,79.51140042546338,78.0441282147588,76.09318621469974,78.40930084075723
63.0,79.47334461743135,78.69051860435397,79.7681254168541,78.2944081878808,76.54230249435015,78.69204618129767
65.0,79.74202692842421,79.04678685856244,80.05926180537975,78.53920174279521,77.04875951642943,79.0093610573056
67.0,79.90821686862887,79.27807036499537,80.1679680757563,78.76779592501664,77.50859678495205,79.22393420570373
69.0,80.14361387111411,79.51058847298768,80.30454835553641,79.02060273573461,78.01749067491845,79.4756103030892
71.0,80.34898064391568,79.7082168686289,80.4447606318233,79.31082118960752,78.58165657128004,79.73236483410157
73.0,80.48247605514419,79.90515969881382,80.72589346080383,79.6759521868931,79.29171190930967,80.04788851926561
75.0,80.54202692842422,80.17106026944454,80.89743189834536,80.00311978661178,79.86954949038059,80.31309270917082
77.5,80.73902880665726,80.43977843180203,80.99940079475046,80.28231731240594,80.26743887927216,80.55493290266232
80.0,81.13747635521511,80.83977843180202,81.22553294044367,80.70166698793072,80.81213930272823,80.94802878999086
82.5,81.20363071192001,81.00515969881381,81.28180979548777,80.8950941358215,81.14575815717373,81.10850900568829
85.0,81.20515969881383,80.97106026944452,81.19578663177937,80.82499631122384,81.1375838658318,81.06939617444618
87.5,81.10515969881384,80.87106026944454,81.09676022688775,80.61443092594686,80.99521498793588,80.94029416880564
90.0,81.00363071192001,80.73902880665726,81.03965400267704,80.49469656217533,80.98367158108103,80.8570468976316
92.5,80.97106026944452,80.60672374333427,80.96682311601377,80.43299547091073,81.04765973446895,80.81167148704158
95.0,80.7389934747197,80.40515969881383,80.9271149520797,80.42599026506784,80.96053136661803,80.69804608579872
97.5,80.80363071192001,80.54202692842422,80.8844145042489,80.35947546154206,80.66945725476349,80.6558111855161
100.0,80.6389934747197,80.30515969881384,80.778948409975,80.11089652082084,80.13967039548122,80.40309501407698
103.0,80.40363071192,80.04361387111409,80.4619503331999,79.8875219289534,79.43600162973341,80.06240619063463
106.0,80.13747635521511,79.80821686862889,80.2263034393269,79.59973342362024,78.84439265494885,79.7504363212389
109.0,79.83977843180203,79.47183945253933,80.00551012691808,79.30145055122361,78.28670372913207,79.42105186828239
112.0,79.77334461743136,79.27715054021441,79.75110649555337,78.96872318744477,77.70450570230487,79.15738000951484
115.0,79.47183945253933,79.0128006152517,79.55110649555337,78.65663357157595,77.16656890879356,78.85213288368293
118.0,79.13977843180201,78.71120237106389,79.42239432598171,78.47549024138095,76.88594444604087,78.61075239239672
122.0,78.97183945253934,78.51280061525172,79.1477082016349,78.21741024774062,76.58061711273741,78.37517578835538
125.0,78.87334461743137,78.3771505402144,78.91193029911321,77.96090558548285,76.40749633919783,78.19629925238323
128.0,78.67334461743137,78.2082168686289,78.77325162475495,77.86758153797904,76.49719892133726,78.07676232018942
132.0,78.6112023710639,78.07183945253934,78.73998272249408,77.73343019379816,76.60584063602825,78.01685175537722
136.0,78.5771505402144,77.9436138711141,78.81357716565124,77.59291064821164,76.65640088415215,77.98232030595557
140.0,78.71058847298768,78.07953916547925,78.85824278327887,77.39729544370904,76.4548620682179,77.98764207710164
145.0,78.9436138711141,78.21890853408254,79.07428417494101,77.46964734276168,76.21259254023747,78.10527489815088
150.0,79.27492015964694,78.42859031480505,79.50574371083313,77.72224932312804,76.19504932707272,78.38008695431063
155.0,79.41280061525171,78.55587591578704,79.86667602549475,77.81007640647735,76.03112438340499,78.53131521143546
160.0,80.07492015964694,79.26073373101973,80.34561480725942,78.20032609087045,76.14310952111902,79.04812687868719
165.0,80.54202692842422,79.75587591578706,80.76940230014348,78.59297971053863,76.38243409177771,79.474446543489
170.0,81.10821686862887,80.32653742749423,81.30833347476964,79.07339587289876,76.92156442943015,80.01769457224384
175.0,81.71280061525172,80.82653742749423,82.03109692387883,79.75856075946244,77.64318136302809,80.65692001260678
180.0,82.14898064391568,81.25587591578703,82.53444685684052,80.30128992943828,78.336619321031,81.15385301008806
185.0,82.55263578302656,81.55587591578703,82.83118484342258,80.51645382496305,78.90162315853074,81.49391473067658
190.0,82.64898064391568,81.66429605359544,82.94516106569641,80.48171122595174,79.18886528937823,81.59837907274668
195.0,82.61890853408254,81.56928104122507,82.88074423679173,80.33230605929978,79.27743563432968,81.54141346013397
200.0,82.41890853408255,81.39767400313133,82.58470781498495,79.85857402660376,78.88697376235939,81.25820474325849
206.0,82.01280061525172,81.03568331206874,82.19676586644766,79.23605212427931,78.13578294159953,80.79682422965475
212.0,81.5128006152517,80.53568331206876,81.69133624499379,78.53800043879679,77.01074255679038,80.20422528287826
218.0,80.84898064391568,79.77423663375978,81.16789277064679,77.97174058343798,75.54514383370957,79.50284747837023
224.0,80.18931839278167,78.91890698866005,80.6472920901156,77.46326631999106,74.23594632939405,78.81696443673866
230.0,79.68931839278169,78.41890698866005,80.12449030152632,76.99086464031467,73.2777763435891,78.28367259139615
236.0,79.21890853408253,78.16928104122509,79.70637219148458,76.91067010142055,72.34110780424696,77.9077442371186
240.0,78.81890853408255,77.79767400313132,79.37085041440994,77.1090877528095,72.24778957225861,77.65071072554788
250.0,78.51890853408256,77.46429605359543,79.11776987385166,77.83336560444842,73.1146585454305,77.62979382881795
258.0,78.35263578302657,77.26928104122507,78.74122403799213,77.34652005029484,73.20030982479247,77.35233680290641
265.0,78.21280061525171,77.23568331206876,78.62578745348324,77.87306581739708,74.1800954431522,77.47433265730258
272.0,78.24202692842421,77.36429605359542,78.62097652867602,78.09930828073514,74.50995394351017,77.58630261037639
280.0,78.5771505402144,77.72653742749422,78.85019109990522,78.04644673341689,74.27310777735636,77.76078494534671
290.0,78.71280061525171,77.88931839278169,79.1667007392695,78.41976152074793,74.69387465793922,78.02593207186167
300.0,78.7465751474828,77.88931839278169,79.45476475135341,78.93020802890761,75.28841978543282,78.28144949344372
307.0,78.5824760551442,77.65587591578704,79.17009735175662,77.96038600623841,74.18901213349277,77.80757425504119
315.0,78.15263578302657,77.12653742749423,78.61745689805205,76.64535946335604,72.9710274532504,77.08756042216665
325.0,77.61890853408254,76.56429605359543,78.06536440954712,75.50610481463644,72.30913333247322,76.42922611639834
335.0,76.99767400313134,75.73142815195155,77.59020175449557,74.82738116091738,72.02958473353078,75.82693539965432
345.0,76.37423663375978,74.91333684329855,77.29310306487837,74.59476361545684,71.8065343168655,75.3649108779356
355.0,76.19865753639716,74.33936336416289,77.25655340177785,74.64532977549963,71.6233844883567,75.20295967593798
365.0,76.5317734411178,74.42209596541849,77.67507674019228,75.0781435113996,71.32417296379488,75.48974752274106
375.0,77.45850624764846,75.36546496204265,78.59278174246704,76.04508438849065,71.46472556614181,76.36806760638036
387.0,78.51890698866006,76.54653741632707,79.72364031632024,77.57564069275078,72.55046216190398,77.56332708688142
400.0,79.11890698866007,77.28733014086315,80.50874899821935,78.4246901295946,73.35878104341477,78.31051611647817
412.0,79.11890698866007,77.26197340004798,80.78224863579308,78.65769419234134,73.70060116951085,78.4691413457385
425.0,78.89192855384329,76.78966422863729,80.58758374124338,78.41300121902145,73.13458739552159,78.19133852377801
437.0,78.89192855384329,76.74168554752758,80.31065698893751,78.03172938382838,72.08385618075667,77.94957250347186
450.0,79.11890698866007,77.15503430260922,80.4093572918911,77.96437223959056,71.46925326558986,78.0627245828213
462.0,79.51890698866005,77.57929159738964,80.78450547516444,78.27951938834865,71.7440962796076,78.43624806532988
475.0,79.71890698866005,77.82908784885753,81.18934563017918,78.6969895082062,72.59511276183511,78.78696814969805
487.0,79.63177344111779,77.57140659436848,81.53456629973178,78.70125375633187,73.07842510655504,78.8749158172978
500.0,79.59536913676784,77.10940031398546,81.76717036601943,78.41337890917525,72.66962531520866,78.81504587932247
515.0,79.85503430260924,76.95575335861292,81.99114821791933,78.17637993582579,71.99509970977444,78.87658361262652
530.0,80.21255493603097,77.2211564843896,82.16731684888286,77.95315229665391,71.19564204527116,79.00973729574783
545.0,80.42053220243545,77.67308974115095,82.23029132080043,77.8773778174948,70.7291241964621,79.12727301882312
560.0,80.37964865436142,77.82014347105502,82.23352886986865,77.81182458307036,70.36308711370395,79.11911950305131
580.0,79.97929159738965,77.16661843461092,81.8934192902132,77.53028764257799,69.66179957277446,78.71723345601644
600.0,79.7311975500824,76.56979823753028,81.46833294460266,77.12357770241951,68.24976431772137,78.29774789241299
615.0,79.91255493603097,76.93398198042695,81.13442151255632,76.11357641218127,66.79383750655332,78.10050168340102
630.0,79.93704999015777,77.22014347105501,80.86782004733048,75.09699834991147,66.14053325905421,77.92186216395793
650.0,79.76197340004798,77.26273338432641,80.57116349622292,74.43761395041895,65.81057856486217,77.68726298114338
670.0,79.90397444935562,77.40940031398546,80.57746667271425,74.30576408833667,66.07024778380058,77.75398717450885
690.0,79.93119755008242,77.20940031398547,80.74618713827797,74.49196893412942,66.50894577964765,77.81577948447718
710.0,79.34144835626498,75.87181436805925,80.60618395301661,74.58362544770627,66.202407355447,77.36340077527018
730.0,78.84592026796354,74.80342959762011,80.34524637036075,74.46000746520885,65.58564166458196,76.93209476811067
750.0,78.22559749614602,74.00376803807718,79.73230809979114,73.87000044597038,64.86002500712176,76.29537944076517
775.0,77.60564502380338,73.20881911875286,78.9266267132753,72.69174727378295,63.99811415082284,75.50846151490036
800.0,77.55335476406411,73.12466384850252,78.85916779195371,71.89583036080529,64.2153262391708,75.37753857006958
825.0,78.0211564843896,73.79845154668197,79.47902805168492,72.37129039707897,64.70786903629424,75.93949074974167
850.0,78.65335476406413,74.43360870819639,79.80238812144482,73.44329936374133,65.42307368866702,76.47832276213437
875.0,78.87867908633433,74.88223219244476,79.33235719246728,74.21029121911594,66.0078198497211,76.51520270823822
900.0,78.32890933227523,74.55169268087421,78.48456602273406,74.49768489521608,65.10742498307344,75.98866761095867
925.0,78.15850938759922,73.67420050936455,79.0684751462396,74.32289365409649,63.0092381375721,75.9878367019349
950.0,78.24522206826883,73.11382045185105,79.55547161390109,73.52874687862818,62.46510843074246,76.05981440548653
975.0,77.29531847247979,70.98960276646558,79.4379251931458,72.1888200819722,63.17006146421956,75.38304436663245
1000.0,76.56460893429077,71.00995866364977,79.24588068589044,71.56364759318856,62.64517432803535,75.00204596138502
1030.0,77.52936641566946,72.46309349982225,79.11470288914734,72.5369788582263,61.73609037170203,75.44645867161735
1060.0,78.55426599664617,72.70471993159867,79.75406940749158,73.2737462427187,62.26809215348368,76.18585681533575
1090.0,78.79262929449725,71.92982011754246,80.08533941974002,73.49905463992876,62.43723623173656,76.38376529642035
1120.0,78.20219327823258,68.4551051877548,80.06054254523438,73.65412491426669,62.87266425726635,76.01292250562311
1150.0,78.0034418915796,67.80297732272514,80.10780213114111,73.8362004799399,64.057508908899,75.98622610793483
1180.0,77.30829875512548,67.04503120166672,80.11419180508325,73.57459850766172,63.157512103218195,75.71425285069425
1220.0,76.28587250153824,64.66127490206573,79.9275813587635,73.2378479342273,62.793668248298445,75.23146017630637
1250.0,74.6892604644168,63.49632920276059,79.24716596604917,72.81043453326286,62.555203409173245,74.3667817970409
1280.0,74.21809314292885,64.4459181130289,78.85469314843748,72.91111422722295,62.3456355233605,74.05789144274947
1320.0,73.74753596958449,67.00672374333428,78.88611226989089,73.28834441768153,63.19291493547533,74.13316586469294
1360.0,72.94154466474461,66.13802714028063,78.55597391373065,72.72886548582714,62.55408491679982,73.6569019228629
1400.0,71.73098242306072,64.55263578302656,78.16849433667394,72.24144493894148,62.06033304820471,73.0836623102193
1450.0,70.85499557955914,63.618262352965715,77.84780093601205,72.06449711958561,61.723370100804246,72.693838618051
1500.0,71.16449631163633,64.53936199327565,77.54573294020778,71.78307079854962,60.88233790160771,72.50667402835477
1550.0,70.27964635429565,64.87450707737173,76.83049311053315,71.07519856401017,61.28077262780552,71.82355833583087
1600.0,69.64419633285034,63.848446923602765,76.34620511342135,70.5891522049504,61.19347165196071,71.30478664350419
1650.0,68.15826447154531,61.648293594499535,76.63678898594483,71.3107052524797,61.29649780747319,71.39714198589762
1700.0,67.6984572449184,63.33266369343974,77.02922189172298,71.83596730682012,59.98021430616906,71.74667184129906
1750.0,68.49990752728644,65.26635381431514,77.37032415339277,71.81021857419259,59.042258715916134,72.0948724463339
1800.0,69.81553924118244,65.89720678823879,78.39490822569658,72.6487882862483,59.38741435638046,73.08970424240314
1850.0,69.46824685205064,62.44025653438962,79.23953669256747,73.04714188766,59.82796133226414,73.64251323238628
1900.0,69.4786270085505,61.08798671360931,79.7702570033194,73.6220977708723,60.59935062714045,74.12206533651919
1950.0,68.08075700949355,61.35730068781881,79.79476823356427,72.85168606122775,60.39607186673848,73.9289869009019
2000.0,66.58413054742518,64.54657514748278,78.73091041981108,70.94010332078042,58.29648665006222,72.7946553901241
2060.0,67.17308974115095,66.1292789748956,77.97195593094416,69.74997187184086,55.81112849940264,72.1393375025572
2120.0,67.396270695246,64.55442288337176,77.82775648099842,69.4386204151462,55.56455739174099,71.93872683619934
2180.0,66.65982920475331,61.41351860042728,77.37912244739299,68.70605565477972,55.931482574671705,71.3687803052262
2240.0,65.82766485242392,60.728126955401365,77.58085441061114,69.35070766827378,57.114298014239736,71.5488320816828
2300.0,65.15276469475562,61.027664852423925,77.64630586704011,70.59659449824173,58.27330446060955,71.75208844832568
2360.0,65.44158977997319,61.98704867359369,77.50062681468121,71.34731353921349,59.04145183492979,71.80484264804363
2400.0,65.84592211444895,61.86109784354832,77.85523049915649,72.65806025755215,61.09816187186023,72.36205003336305
2500.0,67.19054028775876,60.4526129515032,78.39221292648169,72.90680112040377,61.868186126777104,72.85432067768518
2580.0,67.80930778457368,58.20238826685987,78.79315362480062,73.13592871519181,61.182470255664626,73.19471607461766
2650.0,66.30435465161119,58.89865615260037,79.22361356501143,73.82579124370031,60.55260139065075,73.57717040642753
2720.0,65.6810541429981,62.346331371521586,79.84773304544093,75.49022178911181,60.86349621104655,74.42767610246544
2800.0,60.37556364350014,55.55819971463099,80.27664976779535,74.90400755403286,59.524115743336154,74.4670795716373
2900.0,61.50068931908906,57.404659590470075,79.47619544696802,73.03531604576796,56.03175396211465,73.46811967449953
3000.0,62.57248114652829,54.33869266570612,78.96760570148926,72.00322740766306,53.608331710708725,72.87857885728882
3070.0,59.66096180175761,53.36502894645649,78.5505382423798,70.7842441711379,53.18453060113201,72.30205825375342
3150.0,61.28136839691847,55.58696464544529,78.76937707772592,70.24203292601071,54.454723246131536,72.44929769679757
3250.0,63.01624529855509,56.06036409943219,80.02020176003388,70.75874112361609,55.965357148204376,73.62394163213675
3350.0,64.81627094335245,54.889361323961865,81.3550620296654,72.24931783139259,58.44367593012707,74.98148515490449
