Freq,Floor Bounce,Ceiling Bounce,Front Wall Bounce,Side Wall Bounce,Rear Wall Bounce,Total Early Reflection
22.4,12.142191464312702,7.8692524090261315,5.434197215935001,6.988032515915847,5.3141691932531785,8.374779682002242
23.0,13.903712165032033,9.90137892277059,7.227568678531981,9.06625703199063,7.594186123619636,10.288732643492636
23.6,15.737664395714773,11.996063176837794,9.72585077362129,11.677965802741511,10.253573212173364,12.455988135041423
24.0,17.819857204296426,14.975467982659978,11.837928544424642,13.012622485348857,12.274870718236627,14.598153579441856
25.0,19.352353392990437,17.913995081161232,13.705947591772826,13.996249951887364,14.068485688626396,16.47567356422377
25.8,20.175174890795347,20.5628672726408,15.712774792009526,15.236955858298217,16.19529961054394,18.198790914765
26.5,20.012513703430443,23.078336082535543,18.53435419882578,18.46439415689065,19.639350886290202,20.310454867511652
27.2,21.302282634530513,24.61690161734799,22.647179007582082,23.126955335744896,23.602146532155416,23.19354944588602
28.0,23.107523807856467,25.61028772419104,26.69878047038972,27.35993844010028,27.091122491967894,26.216705179285952
29.0,24.732095853145466,26.349788060468853,31.49496307913111,32.337927020395426,31.243345446160788,30.15722414828315
30.0,27.74293979360189,27.895475687285483,36.153264856764224,36.74518143607986,35.76722168449626,34.419870268405674
30.7,33.21125159582658,31.80611755264667,36.053460907847125,36.05733167686995,36.51813807447772,35.09479329101529
31.5,37.703315499286475,35.476698788749644,36.58951635243022,36.43521626691529,37.69652444811348,36.86034769724745
32.5,41.42910553192041,38.78307260077037,37.55444299606313,37.3584449294421,39.05835934116408,39.09995468807185
33.5,43.00284429324418,40.61898969310744,40.10342882192765,39.97255138118379,40.696514645418006,41.03222701555541
34.5,43.44423443576642,41.62733489247657,42.494494819512624,42.911157026483465,42.28638068813032,42.59524024688022
35.5,43.613930963433916,42.5885439959479,44.61595490391281,45.36833205219946,43.36946859358929,44.02171714937765
36.5,47.54686547290103,45.66726558859611,47.0964928681438,45.855627458797045,44.2707846089516,46.23678128394218
37.5,50.73713013349919,48.45080615918107,49.766207283511534,47.199218303698814,46.13228997442343,48.77104164814466
38.7,53.22745727709881,50.954238646699054,52.266190968893056,49.41745384862162,48.477505324874386,51.21370112126644
40.0,55.000894365435244,53.60190235499849,54.574731397865236,53.13022418580289,51.86492593465323,53.77104200718159
41.2,56.50473530118575,55.96845083805434,56.57234066422285,56.324092297129994,54.87399286599074,56.09107527488132
42.5,58.51627940083641,58.137467715513154,58.66449389331481,58.55160743770901,56.83887076184516,58.19079001441851
43.7,60.60473530118577,60.01852635130015,60.794467003499165,60.205448856029804,58.2081942526946,60.055922289233735
45.0,63.11213611976861,62.446406954755204,62.99990212028912,62.2059481618691,60.272269764082125,62.317600122420004
46.2,66.89471929119203,66.41627783177748,65.57680989198576,64.92287020440548,63.876844222055595,65.6662835505103
47.5,69.97383110211923,69.61844816715096,68.00233336093498,67.58747776603336,67.08985975851016,68.60533310917533
48.7,69.98042420054254,69.19643568420724,71.26065273547101,71.38472840831095,71.51593192602924,70.76031944602953
50.0,70.62361409713276,69.4221945101983,74.90610697355423,75.35456175858549,76.64002851365234,74.2058179510601
51.5,72.52812100489948,71.74519084191033,74.86521954655338,74.5867589253055,72.894614103963,73.49189553414179
53.0,74.55237800738082,74.08652064166793,75.89366734449962,74.89028310451624,72.38322732057725,74.5068884973598
54.5,76.48982856673473,75.67001488257478,76.84654312075851,75.53031533547981,73.0258396790513,75.69706314760705
56.0,77.73331023801676,76.87150800786938,77.88013786187418,76.52292276710111,74.05139397853638,76.80691033578144
58.0,78.18219967332304,77.56845083805433,78.70115530040866,77.2868670499353,74.9801263366969,77.5142809076239
60.0,78.7098662867233,78.1053180676647,79.25764793754726,77.78881410759887,75.66053659150654,78.06384018285236
61.5,79.17150800786938,78.38623512455237,79.47469156470387,78.0074193539993,76.05647735394024,78.37259197999772
63.0,79.43663575667185,78.65380974359446,79.7314165560946,78.2576993271213,76.50559363359065,78.65533732053817
65.0,79.7053180676647,79.01007799780294,80.02255294462024,78.50249288203571,77.01205065566992,78.9726521965461
67.0,79.87150800786937,79.24136150423587,80.1312592149968,78.73108706425714,77.47188792419254,79.18722534494422
69.0,80.10690501035461,79.47387961222817,80.26783949477691,78.98389387497511,77.98078181415895,79.4389014423297
71.0,80.31227178315618,79.67150800786939,80.4080517710638,79.27411232884802,78.54494771052053,79.69565597334207
73.0,80.44576719438469,79.86845083805431,80.68918460004433,79.6392433261336,79.25500304855017,80.01117965850611
75.0,80.50531806766472,80.13435140868503,80.86072303758586,79.96641092585227,79.83284062962109,80.27638384841131
77.5,80.70231994589776,80.40306957104252,80.96269193399095,80.24560845164643,80.23073001851266,80.51822404190281
80.0,81.10076749445561,80.80306957104251,81.18882407968417,80.66495812717122,80.77543044196872,80.91131992923135
82.5,81.16692185116051,80.96845083805431,81.24510093472827,80.85838527506199,81.10904929641423,81.07180014492879
85.0,81.16845083805433,80.93435140868502,81.15907777101987,80.78828745046434,81.1008750050723,81.03268731368668
87.5,81.06845083805433,80.83435140868504,81.06005136612825,80.57772206518736,80.95850612717638,80.90358530804613
90.0,80.9669218511605,80.70231994589776,81.00294514191754,80.45798770141583,80.94696272032152,80.8203380368721
92.5,80.93435140868502,80.57001488257477,80.93011425525427,80.39628661015122,81.01095087370945,80.77496262628208
95.0,80.7022846139602,80.36845083805433,80.8904060913202,80.38928140430833,80.92382250585852,80.66133722503922
97.5,80.7669218511605,80.50531806766472,80.84770564348939,80.32276660078256,80.63274839400398,80.6191023247566
100.0,80.6022846139602,80.26845083805433,80.7422395492155,80.07418766006134,80.10296153472171,80.36638615331748
103.0,80.3669218511605,80.00690501035459,80.42524147244039,79.8508130681939,79.39929276897391,80.02569732987513
106.0,80.10076749445561,79.77150800786939,80.1895945785674,79.56302456286073,78.80768379418934,79.71372746047939
109.0,79.80306957104253,79.43513059177982,79.96880126615858,79.2647416904641,78.24999486837257,79.38434300752289
112.0,79.73663575667186,79.2404416794549,79.71439763479387,78.93201432668526,77.66779684154537,79.12067114875533
115.0,79.43513059177982,78.9760917544922,79.51439763479387,78.61992471081645,77.12986004803406,78.81542402292342
118.0,79.10306957104251,78.67449351030439,79.38568546522221,78.43878138062145,76.84923558528136,78.57404353163722
122.0,78.93513059177984,78.47609175449222,79.1109993408754,78.18070138698111,76.54390825197791,78.33846692759587
125.0,78.83663575667187,78.3404416794549,78.8752214383537,77.92419672472334,76.37078747843833,78.15959039162372
128.0,78.63663575667186,78.17150800786939,78.73654276399544,77.83087267721953,76.46049006057775,78.04005345942991
132.0,78.57449351030439,78.03513059177983,78.70327386173457,77.69672133303865,76.56913177526874,77.98014289461771
136.0,78.5404416794549,77.90690501035459,78.77686830489174,77.55620178745214,76.61969202339264,77.94561144519606
140.0,78.67387961222818,78.04283030471974,78.82153392251936,77.36058658294954,76.4181532074584,77.95093321634214
145.0,78.90690501035459,78.18219967332304,79.03757531418151,77.43293848200217,76.17588367947796,78.06856603739138
150.0,79.23821129888744,78.39188145404555,79.46903485007363,77.68554046236854,76.15834046631322,78.34337809355112
155.0,79.37609175449221,78.51916705502754,79.82996716473525,77.77336754571785,75.99441552264548,78.49460635067595
160.0,80.03821129888743,79.22402487026022,80.30890594649992,78.16361723011094,76.10640066035951,79.01141801792768
165.0,80.50531806766472,79.71916705502755,80.73269343938398,78.55627084977912,76.3457252310182,79.43773768272949
170.0,81.07150800786937,80.28982856673473,81.27162461401014,79.03668701213925,76.88485556867064,79.98098571148434
175.0,81.67609175449222,80.78982856673473,81.99438806311933,79.72185189870294,77.60647250226859,80.62021115184727
180.0,82.11227178315617,81.21916705502753,82.49773799608101,80.26458106867878,78.29991046027149,81.11714414932855
185.0,82.51592692226706,81.51916705502752,82.79447598266307,80.47974496420355,78.86491429777124,81.45720586991708
190.0,82.61227178315617,81.62758719283593,82.9084522049369,80.44500236519224,79.15215642861872,81.56167021198718
195.0,82.58219967332303,81.53257218046556,82.84403537603222,80.29559719854028,79.24072677357017,81.50470459937446
200.0,82.38219967332304,81.36096514237182,82.54799895422545,79.82186516584426,78.85026490159989,81.22149588249898
206.0,81.97609175449222,80.99897445130924,82.16005700568816,79.19934326351981,78.09907408084003,80.76011536889524
212.0,81.4760917544922,80.49897445130925,81.65462738423429,78.50129157803728,76.97403369603087,80.16751642211875
218.0,80.81227178315618,79.73752777300028,81.13118390988728,77.93503172267847,75.50843497295007,79.46613861761072
224.0,80.15260953202217,78.88219812790055,80.6105832293561,77.42655745923156,74.19923746863455,78.78025557597915
230.0,79.65260953202218,78.38219812790055,80.08778144076682,76.95415577955517,73.24106748282959,78.24696373063665
236.0,79.18219967332303,78.13257218046559,79.66966333072507,76.87396124066105,72.30439894348746,77.8710353763591
240.0,78.78219967332305,77.76096514237182,79.33414155365044,77.07237889205,72.21108071149911,77.61400186478838
250.0,78.48219967332305,77.42758719283593,79.08106101309215,77.79665674368891,73.077949684671,77.59308496805845
258.0,78.31592692226707,77.23257218046557,78.70451517723262,77.30981118953534,73.16360096403297,77.3156279421469
265.0,78.1760917544922,77.19897445130925,78.58907859272374,77.83635695663757,74.1433865823927,77.43762379654308
272.0,78.2053180676647,77.32758719283592,78.58426766791652,78.06259941997564,74.47324508275067,77.54959374961689
280.0,78.5404416794549,77.68982856673472,78.81348223914571,78.00973787265738,74.23639891659685,77.72407608458721
290.0,78.6760917544922,77.85260953202219,79.12999187851,78.38305265998842,74.65716579717972,77.98922321110217
300.0,78.7098662867233,77.85260953202219,79.4180558905939,78.89349916814811,75.25171092467332,78.24474063268421
307.0,78.5457671943847,77.61916705502753,79.13338849099712,77.9236771454789,74.15230327273326,77.77086539428169
315.0,78.11592692226706,77.08982856673472,78.58074803729255,76.60865060259654,72.9343185924909,77.05085156140714
325.0,77.58219967332303,76.52758719283592,78.02865554878761,75.46939595387694,72.27242447171372,76.39251725563884
335.0,76.96096514237183,75.69471929119204,77.55349289373606,74.79067230015788,71.99287587277128,75.79022653889481
345.0,76.33752777300028,74.87662798253905,77.25639420411886,74.55805475469734,71.76982545610599,75.3282020171761
355.0,76.16194867563766,74.30265450340339,77.21984454101835,74.60862091474013,71.5866756275972,75.16625081517847
365.0,76.4950645803583,74.38538710465899,77.63836787943278,75.0414346506401,71.28746410303538,75.45303866198155
375.0,77.42179738688895,75.32875610128315,78.55607288170754,76.00837552773115,71.4280167053823,76.33135874562086
387.0,78.48219812790056,76.50982855556757,79.68693145556074,77.53893183199128,72.51375330114448,77.52661822612191
400.0,79.08219812790057,77.25062128010364,80.47204013745984,78.38798126883509,73.32207218265526,78.27380725571867
412.0,79.08219812790057,77.22526453928847,80.74553977503358,78.62098533158183,73.66389230875134,78.432432484979
425.0,78.85521969308378,76.75295536787779,80.55087488048387,78.37629235826195,73.09787853476209,78.15462966301851
437.0,78.85521969308378,76.70497668676808,80.273948128178,77.99502052306887,72.04714731999717,77.91286364271235
450.0,79.08219812790057,77.11832544184972,80.3726484311316,77.92766337883106,71.43254440483035,78.0260157220618
462.0,79.48219812790055,77.54258273663014,80.74779661440493,78.24281052758914,71.7073874188481,78.39953920457037
475.0,79.68219812790055,77.79237898809802,81.15263676941967,78.6602806474467,72.55840390107561,78.75025928893855
487.0,79.59506458035828,77.53469773360898,81.49785743897228,78.66454489557236,73.04171624579554,78.8382069565383
500.0,79.55866027600834,77.07269145322596,81.73046150525992,78.37667004841575,72.63291645444916,78.77833701856296
515.0,79.81832544184974,76.91904449785342,81.95443935715983,78.13967107506629,71.95839084901493,78.83987475186701
530.0,80.17584607527147,77.18444762363009,82.13060798812336,77.91644343589441,71.15893318451165,78.97302843498832
545.0,80.38382334167595,77.63638088039144,82.19358246004093,77.8406689567353,70.69241533570259,79.09056415806361
560.0,80.34293979360191,77.78343461029552,82.19682000910915,77.77511572231086,70.32637825294445,79.0824106422918
580.0,79.94258273663014,77.12990957385142,81.8567104294537,77.49357878181848,69.62509071201495,78.68052459525694
600.0,79.6944886893229,76.53308937677077,81.43162408384316,77.08686884166,68.21305545696187,78.26103903165348
615.0,79.87584607527147,76.89727311966745,81.09771265179681,76.07686755142177,66.75712864579381,78.06379282264152
630.0,79.90034112939827,77.1834346102955,80.83111118657098,75.06028948915197,66.1038243982947,77.88515330319842
650.0,79.72526453928847,77.2260245235669,80.53445463546342,74.40090508965945,65.77386970410267,77.65055412038387
670.0,79.86726558859611,77.37269145322595,80.54075781195475,74.26905522757717,66.03353892304108,77.71727831374935
690.0,79.89448868932291,77.17269145322597,80.70947827751847,74.45526007336991,66.47223691888814,77.77907062371767
710.0,79.30473949550547,75.83510550729974,80.56947509225711,74.54691658694676,66.16569849468749,77.32669191451068
730.0,78.80921140720403,74.7667207368606,80.30853750960125,74.42329860444934,65.54893280382245,76.89538590735117
750.0,78.18888863538652,73.96705917731768,79.69559923903164,73.83329158521087,64.82331614636226,76.25867058000567
775.0,77.56893616304387,73.17211025799335,78.8899178525158,72.65503841302345,63.96140529006334,75.47175265414086
800.0,77.5166459033046,73.08795498774302,78.8224589311942,71.85912150004579,64.1786173784113,75.34082970931007
825.0,77.9844476236301,73.76174268592247,79.44231919092542,72.33458153631946,64.67116017553474,75.90278188898216
850.0,78.61664590330463,74.39689984743688,79.76567926068532,73.40659050298183,65.38636482790751,76.44161390137486
875.0,78.84197022557483,74.84552333168526,79.29564833170778,74.17358235835644,65.9711109889616,76.47849384747872
900.0,78.29220047151573,74.51498382011471,78.44785716197455,74.46097603445658,65.07071612231394,75.95195875019917
925.0,78.12180052683972,73.63749164860505,79.0317662854801,74.28618479333699,62.972529276812594,75.95112784117539
950.0,78.20851320750933,73.07711159109155,79.51876275314159,73.49203801786868,62.42839956998296,76.02310554472703
975.0,77.25860961172029,70.95289390570608,79.4012163323863,72.15211122121269,63.133352603460054,75.34633550587294
1000.0,76.52790007353127,70.97324980289027,79.20917182513094,71.52693873242906,62.60846546727585,74.96533710062552
1030.0,77.49265755490995,72.42638463906275,79.07799402838783,72.5002699974668,61.69938151094253,75.40974981085785
1060.0,78.51755713588666,72.66801107083917,79.71736054673208,73.2370373819592,62.231383292724175,76.14914795457625
1090.0,78.75592043373774,71.89311125678296,80.04863055898052,73.46234577916925,62.40052737097706,76.34705643566085
1120.0,78.16548441747308,68.41839632699529,80.02383368447488,73.61741605350718,62.83595539650685,75.9762136448636
1150.0,77.9667330308201,67.76626846196564,80.07109327038161,73.7994916191804,64.02080004813949,75.94951724717532
1180.0,77.27158989436597,67.00832234090721,80.07748294432375,73.53788964690222,63.12080324245869,75.67754398993475
1220.0,76.24916364077873,64.62456604130622,79.890872498004,73.2011390734678,62.75695938753894,75.19475131554687
1250.0,74.6525516036573,63.45962034200109,79.21045710528966,72.77372567250336,62.51849454841374,74.3300729362814
1280.0,74.18138428216935,64.40920925226939,78.81798428767797,72.87440536646345,62.308926662600996,74.02118258198996
1320.0,73.71082710882499,66.97001488257477,78.84940340913138,73.25163555692203,63.156206074715826,74.09645700393344
1360.0,72.90483580398511,66.10131827952112,78.51926505297115,72.69215662506764,62.51737605604032,73.6201930621034
1400.0,71.69427356230122,64.51592692226706,78.13178547591444,72.20473607818198,62.02362418744521,73.04695344945979
1450.0,70.81828671879964,63.58155349220621,77.81109207525255,72.0277882588261,61.68666124004474,72.6571297572915
1500.0,71.12778745087682,64.50265313251614,77.50902407944828,71.74636193779011,60.84562904084821,72.46996516759526
1550.0,70.24293749353615,64.83779821661223,76.79378424977365,71.03848970325066,61.244063767046015,71.78684947507136
1600.0,69.60748747209084,63.81173806284326,76.30949625266184,70.55244334419089,61.1567627912012,71.26807778274468
1650.0,68.1215556107858,61.61158473374003,76.60008012518533,71.2739963917202,61.259788946713684,71.36043312513812
1700.0,67.6617483841589,63.29595483268024,76.99251303096348,71.79925844606062,59.943505445409556,71.70996298053956
1750.0,68.46319866652694,65.22964495355563,77.33361529263327,71.77350971343309,59.00554985515663,72.05816358557439
1800.0,69.77883038042293,65.86049792747929,78.35819936493708,72.6120794254888,59.35070549562096,73.05299538164364
1850.0,69.43153799129114,62.403547673630115,79.20282783180797,73.0104330269005,59.791252471504635,73.60580437162677
1900.0,69.441918147791,61.05127785284981,79.7335481425599,73.5853889101128,60.56264176638095,74.08535647575968
1950.0,68.04404814873405,61.3205918270593,79.75805937280477,72.81497720046825,60.35936300597898,73.8922780401424
2000.0,66.54742168666567,64.50986628672328,78.69420155905158,70.90339446002092,58.25977778930272,72.7579465293646
2060.0,67.13638088039144,66.0925701141361,77.93524707018466,69.71326301108135,55.77441963864314,72.1026286417977
2120.0,67.3595618344865,64.51771402261225,77.79104762023891,69.4019115543867,55.52784853098149,71.90201797543983
2180.0,66.6231203439938,61.37680973966778,77.34241358663348,68.66934679402021,55.8947737139122,71.33207144446669
2240.0,65.79095599166442,60.69141809464186,77.54414554985163,69.31399880751428,57.07758915348023,71.5121232209233
2300.0,65.11605583399611,60.99095599166442,77.60959700628061,70.55988563748222,58.23659559985005,71.71537958756618
2360.0,65.40488091921368,61.95033981283419,77.46391795392171,71.31060467845398,59.004742974170284,71.76813378728413
2400.0,65.80921325368945,61.82438898278882,77.81852163839699,72.62135139679265,61.061453011100724,72.32534117260354
2500.0,67.15383142699926,60.415904090743695,78.35550406572219,72.87009225964427,61.8314772660176,72.81761181692568
2580.0,67.77259892381417,58.16567940610037,78.75644476404112,73.0992198544323,61.14576139490512,73.15800721385816
2650.0,66.26764579085169,58.86194729184086,79.18690470425193,73.7890823829408,60.51589252989125,73.54046154566802
2720.0,65.64434528223859,62.30962251076208,79.81102418468143,75.45351292835231,60.82678735028705,74.39096724170594
2800.0,60.33885478274064,55.521490853871484,80.23994090703584,74.86729869327336,59.48740688257665,74.4303707108778
2900.0,61.46398045832956,57.36795072971057,79.43948658620852,72.99860718500845,55.995045101355146,73.43141081374003
3000.0,62.535772285768786,54.301983804946616,78.93089684072976,71.96651854690356,53.57162284994922,72.84186999652931
3070.0,59.624252940998105,53.32832008569699,78.5138293816203,70.7475353103784,53.14782174037251,72.26534939299391
3150.0,61.24465953615896,55.55025578468579,78.73266821696642,70.2053240652512,54.41801438537203,72.41258883603807
3250.0,62.97953643779559,56.02365523867269,79.98349289927438,70.72203226285659,55.92864828744487,73.58723277137724
3350.0,64.77956208259295,54.85265246320236,81.3183531689059,72.21260897063308,58.40696706936757,74.94477629414499
