Freq "Floor Bounce"
22.4 49.40827337118378
23.0 49.87545103875942
23.6 50.27545103875943
24.0 50.7754510387594
25.0 51.275451038759414
25.8 51.77545103875943
26.5 52.243134382358136
27.2 52.64313438235813
28.0 53.076968158263995
29.0 53.476968158263986
30.0 53.87696815826399
30.7 54.376968158264006
31.5 54.87696815826399
32.5 55.31131930097567
33.5 55.711319300975674
34.5 56.111319300975666
35.5 56.480001611968504
36.5 56.980001611968504
37.5 57.445400869257895
38.7 57.88000161196851
40.0 58.24540086925789
41.2 58.645400869257884
42.5 59.11131930097568
43.7 59.611319300975666
45.0 60.07696815826401
46.2 60.511319300975686
47.5 60.91131930097566
48.7 61.41131930097568
50.0 61.91131930097569
51.5 62.34313438235813
53.0 62.74313438235812
54.5 63.27696815826401
56.0 63.743134382358136
58.0 64.24313438235814
60.0 64.67545103875943
61.5 65.17545103875942
63.0 65.67545103875943
65.0 66.07545103875941
67.0 66.60827337118378
69.0 67.10827337118378
71.0 67.57545103875943
73.0 68.07545103875943
75.0 68.50827337118378
77.5 69.00827337118378
80.0 69.50827337118379
82.5 69.90827337118378
85.0 70.40827337118377
87.5 70.80827337118379
90.0 71.24160539546432
92.5 71.67545103875942
95.0 72.07545103875944
97.5 72.47545103875942
100.0 72.8416053954643
103.0 73.2416053954643
106.0 73.5416053954643
109.0 73.84160539546431
112.0 74.14160539546431
115.0 74.40903495298883
118.0 74.6416053954643
122.0 74.80903495298884
125.0 74.97545103875942
128.0 75.10903495298882
132.0 75.14313438235814
136.0 75.17545103875943
140.0 75.10903495298882
145.0 74.97545103875942
150.0 74.77545103875943
155.0 74.54313438235815
160.0 74.24313438235814
165.0 73.84313438235813
170.0 73.34313438235813
175.0 72.90981413608364
180.0 72.44313438235812
185.0 72.14313438235814
190.0 71.97775311534632
195.0 72.17775311534632
200.0 72.54619155217318
206.0 73.0815885546584
212.0 73.7151252237587
218.0 74.35077529879601
224.0 74.88695532745999
230.0 75.25688321762686
236.0 75.55688321762685
240.0 75.59385059933135
250.0 75.50227073713972
258.0 75.23564868667565
265.0 74.77365799561306
272.0 74.1455132471468
280.0 73.41221131730408
290.0 72.74551324714679
300.0 72.28431611112
307.0 72.21221131730407
315.0 72.61221131730409
325.0 73.31221131730408
335.0 74.0122113173041
345.0 74.61221131730409
355.0 75.01221131730408
365.0 75.11221131730409
375.0 74.98431611112001
387.0 74.55131152684285
400.0 73.86356901585383
412.0 73.0773380477072
425.0 72.35109984162534
437.0 72.0670625324018
450.0 72.38451209987136
462.0 72.80343964558693
475.0 73.0238355842921
487.0 72.72383558429212
500.0 71.97798738259311
515.0 71.22320369889185
530.0 71.04568966441863
545.0 71.61389336541524
560.0 72.29187828865739
580.0 72.84737499752976
600.0 73.29570969393886
615.0 73.80938127791279
630.0 74.20938127791278
650.0 73.93468316175372
670.0 72.26706253240181
690.0 67.00280588105218
710.0 58.82502335713798
730.0 61.95185018708155
750.0 68.06106251331843
775.0 70.44600105864122
800.0 70.94557954437671
825.0 71.05699004387223
850.0 71.3591311679339
875.0 71.61106442469526
900.0 71.34361970734767
925.0 70.5529410013448
950.0 69.59874988863936
975.0 68.7169756207292
1000.0 67.80547691548611
1030.0 66.96661635241631
1060.0 66.14800448014523
1090.0 65.12923029441008
1120.0 63.3083472924269
1150.0 60.03691710590489
1180.0 58.35037935948621
1220.0 61.66837938563863
1250.0 64.86432064896985
1280.0 65.84947724579601
1320.0 67.42520967261785
1360.0 69.6101444627943
1400.0 70.55053321334698
1450.0 71.58085070963851
1500.0 72.762653182442
1550.0 73.70882070281648
1600.0 74.54252987599781
1650.0 74.4107906240773
1700.0 74.27249338812237
1750.0 74.1556684498106
1800.0 73.24713181076224
1850.0 72.96940283549584
1900.0 73.18681966407242
1950.0 71.72823470650442
2000.0 70.0452187655685
2060.0 71.10300910027814
2120.0 73.12823820392164
2180.0 72.5499267437308
2240.0 71.80985354582319
2300.0 72.24442363227607
2360.0 72.00303888080128
2400.0 69.75158026293315
2500.0 67.87087061601295
2580.0 67.95568117660378
2650.0 67.90074900883448
2720.0 67.57591981631663
2800.0 69.28308371889835
2900.0 69.4458596271754
3000.0 68.43119777725265
3070.0 67.11509423162525
3150.0 66.97726556168732
3250.0 67.66710412657689
3350.0 68.486142925307
3450.0 68.88583670162012
3550.0 69.68847351185971
3650.0 69.55811815459933
3750.0 69.61535036387554
3870.0 69.14089343819599
4000.0 69.925671779316
4120.0 70.50258361783509
4250.0 68.83373946811693
4370.0 67.98570196647978
4500.0 68.2080949421851
4620.0 69.30224988576073
4750.0 67.07606089471253
4870.0 66.01011904969188
5000.0 66.35413156509476
5150.0 66.70534770623182
5300.0 66.03589870240047
5450.0 65.59633527589193
5600.0 70.59799272249393
5800.0 71.11495885296986
6000.0 69.78395170631373
6150.0 69.63309032985788
6300.0 71.5057764253001
6500.0 70.66577575579859
6700.0 68.86334844461213
6900.0 69.5660648746662
7100.0 69.62842643219703
7300.0 68.81290173112853
7500.0 69.55315646080582
7750.0 69.90893273311859
8000.0 69.7116820600333
8250.0 68.93501877242466
8500.0 69.90478911545213
8750.0 68.97948860020858
9000.0 65.59967492689682
9250.0 71.45186250420184
9500.0 72.51881239759005
9750.0 70.73948477014042
10000.0 72.90184022455546
10300.0 74.97228786613407
10600.0 77.60459495586139
10900.0 75.67111922851103
11200.0 77.5918782274895
11500.0 73.50681177283137
11800.0 71.91025700476222
12200.0 72.47021993783682
12500.0 72.15724419929914
12800.0 69.06725365843991
13200.0 65.53972292021133
13600.0 65.01377293132849
14000.0 65.36139487648721
14500.0 64.81230108379677
15000.0 65.19844805361348
15500.0 69.51198525724169
16000.0 69.44213397161307
16500.0 67.25787735906125
17000.0 63.69623220181404
17500.0 59.43039935844756
18000.0 59.44754978388639
18500.0 54.969671304410724
19000.0 57.50142033261096
19500.0 55.6425278475662
