Freq "Front Wall Bounce"
22.4 48.70747237187558
23.0 49.13478078917083
23.6 49.56385295625691
24.0 50.09207657282914
25.0 50.60747237187556
25.8 51.09207657282914
26.5 51.59207657282916
27.2 52.021435048057356
28.0 52.42143504805735
29.0 52.84993477072837
30.0 53.24993477072837
30.7 53.74993477072837
31.5 54.24993477072837
32.5 54.708353351394095
33.5 55.12334311795175
34.5 55.50835335139412
35.5 55.90835335139411
36.5 56.40835335139411
37.5 56.908353351394126
38.7 57.40835335139411
40.0 57.8083533513941
41.2 58.208353351394095
42.5 58.708353351394095
43.7 59.20835335139411
45.0 59.69365463868067
46.2 60.13828132491881
47.5 60.56478194687786
48.7 61.09365463868065
50.0 61.59365463868066
51.5 62.06478194687786
53.0 62.49365463868065
54.5 63.020428134314045
56.0 63.520428134314045
58.0 63.99365463868067
60.0 64.43503666253577
61.5 64.96478194687786
63.0 65.46478194687785
65.0 65.93503666253577
67.0 66.43503666253577
69.0 66.93503666253577
71.0 67.39173347759248
73.0 67.92042813431404
75.0 68.39173347759248
77.5 68.83503666253576
80.0 69.33503666253576
82.5 69.79173347759249
85.0 70.26217284322422
87.5 70.69173347759249
90.0 71.16217284322421
92.5 71.56217284322423
95.0 71.96217284322421
97.5 72.36217284322423
100.0 72.76217284322422
103.0 73.07697831124074
106.0 73.4337535804232
109.0 73.76217284322423
112.0 74.06217284322423
115.0 74.27697831124073
118.0 74.53375358042322
122.0 74.70447854186285
125.0 74.86217284322423
128.0 74.96217284322422
132.0 75.03375358042321
136.0 75.03375358042321
140.0 74.97697831124073
145.0 74.86217284322423
150.0 74.67697831124073
155.0 74.43375358042321
160.0 74.10447854186285
165.0 73.70447854186285
170.0 73.27697831124073
175.0 72.83375358042322
180.0 72.4337535804232
185.0 72.13375358042322
190.0 72.0337535804232
195.0 72.23375358042321
200.0 72.67697831124073
206.0 73.27697831124073
212.0 73.97697831124073
218.0 74.67697831124073
224.0 75.29207657282915
230.0 75.82143504805734
236.0 76.14993477072838
240.0 76.32143504805735
250.0 76.29466777831824
258.0 76.09466777831824
265.0 75.71005441049368
272.0 75.19466777831825
280.0 74.49466777831825
290.0 73.81005441049368
300.0 73.39466777831825
307.0 73.29466777831826
315.0 73.69466777831823
325.0 74.34993477072838
335.0 75.04993477072838
345.0 75.66217284322423
355.0 76.06217284322422
365.0 76.2184742985011
375.0 76.14765546168083
387.0 75.8184742985011
400.0 75.24765546168084
412.0 74.56217284322422
425.0 73.96217284322422
437.0 73.83503666253576
450.0 74.23503666253576
462.0 74.75316832577397
475.0 75.01392630152372
487.0 74.81392630152372
500.0 74.16315572357897
515.0 73.43474291288291
530.0 73.35436891122359
545.0 73.90151809743341
560.0 74.5015180974334
580.0 74.90151809743341
600.0 75.1015180974334
615.0 75.3329006324988
630.0 75.3329006324988
650.0 74.6853732073301
670.0 72.53841966231778
690.0 67.55283002322217
710.0 64.49009448914524
730.0 71.4382813249188
750.0 74.57285899521085
775.0 75.4883229503726
800.0 75.23474291288291
825.0 74.80984402426202
850.0 74.54565732760987
875.0 74.01439653139799
900.0 73.09030098513578
925.0 72.02425047905868
950.0 71.40301577764266
975.0 71.28531619567394
1000.0 71.22834742210529
1030.0 71.17811953421227
1060.0 71.42846727904927
1090.0 71.78936207989918
1120.0 72.0390712040306
1150.0 71.68936207989918
1180.0 70.61166481274938
1220.0 70.96954118126727
1250.0 72.54540178419734
1280.0 72.93234778784661
1320.0 73.86869439276961
1360.0 74.81427559871713
1400.0 74.38867431280744
1450.0 74.06869439276961
1500.0 74.03277237683018
1550.0 74.17566281173843
1600.0 74.95293593977465
1650.0 74.83598942790427
1700.0 74.32536316654509
1750.0 73.97505121437145
1800.0 74.06775223134574
1850.0 75.1839644231602
1900.0 76.28883843759246
1950.0 75.31967609684732
2000.0 73.95917607113816
2060.0 75.31447428488563
2120.0 77.83878213313005
2180.0 77.2895034783923
2240.0 76.787378099405
2300.0 77.15388235339555
2360.0 76.70260858033946
2400.0 74.63387198292254
2500.0 72.57131439953814
2580.0 72.29944671104776
2650.0 72.96859115951666
2720.0 72.87745368371378
2800.0 74.58281078308556
2900.0 74.83414739893024
3000.0 74.4465976693352
3070.0 73.25875471337636
3150.0 72.36869339297013
3250.0 72.68168588727765
3350.0 73.2796106607665
3450.0 73.14222660682375
3550.0 73.57533403063736
3650.0 73.44324750152103
3750.0 73.27891520230442
3870.0 73.05570629976847
4000.0 72.92481104471969
4120.0 73.39176539206444
4250.0 72.6653707595816
4370.0 72.26625607397013
4500.0 72.17065458281371
4620.0 73.01423370030294
4750.0 71.54961895987981
4870.0 71.22795334047187
5000.0 71.75212882791135
5150.0 73.1312691600989
5300.0 72.80134670761086
5450.0 72.2070558189706
5600.0 76.4697646094674
5800.0 77.24266426384168
6000.0 77.04830642416192
6150.0 78.66451508812611
6300.0 80.46813835237914
6500.0 79.43778861371403
6700.0 77.8794145846346
6900.0 77.58788569128602
7100.0 77.84065158530777
7300.0 77.08416119689255
7500.0 76.75865442590397
7750.0 76.47002952117185
8000.0 77.20656780324242
8250.0 76.29940413998654
8500.0 77.41369266172305
8750.0 76.28401866957637
9000.0 79.30122341261762
9250.0 81.42660218109981
9500.0 78.50456956537751
9750.0 76.21948166529151
10000.0 77.49855340526595
10300.0 78.76617119839167
10600.0 79.22608141078742
10900.0 74.74678298005182
11200.0 75.7042962055707
11500.0 74.07360903115159
11800.0 73.363133053405
12200.0 70.85285204179826
12500.0 68.93815347455444
12800.0 62.25777212052965
13200.0 55.72691404671305
13600.0 61.296164813188824
14000.0 64.5234007026853
14500.0 66.86515305166414
15000.0 67.76766515692738
15500.0 69.11482722137667
16000.0 63.887407961091725
16500.0 62.83652710645762
17000.0 61.05461201109594
17500.0 57.36478885475378
18000.0 53.48512341383129
18500.0 46.29429260909362
19000.0 48.10145444594127
19500.0 52.35876015099021
