Freq "Rear Wall Bounce"
22.4 44.68089291215742
23.0 45.25686392792312
23.6 45.832215447993605
24.0 46.569673678261836
25.0 47.324400100812994
25.8 48.016109637761275
26.5 48.6606647254776
27.2 49.25371568459238
28.0 49.82041516406943
29.0 50.34100951165959
30.0 50.897498725246294
30.7 51.522583898923116
31.5 52.1225838989231
32.5 52.67941242032312
33.5 53.199949325964255
34.5 53.689102525832
35.5 54.14659488160335
36.5 54.70833381483956
37.5 55.286868218612454
38.7 55.81281040565047
40.0 56.269580787343514
41.2 56.73771277112951
42.5 57.247956799298066
43.7 57.784366430371406
45.0 58.27348059208542
46.2 58.75283977424422
47.5 59.2095441591039
48.7 59.7095441591039
50.0 60.21409920846227
51.5 60.6512778889512
53.0 61.07215773338257
54.5 61.59787469661353
56.0 62.097874696613516
58.0 62.556505883579675
60.0 62.99787469661351
61.5 63.49305286252482
63.0 63.93482779931534
65.0 64.36136844303093
67.0 64.86136844303093
69.0 65.36136844303093
71.0 65.77824561854166
73.0 66.26136844303093
75.0 66.6883945947337
77.5 67.09899651856385
80.0 67.56807286976293
82.5 67.97824561854166
85.0 68.43716651016359
87.5 68.83716651016358
90.0 69.23716651016359
92.5 69.63716651016358
95.0 69.97438584124505
97.5 70.35813076391861
100.0 70.6804826175476
103.0 71.00651989168256
106.0 71.30651989168254
109.0 71.59086236986514
112.0 71.86035599967681
115.0 72.07031511341788
118.0 72.26012374972186
122.0 72.42938890285781
125.0 72.5293889028578
128.0 72.60372408201827
132.0 72.62005517930615
136.0 72.59361090764261
140.0 72.50372408201828
145.0 72.3832377301733
150.0 72.14790241126163
155.0 71.87779680701709
160.0 71.52785787842546
165.0 71.10676344014617
170.0 70.62785787842546
175.0 70.13789170908615
180.0 69.70676344014616
185.0 69.39146381513719
190.0 69.28155313633056
195.0 69.40676344014616
200.0 69.79688765359177
206.0 70.38698935846399
212.0 71.0569259687188
218.0 71.7026608246167
224.0 72.22823154037992
230.0 72.68761923263892
236.0 72.9244142597905
240.0 73.01979045512508
250.0 72.92583610489477
258.0 72.57939465154199
265.0 72.08602589200174
272.0 71.35046042403646
280.0 70.53809609848281
290.0 69.66645236732077
300.0 69.00849589195258
307.0 68.74080355171174
315.0 68.89664592713204
325.0 69.26632863516478
335.0 69.69781525530223
345.0 69.98824117643616
355.0 70.09772482980665
365.0 69.98707933605077
375.0 69.64507968481263
387.0 69.06717311194271
400.0 68.33847514957132
412.0 67.51655430060089
425.0 66.88472134266165
437.0 66.76300613065054
450.0 67.22833297318553
462.0 67.85421695102274
475.0 68.16391629517796
487.0 67.93501682134294
500.0 67.09094095234943
515.0 66.04948907171543
530.0 65.49850078677609
545.0 65.51445066680141
560.0 65.68513558627737
580.0 65.78267634133738
600.0 65.88234194917642
615.0 66.12884927733407
630.0 66.3841245059976
650.0 66.24439865013873
670.0 65.06932525580635
690.0 61.509546983475005
710.0 57.72148964819503
730.0 61.71438898194826
750.0 63.29369748100339
775.0 63.61215555929776
800.0 63.217454485545915
825.0 62.795283581453845
850.0 62.47351178679827
875.0 61.85838486434949
900.0 60.55598106002151
925.0 58.92880909276374
950.0 57.95199399025417
975.0 58.17744340724039
1000.0 58.82137628535264
1030.0 59.23881161708894
1060.0 59.58261851744663
1090.0 59.88309296911484
1120.0 60.31151746294853
1150.0 60.56877955964217
1180.0 59.98914005290227
1220.0 60.03052738382716
1250.0 60.921160620237174
1280.0 60.892929543788924
1320.0 61.77208405573589
1360.0 62.85325482991678
1400.0 62.80842888297843
1450.0 63.00117093156469
1500.0 63.11618825731047
1550.0 63.37239957872471
1600.0 65.19685850073871
1650.0 66.64125648196499
1700.0 67.0544255985867
1750.0 65.82857040786487
1800.0 64.71484708716547
1850.0 65.13922668559918
1900.0 65.05088016496012
1950.0 62.61189138944965
2000.0 60.429885472143965
2060.0 60.89227163808745
2120.0 63.119503520563725
2180.0 62.422643584006835
2240.0 60.065322016102314
2300.0 59.123696790583026
2360.0 58.144690745961924
2400.0 56.57414958067753
2500.0 54.465594230417636
2580.0 54.09403503506036
2650.0 55.01030055616242
2720.0 55.17338222737615
2800.0 56.947530308096674
2900.0 57.426976085046945
3000.0 57.14796284483381
3070.0 55.40762012569746
3150.0 54.66682813857825
3250.0 54.924593908367115
3350.0 55.150339179708425
3450.0 54.31120916804886
3550.0 53.66925221376991
3650.0 53.77881070162542
3750.0 53.711416850642166
3870.0 54.63909826410722
4000.0 55.7951429408339
4120.0 57.73392911302837
4250.0 55.818198970869446
4370.0 55.0497487539069
4500.0 54.201367677694606
4620.0 52.74157666584259
4750.0 48.38520721039447
4870.0 48.70188573059508
5000.0 50.7153520905708
5150.0 53.71148802565341
5300.0 54.233783541902156
5450.0 53.415291889302864
5600.0 57.05285838409475
5800.0 55.380931197793274
6000.0 52.472809295469986
6150.0 53.414052090285224
6300.0 55.07958274357148
6500.0 53.82989303087926
6700.0 54.967937336073234
6900.0 56.48765104410265
7100.0 55.3056236727154
7300.0 53.038018249438935
7500.0 51.437127916752004
7750.0 51.63586606626188
8000.0 55.119941061041445
8250.0 55.94746703128935
8500.0 54.98995578326682
8750.0 48.38935868068259
9000.0 49.86117124325418
9250.0 50.79849350777761
9500.0 50.921300490569905
9750.0 48.88974835884065
10000.0 46.948471486285854
10300.0 48.63572501832178
10600.0 51.9959887644921
10900.0 51.6977057653023
11200.0 53.840836652000974
11500.0 46.93896038795356
11800.0 45.58214222794203
12200.0 42.541984319899456
12500.0 45.22796886719922
12800.0 45.25103125302371
13200.0 38.099064471901556
13600.0 40.64221743778282
14000.0 41.730552206907674
14500.0 42.28316040748098
15000.0 46.20800016040545
15500.0 43.50058883541067
16000.0 37.606070325307826
16500.0 36.46557146267199
17000.0 36.18504713360241
17500.0 33.315803952034116
18000.0 35.2545444712141
18500.0 24.54182839148274
19000.0 25.288875982241592
19500.0 29.740365099988963
