Freq "Total Early Reflection"
22.4 47.23983107399792
23.0 47.698702960101826
23.6 48.16187972025969
24.0 48.72517700676261
25.0 49.29106894577754
25.8 49.82132091300042
26.5 50.34867109750692
27.2 50.81286322849357
28.0 51.27376146045316
29.0 51.71477100634273
30.0 52.1599127463182
30.7 52.70111272020851
31.5 53.21851476865265
32.5 53.699486732365685
33.5 54.14437105457796
34.5 54.557944212054835
35.5 54.97914619255738
36.5 55.50021984434076
37.5 56.01587265818307
38.7 56.499564768917054
40.0 56.92817892334244
41.2 57.33899135016587
42.5 57.83777453299871
43.7 58.34745079579463
45.0 58.83560198544477
46.2 59.29413894989614
47.5 59.722911522164736
48.7 60.232939117900386
50.0 60.73579698926241
51.5 61.18886799229162
53.0 61.61626843930483
54.5 62.144082067536615
56.0 62.64257954742182
58.0 63.11417742071636
60.0 63.559317471224446
61.5 64.06912955432561
63.0 64.55592464473744
65.0 64.98842673772431
67.0 65.50766175772391
69.0 66.00864099273959
71.0 66.45700362914735
73.0 66.95344727676255
75.0 67.41575501337665
77.5 67.86504080772445
80.0 68.3463656451693
82.5 68.77929490144939
85.0 69.25182230297484
87.5 69.67305270463585
90.0 70.0974299701351
92.5 70.50553528721497
95.0 70.8961621705681
97.5 71.29375403490741
100.0 71.65712093085858
103.0 72.0056835973398
106.0 72.32320159911258
109.0 72.62768569166403
112.0 72.92329062816479
115.0 73.15300903572594
118.0 73.38547172568568
122.0 73.55374108087554
125.0 73.70040333367182
128.0 73.80511173716889
132.0 73.84138188431365
136.0 73.84575964298367
140.0 73.78255099696355
145.0 73.65120841450151
150.0 73.44998246299068
155.0 73.20824317456784
160.0 72.87507532618622
165.0 72.46807410442857
170.0 72.01852166945304
175.0 71.56188399131048
180.0 71.12971336768678
185.0 70.82769368260034
190.0 70.71023646891746
195.0 70.89682750423711
200.0 71.31122391257753
206.0 71.89976190522552
212.0 72.57664563332231
218.0 73.2537330341664
224.0 73.8318754978944
230.0 74.28733735301947
236.0 74.60021655737437
240.0 74.70422629623579
250.0 74.64883846098336
258.0 74.39026257686285
265.0 73.93535035628484
272.0 73.31621207556093
280.0 72.57611758618685
290.0 71.8389779562961
300.0 71.33312581830027
307.0 71.19980563581574
315.0 71.53773175538765
325.0 72.1400919581701
335.0 72.81315583187052
345.0 73.38976063339453
355.0 73.76732727797351
365.0 73.9068959991971
375.0 73.80882713248003
387.0 73.45439507257419
400.0 72.86279396441653
412.0 72.14093870811813
425.0 71.50890765547106
437.0 71.31785215491072
450.0 71.65184597880781
462.0 72.09947298819083
475.0 72.27407334846818
487.0 71.92650518071888
500.0 71.10532665443957
515.0 70.2209443901856
530.0 69.97596436028347
545.0 70.42904335836951
560.0 70.99144650415643
580.0 71.38024841522864
600.0 71.61100720166014
615.0 71.88223911111267
630.0 71.99174850314425
650.0 71.47356549527738
670.0 69.65564533908852
690.0 65.25383383897254
710.0 61.77638475848468
730.0 67.66408606997085
750.0 70.46516034515321
775.0 71.23196661126605
800.0 70.89822459135836
825.0 70.41117966952714
850.0 70.17178868829096
875.0 69.84601268735602
900.0 69.15347689002304
925.0 68.1918508457536
950.0 67.40560809502404
975.0 66.99829617834014
1000.0 66.69435791181773
1030.0 66.48732501527448
1060.0 66.56461418242449
1090.0 66.72236192592369
1120.0 66.74196313934037
1150.0 66.28010074203311
1180.0 65.29919854126992
1220.0 65.87879600824981
1250.0 67.61868655874554
1280.0 68.13614618157712
1320.0 69.2683429663172
1360.0 70.55024264644689
1400.0 70.53471569490497
1450.0 70.71500055680929
1500.0 71.19732789795692
1550.0 71.89157799954475
1600.0 73.17677907899463
1650.0 73.39453579903193
1700.0 73.00959602810613
1750.0 72.4563242240546
1800.0 72.09317346940675
1850.0 72.66868795084844
1900.0 73.33542261023335
1950.0 72.05080787666483
2000.0 70.37596167297626
2060.0 71.4203666707256
2120.0 73.81124904024945
2180.0 73.04093159497964
2240.0 72.04560990362825
2300.0 72.30719353598347
2360.0 71.84425548116695
2400.0 69.67483075864054
2500.0 67.58665969316284
2580.0 67.32808168622705
2650.0 67.60324542513781
2720.0 67.37423323708717
2800.0 69.02922199183028
2900.0 69.34632808688616
3000.0 68.8653104716433
3070.0 67.64215122572341
3150.0 66.97441688105651
3250.0 67.4573288199581
3350.0 68.13341709835858
3450.0 68.09458632593449
3550.0 68.66728229608073
3650.0 68.50942375332082
3750.0 68.3809217110129
3870.0 68.21500268700471
4000.0 68.48301306901126
4120.0 69.14151720612975
4250.0 68.11140812774273
4370.0 67.64489916611895
4500.0 67.63236469023312
4620.0 68.27273929147674
4750.0 66.52277997009429
4870.0 66.09331490210924
5000.0 66.58157455864225
5150.0 67.68634511501911
5300.0 67.34279812160366
5450.0 66.74257269379603
5600.0 71.12929395334868
5800.0 71.70638699129165
6000.0 71.24813984267618
6150.0 72.65903835763918
6300.0 74.35384271107728
6500.0 73.40516392914628
6700.0 71.8267263859109
6900.0 71.79846572234108
7100.0 72.03997079625655
7300.0 71.30385119603392
7500.0 71.10932306179717
7750.0 71.03614716087887
8000.0 71.4228946059697
8250.0 70.40493925006172
8500.0 71.47186909955575
8750.0 70.32921079962055
9000.0 72.80317931519686
9250.0 75.33103735620054
9500.0 73.05842416039918
9750.0 70.83013397151393
10000.0 72.37971094933673
10300.0 73.91652137457031
10600.0 74.99300934191291
10900.0 71.8369840852535
11200.0 73.58619337651282
11500.0 70.46162207683975
11800.0 69.95996637740522
12200.0 68.82260184818236
12500.0 68.18288754125399
12800.0 63.64808679244538
13200.0 59.18975030031832
13600.0 60.56496731570215
14000.0 62.32841510082149
14500.0 63.29798391990185
15000.0 63.90603416935076
15500.0 66.98960616132294
16000.0 64.88556803834811
16500.0 62.40503009870774
17000.0 60.01724148890199
17500.0 56.18947545721521
18000.0 54.95332676458385
18500.0 48.92826372982188
19000.0 50.97775835673096
19500.0 50.68809898739883
