Freq,Floor Bounce,Ceiling Bounce,Front Wall Bounce,Side Wall Bounce,Rear Wall Bounce,Total Early Reflection
20.5078,57.104192639744085,48.868692734838376,55.93053049013734,51.0747078315557,58.437877217239574,55.58272066147141
21.9727,57.87452113825434,48.97516081319655,56.568253711137984,51.88585785375845,57.65004188885753,55.756990178092806
23.4375,57.907427999506595,46.56860211289164,56.32247534295276,50.69096887221342,60.24947535634219,56.56710263223668
24.9023,58.789320987144194,52.42458200680902,57.33982011968875,53.971311362871646,62.89175330085986,58.655942711740195
26.3672,60.168627130180695,55.063566995911586,58.852730443734046,56.25728864790334,63.71797625226141,59.91640929482294
27.832,61.56058872747799,58.49888149253694,60.55451724953427,59.12093307612098,65.30944758814825,61.75448962129606
29.2969,63.880513123953946,61.73520708460943,63.09284904375967,62.19813929534486,66.89922186922662,63.98947539087864
30.7617,65.5568407670425,63.36598189654545,64.85560982512958,63.87963507051974,67.60852504311943,65.32330585782003
32.2266,66.50766351057709,64.55868495155943,65.86048026474928,65.03310615472788,68.56233130465247,66.34576674973071
33.6914,67.8175104695413,66.23739090737651,67.26776442757001,66.65409425325244,69.89412058683219,67.77754503606997
35.1562,69.26430726290887,67.94772475240599,68.76332864908632,68.3578808410998,71.23054265840776,69.27626251708175
36.6211,70.2583441167011,69.04244324375104,69.79481785537818,69.43715787231419,72.03084582370839,70.24642543858297
38.0859,71.52854668985232,70.53667918397613,71.13877002716713,70.86079157770575,73.12606393986341,71.5390196337417
39.5508,72.67432937217585,71.74305705408064,72.31081418290735,72.07769107388238,74.16269472074367,72.68049190733747
41.0156,73.72224220171672,72.87977989040246,73.37915835808057,73.21419322547887,75.11462281351041,73.73549232042967
42.4805,74.76691580450286,74.00796852905461,74.45222038058954,74.32512136054643,76.04302124030593,74.77958113220815
43.9453,75.69595377371013,74.98853383915132,75.3933968882169,75.31188772446824,76.96421954360086,75.72788274205534
45.4102,76.59955787846327,75.94830624475767,76.30600671217495,76.28049998961122,77.83207123638336,76.64510806778479
46.875,77.46115638629321,76.89051482431559,77.18974735059642,77.21034481424174,78.6352736714192,77.52204805887429
48.3398,78.31676435049319,77.77490138847732,78.05778621641214,78.09200185425975,79.39392865242769,78.36502235561314
51.2695,79.94581027222458,79.4748922182405,79.70924802697157,79.78283429176241,80.85632057504658,79.98097058001397
52.7344,80.67737253537469,80.21714500776001,80.44974100510775,80.52201120739346,81.46545828856718,80.68797031170779
54.1992,81.29209078832741,80.85637799988483,81.07196400631783,81.162240498889,82.05455609261058,81.30733453737612
55.6641,81.82479838047097,81.4359565927911,81.61369463038552,81.73742411308729,82.60507270938793,81.86268516777292
58.5938,82.82350890126911,82.47558212593852,82.62855001420901,82.76971835405105,83.4848629319298,82.8506052830956
60.0586,83.22904756974668,82.89467823356254,83.03986955613793,83.18588426493616,83.83319794123634,83.24866369800803
62.9883,83.9903208949682,83.67433737360726,83.81099592431839,83.96352675472559,84.47426664115666,83.99127929643842
64.4531,84.28997010510308,83.99340260027061,84.1194931602165,84.27125778901829,84.72649371429722,84.28730949677873
67.3828,84.79380123895511,84.4786673346696,84.61266621734943,84.78385254792632,85.16492039293114,84.77297504684326
68.8477,84.94584432014113,84.63593368355289,84.76662670632318,84.94123002855447,85.27722834668747,84.9187723843305
71.7773,85.29454649580343,85.00030031394348,85.12221994438255,85.30153680905705,85.56048039147288,85.25996693243361
74.707,85.54844870391169,85.27310041679844,85.38309879824294,85.56836461892026,85.77218637797812,85.51240350588645
77.6367,85.68127385597997,85.4116672072728,85.51663724276453,85.71040764586728,85.86612814282277,85.64010186689299
79.1016,85.7405698844369,85.47063492387731,85.57716560444292,85.76837762505177,85.88342730691753,85.69049112277848
82.0312,85.868523345203,85.58560173685676,85.69706036217444,85.89673774535798,85.9802763820095,85.80800040554338
84.9609,86.02718394465269,85.73190291720799,85.85072680709854,86.05374363032642,86.11194215861902,85.95739517645544
87.8906,86.15685751858562,85.87290509273917,85.98651210624651,86.18198812112175,86.21111692246292,86.08382418399968
90.8203,86.31775877445853,86.0030872992863,86.14157105978448,86.31982753104634,86.27644314266168,86.21346563358014
95.2148,86.42852654462492,86.11254031848092,86.25940674292866,86.41374971613097,86.26898879433296,86.29818429176926
98.1445,86.50271841085902,86.19602238177835,86.3441375556322,86.47920035838813,86.27163014175458,86.36034192357772
101.074,86.58784657989986,86.26325488532243,86.4299116489456,86.54503372230519,86.26269618060212,86.41989337563447
105.469,86.74206930164726,86.35951209204738,86.55972977912161,86.67493424502038,86.37957995107631,86.54587376982616
108.398,86.72286679640253,86.35695371996175,86.54087419313605,86.66921160984641,86.40564197571668,86.54145080707333
112.793,86.66993413844706,86.34338007069718,86.50789488724168,86.6284583042884,86.37156145541677,86.50623437477073
117.188,86.70496361795384,86.3603964462782,86.55505736227506,86.6202661032091,86.22437866770748,86.4965567936608
120.117,86.87894950477802,86.44910783861081,86.70178639054126,86.75600344027264,86.3689360992462,86.63517816354415
124.512,87.0198861896501,86.60311236396103,86.84513581431665,86.90798580422525,86.59896240561483,86.79826198450519
128.906,87.09065551698585,86.65739401749663,86.935316846686,86.92816368434347,86.48051696824977,86.82389773570652
133.301,87.1987432406465,86.75929708845162,87.06019225327087,87.0089206508459,86.37094863360699,86.88922551747466
139.16,86.9827222367756,86.61224554617957,86.84203371551436,86.86232840955188,86.29425139288364,86.72545815888091
143.555,86.96507207911911,86.54515253253136,86.8156011162306,86.79495548631328,86.25633665933381,86.68248666887466
147.949,87.01463265172916,86.55172513233087,86.8700725245842,86.77468293567308,86.21657991146029,86.69436173032189
153.809,86.84999917283858,86.39343607383543,86.70768706277768,86.59308432906921,85.76744825501059,86.47833452223004
159.668,86.66691536469432,86.05018445589822,86.44735411003815,86.31296242489016,85.46605467072935,86.20786832581918
165.527,86.62760095289966,86.02478835723214,86.45196842451647,86.15646525654954,85.36020876130385,86.14569243496979
171.387,86.96812243720142,86.22180564635576,86.74488195193645,86.4729834807401,85.52904841648744,86.41512128319225
177.246,86.99880717878013,86.27759739204224,86.79057550237248,86.52732552014827,85.72021576057847,86.48515847534252
183.105,87.03711344080891,86.23529685038724,86.83129645207244,86.49351903487936,85.65049811772461,86.47616379996047
188.965,87.04058207961856,86.21503753601705,86.85266141986169,86.4194917164066,85.48406870428308,86.43585020312804
196.289,86.98918911378452,86.15145990569438,86.80968942888988,86.34014647180206,85.25240770241516,86.34994632734453
203.613,86.8075376304328,85.86414793628015,86.60344013916568,86.0649865570301,84.91123960807884,86.09956655405152
210.938,86.98196039093884,85.97521827423184,86.77894116143476,86.12411487145773,84.5783757044284,86.16556558493413
218.262,86.95650083843329,85.9370037355406,86.71116006374156,86.13661102618974,84.71722410134585,86.15871774828015
225.586,86.79664265211375,85.68885292161012,86.5580564468768,85.8797464776127,84.62066990277536,85.9737748492631
232.91,86.87450328494124,85.61387684080894,86.62298976234783,85.79184524867105,84.24060354011992,85.92318851232388
241.699,86.97683126033336,85.63931003313269,86.70219064612677,85.88027767656438,83.75025067883631,85.92688408139571
250.488,86.67443138842299,84.9627306762186,86.38000776097448,85.51817455058432,83.68644044757711,85.57030439362903
259.277,87.338126717516,85.63274797026033,87.07022783196494,85.98703012705246,83.50127354435251,86.10193415944845
268.066,87.21695372350591,85.82687925452966,86.99803286140987,86.17129570160957,84.16347962077113,86.20202215957066
276.855,86.88565049146067,85.42401360872059,86.67083885528234,85.59631087940173,83.54088362815368,85.77534750905964
287.109,86.7333436952431,85.32890599228648,86.58826670901615,85.53146421937126,82.93961194285868,85.61689515557485
297.363,87.06147571891523,85.28853236438803,86.75684453773765,85.61433166966727,82.85810578874317,85.74626379868725
307.617,86.88987238258105,85.5037467265245,86.67556439607382,85.79430437819826,83.37121366933609,85.81127918997545
319.336,86.41228903715833,84.9386665901733,86.18675779278465,85.25032178714117,82.63817213752291,85.27298068085138
329.59,86.30241432420479,84.6302061515276,86.0482219526188,84.83385114165843,82.46198733694595,85.05264371840218
341.309,86.3160156067067,84.7866549472725,86.06536088431231,84.90289722556109,81.96259565750434,85.05077783005373
353.027,86.81154437898334,84.67288564453571,86.58113247040288,85.00423076927196,81.20710818674857,85.25530041559777
366.211,86.26182072360324,84.55762745407458,86.02309577741279,85.0612089131662,81.41853686407039,84.96382658941661
379.395,86.38852901273052,84.60966150504666,86.12559443274121,85.1644067724512,81.32374516497829,85.0467804505274
392.578,85.75136824152074,83.75675851966929,85.55278757032396,84.36642373668118,81.33868241007525,84.41544262516278
405.762,86.35039294429552,84.39257595668157,86.15571750804808,84.82044734172227,81.33115133158489,84.93719721937114
420.41,85.92065678334865,83.50950271032676,85.60532418975764,84.00144677474304,81.04374135600291,84.33681909770515
435.059,86.41858317246572,83.85934330552978,86.1818040756366,84.48528126593321,80.7673361001569,84.76225121899539
451.172,86.00944303187701,83.74903699739137,85.80869943933413,84.32185479039758,80.08244760761984,84.43869215890015
465.82,86.51159477880164,84.00158519601997,86.34149061997365,85.00461704316774,80.68687237424302,84.95136705924315
483.398,87.11533437047981,84.17548962361435,87.09725134709602,85.46032872587305,81.26173870907775,85.4999805049841
499.512,86.67362379367847,84.35612814279942,86.61984819865113,85.17801234051183,81.05971664581324,85.19521919975209
517.09,86.87794633606576,83.99549613737189,86.8175390265496,84.72611024249805,79.69463891272542,85.07560154815083
536.133,87.03276988218005,83.68537343606225,87.10475307624843,85.04357217195916,80.36398028750088,85.26390855853317
555.176,87.35038729176368,84.26596594976476,87.56592415751321,84.94092248102734,80.16922467755485,85.55631835509088
574.219,87.48132903700021,83.90704981138495,87.92385296909,85.48810654913883,79.12950022117857,85.70885939355658
594.727,86.77279947799474,84.31495087383863,86.97305479353807,85.6565053340388,80.18394788795445,85.3553971188713
615.234,86.97876965967563,83.85507144239646,87.21268427257951,84.92114874447606,80.76579608605928,85.3092971867152
637.207,87.20623716489074,83.4670216717922,87.50346302417627,84.9480002171406,79.60140558657278,85.35097774343075
659.18,86.72321143585583,83.78136015746266,86.97022547857252,84.87448974421117,80.07563001987576,85.09427515164582
682.617,86.61523522696017,83.81958665943189,87.56471169933933,83.96317668816741,80.0466779793548,85.10704149019828
707.52,87.1229390508611,84.52929816133147,87.93938566385413,84.62617434441856,79.30427631759692,85.55549062230712
732.422,86.08707437569639,84.47349294154394,87.34373495457154,84.54573140377043,78.71843030850793,85.01888206660621
757.324,87.15324360718238,85.27143745078324,88.56199582722132,85.0421257381406,79.88623799409596,86.00026964287757
785.156,86.6202703340004,85.04826158110124,88.41203131610587,85.35949944083097,78.94988560841551,85.78588363752387
811.523,86.53985947067693,85.37934593614027,88.58364840860817,85.71666467545941,79.78800733427427,85.98967016781583
840.82,86.74812167259472,85.30403810934177,88.86766870783325,85.05647115983065,80.09729840116015,86.0319374830942
870.117,86.11433978022866,85.4430954837419,88.55863580369468,85.26174747110342,78.32093370753971,85.75256876026246
900.879,86.21160478441918,85.52057526735821,88.3651089219532,84.94911515240942,78.59990638052066,85.67206288824362
933.105,85.85340491125945,85.68723312741237,88.38395714887244,84.98355293217797,78.53615631287664,85.63727115421231
965.332,85.9369633954192,85.47872573355525,88.25919313158978,84.89880224389815,77.5008815819932,85.51547603068104
1000.49,85.38369405765444,85.2931533925848,87.99637250951078,84.44974838705532,78.2662473235084,85.21101259110995
1035.64,85.4568738925691,85.66426928256884,88.34776843225957,84.46386696284716,76.94903461401687,85.3967716266395
1072.27,85.30331198339518,85.05943346656974,88.08722028459563,84.52872177399914,76.3096470928021,85.13192572579231
1108.89,84.86468663511349,84.5027148736978,88.18377950692626,84.14335787060534,76.31862905403607,84.9114640408145
1148.44,85.0334243866334,84.6671117110506,87.87290906084435,84.15373878988284,75.63490966461485,84.83206841365583
1189.45,84.42008078580453,84.15544891148058,87.89905108305429,83.64262573745707,75.25485118833176,84.52823294565316
1230.47,83.9937439176526,83.92030674208061,87.68270505365356,83.526239280691,74.69093350334549,84.27690914105247
1274.41,84.0454574910095,83.11026993519042,87.7235393191254,83.41317274839417,75.04363215990051,84.15612819297088
1319.82,84.48662991963181,83.1184268614797,87.70946918302774,83.2808408372012,74.6420864005376,84.20984654113941
1366.7,84.38453169447511,83.43337571406694,87.82019168015975,82.97311305978677,74.66610175317132,84.24179864837132
1413.57,83.39766322780424,81.83528168476919,87.71654099733728,82.71990340919864,75.11054439474405,83.73589400778484
1463.38,83.14320600330625,81.32174406581218,87.48372961798073,82.29809558717498,74.77255574018469,83.43127342506499
1516.11,83.74082429892536,80.79641401660915,87.73939939051276,82.21925459846466,74.18996602942445,83.594226712321
1568.85,84.06908514738588,81.27874236522031,88.1974352714958,82.89063267861526,74.59360083148864,84.05899190403983
1624.51,83.73020680203366,80.56224962768347,88.18038130564764,83.31096167011698,74.61965379554184,83.98253963022856
1681.64,83.83870333380725,79.82334044409653,87.47322069721396,83.21497854328855,74.59225644448378,83.56167181800649
1741.7,83.4722692964078,78.87920680517574,87.46385464713457,82.95655611407254,74.13274150872672,83.34783519152933
1803.22,83.34646297947533,78.27441844292584,87.85761546507764,83.59406622929316,75.19097295235649,83.63887142657464
1866.21,83.02446166310946,76.40021072250588,87.71995630629851,83.71821489091643,75.00307198067614,83.43572400866462
1932.13,81.96749290940855,76.3594330841257,87.47050293597816,83.565815962314,74.95910104869714,83.0865194462813
1999.51,81.84112862697079,77.1532475634499,87.68424938852924,83.80466735113451,75.06240149670444,83.27828225109222
2069.82,82.47963198021128,77.77874124849396,87.83016915563529,84.36586590685383,75.0765135482209,83.61413915826515
2143.07,82.18778594599713,79.8599350795128,87.51052159219878,83.92008892725816,75.5372076350488,83.45734312890367
2219.24,80.9970086229756,81.01176544519767,87.7542011107774,84.31471718832529,76.20045332121835,83.6550182229171
2296.88,80.24081191506833,82.75572253177974,88.20119751466413,85.42120388175853,75.73839333205827,84.28493669431116
2378.91,80.0077064743025,83.91692389743771,87.45941382817645,85.28162379395863,75.19437172052326,84.06267988410549
2462.4,79.14545404148008,83.12373031288381,87.43631431559395,84.64791773282596,75.22996138540807,83.6792633305195
2548.83,79.76104020908969,83.44370423484612,87.70887588226844,85.0776382270433,75.41146830504849,84.02220350418591
2639.65,79.9231107139796,83.40156541904057,87.4021677460311,84.74188082383837,74.95412810992481,83.78828928801565
2731.93,80.10629970248073,84.35496278724104,86.7833616613994,84.55778239151549,74.81570143130546,83.68391499393272
2828.61,81.20721117849037,84.66016157145779,86.85965721156026,84.84459092277464,74.63075575431871,83.9580785247497
2928.22,81.82104371760371,84.97325920875348,86.6457804384546,85.09763929141268,74.89635325654947,84.09122842806295
3030.76,82.66604074856946,85.22231545370407,86.03020401572049,84.72773923421259,74.81301942778317,83.96472393969158
3137.7,83.34164379341665,84.97246418977294,86.69437376777141,85.15509347582329,74.12751712908751,84.3162329643278
3249.02,84.25609438622637,84.55342636221381,86.21877614399484,84.9056463360554,74.59747738177104,84.17871326282982
3363.28,84.5714104129014,84.05430615058638,86.78990882106713,84.57779060919431,73.8482658049938,84.24740510491692
3481.93,84.65418223196325,84.05005301853895,86.64601734204152,84.44935760705705,73.6335285300506,84.18214582635534
3604.98,84.87044386087905,84.06437165244893,86.94896852391314,84.2437613117323,73.2856419609615,84.29495579517835
3732.42,85.11241855580157,84.41503087706042,86.56292040639254,83.72850229665336,73.65407973872813,84.19381519037279
3864.26,85.18673003836749,84.0985663203677,86.7981216858995,83.59553976366892,73.17320735800375,84.1999367211167
4000.49,85.11106539062042,84.2047833917318,86.15237222211333,82.99499143993968,73.03872296077866,83.87206854262513
4141.11,84.93523811959265,84.03381834039665,85.92930000188024,83.06065234991884,73.149352719426,83.72676838014091
4287.6,85.07941879031505,83.96431214165848,85.07184877726898,82.97447259680685,72.64185198137106,83.46129795427355
4438.48,85.10108494906017,83.96392829733803,85.22180317490236,83.51448719550834,73.18596308942249,83.62116208512964
4595.21,84.96644808391302,84.27045824973516,85.3160955479564,83.86194803484956,72.85599595679392,83.74329118249753
4756.35,85.30199760584335,84.08098401931325,85.83599286161025,84.15968469652613,72.49355557404738,84.00234947306072
4924.8,85.23139501082092,84.01992778679973,86.07193748965517,84.0759128165823,72.10572617182817,84.02258370702232
5097.66,85.13425780096908,83.99750835172745,86.0570057177282,83.98616719859719,72.19924496814163,83.97088270892635
5277.83,85.3450208816302,84.13730857825524,85.4313541990467,83.6899115538831,71.89762692273051,83.80298134901987
5463.87,85.16853577996629,84.02576494924622,85.3051437816177,83.26415100185055,71.3129004881754,83.60304879050784
5657.23,85.0406830736142,83.98481026559104,85.26283252587947,83.13570581583858,71.52073637281367,83.52384986626912
5856.45,85.20209422849213,83.90298983043058,85.58301908750478,83.14829012209285,71.91171162194577,83.65704580900581
6062.99,85.22843875755235,83.90443710937075,86.01997831870194,83.78599472011038,71.91841603484843,83.92217056008032
6276.86,85.2871601507995,83.98094351141307,86.30367893471463,83.89300092942796,71.26318438629447,84.05969299113504
6498.05,85.11745796235913,83.71837721021224,86.27364850783641,83.7865541006163,70.65189845852133,83.92723099159622
6726.56,84.81639623190293,83.58910089021296,86.26367579152378,83.38441554846266,70.1334847144394,83.74007829932192
6963.87,84.812407340989,83.82163729526339,86.03979223105837,82.84785731783755,69.76666131860186,83.60913806274304
7209.96,84.62283578155531,83.83442438853129,85.63090152974004,82.46890048884543,69.451656872435,83.35562002420907
7464.84,84.60575083474896,83.55818793286171,85.8503603164255,82.36866413137389,69.01838406532431,83.34778738282456
7727.05,84.70185447270288,83.15598495119086,86.33472073998708,82.36931717352316,68.78070305861135,83.47205932449411
7999.51,84.91141582889621,82.92032085086076,86.70918444597407,82.29359926387309,68.45289614183288,83.62122133640176
8282.23,85.3016893646061,82.55722889688555,86.87693320558924,82.29086461376899,67.81974417798719,83.73598845601384
8573.73,85.54187454141567,82.14694333125364,87.06258804009292,82.24309365639577,67.3518460443229,83.8155020270133
8876.95,85.46988476621802,82.16202553280824,87.16777538129217,81.9737087722417,66.61204094426847,83.80182121037934
9188.96,85.36323065513442,81.90277904169794,87.14812180890358,81.97073636286162,66.95476817246839,83.7282184287048
9514.16,85.32125750650756,81.79003439086824,87.21910206575825,82.08804646297942,67.06813536867,83.74918073760837
