Freq "Front Wall Bounce"
20.5078 55.93053049013734
21.9727 56.568253711137984
23.4375 56.32247534295276
24.9023 57.33982011968875
26.3672 58.852730443734046
27.832 60.55451724953427
29.2969 63.09284904375967
30.7617 64.85560982512958
32.2266 65.86048026474928
33.6914 67.26776442757001
35.1562 68.76332864908632
36.6211 69.79481785537818
38.0859 71.13877002716713
39.5508 72.31081418290735
41.0156 73.37915835808057
42.4805 74.45222038058954
43.9453 75.3933968882169
45.4102 76.30600671217495
46.875 77.18974735059642
48.3398 78.05778621641214
51.2695 79.70924802697157
52.7344 80.44974100510775
54.1992 81.07196400631783
55.6641 81.61369463038552
58.5938 82.62855001420901
60.0586 83.03986955613793
62.9883 83.81099592431839
64.4531 84.1194931602165
67.3828 84.61266621734943
68.8477 84.76662670632318
71.7773 85.12221994438255
74.707 85.38309879824294
77.6367 85.51663724276453
79.1016 85.57716560444292
82.0312 85.69706036217444
84.9609 85.85072680709854
87.8906 85.98651210624651
90.8203 86.14157105978448
95.2148 86.25940674292866
98.1445 86.3441375556322
101.074 86.4299116489456
105.469 86.55972977912161
108.398 86.54087419313605
112.793 86.50789488724168
117.188 86.55505736227506
120.117 86.70178639054126
124.512 86.84513581431665
128.906 86.935316846686
133.301 87.06019225327087
139.16 86.84203371551436
143.555 86.8156011162306
147.949 86.8700725245842
153.809 86.70768706277768
159.668 86.44735411003815
165.527 86.45196842451647
171.387 86.74488195193645
177.246 86.79057550237248
183.105 86.83129645207244
188.965 86.85266141986169
196.289 86.80968942888988
203.613 86.60344013916568
210.938 86.77894116143476
218.262 86.71116006374156
225.586 86.5580564468768
232.91 86.62298976234783
241.699 86.70219064612677
250.488 86.38000776097448
259.277 87.07022783196494
268.066 86.99803286140987
276.855 86.67083885528234
287.109 86.58826670901615
297.363 86.75684453773765
307.617 86.67556439607382
319.336 86.18675779278465
329.59 86.0482219526188
341.309 86.06536088431231
353.027 86.58113247040288
366.211 86.02309577741279
379.395 86.12559443274121
392.578 85.55278757032396
405.762 86.15571750804808
420.41 85.60532418975764
435.059 86.1818040756366
451.172 85.80869943933413
465.82 86.34149061997365
483.398 87.09725134709602
499.512 86.61984819865113
517.09 86.8175390265496
536.133 87.10475307624843
555.176 87.56592415751321
574.219 87.92385296909
594.727 86.97305479353807
615.234 87.21268427257951
637.207 87.50346302417627
659.18 86.97022547857252
682.617 87.56471169933933
707.52 87.93938566385413
732.422 87.34373495457154
757.324 88.56199582722132
785.156 88.41203131610587
811.523 88.58364840860817
840.82 88.86766870783325
870.117 88.55863580369468
900.879 88.3651089219532
933.105 88.38395714887244
965.332 88.25919313158978
1000.49 87.99637250951078
1035.64 88.34776843225957
1072.27 88.08722028459563
1108.89 88.18377950692626
1148.44 87.87290906084435
1189.45 87.89905108305429
1230.47 87.68270505365356
1274.41 87.7235393191254
1319.82 87.70946918302774
1366.7 87.82019168015975
1413.57 87.71654099733728
1463.38 87.48372961798073
1516.11 87.73939939051276
1568.85 88.1974352714958
1624.51 88.18038130564764
1681.64 87.47322069721396
1741.7 87.46385464713457
1803.22 87.85761546507764
1866.21 87.71995630629851
1932.13 87.47050293597816
1999.51 87.68424938852924
2069.82 87.83016915563529
2143.07 87.51052159219878
2219.24 87.7542011107774
2296.88 88.20119751466413
2378.91 87.45941382817645
2462.4 87.43631431559395
2548.83 87.70887588226844
2639.65 87.4021677460311
2731.93 86.7833616613994
2828.61 86.85965721156026
2928.22 86.6457804384546
3030.76 86.03020401572049
3137.7 86.69437376777141
3249.02 86.21877614399484
3363.28 86.78990882106713
3481.93 86.64601734204152
3604.98 86.94896852391314
3732.42 86.56292040639254
3864.26 86.7981216858995
4000.49 86.15237222211333
4141.11 85.92930000188024
4287.6 85.07184877726898
4438.48 85.22180317490236
4595.21 85.3160955479564
4756.35 85.83599286161025
4924.8 86.07193748965517
5097.66 86.0570057177282
5277.83 85.4313541990467
5463.87 85.3051437816177
5657.23 85.26283252587947
5856.45 85.58301908750478
6062.99 86.01997831870194
6276.86 86.30367893471463
6498.05 86.27364850783641
6726.56 86.26367579152378
6963.87 86.03979223105837
7209.96 85.63090152974004
7464.84 85.8503603164255
7727.05 86.33472073998708
7999.51 86.70918444597407
8282.23 86.87693320558924
8573.73 87.06258804009292
8876.95 87.16777538129217
9188.96 87.14812180890358
9514.16 87.21910206575825
9849.61 87.3764585854968
10196.8 87.16933800944051
10555.7 87.45215527994154
10927.7 87.55262271431488
11313.0 87.6478531935077
11712.9 87.78262163703268
12126.0 87.86761663552082
12553.7 87.87029800910202
12996.1 87.79371151354039
13454.6 87.78685682355788
13929.2 87.73449537233692
14419.9 87.76352743841456
14928.2 87.85727370515353
15455.6 87.8897883636845
16000.5 87.8810971499995
16564.5 87.70874286936507
17148.9 87.57576095593457
17752.4 87.38356029086452
18379.4 87.09822025087477
19026.9 86.52129917047212
19697.8 86.01387718683436
19999.5 85.60471324598477
