Freq,On Axis,Listening Window,Sound Power,Early Reflections,Early Reflections DI,Sound Power DI,DI offset
22.4,55.44303797468358,55.29111170523741,53.41326168155227,54.26932219396444,51.02178951127297,51.87785002368514,50
23.0,56.643037974683565,56.47918402579087,54.59776390327231,55.45508556627878,51.02409845951209,51.88142012251856,50
23.6,57.84303797468358,57.67918402579086,55.788613104273466,56.644216753581716,51.034967272209144,51.890570921517394,50
24.0,59.04303797468357,58.84612541503695,56.95108648699913,57.81305862338398,51.03306679165297,51.89503892803782,50
25.0,60.143037974683565,59.99031660340749,58.11303544858659,58.97138659459556,51.018930008811935,51.877281154820906,50
25.8,61.34303797468358,61.146125415036934,59.25061663199206,60.113183753141826,51.03294166189511,51.895508783044875,50
26.5,62.44303797468358,62.2682772168413,60.37845647133993,61.24066042830985,51.027616788531446,51.88982074550137,50
27.2,63.54303797468357,63.37918402579085,61.50219321393543,62.3636658688949,51.01551815689595,51.87699081185542,50
28.0,64.64303797468357,64.49111170523743,62.61326168155226,63.46932219396443,51.021789511273,51.87785002368517,50
29.0,65.74303797468359,65.6127897681486,63.723968121900256,64.57799948433556,51.03479028381304,51.888821646248346,50
30.0,66.84303797468358,66.69111170523742,64.81326168155228,65.66932219396445,51.02178951127297,51.87785002368514,50
30.7,67.94303797468358,67.7682772168413,65.88985798827052,66.74840092817071,51.01987628867059,51.87841922857078,50
31.5,69.04303797468357,68.84612541503695,66.97131987589698,67.82676896479326,51.01935645024369,51.87480553913997,50
32.5,70.14303797468357,69.94612541503695,68.05628693067449,68.92223359424729,51.02389182078966,51.88983848436246,50
33.5,71.24303797468359,71.04612541503694,69.16248286481719,70.0167186203161,51.02940679472084,51.88364255021975,50
34.5,72.34303797468358,72.1573429477116,70.27619816126297,71.13041974677829,51.02692320093331,51.88114478644863,50
35.5,73.44303797468358,73.30221378873115,71.41804552348275,72.2732769100288,51.02893687870235,51.884168265248405,50
36.5,74.64303797468358,74.46827721684132,72.57243338690246,73.43398446432958,51.03429275251173,51.895843829938855,50
37.5,75.84303797468358,75.634878833186,73.72726532401315,74.58876902955502,51.04610980363097,51.90761350917285,50
38.7,76.94303797468358,76.7903166034075,74.8865029245077,75.75331453336996,51.037002070037545,51.90381367889981,50
40.0,78.14303797468358,77.95734294771158,76.0463409626544,76.91555474972196,51.04178819798962,51.91100198505718,50
41.2,79.34303797468358,79.12510996546773,77.20771454409835,78.07650121613295,51.048608749334775,51.91739542136938,50
42.5,80.44303797468358,80.25734294771159,78.34545642116355,79.2157772075213,51.04156574019029,51.911886526548045,50
43.7,81.54303797468357,81.39031660340751,79.49164509422577,80.36587924120613,51.02443736220138,51.89867150918174,50
45.0,82.74303797468356,82.54612541503694,80.62139703688642,81.50728978562063,51.03883562941631,51.92472837815052,50
46.2,83.84303797468358,83.64612541503693,81.71572854352948,82.60542153792987,51.04070387710706,51.930396871507455,50
47.5,84.94303797468358,84.73563040192344,82.8064425315991,83.68805094276881,51.04757945915463,51.92918787032434,50
48.7,85.94303797468358,85.76827721684131,83.84816676648042,84.73406166127054,51.03421555557077,51.920110450360895,50
50.0,87.04303797468357,86.82435657375008,84.89296544571276,85.77372850820028,51.0506280655498,51.93139112803732,50
51.5,87.94303797468358,87.7903166034075,85.87950645347145,86.75484152431578,51.035475079091725,51.910810149936054,50
53.0,88.94303797468358,88.75734294771159,86.84332090244683,87.72198429333233,51.035358654379266,51.91402204526476,50
54.5,89.84303797468358,89.6682772168413,87.75174783868783,88.62848667895796,51.03979053788335,51.91652937815347,50
56.0,90.74303797468357,90.54612541503694,88.63132801720323,89.5085687417148,51.03755667332214,51.91479739783371,50
58.0,91.54303797468357,91.35734294771159,89.45136424490619,90.32556171098764,51.031781236723944,51.9059787028054,50
60.0,92.34303797468358,92.13563040192345,90.22278205148162,91.09168431966462,51.04394608225883,51.912848350441834,50
61.5,93.04303797468357,92.84612541503695,90.93744798889026,91.8085687417148,51.03755667332216,51.908677426146696,50
63.0,93.64303797468358,93.46827721684132,91.5788095785206,92.44066042830987,51.027616788531446,51.88946763832071,50
65.0,94.24303797468357,94.04612541503694,92.17904498355286,93.0334560210987,51.01266939393824,51.867080431484084,50
67.0,94.74303797468357,94.55734294771159,92.69653259382422,93.53961233270564,51.017730615005945,51.86081035388737,50
69.0,95.24303797468356,95.04612541503694,93.18057891913834,94.02091059412875,51.02521482090819,51.8655464958986,50
71.0,95.64303797468358,95.434878833186,93.59151814017471,94.41663339495985,51.01824543822616,51.84336069301129,50
73.0,95.94303797468358,95.76827721684131,93.9586508070791,94.77493573948318,50.99334147735813,51.80962640976222,50
75.0,96.24303797468359,96.07918402579085,94.27483345719547,95.08227452293906,50.99690950285179,51.80435056859538,50
77.5,96.44303797468358,96.33461651923001,94.53703412489175,95.3423747923217,50.992241726908304,51.797582394338264,50
80.0,96.64303797468357,96.53461651923,94.75808246466967,95.54514522202223,50.98947129720777,51.77653405456033,50
82.5,96.84303797468358,96.70171472211882,94.9263113857572,95.72151543956484,50.98019928255398,51.77540333636162,50
85.0,96.94303797468358,96.82334005539623,95.0847079058304,95.84682713155188,50.97651292384435,51.73863214956583,50
87.5,97.04303797468357,96.91229191545891,95.18842870477367,95.9474681566317,50.96482375882721,51.72386321068524,50
90.0,97.14303797468358,97.0122919154589,95.27611599557257,96.04404801207953,50.968243903379374,51.736175919886335,50
92.5,97.14303797468358,97.0122919154589,95.30153490481068,96.052632255103,50.9596596603559,51.71075701064822,50
95.0,97.24303797468357,97.034878833186,95.3264760278894,96.06894922054288,50.96592961264312,51.7084028052966,50
97.5,97.14303797468358,97.0122919154589,95.32078335888436,96.0622461836071,50.9500457318518,51.69150855657455,50
100.0,97.14303797468358,97.0122919154589,95.28407517180553,96.0481240151707,50.9641679002882,51.72821674365338,50
103.0,97.14303797468358,96.94612541503695,95.22732863810522,95.97188181485726,50.97424360017969,51.718796776931725,50
106.0,97.04303797468357,96.91229191545891,95.17993525997252,95.94681219903197,50.96547971642694,51.732356655486385,50
109.0,97.04303797468357,96.83487883318598,95.08930780585602,95.85372541283445,50.98115342035153,51.74557102732996,50
112.0,96.94303797468358,96.78981616768486,95.0175592836464,95.81043200173394,50.97938416595092,51.772256884038455,50
115.0,96.84303797468358,96.71229191545889,94.929016851454,95.7288617544207,50.983430161038186,51.7832750640049,50
118.0,96.84303797468358,96.64612541503693,94.82491611242365,95.64173626310425,51.004389151932685,51.82120930261328,50
122.0,96.74303797468357,96.56827721684131,94.73820542224755,95.57198864422121,50.9962885726201,51.83007179459376,50
125.0,96.64303797468357,96.53461651923,94.6355816552474,95.49324153556954,51.04137498366046,51.89903486398259,50
128.0,96.64303797468357,96.4682772168413,94.5331410466658,95.4164170471876,51.05186016965371,51.9351361701755,50
132.0,96.64303797468357,96.43563040192345,94.4469730452525,95.36520394061357,51.07042646130988,51.98865735667094,50
136.0,96.64303797468357,96.40194333790747,94.36722702895642,95.31740529586801,51.084538042039455,52.03471630895105,50
140.0,96.54303797468357,96.37943775185106,94.28823045101338,95.27279962412685,51.10663812772421,52.09120730083768,50
145.0,96.54303797468357,96.34762453595785,94.19456829819073,95.21722904872026,51.13039548723759,52.15305623776712,50
150.0,96.54303797468357,96.34762453595785,94.1240134636361,95.19479024191547,51.15283429404238,52.223611072321745,50
155.0,96.54303797468357,96.34762453595785,94.05582661510716,95.16856571277404,51.17905882318381,52.291797920850684,50
160.0,96.64303797468357,96.37080955405413,93.98406617213588,95.13374225061459,51.237067303439545,52.38674338191825,50
165.0,96.64303797468357,96.37080955405413,93.9106249765262,95.12277476528932,51.24803478876481,52.46018457752794,50
170.0,96.64303797468357,96.39360665219345,93.86339441112652,95.11738588761283,51.27622076458063,52.530212241066934,50
175.0,96.64303797468357,96.39360665219345,93.78428697570742,95.08965303567722,51.30395361651624,52.60931967648604,50
180.0,96.64303797468357,96.42682678777587,93.72529863826252,95.0797792864923,51.34704750128357,52.70152814951335,50
185.0,96.74303797468357,96.46159073515481,93.66436997987832,95.07299731460076,51.38859342055406,52.7972207552765,50
190.0,96.74303797468357,96.47329452426602,93.60646570714046,95.06823102973608,51.40506349452994,52.866828817125565,50
195.0,96.84303797468358,96.49687868712739,93.55731967745737,95.06652656609491,51.430352121032485,52.93955900967002,50
200.0,96.84303797468358,96.54016119555321,93.5084190220937,95.05993726437427,51.48022393117894,53.031742173459506,50
206.0,96.84303797468358,96.57329452426602,93.43947298178155,95.04585900418631,51.527435520079706,53.13382154248447,50
212.0,96.94303797468358,96.5968786871274,93.38227247415789,95.04202964323171,51.554849043895686,53.214606212969514,50
218.0,96.94303797468358,96.6084878906222,93.32975435423992,95.02136935303253,51.587118537589674,53.278733536382276,50
224.0,96.94303797468358,96.6200661440622,93.25795723784671,95.0018937509657,51.6181723930965,53.3621089062155,50
230.0,97.04303797468357,96.64394034189392,93.20248792132018,94.9943187463904,51.64962159550352,53.44145242057374,50
236.0,97.04303797468357,96.65569172936007,93.13250877923724,94.96957828504928,51.68611344431079,53.52318295012283,50
240.0,97.04303797468357,96.68870723207569,93.0782061514052,94.96139130837076,51.72731592370492,53.61050108067049,50
250.0,97.04303797468357,96.70060882093686,93.00673894203634,94.9174465509999,51.783162269936966,53.69386987890053,50
258.0,97.04303797468357,96.68924359333361,92.93737701676046,94.89551814001251,51.7937254533211,53.75186657657315,50
265.0,97.04303797468357,96.68924359333361,92.87155622715997,94.86128782249149,51.827955770842124,53.817687366173644,50
272.0,97.04303797468357,96.68924359333361,92.79164928317387,94.81756711043856,51.871676482895055,53.89759431015975,50
280.0,97.04303797468357,96.64952226939162,92.71015463410086,94.76657501418563,51.88294725520599,53.939367635290765,50
290.0,97.04303797468357,96.64952226939162,92.64176388872616,94.72589367680875,51.92362859258287,54.007758380665464,50
300.0,97.04303797468357,96.61491257961293,92.55899919385318,94.66995286847099,51.94495971114195,54.05591338575975,50
307.0,96.94303797468358,96.5919258275641,92.48700672342214,94.6350632275289,51.956862600035194,54.104919104141956,50
315.0,96.94303797468358,96.57252241560563,92.40225211009863,94.57722847257178,51.99529394303386,54.170270305507,50
325.0,96.94303797468358,96.54041953151821,92.31498090145193,94.51798392087464,52.02243561064357,54.22543863006628,50
335.0,96.84303797468358,96.48532148900661,92.2419956857022,94.46137545178294,52.023946037223666,54.243325803304415,50
345.0,96.84303797468358,96.47467832430765,92.1711170489609,94.4288539545738,52.04582436973385,54.30356127534675,50
355.0,96.84303797468358,96.44283578867372,92.08189579732009,94.37054316382863,52.07229262484509,54.36093999135363,50
365.0,96.84303797468358,96.38958404856292,92.00865778512754,94.30963580480484,52.07994824375808,54.380926263435384,50
375.0,96.74303797468357,96.37737384668897,91.94143425009071,94.27017835654048,52.107195490148484,54.43593959659826,50
387.0,96.74303797468357,96.33738748968457,91.855527658025,94.2171131630356,52.12027432664897,54.48185983165958,50
400.0,96.64303797468357,96.29076025307351,91.79126254429055,94.16066733493136,52.130092918142154,54.49949770878297,50
412.0,96.64303797468357,96.2671916259224,91.72221536987341,94.1315311528836,52.1356604730388,54.54497625604898,50
425.0,96.64303797468357,96.20293292958475,91.63786803302601,94.05996984094654,52.14296308863821,54.56506489655874,50
437.0,96.64303797468357,96.20293292958475,91.57831443218531,94.03032939079596,52.17260353878879,54.62461849739944,50
450.0,96.54303797468357,96.16159905585225,91.51671275197347,93.98117499999411,52.18042405585814,54.64488630387878,50
462.0,96.54303797468357,96.12558640154779,91.45447954688477,93.95548813152016,52.17009827002764,54.67110685466302,50
475.0,96.44303797468358,96.09076025307351,91.39269102215434,93.9057546832443,52.185005569829215,54.698069230919174,50
487.0,96.44303797468358,96.05834929754819,91.3264221995645,93.87693417285337,52.18141512469482,54.731927097983686,50
500.0,96.44303797468358,96.06878961806659,91.28249427034615,93.85623411596343,52.21255550210316,54.78629534772044,50
515.0,96.44303797468358,96.03418295191243,91.2343497867079,93.83961036961539,52.19457258229704,54.79983316520453,50
530.0,96.44303797468358,96.03314510415052,91.18524143212721,93.819840405835,52.213304698315525,54.84790367202331,50
545.0,96.44303797468358,96.01078256625614,91.13346906825065,93.80342404328506,52.20735852297108,54.87731349800549,50
560.0,96.44303797468358,96.01242956781752,91.0932929882535,93.78351718270342,52.2289123851141,54.919136579564025,50
580.0,96.44303797468358,96.01104815807963,91.05077679475183,93.77721229010938,52.23383586797026,54.960271363327806,50
600.0,96.44303797468358,96.01021939424587,91.0057141667737,93.7583664767118,52.251852917534066,55.004505227472166,50
615.0,96.44303797468358,96.01021939424587,90.96572322250412,93.75539222020262,52.25482717404324,55.04449617174174,50
630.0,96.44303797468358,96.00072726336553,90.9339391463328,93.75463393755506,52.24609332581048,55.06678811703273,50
650.0,96.44303797468358,96.0128720747308,90.88895340368563,93.75868729653438,52.25418477819642,55.12391867104516,50
670.0,96.44303797468358,96.01343059611843,90.85246207984893,93.75965472464412,52.2537758714743,55.16096851626949,50
690.0,96.54303797468357,96.02957808042943,90.8026133056266,93.74697515345686,52.28260292697257,55.22696477480284,50
710.0,96.54303797468357,96.04250415360254,90.77121843329968,93.75181145145388,52.29069270214866,55.271285720302856,50
730.0,96.54303797468357,96.04446980237135,90.71044753062098,93.73587044592408,52.308599356447274,55.33402227175037,50
750.0,96.54303797468357,96.03806824114838,90.66371954498412,93.7249271665013,52.31314107464708,55.37434869616426,50
775.0,96.54303797468357,96.05010922211304,90.6110120293932,93.72219080325277,52.327918418860264,55.43909719271984,50
800.0,96.54303797468357,96.04428064875921,90.55411455920708,93.70494208075691,52.339338568002304,55.49016608955213,50
825.0,96.54303797468357,96.03378117130485,90.48679475406969,93.67921385899503,52.354567312309825,55.54698641723516,50
850.0,96.54303797468357,96.03744798333209,90.41657109522076,93.63831516085271,52.39913282247937,55.620876888111326,50
875.0,96.54303797468357,96.01816566233786,90.34125331816304,93.62274442649979,52.39542123583807,55.67691234417482,50
900.0,96.54303797468357,96.0093816397687,90.26222636848412,93.58439076056082,52.42499087920788,55.74715527128458,50
925.0,96.64303797468357,96.01349655346185,90.17374855648531,93.53873111095264,52.47476544250921,55.83974799697654,50
950.0,96.54303797468357,95.98177780808372,90.09140599587536,93.51599692346072,52.465780884623,55.89037181220836,50
975.0,96.54303797468357,95.96740268210706,89.98982094716449,93.45470694622584,52.51269573588122,55.977581734942575,50
1000.0,96.54303797468357,95.94845155568058,89.87902155644849,93.40161386152025,52.54683769416033,56.069429999232085,50
1030.0,96.54303797468357,95.8943597914555,89.7509116989801,93.3142770179585,52.580082773497,56.143448092475396,50
1060.0,96.54303797468357,95.88254138616553,89.6341983125529,93.25052577185889,52.63201561430664,56.24834307361263,50
1090.0,96.54303797468357,95.84704567997878,89.50424248037297,93.17733977195032,52.66970590802846,56.34280319960581,50
1120.0,96.44303797468358,95.78946068547269,89.37067289904351,93.08728730894062,52.70217337653207,56.41878778642918,50
1150.0,96.44303797468358,95.7235445288781,89.22021916412153,92.97390197453728,52.74964255434081,56.50332536475656,50
1180.0,96.44303797468358,95.69332347289519,89.07863884095823,92.88741130103067,52.80591217186452,56.61468463193695,50
1220.0,96.34303797468358,95.61821709746059,88.92114255388923,92.75907813706203,52.85913896039855,56.69707454357136,50
1250.0,96.34303797468358,95.5730447056341,88.76998130540625,92.66022587704008,52.91281882859403,56.803063400227856,50
1280.0,96.34303797468358,95.52352886536069,88.6233128714308,92.5527769767013,52.97075188865939,56.90021599392989,50
1320.0,96.24303797468359,95.45619590742197,88.47722808678795,92.43472053700928,53.02147537041269,56.978967820634026,50
1360.0,96.24303797468359,95.4082038146392,88.32170986491944,92.31777331448929,53.09043050014991,57.08649394971975,50
1400.0,96.14303797468358,95.350723455969,88.17442668483268,92.19970265167936,53.151020804289644,57.17629677113632,50
1450.0,96.14303797468358,95.29249727235212,88.02094526823386,92.07455459818378,53.21794267416834,57.27155200411826,50
1500.0,96.04303797468357,95.23380428698826,87.86752653326094,91.94666073527824,53.28714355171002,57.36627775372732,50
1550.0,96.04303797468357,95.16675675115184,87.71576700346995,91.81116100042499,53.35559575072685,57.45098974768189,50
1600.0,95.94303797468358,95.1352667750737,87.58355006262308,91.69369383763171,53.44157293744199,57.55171671245063,50
1650.0,95.94303797468358,95.0761020180717,87.44452767153963,91.57453089370901,53.501571124362684,57.63157434653206,50
1700.0,95.84303797468358,94.99892719018344,87.30099056484322,91.43703929777708,53.56188789240636,57.69793662534022,50
1750.0,95.84303797468358,94.96389652564689,87.17124822582338,91.3234963318107,53.640400193836186,57.79264829982351,50
1800.0,95.74303797468357,94.89297059747148,87.04586184607794,91.19954053092957,53.69343006654191,57.847108751393534,50
1850.0,95.74303797468357,94.84588736109,86.92308999296561,91.08349341309213,53.76239394799788,57.92279736812439,50
1900.0,95.74303797468357,94.8112607466502,86.79926196590516,90.96258320362041,53.848677543029794,58.011998780745046,50
1950.0,95.64303797468358,94.75240287350535,86.69694281845179,90.84764592773897,53.90475694576638,58.05546005505356,50
2000.0,95.64303797468358,94.69733542874795,86.59454114881053,90.74347466195181,53.95386076679614,58.10279427993741,50
2060.0,95.64303797468358,94.66918698791814,86.49741166354097,90.63384115347571,54.035345834442424,58.171775324377165,50
2120.0,95.54303797468357,94.62069734351722,86.40959775140598,90.53675124981451,54.08394609370271,58.21109959211124,50
2180.0,95.54303797468357,94.56056636451926,86.32220976202719,90.42619922003018,54.134367144489076,58.238356602492075,50
2240.0,95.54303797468357,94.55004221992499,86.26263401331795,90.35527359121208,54.19476862871291,58.28740820660704,50
2300.0,95.54303797468357,94.51369504057438,86.18759765605074,90.26383064406372,54.24986439651066,58.326097384523635,50
2360.0,95.44303797468358,94.45331172961096,86.12742680894722,90.16785778149267,54.28545394811829,58.32588492066374,50
2400.0,95.44303797468358,94.42418588848452,86.06990610876325,90.09102189847968,54.333163990004834,58.35427977972127,50
2500.0,95.44303797468358,94.38223079469047,86.01338385012508,90.01556932269027,54.3666614720002,58.36884694456539,50
2580.0,95.44303797468358,94.34928175719502,85.96694097196563,89.95453031241932,54.39475144477569,58.38234078522939,50
2650.0,95.44303797468358,94.33413313295183,85.92725150661575,89.8892591682829,54.44487396466893,58.40688162633609,50
2720.0,95.44303797468358,94.30651252919736,85.89557051333828,89.83380896387378,54.472703565323584,58.41094201585908,50
2800.0,95.44303797468358,94.27467235502081,85.86862758287823,89.78667735691295,54.487994998107865,58.40604477214258,50
2900.0,95.44303797468358,94.27597090372258,85.85957629578196,89.75147966177641,54.524491241946166,58.41639460794062,50
