Freq "Rear Wall Bounce"
20.5078 63.87293779884723
21.2402 64.9001827746888
21.9727 65.65004066476725
22.7051 66.50643177997132
23.4375 67.87371288660103
24.1699 68.7708335387465
25.6348 70.76957767623145
26.3672 71.69251276774128
27.0996 72.43738272808095
27.832 73.44257805544348
29.2969 75.36530640253116
30.0293 76.20814191289975
31.4941 77.77833961386521
32.2266 78.58025475165142
33.6914 79.86811664217528
34.4238 80.39728704784507
35.8887 81.31422622699696
37.3535 82.0873831326877
38.8184 82.6096377541851
39.5508 82.8067127918928
41.0156 83.16318068428984
42.4805 83.43270185105365
43.9453 83.69380296483412
45.4102 83.87055779313208
47.6074 84.2119082782215
49.0723 84.37634747649608
50.5371 84.53531446650565
52.7344 84.73627671065118
54.1992 84.92604898026093
56.3965 85.14447516753197
58.5938 85.37335430984307
60.0586 85.5071230600666
62.2559 85.79050942050384
64.4531 85.97824722094819
66.6504 86.06892153728384
69.5801 86.2536918640666
71.7773 86.39981301190565
73.9746 86.49898451147556
76.9043 86.59157011837851
79.834 86.65357538444928
82.7637 86.69299552714531
85.6934 86.71913413151246
88.623 86.75284576178049
91.5527 86.81499211472865
94.4824 86.89844154879583
98.1445 86.87780575222867
101.807 86.82581441245189
105.469 86.78393668930852
109.131 86.71793365853267
112.793 86.60840145864795
116.455 86.44599855368591
120.85 86.32523324837976
125.244 86.22814762295894
129.639 86.24689462387099
134.033 86.22080808970273
138.428 86.09823305947188
143.555 86.06804781225625
148.682 86.34561100548464
153.809 86.19908101117613
159.668 85.81005267714758
164.795 85.47773192074688
170.654 85.5079346685008
176.514 85.25066834958363
183.105 84.588306938025
189.697 84.33518286647043
196.289 84.36489470707768
202.881 84.2616215791678
210.205 84.10252494660403
217.529 83.75490928169556
225.586 83.89401794711999
232.91 83.73123913301453
241.699 83.71822640271648
249.756 83.49736653791464
258.545 83.89245271098008
268.066 83.87564752654755
277.588 83.03213397255448
287.109 82.77319571777271
297.363 81.66406460193858
307.617 83.11088034487754
318.604 83.0279559674396
329.59 82.52440065125454
341.309 82.48755707878068
353.76 82.41385854755273
366.211 81.81444217221271
378.662 81.58677215955818
392.578 82.14837177259861
405.762 81.23501765709202
420.41 80.6749227833028
435.059 81.78062728111064
450.439 81.55351577968857
466.553 80.97484079267132
482.666 81.34536477820069
500.244 81.69598759811323
517.822 81.22330120566154
536.133 81.36667420996773
554.443 79.85025059266312
574.219 80.73949857318647
594.727 80.52748934406223
615.234 80.63022419744334
637.207 80.46516850297405
659.912 80.13727824807236
683.35 80.20729957057462
706.787 79.59570329786872
731.689 80.00372031209373
758.057 79.88641299354603
784.424 79.53716257100265
812.256 78.91534565317005
840.82 78.06564774333265
870.85 78.3274880180788
901.611 78.90519128732339
933.105 76.74497755166634
966.064 75.70928232634031
999.756 77.33292767203108
1034.91 76.52415524376367
1071.53 77.54015627515123
1109.62 76.81271721152302
1148.44 76.27049030012256
1189.45 75.7774159041206
1231.2 75.4585211333434
1274.41 75.6420100821081
1319.82 74.97760059729819
1365.97 75.37881220307712
1414.31 75.05082612407696
1464.11 73.60883948196474
1515.38 73.73281984305002
1568.85 73.5162397753782
1624.51 72.6026081544762
1681.64 73.76897526698886
1740.97 72.92674301111737
1802.49 72.7101676282703
1866.21 73.40926123272666
1932.13 73.12205403902176
2000.24 73.63968158996443
2070.56 73.0052630564154
2143.8 72.50331714035163
2219.24 73.46261813789525
2297.61 73.62073257990139
2378.17 73.37352567372847
2462.4 73.40906675754495
2548.83 72.68323826988885
2638.92 71.89575342330635
2731.93 72.37336893146116
2828.61 72.73099007632155
2928.22 72.30915171483434
3031.49 72.00388853700032
3138.43 72.11258302565167
3249.02 72.27974208662957
3363.28 72.24386782262451
3481.93 71.74980546908
3604.98 72.06343448563766
3732.42 72.16726246276048
3863.53 72.23792332552073
3999.76 72.27979346310505
4141.11 72.07607558929982
4286.87 71.87991235444625
4438.48 71.12526110200687
4594.48 71.31665759755822
4757.08 70.47380606542932
4924.8 70.51280997578576
5098.39 69.58611125902245
5277.83 70.26388047799574
5463.87 69.33015358402133
5656.49 69.4710348214656
5856.45 69.49454569870022
6062.99 68.3941377554644
6276.86 68.02437777661814
6498.05 67.11864074301786
6727.29 65.95202845065063
6964.6 65.76140687726662
7209.96 65.074692257511
7464.11 64.50219217881575
7727.78 63.02689854303401
8000.24 62.50117814320325
8282.23 61.115533231302834
8574.46 59.474951084376784
8876.22 57.38367969013075
9189.7 54.72489746051289
9513.43 53.65818479703847
9848.88 51.58224138815544
10196.8 49.429301645184324
10556.4 50.10107696081323
10928.5 52.197863910609726
11313.7 54.091565093752365
11712.9 55.15664176545587
12126.0 55.517371957691466
12553.7 54.90779830207347
12996.1 54.08175478652106
13454.6 54.43296315056992
13928.5 55.68461753360475
14419.9 55.742894286187294
14928.2 56.441339216092786
15454.8 57.42727555250906
15999.8 58.08123382714717
16564.5 57.42518625233481
17148.2 56.40728304676563
17753.2 55.50966923099389
18379.4 54.724913881557654
19027.6 52.57015878458529
19698.5 50.36935493140902
19999.5 49.90212683741461
