Freq "Sound Power"
22.4 32.875031985370654
23.0 34.90301220876496
23.6 36.96835989142828
24.0 39.459346716042305
25.0 41.41468758013984
25.8 43.75123371482282
26.5 47.03247460772734
27.2 49.594746102214216
28.0 51.18244317397766
29.0 53.13032883055736
30.0 55.42802073537301
30.7 58.1976190509976
31.5 60.808260221953034
32.5 62.81797947072921
33.5 62.919763245226406
34.5 64.16238404267047
35.5 65.80405160117955
36.5 68.4204698052833
37.5 70.9591108814847
38.7 73.15256632912019
40.0 74.82810461091849
41.2 76.4813439337086
42.5 78.12283857592047
43.7 79.66631741336225
45.0 81.29277600710238
46.2 83.59661082464123
47.5 85.81804681223387
48.7 87.53353737778457
50.0 88.50432123111914
51.5 86.00306618013325
53.0 85.94008592101606
54.5 86.52914870991378
56.0 87.18223845021588
58.0 88.13337790482394
60.0 88.98945214021946
61.5 89.9107727062771
63.0 90.61263209412742
65.0 91.16295511681686
67.0 91.75914688354307
69.0 92.36075500233669
71.0 92.86185822847347
73.0 93.50567677848306
75.0 93.98756438340658
77.5 94.18083044226736
80.0 94.35706226282115
82.5 94.42818043304275
85.0 94.46405812888806
87.5 94.39901992415513
90.0 94.40453918964847
92.5 94.28799496648077
95.0 93.99764654489312
97.5 93.54609893108098
100.0 93.02955682063713
103.0 92.51821781026398
106.0 91.99082814115785
109.0 91.53367807717403
112.0 91.16344412832261
115.0 90.89405393080243
118.0 90.73987966761942
122.0 90.67457035943865
125.0 90.58551658248113
128.0 90.52689091233127
132.0 90.36090393838651
136.0 90.12542094577914
140.0 89.89970125526825
145.0 89.57503623238792
150.0 89.28943348847473
155.0 88.87816230919316
160.0 88.42265820118723
165.0 87.99463489593433
170.0 87.75328008306342
175.0 87.56156809947592
180.0 87.29853169003073
185.0 86.85634158220975
190.0 86.2800241586523
195.0 85.65387024530261
200.0 84.94300638857929
206.0 84.33393079212476
212.0 84.11999716628067
218.0 83.93702301102431
224.0 83.69648080473952
230.0 83.70883587808542
236.0 83.5891200874732
240.0 83.18975963606395
250.0 82.67663637893004
258.0 82.14742517131346
265.0 81.72109224870343
272.0 81.74142609898858
280.0 81.70606815853895
290.0 81.62947552936005
300.0 81.36152523673799
307.0 80.97515970124422
315.0 80.68381235544295
325.0 80.85379406521778
335.0 81.1114453479747
345.0 81.42956353631239
355.0 81.41944023461939
365.0 81.36196464684905
375.0 80.88620502856305
387.0 80.13013271579312
400.0 79.61209410877183
412.0 79.10226671836064
425.0 79.02935123247136
437.0 79.25643591160171
450.0 79.36776165506198
462.0 79.74418292354899
475.0 80.05798079612322
487.0 80.41636916827636
500.0 81.22854672608352
515.0 81.65473936188721
530.0 81.96111798532148
545.0 82.23994485148691
560.0 82.9764627693203
580.0 82.773809754646
600.0 81.65243052605136
615.0 81.8298481016654
630.0 82.11787625595417
650.0 82.00470054283062
670.0 82.14099719887703
690.0 81.94885389986308
710.0 81.80932000632073
730.0 82.08084689669336
750.0 81.49901236768778
775.0 80.43807824107128
800.0 79.54422957857832
825.0 79.10924190595156
850.0 78.94656781182495
875.0 78.66573657754456
900.0 78.26840115208343
925.0 77.73732176639517
950.0 77.8549573750352
975.0 78.19476972149825
1000.0 78.14725040514811
1030.0 78.88690058100407
1060.0 78.50488463565866
1090.0 78.27278584986281
1120.0 78.78791480691032
1150.0 78.53733642696722
1180.0 78.44910865915334
1220.0 78.02424598073603
1250.0 78.3754565074408
1280.0 78.70420052310884
1320.0 79.1654028672191
1360.0 79.2209109671876
1400.0 79.22517733392364
1450.0 78.55051020608683
1500.0 78.19783790781848
1550.0 77.78570411695684
1600.0 77.47717099821915
1650.0 77.17063068405568
1700.0 76.49323628256697
1750.0 77.00509984972503
1800.0 76.26906930267911
1850.0 76.569468229988
1900.0 76.82510048601678
1950.0 77.09483368927701
2000.0 77.09953482602675
2060.0 76.70906574623007
2120.0 77.28352763043256
2180.0 77.14735638592786
2240.0 76.83357565543905
2300.0 76.19643955661596
2360.0 77.14628920713751
2400.0 76.42262279419994
2500.0 75.91762818577985
2580.0 76.25347976246277
2650.0 77.78350891855891
2720.0 79.1685633909569
2800.0 80.39423829683156
2900.0 82.00656687740364
3000.0 82.36734622624343
3070.0 82.23811459277461
3150.0 82.29038174341565
3250.0 81.60155521609563
3350.0 81.88218374666671
3450.0 80.88623991868347
3550.0 80.90508337005619
3650.0 80.00688350279042
3750.0 79.08279643029518
3870.0 79.15322059191102
4000.0 80.63795269394814
4120.0 80.66626405701373
4250.0 79.81672237514421
4370.0 78.30120694515296
4500.0 77.32486203332262
4620.0 77.19956842361945
4750.0 77.746270374796
4870.0 77.61614658061478
5000.0 77.79671144667614
5150.0 77.60647299879379
5300.0 76.89023707531918
5450.0 75.86025328176308
5600.0 78.28323742609658
5800.0 80.60369474384403
6000.0 81.02401257844546
6150.0 81.02281189335909
6300.0 77.49189184776732
6500.0 75.57738574122575
6700.0 77.30673472217246
6900.0 79.09212413983325
7100.0 80.64686113954978
7300.0 79.77910765200579
7500.0 78.41416081500275
7750.0 79.70487647109796
8000.0 80.38348512660218
8250.0 77.90559790306847
8500.0 79.44494768945299
8750.0 81.76971943203009
9000.0 81.37661353176468
9250.0 82.60607834051591
9500.0 83.11835534562518
9750.0 84.5919892054368
10000.0 86.35033194969826
10300.0 83.81293103298813
10600.0 81.46258386975377
10900.0 78.41182746348377
11200.0 76.57158256395294
11500.0 78.78408923010717
11800.0 83.17494736978223
12200.0 79.84047682776158
12500.0 81.391732415407
12800.0 81.33815524463645
13200.0 80.3049661119004
13600.0 81.8865487787809
14000.0 76.56168801350302
14500.0 80.1551027871591
15000.0 76.91653050338736
15500.0 76.47162866352429
16000.0 79.38741406408805
16500.0 76.93386203188868
17000.0 79.01524072289435
17500.0 76.40882118911821
18000.0 75.76219574776435
18500.0 73.68193034126317
19000.0 74.18056546193593
19500.0 73.02834768546792
