Freq,On Axis,Listening Window,Sound Power,Early Reflections,Early Reflections DI,Sound Power DI,DI offset
22.4,4.599999999999966,3.6206816717284482,6.57929716007132,5.6748449944332435,37.945836677295205,37.04138451165713,40
23.0,5.800000000000011,6.716399954242519,9.266426426056626,7.5213744698194205,39.1950254844231,37.44997352818589,40
23.6,6.800000000000011,10.871851382888536,13.289401142376164,11.053117849341959,39.81873353354658,37.58245024051237,40
24.0,8.400000000000006,13.611926513363983,16.736845424602166,15.108074054536615,38.50385245882737,36.87508108876182,40
25.0,9.699999999999989,15.364506573744592,18.848484132977205,17.842910269035855,37.52159630470874,36.51602244076739,40
25.8,10.5,17.000935695148627,20.859648668282546,20.342092482935755,36.65884321221287,36.14128702686608,40
26.5,11.0,17.843721356422435,21.774835566418005,21.771907603928014,36.07181375249442,36.06888579000443,40
27.2,13.400000000000006,18.162722458304017,22.342122713781265,22.345200281670714,35.817522176633304,35.82059974452275,40
28.0,15.599999999999994,19.28927518013802,24.055592287394035,23.583230088781647,35.70604509135637,35.233682892743985,40
29.0,17.5,19.99853622175749,25.53931406426807,24.255606827605874,35.742929394151616,34.45922215748942,40
30.0,19.30000000000001,19.290641966770863,24.645493067422706,22.032924012688966,37.2577179540819,34.64514889934816,40
30.7,21.400000000000006,19.832958328901583,23.31193529000592,20.9814657170551,38.85149261184648,36.52102303889566,40
31.5,23.30000000000001,21.32204426386147,23.820488871210244,21.98248152184385,39.33956274201762,37.50155539265123,40
32.5,25.099999999999994,23.526391774995773,25.28975691674438,23.984377983308406,39.54201379168737,38.23663485825139,40
33.5,27.599999999999994,26.44054695178852,28.01170467829948,27.063366819895748,39.37718013189277,38.42884227348904,40
34.5,30.099999999999994,29.11707856913742,30.731335382332276,30.10705213355672,39.0100264355807,38.38574318680514,40
35.5,32.30000000000001,31.616322026002933,33.42923508544433,33.09329093745123,38.523031088551704,38.1870869405586,40
36.5,34.0,34.54865457962032,34.74743163664135,34.53209362276402,40.016560956856296,39.80122294297897,40
37.5,35.599999999999994,37.77556325829309,36.652636131880854,36.47970435705838,41.29585890123471,41.122927126412236,40
38.7,37.30000000000001,40.46242083987579,38.571804505403065,38.529555219561246,41.932865620314544,41.890616334472725,40
40.0,39.400000000000006,40.984047856684214,40.0168851213956,39.94223678866675,41.041811068017466,40.96716273528861,40
41.2,41.30000000000001,41.69801721672849,41.727022932266095,41.56714324476957,40.13087397195892,39.97099428446239,40
42.5,43.19999999999999,43.37421070313354,43.68725015550589,43.60746623899999,39.76674446413355,39.68696054762765,40
43.7,45.0,45.4846696110134,45.44487142903529,45.61158250998204,39.87308710103136,40.039798181978114,40
45.0,46.5,47.10462195315975,46.38223613931805,46.86867135252291,40.23595060063684,40.7223858138417,40
46.2,48.0,48.12659374871936,47.266115296732266,47.757434295885076,40.36915945283428,40.86047845198709,40
47.5,49.400000000000006,49.37623450770721,48.57646728320469,49.01236308968845,40.36387141801876,40.79976722450252,40
48.7,51.5,50.73415771525944,50.72276066466179,50.91908077738981,39.815076937869634,40.01139705059765,40
50.0,53.30000000000001,52.67447480231911,53.090153743357064,53.368456658241655,39.306018144077456,39.58432105896205,40
51.5,55.0,54.643229595587286,53.51269266949063,54.44113709534298,40.202092500244305,41.13053692609665,40
53.0,56.80000000000001,56.65175907215007,54.62934597028834,55.88659874065186,40.76516033149821,42.02241310186173,40
54.5,58.8,58.598773718309175,56.63901367511869,57.76610622995473,40.832667488354446,41.959760043190485,40
56.0,60.599999999999994,60.27810129413878,58.437955369066856,59.47644427066831,40.80165702347047,41.84014592507192,40
58.0,62.5,61.93685379698691,60.260977785197596,61.18577451352256,40.75107928346435,41.67587601178931,40
60.0,64.2,63.5845711906846,62.01194371659429,62.86255398527891,40.72201720540569,41.57262747409031,40
61.5,65.70000000000002,65.26531731120939,63.78613727183725,64.51219667927371,40.75312063193567,41.47918003937214,40
63.0,67.1,66.65761257628034,65.36607435457067,65.99181372170169,40.665798854578654,41.29153822170967,40
65.0,68.5,67.98919889892923,66.8453091568527,67.3826402697173,40.60655862921193,41.14388974207654,40
67.0,69.9,69.37862419766095,68.33013031850757,68.81591672009843,40.562707477562526,41.04849387915338,40
69.0,71.2,70.78442642706824,69.87530249170308,70.28550676759797,40.498919659470275,40.90912393536516,40
71.0,72.4,72.14830263372168,71.46989482028681,71.75865344490218,40.389649188819504,40.67840781343487,40
73.0,73.6,73.41250722304115,72.99739489588958,73.15639537773953,40.25611184530162,40.41511232715156,40
75.0,74.69999999999999,74.62267658830112,74.36936586435976,74.45873711799686,40.16393947030426,40.253310723941354,40
77.5,75.70000000000002,75.77923822776587,75.58138901132031,75.6527386009344,40.126499626831475,40.19784921644556,40
80.0,76.6,76.79201534401943,76.72423498701444,76.74152408673882,40.05049125728061,40.06778035700499,40
82.5,77.5,77.69201534401942,77.65856146809851,77.65838533430608,40.03363000971335,40.03345387592091,40
85.0,78.29999999999998,78.44673731891646,78.4499018814837,78.4372097538112,40.00952756510526,39.996835437432765,40
87.5,79.0,79.15710245463163,79.13878739711794,79.11872499693942,40.03837745769221,40.01831505751369,40
90.0,79.6,79.72444076736491,79.74518802611283,79.71576412886704,40.008676638497874,39.97925274125208,40
92.5,80.2,80.26792963490004,80.30113037727999,80.27635749075058,39.99157214414946,39.96679925762005,40
95.0,80.6,80.66717965375996,80.67585487281298,80.66846791982248,39.99871173393748,39.99132478094698,40
97.5,81.0,81.01122549985843,80.86538166703197,80.94461600812151,40.06660949173691,40.14584383282646,40
100.0,81.4,81.3005116780405,80.98738216484779,81.16828349500067,40.13222818303983,40.313129513192706,40
103.0,81.6,81.53358982687996,81.06856801381315,81.33371178807334,40.19987803880662,40.46502181306681,40
106.0,81.80000000000001,81.76717965375995,81.14618157403095,81.48704155614027,40.280138097619684,40.620998079729006,40
109.0,81.9,81.87849019712911,81.16713663114196,81.56267930954223,40.31581088758688,40.71135356598715,40
112.0,81.9,81.92293110248063,81.11932040419019,81.5678043895286,40.35512671295203,40.80361069829044,40
115.0,81.9,81.90051167804047,80.98090564975477,81.47542436902984,40.425087309010635,40.9196060282857,40
118.0,81.9,81.88925841531062,80.87696907934415,81.38909990613992,40.5001585091707,41.01228933596647,40
122.0,81.80000000000001,81.78925841531063,80.84227317389679,81.32202342710394,40.467234988206684,40.94698524141384,40
125.0,81.7,81.65583957685777,80.73310051254897,81.17817455469279,40.477665022164985,40.9227390643088,40
128.0,81.5,81.48925841531062,80.62077121667673,81.0406285658574,40.44862984945321,40.868487198633886,40
132.0,81.4,81.3343573213356,80.48324853897138,80.87066200490784,40.46369531642776,40.85110878236422,40
136.0,81.2,81.13435732133559,80.29725038169342,80.68323200261497,40.451125318720614,40.83710693964217,40
140.0,81.0,80.9902725709036,80.10733974066984,80.49429207072353,40.49598050018007,40.882932830233756,40
145.0,80.9,80.8015232095018,79.86293699790399,80.28604558625511,40.51547762324668,40.93858621159781,40
150.0,80.70000000000002,80.62419779300915,79.54767030828403,80.03762797831013,40.58656981469902,41.07652748472512,40
155.0,80.6,80.4356206840857,79.22836395906657,79.7800408319962,40.6555798520895,41.207256725019136,40
160.0,80.4,80.26971018796762,78.95966455566852,79.56996741480114,40.69974277316648,41.310045632299094,40
165.0,80.3,80.11476245148909,78.73014762954197,79.36538379133151,40.749378660157575,41.38461482194711,40
170.0,80.2,79.99281329520846,78.57938290796008,79.22469043261471,40.768122862593756,41.41343038724838,40
175.0,80.2,79.90458656127426,78.45967176407298,79.09625711144679,40.80832944982747,41.44491479720128,40
180.0,80.1,79.7840577188125,78.3904562377756,78.98963184235815,40.794425876454355,41.39360148103691,40
185.0,80.0,79.7722285934395,78.42364250832736,78.97051366588495,40.80171492755454,41.34858608511213,40
190.0,80.1,79.76390198076044,78.36493589620876,78.91459336114397,40.849308619616465,41.398966084551674,40
195.0,80.1,79.75757084625329,78.00669729204313,78.74689623136064,41.01067461489265,41.75087355421016,40
200.0,80.2,79.83427899178497,77.7113338996246,78.6633765458086,41.17090244597637,42.122945092160364,40
206.0,80.3,79.86202399355362,77.33148767121065,78.53034170051288,41.33168229304074,42.53053632234297,40
212.0,80.4,80.014810053683,77.00040271321176,78.54093123474627,41.473878818936726,43.01440734047124,40
218.0,80.5,80.21031457573001,76.99171082805837,78.65739304871046,41.55292152701955,43.21860374767164,40
224.0,80.6,80.29073766770674,76.93253412192443,78.70173285140098,41.58900481630576,43.3582035457823,40
230.0,80.70000000000002,80.2812828892149,76.8602848640038,78.64243690521931,41.638845983995594,43.420998025211105,40
236.0,80.79999999999998,80.3387560737912,76.78154030721532,78.58596872213622,41.75278735165499,43.55721576657588,40
240.0,80.79999999999998,80.30774509139638,76.53716321470739,78.4703153790459,41.837429712350485,43.77058187668899,40
250.0,80.79999999999998,80.36202399355363,76.41783019974213,78.48998501115798,41.87203898239565,43.94419379381151,40
258.0,80.70000000000002,80.36917009623946,76.46749097035813,78.59347444747893,41.77569564876053,43.90167912588133,40
265.0,80.70000000000002,80.41031457573003,76.69259601630141,78.76299541860273,41.6473191571273,43.71771855942862,40
272.0,80.70000000000002,80.4520177531097,77.01236940521117,78.93915051323106,41.512867239878645,43.439648347898526,40
280.0,80.6,80.42950058540896,77.1771758412775,78.98987337664578,41.439627208763184,43.25232474413146,40
290.0,80.6,80.39612911775549,77.25793318871125,78.99830333840156,41.39782577935394,43.138195929044244,40
300.0,80.5,80.2961291177555,77.22077590686206,78.92915582487545,41.36697329288005,43.07535321089344,40
307.0,80.4,80.23843067534284,77.11000872198875,78.82064027713933,41.41779039820351,43.12842195335409,40
315.0,80.3,80.07276168478319,76.9370250993922,78.62819335410639,41.4445683306768,43.13573658539099,40
325.0,80.2,79.89585471202551,76.7503778883856,78.43186515220106,41.463989559824455,43.14547682363991,40
335.0,80.0,79.7727616847832,76.53475869769079,78.25814317869725,41.51461850608595,43.238002987092415,40
345.0,80.0,79.66443609510353,76.19622908822767,77.98120719306827,41.68322890203525,43.46820700687586,40
355.0,80.0,79.61085532090084,75.84234887699722,77.79303672448914,41.8178185964117,43.76850644390362,40
365.0,80.0,79.69882484139399,75.67975107361751,77.77777126172751,41.92105357966648,44.019073767776476,40
375.0,80.1,79.78703592431401,75.6404052925551,77.83999197878293,41.94704394553108,44.14663063175891,40
387.0,80.2,79.83271371089442,75.50027494944993,77.81677022813537,42.015943482759056,44.33243876144449,40
400.0,80.1,79.76735356144408,75.14160942368477,77.58311809177312,42.184235469670966,44.62574413775931,40
412.0,80.0,79.61480383444817,74.71407385658591,77.28071369818545,42.334090136262716,44.900729977862255,40
425.0,79.9,79.49569334231867,74.40043538118417,77.08759162722296,42.40810171509571,45.09525796113451,40
437.0,79.8,79.40773248756605,74.2247105818846,76.95871640019374,42.449016087372314,45.18302190568146,40
450.0,79.8,79.46788725149142,74.35193060014373,77.06726013489357,42.400627116597846,45.11595665134769,40
462.0,79.8,79.60682938470806,74.70024036740567,77.3175799816238,42.28924940308427,44.906589017302394,40
475.0,80.0,79.87022558355184,75.16537457214837,77.6762000212514,42.19402556230044,44.70485101140348,40
487.0,80.2,80.1601853966559,75.83349081306824,78.17371127119182,41.986474125464085,44.32669458358767,40
500.0,80.4,80.3498276250444,76.03222525388875,78.32825511381752,42.02157251122688,44.317602371155644,40
515.0,80.6,80.3976540893682,75.74410053715133,78.08344384720556,42.314210242162645,44.65355355221688,40
530.0,80.6,80.39972813111787,75.66141151610759,77.99509055465762,42.404637576460246,44.73831661501028,40
545.0,80.5,80.25047535844521,75.23551120732161,77.6241317589159,42.62634359952932,45.01496415112361,40
560.0,80.3,79.97712315773445,74.55859345617066,77.14532152713201,42.83180163060244,45.4185297015638,40
580.0,80.0,79.58340271594236,74.01383867282097,76.64315647420608,42.940246241736276,45.56956404312139,40
600.0,79.8,79.34985593274811,73.9561603981416,76.38120857739003,42.96864735535809,45.39369553460651,40
615.0,79.69999999999999,79.21657424250368,74.15026415408774,76.37591091063081,42.840663331872875,45.066310088415946,40
630.0,79.69999999999999,79.11209189461965,74.11752797597731,76.43991972224518,42.672172172374474,44.99456391864234,40
650.0,79.8,79.29949720476382,74.12857265756098,76.45425305464516,42.84524415011866,45.170924547202844,40
670.0,80.0,79.54577895427093,74.24291873226413,76.68898100048604,42.85679795378489,45.3028602220068,40
690.0,80.2,79.76008348997615,74.45093756522502,76.96720007912606,42.792883410850095,45.309145924751135,40
710.0,80.3,79.90959823413883,74.68605205764744,77.29031198145022,42.61928625268861,45.22354617649138,40
730.0,80.2,79.84978925845118,74.59698370979959,77.33793261357991,42.51185664487127,45.252805548651594,40
750.0,80.1,79.71395479539416,74.31565663253997,77.20825952244097,42.50569527295319,45.39829816285419,40
775.0,80.0,79.66481132188446,74.20821672847453,77.16368426983294,42.501127052051515,45.45659459340993,40
800.0,80.2,79.9748112642048,74.50074763335815,77.44357813888237,42.53123312532243,45.47406363084666,40
825.0,80.6,80.13680802581766,74.59595344240857,77.66767100327996,42.469137022537694,45.540854583409086,40
850.0,81.0,80.41850124831394,74.92899315862078,77.99274809482009,42.42575315349386,45.48950808969316,40
875.0,81.4,80.83104102550861,75.63470474238986,78.73714875308508,42.09389227242353,45.196336283118754,40
900.0,81.6,81.05688913074341,75.73879655905367,79.02594071838362,42.03094841235979,45.318092571689746,40
925.0,81.7,81.16940948591169,75.73852231119596,79.01223759333519,42.1571718925765,45.43088717471572,40
950.0,81.6,81.0813612639383,75.6561993656083,78.95324335036466,42.12811791357365,45.42516189833,40
975.0,81.4,80.98651618595521,75.75351270318487,79.34753530557842,41.63898088037679,45.23300348277034,40
1000.0,81.2,80.59360770559624,75.06435272987032,78.81028756645034,41.7833201391459,45.52925497572592,40
1030.0,81.0,80.4018228716247,74.69656976739336,78.45699807574897,41.94482479587573,45.705253104231346,40
1060.0,80.70000000000002,80.12778742212073,74.2197574812597,77.97963241863125,42.14815500348948,45.90802994086103,40
1090.0,80.2,79.49946261044165,73.36344363493276,77.24037311899647,42.25908949144518,46.13601897550889,40
1120.0,79.9,79.21605812732605,73.05027835572982,76.87456694755406,42.34149117977199,46.165779771596235,40
1150.0,79.6,79.20883151326305,73.1147528608778,76.86367778601746,42.34515372724559,46.09407865238525,40
1180.0,79.8,79.54792391627426,73.79848939459147,77.42015433811365,42.12776957816061,45.74943452168279,40
1220.0,80.2,79.9648651337463,74.49268909752054,77.93522207313676,42.029643060609544,45.47217603622576,40
1250.0,80.5,80.08277685821393,74.66010230604425,78.0543142305963,42.02846262761763,45.42267455216968,40
1280.0,80.6,80.17787329789317,74.9813611766603,78.34910393909124,41.828769358801935,45.19651212123287,40
1320.0,80.3,80.1008713825735,74.93975650071732,78.27186213167516,41.82900925089834,45.16111488185618,40
1360.0,80.2,79.85996967625798,74.37904091005578,77.72976475497028,42.1302049212877,45.4809287662022,40
1400.0,80.3,79.67858200920642,73.47142664961478,77.06010398522938,42.61847802397705,46.20715535959164,40
1450.0,80.3,79.62747116791692,72.80763438785607,76.7694559561245,42.85801521179242,46.819836780060854,40
1500.0,80.2,79.35869038114373,71.98943017897679,76.24233520459322,43.11635517655051,47.36926020216694,40
1550.0,80.0,79.25528233479537,71.62662105503139,75.92971009509836,43.32557223969701,47.628661279763975,40
1600.0,79.8,79.05016405349116,71.21679139069363,75.34264573442618,43.707518319064974,47.83337266279753,40
1650.0,79.6,78.7267790616855,70.82298396822696,74.70715015775534,44.01962890393017,47.90379509345854,40
1700.0,79.6,78.69036843584848,70.78861607775649,74.54579662029573,44.14457181555275,47.901752358092,40
1750.0,79.6,78.74874745558822,70.5741883977731,74.26746304349297,44.48128441209525,48.17455905781512,40
1800.0,79.8,78.986800762986,70.67284915746743,74.27840772317205,44.70839303981394,48.31395160551857,40
1850.0,79.9,78.8898408124967,70.32890883060357,73.90892348724108,44.98091732525562,48.560931981893134,40
1900.0,80.0,79.07635704844292,70.7311316664939,74.12478501906098,44.951572029381936,48.34522538194902,40
1950.0,80.1,79.0366308266056,71.12746281115875,74.49157039913405,44.545060427471554,47.90916801544685,40
2000.0,80.1,78.992432610847,71.24604797485117,74.78097697085137,44.211455639995634,47.74638463599584,40
2060.0,80.0,78.74133443570973,70.68440154941422,74.50141922048951,44.23991521522022,48.05693288629551,40
2120.0,79.8,78.6341976929373,71.04017507808038,74.59043472424757,44.043762968689734,47.594022614856925,40
2180.0,78.8,77.4386625087168,70.99038649786975,74.11547010672987,43.32319240198693,46.44827601084705,40
2240.0,77.8,76.48205242811304,69.92435274639018,73.06109432344135,43.42095810467168,46.55769968172285,40
2300.0,77.5,75.83727224743004,68.88158887442506,72.27046140379898,43.56681084363106,46.95568337300497,40
2360.0,78.1,76.34000266580875,69.59984632305867,73.00484776027596,43.33515490553279,46.74015634275008,40
2400.0,79.2,77.30339049127065,69.98463769154225,73.70568646868418,43.59770402258647,47.3187527997284,40
2500.0,80.0,77.98324392542702,70.88810264326904,74.732780391512,43.250463533915024,47.09514128215798,40
2580.0,80.5,78.58717044255692,71.73065493624415,75.28857929216595,43.298591150390976,46.856515506312775,40
2650.0,80.4,78.93017036756825,72.09568207305678,75.70380969435342,43.22636067321483,46.83448829451147,40
2720.0,80.4,79.32194066262704,72.4322964422431,76.12198922324473,43.19995143938232,46.88964422038394,40
2800.0,80.4,79.43193328582126,72.09178517219831,75.86270316940964,43.56923011641162,47.340148113622945,40
2900.0,80.2,79.05994661384388,71.69335619703321,75.55470414664586,43.505242467198016,47.366590416810666,40
3000.0,80.3,78.9304272808871,71.58819385376962,75.55202048817054,43.37840679271656,47.34223342711748,40
3070.0,80.79999999999998,79.34728279228044,72.08270707442321,76.0928836855632,43.254399106717244,47.26457571785723,40
3150.0,81.2,79.89930822518193,72.61209255364864,76.82733873502782,43.0719694901541,47.28721567153329,40
3250.0,81.1,80.07653092971599,73.00595536038183,77.08659813396145,42.98993279575454,47.07057556933415,40
3350.0,81.1,80.47851555779899,73.31313330670054,77.53710501605897,42.94141054174001,47.16538225109845,40
3450.0,81.1,80.41853011065824,72.95828262349193,77.26621857258334,43.1523115380749,47.46024748716631,40
3550.0,81.5,80.80265145088536,73.11805173254281,77.36062629288183,43.44202515800353,47.684599718342554,40
3650.0,81.7,80.75499781203081,72.7515436061741,77.07378544769114,43.68121236433967,48.00345420585671,40
3750.0,81.7,80.45520272868697,72.03872499297546,76.5646302645888,43.89057246409817,48.41647773571151,40
3870.0,81.6,79.92917672308039,71.2720217829101,75.92189683707464,44.00727988600575,48.65715494017029,40
4000.0,81.4,79.51735705107998,70.84561827712585,75.29066689839232,44.22669015268767,48.67173877395413,40
4120.0,80.4,78.81756718905625,70.12192440099307,74.59072303198968,44.226844157066566,48.69564278806318,40
4250.0,79.9,78.63034376079763,70.10601860585692,74.50468993879784,44.12565382199979,48.52432515494071,40
4370.0,80.0,78.81125071510252,70.1715877313045,74.34478234664032,44.4664683684622,48.63966298379802,40
4500.0,80.5,78.95412505783933,69.95382979608753,74.2424564754135,44.71166858242583,49.0002952617518,40
