Freq "Sound Power"
22.4 7.028664248678922
23.0 9.715793514664227
23.6 13.738768230983766
24.0 17.186212513209767
25.0 19.297851221584807
25.8 21.309015756890147
26.5 22.224202655025607
27.2 22.791489802388867
28.0 24.504959376001636
29.0 25.98868115287567
30.0 25.094860156030308
30.7 23.76130237861352
31.5 24.269855959817846
32.5 25.739124005351982
33.5 28.461071766907082
34.5 31.180702470939877
35.5 33.878602174051935
36.5 35.196798725248954
37.5 37.102003220488456
38.7 39.02117159401067
40.0 40.466252210003205
41.2 42.1763900208737
42.5 44.136617244113495
43.7 45.89423851764289
45.0 46.831603227925655
46.2 47.71548238533987
47.5 49.025834371812294
48.7 51.17212775326939
50.0 53.539520831964666
51.5 53.962059758098235
53.0 55.07871305889594
54.5 57.08838076372629
56.0 58.88732245767446
58.0 60.7103448738052
60.0 62.46131080520189
61.5 64.23550436044485
63.0 65.81544144317827
65.0 67.2946762454603
67.0 68.77949740711517
69.0 70.32466958031068
71.0 71.91926190889441
73.0 73.44676198449719
75.0 74.81873295296737
77.5 76.03075609992791
80.0 77.17360207562204
82.5 78.10792855670611
85.0 78.8992689700913
87.5 79.58815448572554
90.0 80.19455511472043
92.5 80.75049746588759
95.0 81.12522196142058
97.5 81.31474875563957
100.0 81.43674925345539
103.0 81.51793510242075
106.0 81.59554866263855
109.0 81.61650371974956
112.0 81.56868749279779
115.0 81.43027273836238
118.0 81.32633616795175
122.0 81.29164026250439
125.0 81.18246760115657
128.0 81.07013830528433
132.0 80.93261562757898
136.0 80.74661747030102
140.0 80.55670682927745
145.0 80.31230408651159
150.0 79.99703739689163
155.0 79.67773104767417
160.0 79.40903164427613
165.0 79.17951471814958
170.0 79.02874999656768
175.0 78.90903885268058
180.0 78.8398233263832
185.0 78.87300959693496
190.0 78.81430298481636
195.0 78.45606438065073
200.0 78.16070098823221
206.0 77.78085475981825
212.0 77.44976980181936
218.0 77.44107791666598
224.0 77.38190121053204
230.0 77.3096519526114
236.0 77.23090739582292
240.0 76.98653030331499
250.0 76.86719728834973
258.0 76.91685805896573
265.0 77.14196310490901
272.0 77.46173649381878
280.0 77.6265429298851
290.0 77.70730027731885
300.0 77.67014299546966
307.0 77.55937581059635
315.0 77.3863921879998
325.0 77.1997449769932
335.0 76.98412578629839
345.0 76.64559617683527
355.0 76.29171596560482
365.0 76.12911816222511
375.0 76.0897723811627
387.0 75.94964203805753
400.0 75.59097651229237
412.0 75.16344094519351
425.0 74.84980246979177
437.0 74.6740776704922
450.0 74.80129768875133
462.0 75.14960745601327
475.0 75.61474166075597
487.0 76.28285790167584
500.0 76.48159234249636
515.0 76.19346762575893
530.0 76.1107786047152
545.0 75.68487829592921
560.0 75.00796054477826
580.0 74.46320576142857
600.0 74.40552748674921
615.0 74.59963124269534
630.0 74.56689506458491
650.0 74.57793974616858
670.0 74.69228582087173
690.0 74.90030465383262
710.0 75.13541914625505
730.0 75.04635079840719
750.0 74.76502372114757
775.0 74.65758381708213
800.0 74.95011472196575
825.0 75.04532053101617
850.0 75.37836024722839
875.0 76.08407183099746
900.0 76.18816364766127
925.0 76.18788939980357
950.0 76.1055664542159
975.0 76.20287979179247
1000.0 75.51371981847792
1030.0 75.14593685600096
1060.0 74.66912456986731
1090.0 73.81281072354037
1120.0 73.49964544433742
1150.0 73.5641199494854
1180.0 74.24785648319907
1220.0 74.94205618612814
1250.0 75.10946939465185
1280.0 75.4307282652679
1320.0 75.38912358932492
1360.0 74.82840799866338
1400.0 73.92079373822239
1450.0 73.25700147646367
1500.0 72.43879726758439
1550.0 72.075988143639
1600.0 71.66615847930123
1650.0 71.27235105683457
1700.0 71.23798316636409
1750.0 71.0235554863807
1800.0 71.12221624607503
1850.0 70.77827591921117
1900.0 71.1804987551015
1950.0 71.57682989976635
2000.0 71.69541506345877
2060.0 71.13376863802182
2120.0 71.48954216668798
2180.0 71.43975358647735
2240.0 70.37371983499779
2300.0 69.33095596303266
2360.0 70.04921341166627
2400.0 70.43400478014985
2500.0 71.33746973187664
2580.0 72.18002202485175
2650.0 72.54504916166438
2720.0 72.8816635308507
2800.0 72.54115226080592
2900.0 72.14272328564081
3000.0 72.03756094237723
3070.0 72.53207416303081
3150.0 73.06145964225624
3250.0 73.45532244898943
3350.0 73.76250039530814
3450.0 73.40764971209953
3550.0 73.56741882115041
3650.0 73.2009106947817
3750.0 72.48809208158306
3870.0 71.7213888715177
4000.0 71.29498536573345
4120.0 70.57129148960067
4250.0 70.55538569446452
4370.0 70.6209548199121
4500.0 70.40319688469513
4620.0 70.03583580829864
4750.0 69.47550800693561
4870.0 68.96123728647324
5000.0 69.38167292484214
5150.0 70.17191116407557
5300.0 70.38669164011897
5450.0 70.9241561884946
5600.0 70.98293072213825
5800.0 71.84326925087262
6000.0 72.19127698496662
6150.0 72.15318277179881
6300.0 72.3582422799563
6500.0 72.22211661819257
6700.0 72.30442790955152
6900.0 72.44155736673272
7100.0 72.69095926715691
7300.0 72.15288057651267
7500.0 71.5195096220023
7750.0 71.53128570686317
8000.0 72.5293453334769
8250.0 73.61340602463268
8500.0 73.79064545241546
8750.0 73.65566627651147
9000.0 73.17555522131191
9250.0 72.96359553789804
9500.0 72.4821730039199
9750.0 72.72272948539522
10000.0 73.32776944008974
10300.0 73.12916404775245
10600.0 71.61370704443985
10900.0 72.76899782705054
11200.0 71.4934730186693
11500.0 69.71946203955562
11800.0 71.65131802178976
12200.0 71.96534526707576
12500.0 72.05212266000657
12800.0 72.43734981002194
13200.0 76.09458894456888
13600.0 74.74876802580908
14000.0 72.15791474400643
14500.0 69.34530931869548
15000.0 68.06083581648065
15500.0 71.01007139659411
16000.0 71.1754275647921
16500.0 69.8311293461246
17000.0 67.94872806278907
17500.0 65.20025759076995
18000.0 67.90256939706096
18500.0 63.84079473850832
19000.0 59.444148695723044
19500.0 56.59297554438706
