Freq "Listening Window"
22.4 32.79438045288282
23.0 33.954276014535
23.6 35.02222783456972
24.0 36.69487034778342
25.0 38.48952972185546
25.8 40.15043469939789
26.5 41.930690883505974
27.2 43.48997634938107
28.0 45.31125039390335
29.0 46.98602506784263
30.0 48.798899039474264
30.7 50.36152839942636
31.5 51.84359639270804
32.5 53.155690374849485
33.5 54.30186089884651
34.5 55.50564485548729
35.5 56.67761810321562
36.5 57.86993813743052
37.5 58.67908307246478
38.7 59.36758876525607
40.0 60.04404184143408
41.2 60.730512491296906
42.5 61.25990365112533
43.7 61.62395507181003
45.0 62.04600095967629
46.2 61.92267658830113
47.5 61.45609803813525
48.7 60.844728950577206
50.0 60.513504485190055
51.5 60.99853511575445
53.0 62.30596116827452
54.5 63.80596116827452
56.0 65.14730933323382
58.0 66.17817969409919
60.0 66.89701561185842
61.5 67.42896899610881
63.0 68.03890869218829
65.0 68.51551626386177
67.0 68.89503370089504
69.0 69.36113715512494
71.0 69.82792238175078
73.0 70.3065334562127
75.0 70.90601653584467
77.5 71.71748728459686
80.0 72.40552282328379
82.5 73.06011590151276
85.0 73.58125995325793
87.5 73.84725531053347
90.0 73.91350448519005
92.5 73.88125995325792
95.0 73.98125995325793
97.5 74.52672547625463
100.0 75.32646526095338
103.0 75.89306453833001
106.0 76.20456950210607
109.0 76.40456950210606
112.0 76.67021425291199
115.0 76.74803231942658
118.0 76.5820488586608
122.0 76.53893259943028
125.0 76.86116094031561
128.0 77.23893259943029
132.0 77.28353890565661
136.0 77.26116094031562
140.0 77.33893259943028
145.0 77.33893259943028
150.0 77.10562799119043
155.0 76.79561174474625
160.0 76.63057239068971
165.0 76.54224387634419
170.0 76.58816620393696
175.0 76.85388407941271
180.0 77.04393915724128
185.0 76.9193968510661
190.0 76.59798248855384
195.0 76.487948573155
200.0 76.47717124809232
206.0 76.42117436204968
212.0 76.36800816283295
218.0 76.71142138491551
224.0 76.85667025191131
230.0 76.92617184539738
236.0 77.24706357326585
240.0 77.37603622074425
250.0 77.02211415424239
258.0 77.16800816283295
265.0 77.39061946442727
272.0 77.60239867117966
280.0 77.64520603684008
290.0 77.56640580814414
300.0 77.57825078238182
307.0 77.63324019240825
315.0 77.51228170028307
325.0 77.49380940000941
335.0 77.43075526926751
345.0 76.93005515011032
355.0 76.00532035050932
365.0 76.6216629709574
375.0 77.41504414533458
387.0 78.01504414533458
400.0 78.37134700997301
412.0 78.57674927100751
425.0 79.07846667139813
437.0 79.18632492804936
450.0 79.51939149721863
462.0 79.64134512284386
475.0 79.5012863144598
487.0 79.51138045431239
500.0 79.5750347971801
515.0 79.30372972982444
530.0 79.10372972982444
545.0 78.59513444077024
560.0 78.25556369032697
580.0 79.23022534947697
600.0 79.21063487962242
615.0 78.83290459866127
630.0 78.8996576123004
650.0 79.92757542603489
670.0 80.31547965900214
690.0 78.48434366872807
710.0 78.0615978282052
730.0 77.6838986369595
750.0 77.48270675758809
775.0 76.9094950078728
800.0 77.0444590233338
825.0 77.56343219518575
850.0 77.54900475092379
875.0 77.63194311384089
900.0 78.08849048912093
925.0 78.62281593107863
950.0 78.70062012458524
975.0 78.39157336677188
1000.0 78.18204916317389
1030.0 78.39558283123779
1060.0 79.23087111278895
1090.0 79.49312848528432
1120.0 78.79646710219643
1150.0 78.14736340419908
1180.0 78.9158019471068
1220.0 80.14740376081757
1250.0 79.79081727129875
1280.0 79.3299877790747
1320.0 79.61426994898484
1360.0 80.13337977797728
1400.0 80.28292526934163
1450.0 78.86763664874502
1500.0 78.93349872324971
1550.0 79.5377630155769
1600.0 79.84339242599194
1650.0 79.1853799760113
1700.0 79.02560788942733
1750.0 79.08280433337347
1800.0 79.3147161847254
1850.0 79.15152798156701
1900.0 78.20521338918928
1950.0 78.57426314014947
2000.0 78.92794939312556
2060.0 78.88778237639427
2120.0 79.13426897839611
2180.0 78.92205702704895
2240.0 78.6679122807677
2300.0 78.7747612036308
2360.0 78.77824130357752
2400.0 77.75234154047686
2500.0 76.94771970026684
2580.0 77.05186195983937
2650.0 77.13664868691728
2720.0 76.93215807011839
2800.0 76.97163814132483
2900.0 77.51427056547153
3000.0 77.14710443508774
3070.0 76.76033190507587
3150.0 76.81665524423663
3250.0 77.01878836473104
3350.0 77.13906954583271
3450.0 77.63399319929802
3550.0 78.5181961880603
3650.0 78.69682717206109
3750.0 78.86676454477166
3870.0 78.45714271180024
4000.0 78.17473809954853
4120.0 77.41436393092553
4250.0 77.15954100045873
4370.0 77.65549955778886
4500.0 77.56492487318435
4620.0 77.26300561795762
4750.0 76.86859484735123
4870.0 77.76529342057239
5000.0 78.39105540221614
5150.0 78.87672830647868
5300.0 78.92309321203385
5450.0 78.7250934126844
5600.0 78.12048604546379
5800.0 77.59033366019344
6000.0 77.22039204702146
6150.0 75.82139143464141
6300.0 76.2751974265151
6500.0 78.01268416219241
6700.0 78.96945852081272
6900.0 79.16637370778403
7100.0 78.48214038659836
7300.0 76.72267433414567
7500.0 75.98626420069508
7750.0 76.91793420466439
8000.0 77.72663920584225
8250.0 77.04955781248604
8500.0 76.68876979539401
8750.0 77.61096535732021
9000.0 77.08620150829682
9250.0 76.69565646187243
9500.0 77.62962900450599
9750.0 79.87023312155927
10000.0 79.1798447627858
10300.0 78.34487069286772
10600.0 77.82902045749732
10900.0 77.01742769152446
11200.0 78.90606092370874
11500.0 78.82582136728189
11800.0 78.84508323126273
12200.0 78.94075068452173
12500.0 78.49322654039196
12800.0 78.80264854900193
13200.0 79.12008883627847
13600.0 80.47770429721453
14000.0 76.53740787789025
14500.0 78.50887357272757
15000.0 79.72329779942157
15500.0 79.1296452593117
16000.0 75.54114534153314
16500.0 76.63383596069423
17000.0 74.92673747638959
17500.0 77.57300504450782
18000.0 79.95267161580666
18500.0 77.30586950559714
19000.0 79.7671043870433
19500.0 77.38614811926698
