Freq "Early Reflections"
22.4 18.533361011211483
23.0 20.079743840688124
23.6 21.77888397852898
24.0 24.488317771563104
25.0 27.000852460861907
25.8 29.628366143098518
26.5 33.5103925785905
27.2 36.52354536550568
28.0 38.28551849191986
29.0 40.3923639118707
30.0 45.42467455630215
30.7 44.52377966881495
31.5 44.43116248912854
32.5 44.5420079832641
33.5 46.39734416776953
34.5 48.48369243099002
35.5 50.59018420439638
36.5 53.017243082149875
37.5 55.058605835998165
38.7 56.41312863671145
40.0 57.063946902346004
41.2 57.9168875297366
42.5 58.75906397007928
43.7 60.07845230922008
45.0 61.775227617392446
46.2 62.33611616263116
47.5 63.48132784457219
48.7 65.30252348973174
50.0 67.14825469173086
51.5 67.45219848509448
53.0 68.54721333145618
54.5 69.38181295620394
56.0 70.21534726321809
58.0 71.01418101226743
60.0 71.80325252668935
61.5 72.5241464317261
63.0 73.27548156344963
65.0 73.98464990338717
67.0 74.55831161644002
69.0 75.04604283547557
71.0 75.4722754028346
73.0 75.84237959234729
75.0 76.17706618760822
77.5 76.49074574406283
80.0 76.74954376877868
82.5 76.97658305902965
85.0 77.14285288021219
87.5 77.2671769822156
90.0 77.42314574772526
92.5 77.52274717183784
95.0 77.59675845240102
97.5 77.66095647036896
100.0 77.67073140660099
103.0 77.6971603237453
106.0 77.71945772386945
109.0 77.71072899965556
112.0 77.6976471583104
115.0 77.62879795569296
118.0 77.54638245914765
122.0 77.42949953331832
125.0 77.3253202593841
128.0 77.21381089123126
132.0 77.16094784739839
136.0 77.01243551089786
140.0 76.86378368581863
145.0 76.71892549445806
150.0 76.50913187490022
155.0 76.35389446191913
160.0 76.22778418630047
165.0 76.11653489137159
170.0 76.02104658894986
175.0 75.96393577226655
180.0 75.87639634905246
185.0 75.8158336986993
190.0 75.72004012606916
195.0 75.53159623128191
200.0 75.29431464275481
206.0 75.08374354978687
212.0 74.86762746400159
218.0 74.70878734540152
224.0 74.65309781783075
230.0 74.66393053383773
236.0 74.51486850114834
240.0 74.28653969618848
250.0 74.21252580222719
258.0 74.30031968639646
265.0 74.71518932534012
272.0 74.36699176103996
280.0 74.17581865762348
290.0 74.13563698431197
300.0 74.33815867007199
307.0 74.91926207196474
315.0 75.1784256311218
325.0 75.32459033172654
335.0 75.31929954616781
345.0 74.98167385836781
355.0 74.41770204038538
365.0 73.8311679862425
375.0 73.42340987756286
387.0 73.18011297284089
400.0 72.90584538998812
412.0 72.55173438477509
425.0 72.14809172850283
437.0 71.85813865983253
450.0 71.90189928046064
462.0 72.34692638516425
475.0 73.02701296168904
487.0 73.61216516118553
500.0 73.73993851906305
515.0 73.34028617841054
530.0 73.39072493306281
545.0 73.5027658605039
560.0 72.69515730334862
580.0 71.78164955191636
600.0 71.12251002613648
615.0 71.28136056049419
630.0 72.40992950658982
650.0 73.67100324909795
670.0 74.33822208879204
690.0 74.12595055255197
710.0 73.58486487769244
730.0 73.21683725293092
750.0 73.24311967711938
775.0 73.20132821547405
800.0 72.61688140949592
825.0 72.39791132244618
850.0 72.60524345586335
875.0 73.27448159172904
900.0 73.56125534200845
925.0 73.21044906344959
950.0 72.40375199188598
975.0 72.36365434000226
1000.0 71.79220852861077
1030.0 72.19984375503662
1060.0 72.30652626427754
1090.0 71.89720350361948
1120.0 71.77639688530763
1150.0 71.34424949899542
1180.0 70.9712701951979
1220.0 71.97421141032554
1250.0 71.73449171773012
1280.0 72.42005634229767
1320.0 72.32644028314049
1360.0 72.0553120086836
1400.0 71.43513904241779
1450.0 70.84653115218774
1500.0 70.52413998832071
1550.0 70.70109380519467
1600.0 70.28053778373233
1650.0 70.41635914960086
1700.0 70.95113024754913
1750.0 71.21904091928879
1800.0 71.51788608609623
1850.0 72.63709716335877
1900.0 72.44013738374744
1950.0 70.37315330917438
2000.0 69.32795742359195
2060.0 68.288423786386
2120.0 67.6429830610224
2180.0 67.80018119884163
2240.0 68.33419790639189
2300.0 70.26118114294573
2360.0 70.43839806772768
2400.0 68.9899182346557
2500.0 67.820481802223
2580.0 67.23709686182514
2650.0 66.5191136906935
2720.0 67.25715828837212
2800.0 68.04143496397697
2900.0 69.58664129262662
3000.0 70.33599481319122
3070.0 69.91336392591263
3150.0 69.37432020148894
3250.0 68.95186867191542
3350.0 69.0660361131732
3450.0 69.50564135213422
3550.0 70.47951050634443
3650.0 70.71500384600523
3750.0 70.6142889739214
3870.0 70.9344139759033
4000.0 71.42918738564038
4120.0 70.85178442472737
4250.0 70.49658219660283
4370.0 70.54296090841379
4500.0 70.42766743764746
4620.0 69.80352777774633
4750.0 69.66338197598547
4870.0 69.33648989400778
5000.0 69.77894510470195
5150.0 70.55740108742789
5300.0 70.12079715963492
5450.0 69.44660538511332
5600.0 69.04638190370888
5800.0 69.1404960828375
6000.0 69.1112857054888
6150.0 69.27888135194121
6300.0 69.34524162188116
6500.0 69.11859823247717
6700.0 69.42062031261473
6900.0 70.12821796084812
7100.0 70.30217197826235
7300.0 69.69794205626111
7500.0 68.99034932914323
7750.0 68.29561365308746
8000.0 68.50882072143779
8250.0 69.24390421270733
8500.0 69.43200193720406
8750.0 69.22599447717936
9000.0 68.18338995465622
9250.0 67.72852243463412
9500.0 68.6988709627077
9750.0 68.59906756438384
10000.0 68.55188309201019
10300.0 68.81601129599913
10600.0 68.79528676921056
10900.0 69.48658870932304
11200.0 69.22230516167018
11500.0 70.17900395703205
11800.0 70.89886245684538
12200.0 70.97620136659883
12500.0 72.87651519245729
12800.0 72.97369083526209
13200.0 72.44558628527767
13600.0 71.09432573305493
14000.0 72.22151123448917
14500.0 70.79617129697668
15000.0 67.79624129174077
15500.0 68.80392325735785
16000.0 69.86800252984851
16500.0 69.34746052108926
17000.0 68.63876496569692
17500.0 67.4745712961873
18000.0 68.36115885312198
18500.0 68.20704268282202
19000.0 68.44214603433993
19500.0 66.08985823505182
