Freq "Listening Window"
22.4 19.109360385007065
23.0 20.963304379042953
23.6 22.754187320618243
24.0 26.064511608316323
25.0 29.191552013950755
25.8 32.31804268847985
26.5 36.77796943148708
27.2 39.468850188887004
28.0 40.52914269254008
29.0 41.54609025960768
30.0 43.39722044887937
30.7 43.6721645325063
31.5 44.240796532078335
32.5 44.98823191555847
33.5 47.27893243198467
34.5 49.687968838838245
35.5 52.34002946341518
36.5 54.76014595258022
37.5 56.46262779085238
38.7 57.16899070272187
40.0 57.40846668283889
41.2 58.19992661206119
42.5 59.490838537030925
43.7 61.692704773772675
45.0 64.24559644257478
46.2 64.52605942703913
47.5 65.53608597782508
48.7 67.93304338193205
50.0 70.12474988101907
51.5 69.68005003899569
53.0 69.82627785252693
54.5 70.86410346486467
56.0 71.86989654204032
58.0 72.6947132906816
60.0 73.46333601459564
61.5 74.07821116357945
63.0 74.8214771423074
65.0 75.5184578115994
67.0 76.00799816338564
69.0 76.37313966586179
71.0 76.68262782600588
73.0 76.92546533296475
75.0 77.0915467517961
77.5 77.30093230991594
80.0 77.51258898429317
82.5 77.62318664573017
85.0 77.81181755817214
87.5 77.91181755817213
90.0 78.04557880472406
92.5 78.17907962085096
95.0 78.2790855640223
97.5 78.39028013721206
100.0 78.51207668150211
103.0 78.59028013721206
106.0 78.68977112446254
109.0 78.71181755817213
112.0 78.68977112446254
115.0 78.66786206060075
118.0 78.64584191038495
122.0 78.57882446471079
125.0 78.50144592893052
128.0 78.3790855640223
132.0 78.31181755817214
136.0 78.1788244647108
140.0 78.04608131878389
145.0 77.94659547771464
150.0 77.81410221686453
155.0 77.71436120391945
160.0 77.64862864871026
165.0 77.55990190280339
170.0 77.52799031720372
175.0 77.50524753710863
180.0 77.45114632640744
185.0 77.39788342519509
190.0 77.3659134489889
195.0 77.25836946336577
200.0 77.18994117416793
206.0 77.17042082978779
212.0 77.0818986612779
218.0 77.0818986612779
224.0 77.11302914130228
230.0 77.09594933783995
236.0 77.02554044970604
240.0 76.89510304271225
250.0 76.8022948222502
258.0 76.57024243118684
265.0 76.27573039625848
272.0 76.36564545609231
280.0 76.31258308679372
290.0 76.30118617051706
300.0 76.51207078330695
307.0 76.9128305043702
315.0 77.17907962085094
325.0 77.39154675179611
335.0 77.4596456174117
345.0 77.25114020555112
355.0 76.89605076454419
365.0 76.51937724077152
375.0 76.21093147171828
387.0 76.02310254682
400.0 75.82310254681998
412.0 75.60611020520385
425.0 75.35720307463514
437.0 75.12963699998807
450.0 75.15720307463515
462.0 75.49657304851699
475.0 76.09183283823337
487.0 76.61756396604014
500.0 76.75571126991869
515.0 76.51152848118322
530.0 76.3887514265805
545.0 76.54933900001103
560.0 76.25049132353729
580.0 75.39623353866592
600.0 74.22106301140914
615.0 74.05795797947702
630.0 75.51159715574626
650.0 77.13356780163751
670.0 77.76668032091577
690.0 77.34953620850419
710.0 76.60061795248332
730.0 76.01830540343938
750.0 76.20137628869388
775.0 76.527543559369
800.0 76.36471600283548
825.0 75.80259821202186
850.0 75.58975126279825
875.0 76.25450239033748
900.0 76.93889696621399
925.0 76.79683564167344
950.0 75.98364187221051
975.0 75.88853005075435
1000.0 75.33857862527043
1030.0 75.53563899195913
1060.0 75.99259019672748
1090.0 75.59447602614144
1120.0 75.55017140150586
1150.0 75.39544115177695
1180.0 75.1640678960907
1220.0 75.73900153494928
1250.0 75.78089198954184
1280.0 76.39150114677965
1320.0 76.11707047293392
1360.0 75.93331607897314
1400.0 75.18957432943367
1450.0 74.68972649776866
1500.0 74.78622118774624
1550.0 75.02144030919146
1600.0 75.0358107766369
1650.0 75.35302613424088
1700.0 75.8938933940758
1750.0 76.07895793517015
1800.0 76.43110653114115
1850.0 77.36410047490936
1900.0 77.04916188894471
1950.0 75.5520982720987
2000.0 74.9330257226979
2060.0 74.08826433501797
2120.0 73.60265698540171
2180.0 73.38138146274582
2240.0 73.6844279316734
2300.0 75.4922388481682
2360.0 75.81600773579119
2400.0 74.58423075835745
2500.0 73.27724810479755
2580.0 72.49555527305672
2650.0 71.49480338067399
2720.0 71.93193205371655
2800.0 72.71178807229452
2900.0 74.1909841601415
3000.0 75.24102657848451
3070.0 74.65129765804899
3150.0 74.06473856337327
3250.0 73.51288325697274
3350.0 73.52563327408774
3450.0 73.89916878412338
3550.0 74.65438523480188
3650.0 75.03271332652513
3750.0 75.5105880583941
3870.0 76.00596840965439
4000.0 76.60485392373737
4120.0 76.4050122095712
4250.0 76.12510454253672
4370.0 76.28421173792006
4500.0 76.22235209496921
4620.0 75.56988058560975
4750.0 75.44560420554524
4870.0 75.06637159965437
5000.0 75.55523289095086
5150.0 76.4467385530967
5300.0 76.24021362279622
5450.0 75.48139487403239
5600.0 75.02603048203795
5800.0 75.06102743577352
6000.0 75.12005100171969
6150.0 75.65759518928188
6300.0 75.73809283703638
6500.0 75.3957815426029
6700.0 75.32745173901993
6900.0 75.83806650996357
7100.0 76.17374116097334
7300.0 75.88536486417277
7500.0 75.37572608889585
7750.0 74.44329828041654
8000.0 74.3129204540061
8250.0 75.03170746366996
8500.0 75.20444550482452
8750.0 74.95930203276178
9000.0 74.05457004228381
9250.0 74.09491590057235
9500.0 74.84643795896407
9750.0 74.53891807754535
10000.0 74.5496766927993
10300.0 74.88280779534533
10600.0 74.87015378507712
10900.0 75.86029379847182
11200.0 75.42185588494101
11500.0 76.1455521923237
11800.0 77.06536478083342
12200.0 77.40261352612693
12500.0 79.30556403213943
12800.0 79.04612977023048
13200.0 78.53970338040162
13600.0 77.58788104922417
14000.0 78.37369375302693
14500.0 76.33054288734316
15000.0 73.77891203695923
15500.0 75.07866265552671
16000.0 75.57830344562655
16500.0 74.3134556227364
17000.0 74.40469621468914
17500.0 73.72392386520767
18000.0 74.46369956685207
18500.0 74.43121717653703
19000.0 75.36518407891917
19500.0 72.67260835095145
