Freq "Side Wall Bounce"
20.0 39.876175275043934
20.2909 40.674837615956264
20.586 41.43077705216702
20.8855 42.159294986261
21.1893 42.922363467789594
21.4975 43.49458072391404
21.8102 44.0731764743099
22.1274 44.62195236470323
22.4492 45.31464984758419
22.7758 45.94863498959829
23.1071 46.62632836349671
23.4432 47.16410220817794
23.7841 47.846327661224606
24.1301 48.383569503536094
24.4811 48.849508512102105
24.8372 49.262282747120324
25.1984 49.71783813944917
25.5649 50.2765085121021
25.9368 50.853958531068955
26.3141 51.53565049405269
26.6968 52.12850458989699
27.0851 52.70842518363533
27.4791 53.31727446438991
27.8788 53.933116794212125
28.2843 54.45922184214244
28.6957 55.018021217216855
29.1131 55.650757208172976
29.5365 56.200724694757795
29.9661 56.78737927028034
30.402 57.31037927028031
30.8442 57.83123809180712
31.2929 58.32927176467261
31.748 58.83722769016076
32.2098 59.47937927028032
32.6783 60.03660387682402
33.1536 60.59176195459902
33.6359 61.06976195459903
34.1251 61.714745315550914
34.6215 62.29966107056816
35.125 62.8943050435396
35.6359 63.45330504353963
36.1543 64.01413470552909
36.6802 64.51614352716477
37.2137 65.128694953411
37.755 65.66782741630637
38.3041 66.19526547996311
38.8613 66.60412263968752
39.4265 67.14412263968752
40.0 67.69832048483002
40.5818 68.24838957194298
41.1721 68.67956842471028
41.771 69.23983059438906
42.3785 69.81160417743962
42.9949 70.23756842471028
43.6203 70.93756842471028
44.2548 71.44556842471029
44.8985 71.9843955139973
45.5515 72.38256842471029
46.2141 73.0048752283356
46.8863 73.3889581535154
47.5683 73.79846154665422
48.2602 74.40530232064049
48.9621 74.7365912299539
49.6743 75.10530232064049
50.3968 75.461301734285
51.1299 75.90969931569144
51.8736 76.29050427542289
52.6281 76.6141066131682
53.3936 76.98155824697884
54.1702 77.31182805310821
54.9581 77.67875434573433
55.7575 77.93887671478471
56.5685 78.23116987683598
57.3914 78.40851800045719
58.2261 78.56019474234184
59.073 78.89650048494069
59.9323 79.0397997598214
60.804 79.10007585395932
61.6884 79.34584826730871
62.5857 79.3961236621274
63.496 79.53680588820579
64.4196 79.67375167215641
65.3566 79.73888224851314
66.3073 79.86377419922236
67.2717 79.98762310606377
68.2502 80.07240694845034
69.2429 80.04333529695442
70.2501 80.17034171725028
71.2719 80.17221198686404
72.3086 80.3134986888566
73.3603 80.38594685877143
74.4274 80.38930735743831
75.5099 80.50335538444543
76.6083 80.49946051294917
77.7226 80.49946051294917
78.8531 80.55394685877144
80.0 80.58851725631804
81.1636 80.55755392819397
82.3442 80.61699055689313
83.5419 80.689123961301
84.757 80.70246051294916
85.9899 80.75591280718542
87.2406 80.90396491397179
88.5096 80.98708836752081
89.797 81.01918505541589
91.1031 81.05823526214003
92.4282 81.1391850554159
93.7726 81.25974062498236
95.1366 81.3626459777859
96.5204 81.3191850554159
97.9243 81.32717738415266
99.3486 81.27674062498235
100.794 81.19274062498236
102.26 81.20974062498236
103.747 81.34974062498236
105.256 81.43927672897047
106.787 81.52227672897047
108.34 81.50266489244275
109.916 81.53937025971692
111.515 81.71627588070905
113.137 81.8136434330808
114.783 81.7796459777859
116.452 81.83973299106128
118.146 81.82397254421038
119.865 81.93346565992681
121.608 81.95789607008886
123.377 81.96861099898074
125.171 82.03973299106129
126.992 82.07327588070906
128.839 82.06646828896444
130.713 82.16383840358988
132.615 82.30927588070905
134.543 82.27942278034503
136.5 82.31927588070904
138.486 82.35524653770831
140.5 82.37926927885563
142.544 82.37257327289622
144.617 82.35524653770831
146.721 82.32257459882801
148.855 82.31263561937364
151.02 82.21646051294917
153.217 82.20286547976372
155.445 82.189760027193
157.706 82.24186547976372
160.0 82.23165116389264
162.327 82.20000634361338
164.688 82.29011629918993
167.084 82.17030009373991
169.514 82.17071765635914
171.98 82.20384117081237
174.481 82.18762840030998
177.019 82.16951695350643
179.594 82.08261872423554
182.206 82.10160465327476
184.856 82.19404068391707
187.545 82.20380840651548
190.273 82.18594122692372
193.041 82.2105719018489
195.849 82.30130232064052
198.697 82.1683023206405
201.587 82.1263023206405
204.52 82.15131399587938
207.494 82.1883023206405
210.512 82.06464129038605
213.574 82.0414995074789
216.681 82.03524289206324
219.833 81.96603229201843
223.03 81.86652992445933
226.274 81.85945792268342
229.565 81.81160449170758
232.905 81.83996176499723
236.292 81.81991463488414
239.729 81.738237733678
243.216 81.72767195961812
246.754 81.5717634001539
250.343 81.46949421539072
253.984 81.46806530271904
257.678 81.37405014496487
261.426 81.36905014496487
265.229 81.40001132181536
269.087 81.43639203072128
273.001 81.4892860254585
276.972 81.54956282824762
281.0 81.57777720612506
285.088 81.61468117928831
289.234 81.65586089210593
293.441 81.67859445511145
297.709 81.73555144473731
302.04 81.72514309930828
306.433 81.69150894611595
310.89 81.64563095463342
315.412 81.59047500911835
320.0 81.56182474236475
324.655 81.47893083049223
329.377 81.35485533191485
334.168 81.2217786075948
339.028 81.1013430871945
343.959 81.00242015127321
348.962 80.97853631355072
354.038 80.9755363135507
359.188 80.94098275861806
364.412 80.93589080147241
369.713 80.95053631355073
375.09 80.95792703444901
380.546 81.03411012025363
386.081 81.06514377994183
391.697 81.0546608397724
397.394 81.01997141373502
403.175 80.98308313377454
409.039 80.91404510797813
414.989 80.8718127939403
421.025 80.84517268831841
427.149 80.78108489190964
433.362 80.72644292542235
439.665 80.71471292938519
446.06 80.73625704434319
452.548 80.78175891835379
459.131 80.82096553287688
465.809 80.86002978705297
472.584 80.83219025455818
479.458 80.94669919737768
486.432 81.06106149647322
493.507 81.14359918548654
500.686 81.20581498121804
507.968 81.27149643314422
515.357 81.32472250841685
522.853 81.39300355627945
530.458 81.3906626336915
538.174 81.32619229969616
546.002 81.26713431484035
553.943 81.23694342617391
562.001 81.1858117881676
570.175 81.16713431484035
578.469 81.1247852976418
586.883 81.1254334887896
595.419 81.03976115147032
604.08 81.02667561307508
612.866 80.99542546837176
621.78 80.96388038015523
630.824 80.89672199987368
640.0 80.80635383133556
649.309 80.70104833177686
658.753 80.49250288210557
668.335 80.37782608728304
678.056 80.30845154151352
687.919 80.2732573589344
697.925 80.29436048568805
708.077 80.27168550705797
718.376 80.39454204351142
728.825 80.44139154234479
739.426 80.35734823715089
750.181 80.34631028587968
761.093 80.13230433543505
772.163 79.99944156495516
783.394 79.85286362669792
794.789 79.74546328256743
806.349 79.68785169327097
818.078 79.65337689271841
829.977 79.53650039301324
842.05 79.3674851328146
854.298 79.00817304167045
866.724 78.72378615071929
879.33 78.47626710972322
892.12 78.35857713335875
905.097 78.29144576141682
918.262 78.45377475691798
931.618 78.80335026289478
945.169 79.13155667375294
958.917 79.45567536824042
972.864 79.61126424394513
987.015 79.72139819056423
1001.37 79.72958601599909
1015.94 79.75463242936533
1030.71 79.76119699596985
1045.71 79.84518842691344
1060.92 79.97493382043132
1076.35 80.21591132065316
1092.0 80.32337586599088
1107.89 80.43906797758858
1124.0 80.50833543789913
1140.35 80.39259303249595
1156.94 80.34871319013405
1173.77 80.2262729107956
1190.84 80.12221754472583
1208.16 79.90401269999988
1225.73 79.59284583482595
1243.56 79.3058708896335
1261.65 79.30393181825347
1280.0 79.2363151537576
1298.62 79.01998842217868
1317.51 78.69797254270514
1336.67 78.47702128668622
1356.11 78.45049892154081
1375.84 78.6280862754011
1395.85 78.93267985778789
1416.15 79.15273312355629
1436.75 79.15316689877726
1457.65 78.97087761513701
1478.85 78.97646257470713
1500.36 79.02779459885281
1522.19 78.86468003355813
1544.33 78.49542110581217
1566.79 78.15776029778668
1589.58 78.0417848928583
1612.7 77.86386782632489
1636.16 77.78020332535203
1659.95 77.8228533656547
1684.1 77.85054815323278
1708.6 77.81836816608546
1733.45 77.81645039836746
1758.66 77.85379080695218
1784.24 77.84581474588781
1810.19 77.83392454261691
1836.52 77.89081705502163
1863.24 77.90870362334742
1890.34 77.8068556829066
1917.83 77.97746255665672
1945.73 78.00641398216068
1974.03 77.90278684589738
2002.74 77.96645385448598
2031.87 78.02774504760592
2061.43 78.04913197963707
2091.41 78.09933369893562
2121.83 77.96737420464548
2152.69 77.992151722662
2184.01 78.1820926426802
2215.77 78.39307840426703
2248.0 78.49236993273661
2280.7 78.63901066816956
2313.87 78.8903273815977
2347.53 79.0787399855905
2381.68 79.15909086132231
2416.32 79.32180694418047
2451.46 79.4551039774518
2487.12 79.56964265391709
2523.3 79.61048164391079
2560.0 79.52105523596533
2597.24 79.58568176394833
2635.01 79.62707937199175
2673.34 79.94111494010973
2712.23 80.29112827536277
2751.68 80.47643732077232
2791.7 80.52552283455101
2832.31 80.57830136704216
2873.5 80.38538473546367
2915.3 80.32470089672718
2957.7 80.1966228070343
3000.72 80.11657376837069
3044.37 80.12226780858632
3088.65 80.06979441967181
3133.58 80.19230300360552
3179.16 80.29133601694822
3225.4 80.41303976694363
3272.31 80.35553136099718
3319.91 80.30497976674141
3368.2 80.34392943174687
3417.19 80.45797674831935
3466.89 80.57979510490452
3517.32 80.53840394199695
3568.48 80.5250350707678
3620.39 80.71469502752755
3673.05 80.82509974095534
3726.47 80.67875267267992
3780.67 80.49527786640577
3835.67 80.59951353486935
3891.46 80.6483789589691
3948.06 80.42924547289317
4005.49 80.36488075814238
4063.75 80.5350279728479
4122.86 80.65691785474881
4182.82 80.64483481016202
4243.66 80.68558413885205
4305.39 80.73270744677784
4368.01 80.63544628888296
4431.55 80.5498249929994
4496.01 80.6505870024988
4561.4 80.67141409691017
4627.75 80.51733222733496
4695.06 80.46160043048134
4763.35 80.39417129319537
4832.64 80.34146197706762
4902.93 80.2844331566844
4974.24 80.08824096403843
5046.6 80.08658800115764
5120.0 80.04738617433186
5194.47 79.9362942278545
5270.03 79.88992837342398
5346.68 79.6374169153858
5424.45 79.2092378213736
5503.35 78.97444656629072
5583.4 78.84432020584971
5664.61 78.56082164188278
5747.01 78.65539529450801
5830.6 78.69272871562593
5915.41 78.71670199408042
6001.45 78.87642571861461
6088.74 78.89522182979273
6177.3 79.09824411570054
6267.15 79.15017644830753
6358.31 79.19583783798883
6450.8 79.25534868099766
6544.62 79.26600878987966
6639.82 79.30807287312201
6736.4 79.23765413423486
6834.38 79.14143802534156
6933.79 78.8965671095098
7034.64 78.63331722860953
7136.96 78.28158059647443
7240.77 78.05101313470243
7346.09 77.7938491979335
7452.94 77.61512450626925
7561.35 77.39313364592228
7671.33 77.16850588810054
7782.91 76.99728289615702
7896.12 76.88654845020874
8010.97 76.82766735699879
8127.49 76.85874949977223
8245.71 76.99331574939725
8365.65 77.02080739467056
8487.33 76.93707391387737
8610.78 76.73424251540118
8736.03 76.5387320512089
8863.09 76.36871854088966
8992.01 76.27448034349935
9122.8 76.04644573376888
9255.5 75.74400755302219
9390.12 75.30873918035468
9526.7 74.95917854284201
9665.27 74.71765587849161
9805.86 74.53413489540837
9948.49 74.41552183878618
10093.2 74.25750793475542
10240.0 74.04620531602616
10388.9 73.9087442651786
10540.1 73.85595773673563
10693.4 73.80003645592004
10848.9 73.68464220501362
11006.7 73.4064061464793
11166.8 73.0919802091988
11329.2 72.9732425506753
11494.0 73.0756156828143
11661.2 73.09147928114756
11830.8 72.97337069239887
12002.9 72.86260682727219
12177.5 72.98983600396717
12354.6 73.06995117983807
12534.3 72.96209175864225
12716.6 72.85688856590279
12901.6 72.82056708176253
13089.2 72.77678565382296
13279.6 72.61698782619031
13472.8 72.49382136493158
13668.8 72.54470480548245
13867.6 72.56225871109592
14069.3 72.37255383725086
14273.9 72.02614562510861
14481.5 71.60711305737263
14692.2 71.23758651075345
14905.9 70.96756294486993
15122.7 70.8812708322518
15342.7 70.90784543996554
15565.8 70.7523712746355
15792.2 70.36393246459227
16021.9 69.87134958426951
16255.0 69.25392196479929
16491.4 68.40189348236981
16731.3 67.4860296383006
16974.7 66.68924163059911
17221.6 65.97259141009408
17472.1 65.3223810509984
17726.2 64.77175358316033
17984.0 64.02579780169579
18245.6 63.13403568724409
18511.0 62.591232928610296
18780.2 62.36781926516893
19053.4 62.342548758624744
19330.5 62.5278323934517
19611.7 62.53063787827641
19897.0 62.448995062046166
