Freq "Floor Bounce"
22.4 -25.799232505544396
23.0 -24.499232505544413
23.6 -23.199232505544373
24.0 -21.89923250554439
25.0 -20.632304786947046
25.8 -19.39923250554439
26.5 -18.23230478694707
27.2 -17.132304786947074
28.0 -15.999232505544384
29.0 -14.832304786947063
30.0 -13.599232505544379
30.7 -12.23230478694704
31.5 -10.732304786947068
32.5 -9.032304786947051
33.5 -7.199232505544401
34.5 -5.2323047869470685
35.5 -3.199232505544373
36.5 -1.1323047869470457
37.5 0.8676952130529543
38.7 2.8007674944555987
40.0 4.667695213052966
41.2 6.367695213052954
42.5 7.967695213052949
43.7 9.46769521305292
45.0 10.900767494455621
46.2 12.367695213052954
47.5 13.76769521305296
48.7 15.26769521305296
50.0 16.867695213052926
51.5 18.46769521305295
53.0 20.26769521305296
54.5 22.067695213052943
56.0 23.96769521305295
58.0 25.90076749445562
60.0 27.900767494455593
61.5 29.90076749445562
63.0 31.90076749445562
65.0 33.90076749445559
67.0 35.867695213052954
69.0 37.867695213052926
71.0 39.76769521305293
73.0 41.667695213052966
75.0 43.467695213052934
77.5 45.20076749445563
80.0 46.90076749445561
82.5 48.500767494455616
85.0 50.06769521305294
87.5 51.56769521305294
90.0 52.967695213052934
92.5 54.30076749445561
95.0 55.60076749445561
97.5 56.86769521305294
100.0 58.06769521305294
103.0 59.26769521305293
106.0 60.367695213052926
109.0 61.40076749445562
112.0 62.36769521305294
115.0 63.20076749445562
118.0 64.00076749445562
122.0 64.60076749445562
125.0 65.10076749445561
128.0 65.40076749445562
132.0 65.63513059177983
136.0 65.66845083805433
140.0 65.70306957104252
145.0 65.66845083805433
150.0 65.60306957104252
155.0 65.56845083805432
160.0 65.56845083805432
165.0 65.56845083805432
170.0 65.66845083805433
175.0 65.76845083805433
180.0 65.90076749445561
185.0 66.00076749445562
190.0 66.10076749445561
195.0 66.13358982687998
200.0 66.23358982687998
206.0 66.16692185116051
212.0 66.13358982687998
218.0 66.03358982687996
224.0 65.96692185116049
230.0 65.86692185116051
236.0 65.8
240.0 65.83358982687999
250.0 65.90000000000002
258.0 66.03358982687996
265.0 66.2669218511605
272.0 66.50076749445562
280.0 66.7007674944556
290.0 66.86845083805433
300.0 66.86845083805433
307.0 66.80306957104251
315.0 66.53663575667186
325.0 66.1053180676647
335.0 65.54044167945491
345.0 64.9053180676647
355.0 64.2404416794549
365.0 63.640441679454895
375.0 63.14044167945491
387.0 62.871508007869366
400.0 62.77150800786937
412.0 63.03663575667187
425.0 63.46845083805434
437.0 64.06845083805432
450.0 64.73435140868503
462.0 65.40076749445562
475.0 65.96845083805432
487.0 66.36845083805433
500.0 66.6022846139602
515.0 66.47071732495408
530.0 66.14044167945492
545.0 65.57977745790569
560.0 64.98656646311248
580.0 64.36096514237182
600.0 63.77082970284299
615.0 63.34314826109434
630.0 63.043148261094345
650.0 63.00963256681621
670.0 63.20963256681621
690.0 63.57082970284297
710.0 64.06588846059687
730.0 64.55667255930051
750.0 65.05667255930051
775.0 65.44898514879551
800.0 65.7162794008364
825.0 65.81227178315618
850.0 65.74898514879551
875.0 65.61916705502753
900.0 65.31916705502753
925.0 65.08982856673472
950.0 64.79897445130925
975.0 64.57082970284299
1000.0 64.40464502318535
1030.0 64.37082970284298
1060.0 64.44314826109435
1090.0 64.54314826109434
1120.0 64.74314826109435
1150.0 64.94314826109434
1180.0 65.170829702843
1220.0 65.44314826109435
1250.0 65.57082970284299
1280.0 65.74314826109433
1320.0 65.84314826109436
1360.0 65.88219812790057
1400.0 65.95521969308379
1450.0 65.95521969308379
1500.0 65.92869245367795
1550.0 65.90942248426019
1600.0 65.88382334167595
1650.0 65.85866027600834
1700.0 65.87584607527147
1750.0 65.85177437534742
1800.0 65.82812100489949
1850.0 65.7710674427392
1900.0 65.7145789575331
1950.0 65.6145789575331
2000.0 65.47106744273918
2060.0 65.2944886893229
2120.0 65.14258273663016
2180.0 64.892378988098
2240.0 64.7026545034034
2300.0 64.51627783177746
2360.0 64.30473530118576
2400.0 64.12402487026023
2500.0 64.01627940083641
2580.0 63.97928732607433
2650.0 63.94283030471972
2720.0 63.9457671943847
2800.0 64.01592692226707
2900.0 64.08656646311246
3000.0 64.20131827952113
3070.0 64.34680047887706
3150.0 64.53268615537795
3250.0 64.697421986663
3350.0 64.86784633169403
3450.0 65.10784363371621
3550.0 65.20921325368947
3650.0 65.358590643836
3750.0 65.43174271310296
3870.0 65.42637355670792
4000.0 65.42330268140094
4120.0 65.27625435142637
4250.0 65.03209919948374
4370.0 64.84053501177824
4500.0 64.60162083231603
4620.0 64.41496244492468
4750.0 64.28107444645536
4870.0 64.1549399124869
5000.0 64.20654363985348
5150.0 64.38760046288922
5300.0 64.6467871964985
5450.0 65.0165581917717
5600.0 65.34743899086735
5800.0 65.75099006382057
6000.0 66.09643568420722
6150.0 66.37238095780528
6300.0 66.47054430894828
6500.0 66.4909529026224
6700.0 66.29431032499556
6900.0 65.96073506160971
7100.0 65.59218730938164
7300.0 65.10464358834795
7500.0 64.54511556931756
7750.0 63.96336865784946
8000.0 63.29156164294319
8250.0 62.691561642943185
8500.0 62.02761355743556
8750.0 61.43563946709277
9000.0 60.882398607607726
9250.0 60.443146838921564
9500.0 60.09393259456333
9750.0 59.986332406791675
10000.0 60.00409483010013
10300.0 60.25986172658736
10600.0 60.55986172658736
10900.0 61.05986172658736
11200.0 61.63833499684074
11500.0 62.15986172658735
11800.0 62.71875091164311
12200.0 63.14087709308417
12500.0 63.44087709308414
12800.0 63.56340256351433
13200.0 63.54087709308416
13600.0 63.36340256351434
14000.0 63.04087709308415
14500.0 62.563402563514344
15000.0 62.00409483010013
15500.0 61.34087709308416
16000.0 60.604094830100124
16500.0 59.78177997241296
17000.0 58.940877093084154
17500.0 57.981779972412966
18000.0 57.04087709308415
18500.0 56.04087709308416
19000.0 55.04087709308416
19500.0 54.04087709308416
