Freq "Rear Wall Bounce"
22.4 -26.530649547041335
23.0 -25.230649547041352
23.6 -23.91019367029834
24.0 -22.63064954704133
25.0 -21.330649547041347
25.8 -20.119938910018774
26.5 -18.983428460847577
27.2 -17.883428460847583
28.0 -16.730649547041324
29.0 -15.583428460847571
30.0 -14.330649547041318
30.7 -12.998771881082646
31.5 -11.47233482170698
32.5 -9.773539872190284
33.5 -7.910193670298312
34.5 -5.973539872190244
35.5 -3.9306495470413125
36.5 -1.9101936702983409
37.5 0.10122811891734784
38.7 2.089806329701659
40.0 3.901228118917331
41.2 5.637528568351385
42.5 7.216571539152412
43.7 8.701228118917342
45.0 10.169350452958682
46.2 11.60122811891732
47.5 13.048317875454913
48.7 14.501228118917354
50.0 16.08980632970166
51.5 17.769350452958676
53.0 19.501228118917354
54.5 21.358613335880094
56.0 23.2483178754549
58.0 25.18006108998121
60.0 27.169350452958682
61.5 29.169350452958653
63.0 31.169350452958682
65.0 33.16935045295868
67.0 35.158613335880105
69.0 37.08980632970166
71.0 39.00619272651063
73.0 40.88980632970167
75.0 42.70122811891733
77.5 44.489806329701665
80.0 46.18006108998121
82.5 47.789806329701676
85.0 49.369350452958685
87.5 50.85933081962692
90.0 52.269350452958676
92.5 53.59150850381869
95.0 54.880061089981226
97.5 56.14856887153219
100.0 57.30122811891734
103.0 58.468156915267926
106.0 59.537293729386946
109.0 60.5422173028043
112.0 61.46815691526791
115.0 62.31042617707628
118.0 63.04316669566778
122.0 63.664207482180615
125.0 64.1861253791191
128.0 64.5565598809561
132.0 64.84170398039069
136.0 65.04033017048408
140.0 65.13237888514689
145.0 65.17698119475499
150.0 65.18164053993398
155.0 65.14976630189359
160.0 65.11469499302765
165.0 65.08267472555873
170.0 65.04108617408278
175.0 65.03759115723108
180.0 65.03914792442303
185.0 65.02248471095086
190.0 64.99503574697233
195.0 64.98725794142084
200.0 64.98034082790163
206.0 64.91755791841123
212.0 64.86181685048638
218.0 64.78957817377368
224.0 64.69666512612143
230.0 64.5489860943333
236.0 64.41755691260926
240.0 64.26286963463484
250.0 64.06748537669425
258.0 63.838803471446994
265.0 63.62696497462663
272.0 63.38350368206683
280.0 63.12415101456527
290.0 62.854751650391094
300.0 62.57642814163229
307.0 62.2072704112403
315.0 61.862310329750485
325.0 61.44546982870459
335.0 61.01896450902221
345.0 60.588762053760746
355.0 60.18671489799888
365.0 59.858196342047094
375.0 59.54771678120683
387.0 59.37770500010488
400.0 59.25462203645793
412.0 59.30143903313264
425.0 59.45463072128604
437.0 59.593085990077796
450.0 59.817114285090966
462.0 60.001499318036366
475.0 60.13766600490345
487.0 60.125191993695736
500.0 59.95092455636602
515.0 59.58051214931686
530.0 59.0485306735866
545.0 58.420065741553145
560.0 57.77363962521903
580.0 57.138433906664844
600.0 56.577433427279104
615.0 56.14801098777863
630.0 55.90625241891972
650.0 55.850171456193465
670.0 55.983309509977474
690.0 56.264790110899554
710.0 56.62281855772973
730.0 57.022025115713944
750.0 57.423022708555166
775.0 57.72641174058937
800.0 57.86789971840206
825.0 57.91268422614685
850.0 57.80793580203165
875.0 57.563668129817174
900.0 57.23175141283552
925.0 56.84458341147521
950.0 56.45596222960178
975.0 56.0751248905495
1000.0 55.745768865529314
1030.0 55.50286430608354
1060.0 55.328857159634325
1090.0 55.170079895773796
1120.0 55.12608700601962
1150.0 55.07864232753238
1180.0 55.059032662319055
1220.0 55.04579657843364
1250.0 55.03890500208571
1280.0 54.96083921075282
1320.0 54.8422413256629
1360.0 54.719907787694325
1400.0 54.55948659350004
1450.0 54.42313929658965
1500.0 54.26562225251169
1550.0 54.119630620796684
1600.0 53.958400624177
1650.0 53.890044627379595
1700.0 53.798595540362086
1750.0 53.734490176120815
1800.0 53.70404697576872
1850.0 53.65186561088578
1900.0 53.64886162347004
1950.0 53.59554931631524
2000.0 53.555639507371964
2060.0 53.49286617625788
2120.0 53.44768224376209
2180.0 53.39846615523996
2240.0 53.297400038608345
2300.0 53.18918064773678
2360.0 53.09070357621232
2400.0 52.98460649245246
2500.0 52.83671198106673
2580.0 52.68460554252479
2650.0 52.48737862428757
2720.0 52.286506552548275
2800.0 52.08915484134266
2900.0 51.88368995445779
3000.0 51.68085538354654
3070.0 51.49046020212485
3150.0 51.279461845848815
3250.0 51.08011749101509
3350.0 50.88718857549581
3450.0 50.69899611086487
3550.0 50.497464364754336
3650.0 50.315504817629204
3750.0 50.127433920491185
3870.0 49.97293098608715
4000.0 49.78433946006234
4120.0 49.54520126635934
4250.0 49.28897306672286
4370.0 48.992438585619766
4500.0 48.72036646020753
4620.0 48.46218868646922
4750.0 48.2807920776756
4870.0 48.16750447805512
5000.0 48.110766658244614
5150.0 48.168012137393816
5300.0 48.31492902287758
5450.0 48.490761799995
5600.0 48.674888785347434
5800.0 48.8406486548338
6000.0 48.91541691395341
6150.0 48.8921585726857
6300.0 48.67502743313874
6500.0 48.313495249198226
6700.0 47.7714045049684
6900.0 47.10069581574318
7100.0 46.28889234820036
7300.0 45.3690770474397
7500.0 44.43135916775853
7750.0 43.35321572891412
8000.0 42.2776343227887
8250.0 41.21421287687879
8500.0 40.12120792443686
8750.0 39.11059078566821
9000.0 38.239989369010814
9250.0 37.48561677806539
9500.0 36.89150444263491
9750.0 36.57276928277365
10000.0 36.420803970419044
10300.0 36.55183183083615
10600.0 36.877286990859815
10900.0 37.37153386757278
11200.0 37.95074927379558
11500.0 38.52929369451995
11800.0 39.05102261794893
12200.0 39.528454046944105
12500.0 39.920803970419016
12800.0 40.023666673171064
13200.0 40.01407956618998
13600.0 39.81430594549251
14000.0 39.50638360669451
14500.0 39.023892553302474
15000.0 38.453432536733445
15500.0 37.81294078182957
16000.0 37.02080397041901
16500.0 36.22080397041903
17000.0 35.32883560513231
17500.0 34.420803970419016
18000.0 33.44496740857012
18500.0 32.504198298700416
19000.0 31.504198298700416
19500.0 30.426130399942778
