Freq "Sound Power"
20.5078 73.17415562838313
21.9727 75.40199075787172
23.4375 77.31882660822583
24.9023 78.55325703250075
26.3672 79.74337223397872
27.832 79.94609943998864
29.2969 80.7069470804881
30.7617 81.28184747103573
32.2266 81.7377016339586
33.6914 82.16534001490356
35.1563 82.72145008814472
36.6211 82.97717660271486
38.0859 83.18056694797967
39.5508 83.51589395578016
41.0156 83.96556989189375
42.4805 84.20996004983508
43.9453 84.54163103022736
45.4102 84.65029159112659
46.875 85.00318518023902
48.3398 85.34830958907055
51.2695 86.10521337250076
52.7344 86.38545593457962
54.1992 86.66924498698627
55.6641 87.00170142670204
58.5938 87.58031014897834
60.0586 88.00510879816007
62.9883 88.71780996756803
64.4531 89.02422936788746
67.3828 89.69719321671492
68.8477 90.03841281576446
71.7773 90.62649007242375
74.707 91.21762700907024
77.6367 91.73438378606818
79.1016 91.9881657738209
82.0313 92.41906218893021
84.9609 92.79006180613058
87.8906 93.16897449960321
90.8203 93.66354978827019
95.2148 93.87275718655873
98.1445 94.19294577219404
101.074 94.29523409664272
105.469 94.14344359217202
108.398 94.14744248507381
112.793 93.77994861795534
117.188 93.1148502722851
120.117 93.3667595337695
124.512 93.48522953811181
128.906 93.03845220150008
133.301 92.41723190417822
139.16 91.617768249968
143.555 90.96715195714957
147.949 91.04081208130917
153.809 90.22437518565928
159.668 90.17832223448217
165.527 89.6261510119887
171.387 90.35961843125513
177.246 89.88131792956125
183.105 89.42707649437646
188.965 89.39503192042159
196.289 89.18013697798459
203.613 88.30408615652343
210.938 88.55806614452733
218.262 88.43815184295804
225.586 88.13130365057404
232.91 87.87970422615491
241.699 87.84551599721003
250.488 86.96125249115848
259.277 87.69587570897421
268.066 88.71806190156103
276.855 87.42489303568475
287.109 88.15360585187976
297.363 88.6575392840718
307.617 89.04019140916772
319.336 89.38428261206863
329.59 90.15962964228584
341.309 89.30372931160652
353.027 90.05430507561485
366.211 89.44357953658591
379.395 90.01870879972037
392.578 89.42517680347476
405.762 90.23830381374977
420.41 89.29462614124793
435.059 90.41437264010564
451.172 90.042598331324
465.82 90.1053133850862
483.398 89.81739671053941
499.512 88.3678797531278
517.09 87.4702709232425
536.133 85.80925962295657
555.176 85.81118260374359
574.219 85.43083397529753
594.727 86.48770549594835
615.234 88.30858794123932
637.207 88.71736144685059
659.18 88.36923555752925
682.617 87.75289859333812
707.52 87.1796058315465
732.422 86.75390664110866
757.324 87.1257349425244
785.156 87.29813034879363
811.523 87.19210800711708
840.82 87.30844008814967
870.117 86.86373984976599
900.879 87.17086007173718
933.105 87.64513670267752
965.332 88.3348651122145
1000.49 88.90126664351423
1035.64 89.53365518098329
1072.27 90.26687130918883
1108.89 91.07547242888164
1148.44 91.59083367402
1189.45 92.02851786355411
1230.47 92.30540209799307
1274.41 92.06210467069175
1319.82 91.93526004188332
1366.7 92.09278485430517
1413.57 91.84720757601866
1463.38 91.55290051405608
1516.11 91.26265274418869
1568.85 91.08944326163657
1624.51 91.08149971291049
1681.64 91.03413630911633
1741.7 91.2508526952859
1803.22 90.9348435170575
1866.21 91.17292990919212
1932.13 91.1202829655562
1999.51 90.80260941503211
2069.82 90.25485142225448
2143.07 90.0497475403869
2219.24 89.12635862934094
2296.88 88.00146857845633
2378.91 87.84664159238801
2462.4 86.9584355769076
2548.83 86.31343525477993
2639.65 85.6504063637255
2731.93 85.42183117476992
2828.61 85.39634605222395
2928.22 85.87127504981095
3030.76 86.38970612235248
3137.7 86.1849978655574
3249.02 86.8516767403306
3363.28 87.18300116014491
3481.93 87.5564519532043
3604.98 87.47751794689918
3732.42 87.68714015749397
3864.26 87.81697979092662
4000.49 88.08004016859833
4141.11 87.69527271899908
4287.6 87.45958893107682
4438.48 86.67134234550274
4595.21 86.20606178056164
4756.35 85.88273705686335
4924.8 85.99050153420363
5097.66 86.80924442924119
5277.83 87.49817308709773
5463.87 87.84814215153806
5657.23 87.97995355458654
5856.45 88.00693326658694
6062.99 87.9260030470514
6276.86 87.21795798250658
6498.05 86.77835325678512
6726.56 86.37093660417233
6963.87 85.88017488534149
7209.96 85.41658624604254
7464.84 85.70192354378787
7727.05 85.64685258584264
7999.51 83.24908181084767
8282.23 84.15604080220295
8573.73 85.22026484114743
8876.95 85.63634209200761
9188.96 85.73475533747667
9514.16 86.00646328400366
9849.61 85.85189396127889
10196.8 85.37877660764548
10555.7 85.07374907558723
10927.7 84.8788674386142
11313.0 84.72718794054678
11712.9 84.92165435067128
12126.0 85.26211201660388
12553.7 85.62394516549698
12996.1 85.84932788704823
13454.6 85.92830393009625
13929.2 86.03629273095045
14419.9 85.90715393876678
14928.2 85.68142999423014
15455.6 85.28805095345108
16000.5 84.97056422739729
16564.5 85.45786030303769
17148.9 85.18598290775611
17752.4 84.64637000130911
18379.4 83.84065268331527
19026.9 83.10246873139454
19697.8 81.62744418286427
19999.5 80.47767019641041
