Freq "Floor Bounce"
22.4 -3.882525512622138
23.0 -2.7140928016282118
23.6 -1.1140928016282174
24.0 0.7548351931776978
25.0 2.6548351931777603
25.8 4.62050794108238
26.5 6.554835193177709
27.2 8.454835193177715
28.0 10.354835193177749
29.0 12.254835193177726
30.0 14.154835193177703
30.7 15.985907198371777
31.5 18.58590719837177
32.5 20.65182563008956
33.5 22.183640711472023
34.5 24.04954128210271
35.5 25.949541282102714
36.5 27.81595736787331
37.5 29.682111724578206
38.7 31.582111724578183
40.0 33.415189873417674
41.2 35.215189873417685
42.5 37.0151898734177
43.7 38.915189873417674
45.0 41.11518987341769
46.2 42.748779700297675
47.5 44.215189873417685
48.7 45.91518987341769
50.0 47.61518987341769
51.5 49.31518987341771
53.0 51.04877970029767
54.5 52.815189873417694
56.0 54.94877970029768
58.0 56.7821117245782
60.0 58.348779700297655
61.5 59.882111724578195
63.0 61.382111724578195
65.0 62.84877970029767
67.0 64.14877970029765
69.0 65.44877970029766
71.0 66.44877970029766
73.0 67.11518987341769
75.0 67.68211172457818
77.5 68.18211172457819
80.0 68.5151898734177
82.5 68.71518987341769
85.0 68.8151898734177
87.5 68.84877970029767
90.0 68.7821117245782
92.5 68.71518987341769
95.0 68.68211172457818
97.5 68.5821117245782
100.0 68.5821117245782
103.0 68.5821117245782
106.0 68.61518987341769
109.0 68.68211172457818
112.0 68.68211172457818
115.0 68.61518987341769
118.0 68.61518987341769
122.0 68.54877970029767
125.0 68.61518987341769
128.0 68.68211172457818
132.0 68.8151898734177
136.0 68.98211172457819
140.0 69.0151898734177
145.0 68.8821117245782
150.0 68.5821117245782
155.0 68.1159573678733
160.0 67.68211172457818
165.0 67.44954128210273
170.0 67.4159573678733
175.0 67.51595736787333
180.0 67.61595736787329
185.0 67.71595736787332
190.0 67.78364071147202
195.0 67.88364071147201
200.0 67.88669788128706
206.0 67.65563155287259
212.0 67.3912816279099
218.0 67.19128162790992
224.0 67.2556315528726
230.0 67.68364071147202
236.0 67.98364071147202
240.0 67.74954128210273
250.0 67.28364071147202
258.0 66.88364071147203
265.0 66.91595736787332
272.0 67.34954128210272
280.0 67.6495412821027
290.0 67.48364071147203
300.0 67.02050794108239
307.0 66.68669788128707
315.0 66.51825944446021
325.0 66.51825944446021
335.0 66.48669788128706
345.0 66.32746165657387
355.0 66.30501844015241
365.0 66.37615501578951
375.0 66.54277706625362
387.0 66.64277706625361
400.0 66.51416432472693
412.0 66.0248224402339
425.0 65.63698726030664
437.0 65.39181785595673
450.0 65.2248224402339
462.0 65.00407534496772
475.0 64.9178443768211
487.0 65.03311777106619
500.0 65.46581115352133
515.0 66.02461235767788
530.0 66.17385014942603
545.0 65.73351531526741
560.0 65.17384711359638
580.0 64.79617477892448
600.0 64.76371002800575
615.0 64.50908583225443
630.0 64.34988760702667
650.0 64.92461235767789
670.0 65.510254453776
690.0 65.49738800131824
710.0 64.93698726030664
730.0 64.25910712203405
750.0 64.01242669781693
775.0 63.98082256302757
800.0 64.48485065798812
825.0 65.75802017813743
850.0 66.8205079410824
875.0 66.88968338372207
900.0 67.18364071147202
925.0 68.48590719837178
950.0 68.58364071147203
975.0 67.91825944446022
1000.0 67.78364071147202
1030.0 69.15032046519752
1060.0 70.35563155287261
1090.0 70.02746165657389
1120.0 70.54428071499022
1150.0 70.26899961701216
1180.0 70.42505616014098
1220.0 71.31484426618947
1250.0 70.76178680146602
1280.0 70.03111526221751
1320.0 69.4544014865623
1360.0 68.81254256604593
1400.0 67.9707061413738
1450.0 66.87249136999698
1500.0 66.07319792111112
1550.0 65.23214382951025
1600.0 64.58771108082763
1650.0 65.04728572656317
1700.0 63.767799405439874
1750.0 63.12243687258503
1800.0 63.93423437127112
1850.0 64.00278911025988
1900.0 64.22461235767788
1950.0 63.85214999936137
2000.0 62.931780500345525
2060.0 61.02461235767788
2120.0 61.012426697816935
2180.0 60.48460973708498
2240.0 60.316866719464954
2300.0 60.502054152996166
2360.0 61.60907134291968
2400.0 62.609585541944554
2500.0 63.64356425954462
2580.0 62.81723883970852
2650.0 62.98612236573196
2720.0 63.402789110259874
2800.0 64.74388232709565
2900.0 64.73541147958065
3000.0 63.67542805454832
3070.0 63.689253143455275
3150.0 64.28820196586179
3250.0 64.88874745895228
3350.0 65.17457881238225
3450.0 64.63468641778597
3550.0 64.41657047303146
3650.0 64.2050298453613
3750.0 64.13640132914755
3870.0 63.46129321658647
4000.0 62.98802580698815
4120.0 63.4170955314448
4250.0 64.10884374871884
4370.0 65.50836474848661
4500.0 65.12370308092703
4620.0 63.20784742832764
4750.0 61.65288894820219
4870.0 60.78652536787797
5000.0 60.44340496332795
5150.0 61.999374169494814
5300.0 62.44145475091855
5450.0 62.91968226414066
5600.0 63.50836151414855
5800.0 64.43698726030665
6000.0 64.24479766189079
6150.0 64.06662768158587
6300.0 63.861517888974134
6500.0 63.282724819595856
6700.0 62.991769256594495
6900.0 62.09872506467745
7100.0 60.93456268603343
7300.0 61.67893211365379
7500.0 62.4200053424976
7750.0 62.827687110062456
8000.0 62.446328147709494
8250.0 62.09617477892449
8500.0 62.47706976171385
8750.0 63.845681993748514
9000.0 63.08307820257535
9250.0 61.960459267055896
9500.0 63.631838543270604
9750.0 65.74678954179346
10000.0 65.55796762417512
10300.0 63.873390086798935
10600.0 62.85884664414918
10900.0 63.400312713709326
11200.0 62.466825667334476
11500.0 60.37875799661195
11800.0 63.815952314689596
12200.0 64.64169702744108
12500.0 64.96980128568865
12800.0 66.40775998755377
13200.0 65.49738800131824
13600.0 61.48412603646156
14000.0 61.335055575594
14500.0 61.512126917236586
15000.0 59.50927951132334
15500.0 57.44988760702667
16000.0 57.286545898121275
16500.0 55.33268751788266
17000.0 63.61910129325372
17500.0 62.52454589932461
18000.0 62.154794970743524
18500.0 62.651278415454186
19000.0 63.944875655560395
19500.0 62.9040950642262
