Freq "Front Wall Bounce"
22.4 -3.8963749942372488
23.0 -2.878005442745888
23.6 -1.3900780473281031
24.0 0.3530556617604077
25.0 2.199419194994505
25.8 4.062741155236608
26.5 5.906461967594566
27.2 7.806461967594544
28.0 9.654077694859353
29.0 11.55407769485933
30.0 13.406461967594566
30.7 15.306461967594572
31.5 17.906461967594595
32.5 20.03393590673133
33.5 21.617441282220398
34.5 23.526937582648458
35.5 25.480868454646327
36.5 27.465287159995512
37.5 29.476589773218308
38.7 31.431755138619053
40.0 33.37297191737704
41.2 35.25873795327732
42.5 37.11541094484144
43.7 39.04346508697898
45.0 41.32977995082831
46.2 42.95839089711049
47.5 44.45839089711046
48.7 46.14506370513983
50.0 47.845063705139836
51.5 49.54506370513984
53.0 51.24506370513984
54.5 52.94506370513983
56.0 55.058390897110456
58.0 56.85839089711047
60.0 58.32977995082831
61.5 59.80097926743463
63.0 61.31475531529209
65.0 62.68585448910238
67.0 63.92880715674528
69.0 65.2
71.0 66.12880715674527
73.0 66.82880715674528
75.0 67.34313939533781
77.5 67.80065786069426
80.0 68.11508314243883
82.5 68.31508314243885
85.0 68.3861845050195
87.5 68.41508314243885
90.0 68.37166275391891
92.5 68.31508314243885
95.0 68.24313939533782
97.5 68.1716627539189
100.0 68.1716627539189
103.0 68.1716627539189
106.0 68.18618450501948
109.0 68.24313939533782
112.0 68.25775667464531
115.0 68.21508314243883
118.0 68.18618450501948
122.0 68.18618450501948
125.0 68.21508314243883
128.0 68.3437907541973
132.0 68.51508314243884
136.0 68.67166275391891
140.0 68.74379075419729
145.0 68.61508314243883
150.0 68.31508314243885
155.0 67.88748929892041
160.0 67.42979499755906
165.0 67.18748929892041
170.0 67.10229476693692
175.0 67.10229476693692
180.0 67.17525122642458
185.0 67.27525122642457
190.0 67.43175513861905
195.0 67.60229476693692
200.0 67.74675150375354
206.0 67.67525122642458
212.0 67.5048949937362
218.0 67.31998423401444
224.0 67.23175513861906
230.0 67.46035311823195
236.0 67.63175513861907
240.0 67.30229476693694
250.0 66.84675150375355
258.0 66.43537086618987
265.0 66.43537086618987
272.0 66.91998423401444
280.0 67.21998423401445
290.0 67.21998423401445
300.0 66.91998423401444
307.0 66.64675150375353
315.0 66.63175513861906
325.0 66.58748929892042
335.0 66.56035311823194
345.0 66.57848478147017
355.0 66.79366590096781
365.0 67.09366590096782
375.0 67.37848478147016
387.0 67.5048949937362
400.0 67.47525122642458
412.0 67.2874892989204
425.0 66.98748929892042
437.0 66.60489499373621
450.0 66.23924275721991
462.0 66.12940676691626
475.0 66.27602210108665
487.0 66.66005936857911
500.0 67.18539130564125
515.0 67.6136394060688
530.0 67.81363940606882
545.0 67.7677916354448
560.0 67.65251964068128
580.0 67.55251964068125
600.0 67.28847217927515
615.0 66.958217088195
630.0 66.62758020744903
650.0 66.72758020744902
670.0 66.98664191481758
690.0 66.8106896630263
710.0 66.31068966302631
730.0 66.30433100962667
750.0 66.58539130564125
775.0 66.58086845464632
800.0 66.63516047995819
825.0 67.01942621320379
850.0 67.23698126844558
875.0 67.18643721525845
900.0 67.38147278830732
925.0 67.40343598990847
950.0 67.15990168395999
975.0 67.13871757721681
1000.0 66.72076211162324
1030.0 66.3290846242019
1060.0 66.45602025920402
1090.0 66.04025497201728
1120.0 66.15160253959158
1150.0 66.34018861070368
1180.0 66.88420594457952
1220.0 67.12369527469372
1250.0 66.85086213388186
1280.0 66.32196088557919
1320.0 67.24980311072241
1360.0 67.98684446163055
1400.0 68.68849426429227
1450.0 68.41226549334766
1500.0 68.40687569495873
1550.0 68.46373611801398
1600.0 67.76060199394092
1650.0 68.12284371691733
1700.0 67.9490001808674
1750.0 67.64634793981975
1800.0 67.94660432473998
1850.0 67.53763373458919
1900.0 67.04462258558769
1950.0 66.34471317339094
2000.0 65.79811046865895
2060.0 65.3074800989159
2120.0 65.79064017659918
2180.0 66.54124799874556
2240.0 67.08969515549683
2300.0 67.19748995195553
2360.0 67.85452247721608
2400.0 68.1405628068114
2500.0 68.16016655532525
2580.0 67.11078558588912
2650.0 65.86021533077283
2720.0 63.974464225842894
2800.0 63.90487718796027
2900.0 63.41869322131217
3000.0 63.24110369852389
3070.0 64.65664599558656
3150.0 65.1382903861032
3250.0 65.50111965455731
3350.0 66.13681830408419
3450.0 66.20321617288772
3550.0 65.3967514200431
3650.0 65.32146308291564
3750.0 65.3719469475759
3870.0 65.64896478636679
4000.0 64.98140509237233
4120.0 65.26240492796036
4250.0 65.25838842414208
4370.0 65.63933669708996
4500.0 66.45598662459577
4620.0 66.35868617214919
4750.0 66.20575602014597
4870.0 66.28600110862766
5000.0 66.4705877909637
5150.0 66.71485283926475
5300.0 67.19138600433655
5450.0 67.7629575785828
5600.0 68.04686702071692
5800.0 68.0576628205326
6000.0 68.19567384512564
6150.0 67.69831386291902
6300.0 67.39896129735152
6500.0 67.02207999531727
6700.0 66.83703352818905
6900.0 67.20956351248896
7100.0 67.61696837905116
7300.0 67.57564530186625
7500.0 67.57811042235498
7750.0 66.75721016128014
8000.0 66.16160230655335
8250.0 65.53062113524193
8500.0 66.67499993051354
8750.0 69.00905511399388
9000.0 69.00645361017712
9250.0 68.08780254029737
9500.0 67.4885219551154
9750.0 67.59101521370843
10000.0 67.59251787216773
10300.0 67.32194079498343
10600.0 67.92338835068095
10900.0 67.47140639248204
11200.0 65.31534258149175
11500.0 64.27454878215802
11800.0 66.00293341486807
12200.0 66.04374616354767
12500.0 66.60647435344899
12800.0 65.93572687274349
13200.0 66.40041050054609
13600.0 66.6181608290306
14000.0 66.21300135326118
14500.0 64.89521012955238
15000.0 62.61297816441538
15500.0 63.89216279307499
16000.0 63.35452741707314
16500.0 60.13882593061925
17000.0 66.05903681361512
17500.0 65.04151074781714
18000.0 64.7503084907601
18500.0 66.49655324313457
19000.0 65.62440247278474
19500.0 65.65342052352884
