Freq "Rear Wall Bounce"
22.4 -4.174802296890064
23.0 -3.0884461558503205
23.6 -1.5911167939625983
24.0 0.16293967051258562
25.0 2.012930288698257
25.8 3.894615445599257
26.5 5.771589428810003
27.2 7.638426232081073
28.0 9.489407816148812
29.0 11.33262802870577
30.0 13.206360685148738
30.7 15.068430745293242
31.5 17.665328392532487
32.5 19.730873583000047
33.5 21.26371629497025
34.5 23.169678563253186
35.5 25.099285262798603
36.5 27.052416399430555
37.5 28.972709323815266
38.7 30.904475470564464
40.0 32.77878907408366
41.2 34.67166148647071
42.5 36.497621670596644
43.7 38.36047558816806
45.0 40.63005462015171
46.2 42.27106962157832
47.5 43.74228509086625
48.7 45.43509824043767
50.0 47.13348328837587
51.5 48.81620851796485
53.0 50.51527168936677
54.5 52.23580880893245
56.0 54.37147161734167
58.0 56.11783935134204
60.0 57.60217899960111
61.5 59.06428396530653
63.0 60.543416085187516
65.0 61.911312925859264
67.0 63.179953944725455
69.0 64.40088507114037
71.0 65.33704054989278
73.0 65.99542650289017
75.0 66.52667436078059
77.5 66.94209667829539
80.0 67.23174256503954
82.5 67.41095998652895
85.0 67.47446898836519
87.5 67.46370691198507
90.0 67.40586745667777
92.5 67.34209667829539
95.0 67.23174256503954
97.5 67.1420966782954
100.0 67.11095998652895
103.0 67.10028806891016
106.0 67.14750509042973
109.0 67.17885954432525
112.0 67.19505834643797
115.0 67.14774567497221
118.0 67.08458578608351
122.0 67.08007606103679
125.0 67.11193050384416
128.0 67.18568145892979
132.0 67.34957503503409
136.0 67.50284185147135
140.0 67.57213372669133
145.0 67.4517788851718
150.0 67.11585661268458
155.0 66.6411461201668
160.0 66.11731087172456
165.0 65.7228372224558
170.0 65.50617003508775
175.0 65.36314034693204
180.0 65.23532006991401
185.0 65.2006842741428
190.0 65.2580302641052
195.0 65.41507482122601
200.0 65.57384299059052
206.0 65.5789274866968
212.0 65.3155493984836
218.0 64.96910992587337
224.0 64.51575824562373
230.0 64.22837848190532
236.0 63.90334449374157
240.0 63.34397740795835
250.0 62.812074303558774
258.0 62.351772869960016
265.0 62.11658741641311
272.0 61.978267674341
280.0 61.476685900141874
290.0 60.64988046599457
300.0 59.85416330626619
307.0 59.59484667594275
315.0 59.74926097346044
325.0 59.97451974040523
335.0 60.09647240670196
345.0 60.29275433963066
355.0 60.69433985266038
365.0 60.99426887678983
375.0 60.88648273651627
387.0 60.36707733790698
400.0 59.91880037991308
412.0 59.75892907662339
425.0 59.54514725120927
437.0 58.94140986600533
450.0 58.46041935116601
462.0 58.607176811790225
475.0 59.18282267822205
487.0 60.012109858020054
500.0 60.64044639663129
515.0 60.512489104086896
530.0 59.74231254989155
545.0 58.931894840823134
560.0 58.209951715842266
580.0 57.65140609555591
600.0 57.32476098195782
615.0 57.09855653693414
630.0 57.51022217679021
650.0 58.18705486054414
670.0 58.273978872563745
690.0 57.89375166504426
710.0 56.680431640440844
730.0 55.74403332525277
750.0 55.16198937585605
775.0 54.92303027026898
800.0 55.572856740834936
825.0 55.19812268722036
850.0 54.81295262817987
875.0 54.451029631263864
900.0 53.701530983094685
925.0 54.252042391646995
950.0 53.331217949521275
975.0 53.64568367078287
1000.0 53.18673363548346
1030.0 52.91469944622341
1060.0 55.55619416710255
1090.0 53.875097919206056
1120.0 55.14214080304258
1150.0 55.427852089695534
1180.0 56.58404251493124
1220.0 56.87094853240542
1250.0 56.42286353291395
1280.0 55.70434677604199
1320.0 55.63813475115302
1360.0 56.133106712656385
1400.0 56.718920059420185
1450.0 56.09062974493375
1500.0 55.43710324554891
1550.0 54.39291250294714
1600.0 51.80014867002696
1650.0 52.407305308875664
1700.0 52.2274063023268
1750.0 49.823555173991
1800.0 47.64202386607609
1850.0 45.51161630229511
1900.0 44.36127702515388
1950.0 45.9065391439175
2000.0 46.88059380257569
2060.0 46.368546003828186
2120.0 46.71481864495182
2180.0 45.84620428752693
2240.0 45.38237008851702
2300.0 46.28876697057642
2360.0 48.85513567864497
2400.0 49.07683676580139
2500.0 49.32396593007536
2580.0 49.31360737783497
2650.0 49.02411500691899
2720.0 48.30611473100983
2800.0 48.18296623294586
2900.0 47.09896766931257
3000.0 45.07514783936189
3070.0 44.929955416807005
3150.0 44.422021012452504
3250.0 43.94137342741554
3350.0 43.99309928463235
3450.0 42.271768834508364
3550.0 40.495980975150175
3650.0 42.84696720841977
3750.0 45.154964679822186
3870.0 47.17413460771138
4000.0 47.1028384206396
4120.0 47.374478430327656
4250.0 45.872307405669986
4370.0 42.8634406477524
4500.0 44.12390602592477
4620.0 45.695085973392835
4750.0 45.972128418727806
4870.0 45.775451283554546
5000.0 45.41578997979447
5150.0 44.90432465055879
5300.0 44.27309706105028
5450.0 43.07877250229792
5600.0 41.40597771796287
5800.0 40.13521412737525
6000.0 41.67328066547638
6150.0 43.57098724322465
6300.0 42.94977602210271
6500.0 40.64338759529524
6700.0 40.185576315452565
6900.0 40.15233450989204
7100.0 40.666115195265675
7300.0 41.71493170990625
7500.0 40.46680496923911
7750.0 37.71977571084996
8000.0 39.903104216719456
8250.0 40.98169093841146
8500.0 42.35638986354486
8750.0 44.147443403282
9000.0 42.88891645828589
9250.0 43.19377656833136
9500.0 43.8350943838186
9750.0 42.49967160180613
10000.0 36.93052271592886
10300.0 37.3143704139667
10600.0 41.34517167600352
10900.0 43.07359863980203
11200.0 41.9309913585427
11500.0 41.147477750668415
11800.0 37.35897402586248
12200.0 34.22569904391811
12500.0 39.379384836064546
12800.0 39.41161642069589
13200.0 40.32319909823714
13600.0 37.02185258172541
14000.0 30.306397997973917
14500.0 31.32738169013392
15000.0 36.249263921075126
15500.0 35.82488222012525
16000.0 32.41681310681368
16500.0 24.366881155737545
17000.0 30.66029315721552
17500.0 33.71015239053763
18000.0 31.582227017410858
18500.0 32.61314864591803
19000.0 35.025304827191476
19500.0 35.87348371143561
