Freq "On Axis"
20.0 28.650283018867896
20.2909 29.1572830188679
20.586 29.698283018867897
20.8855 30.247283018867904
21.1893 30.77828301886791
21.4975 31.263283018867895
21.8102 31.67928301886792
22.1274 32.045283018867906
22.4492 32.410283018867915
22.7758 32.81028301886792
23.1071 33.261283018867914
23.4432 33.763283018867895
23.7841 34.28828301886793
24.1301 34.803283018867916
24.4811 35.29828301886792
24.8372 35.771283018867905
25.1984 36.2342830188679
25.5649 36.70128301886791
25.9368 37.17928301886792
26.3141 37.6742830188679
26.6968 38.176283018867906
27.0851 38.672283018867915
27.4791 39.15928301886791
27.8788 39.62928301886791
28.2843 40.0852830188679
28.6957 40.539283018867906
29.1131 40.997283018867904
29.5365 41.46828301886791
29.9661 41.9552830188679
30.402 42.45228301886792
30.8442 42.95028301886791
31.2929 43.43828301886791
31.748 43.91728301886792
32.2098 44.390283018867905
32.6783 44.860283018867904
33.1536 45.34528301886792
33.6359 45.84328301886791
34.1251 46.35328301886793
34.6215 46.8472830188679
35.125 47.3122830188679
35.6359 47.7582830188679
36.1543 48.19728301886792
36.6802 48.64928301886792
37.2137 49.13128301886792
37.755 49.63828301886791
38.3041 50.15528301886792
38.8613 50.65928301886791
39.4265 51.148283018867915
40.0 51.6272830188679
40.5818 52.1042830188679
41.1721 52.58428301886792
41.771 53.06728301886791
42.3785 53.5502830188679
42.9949 54.03428301886791
43.6203 54.523283018867915
44.2548 55.011283018867914
44.8985 55.49828301886791
45.5515 55.98828301886792
46.2141 56.47428301886791
46.8863 56.95328301886792
47.5683 57.4252830188679
48.2602 57.89328301886792
48.9621 58.36428301886791
49.6743 58.83428301886792
50.3968 59.305283018867925
51.1299 59.77828301886791
51.8736 60.24428301886792
52.6281 60.70428301886791
53.3936 61.158283018867905
54.1702 61.60828301886792
54.9581 62.053283018867916
55.7575 62.49328301886791
56.5685 62.926283018867906
57.3914 63.35128301886792
58.2261 63.76828301886792
59.073 64.17828301886792
59.9323 64.58128301886791
60.804 64.97828301886791
61.6884 65.36728301886791
62.5857 65.74928301886791
63.496 66.11828301886791
64.4196 66.47128301886792
65.3566 66.80828301886791
66.3073 67.13028301886791
67.2717 67.44328301886793
68.2502 67.75128301886792
69.2429 68.05228301886791
70.2501 68.34628301886792
71.2719 68.62428301886791
72.3086 68.88228301886791
73.3603 69.12028301886791
74.4274 69.3412830188679
75.5099 69.55228301886791
76.6083 69.75328301886792
77.7226 69.94728301886792
78.8531 70.13028301886791
80.0 70.29728301886792
81.1636 70.44928301886792
82.3442 70.59028301886791
83.5419 70.72128301886791
84.757 70.84428301886791
85.9899 70.95828301886792
87.2406 71.0622830188679
88.5096 71.15428301886791
89.797 71.23828301886792
91.1031 71.31428301886791
92.4282 71.38428301886792
93.7726 71.45128301886791
95.1366 71.51028301886791
96.5204 71.5632830188679
97.9243 71.60928301886791
99.3486 71.64728301886791
100.794 71.67828301886792
102.26 71.7042830188679
103.747 71.72428301886791
105.256 71.74028301886791
106.787 71.75628301886792
108.34 71.77328301886791
109.916 71.78828301886793
111.515 71.8012830188679
113.137 71.8102830188679
114.783 71.81528301886792
116.452 71.8162830188679
118.146 71.81528301886792
119.865 71.80828301886791
121.608 71.79728301886792
123.377 71.7812830188679
125.171 71.76128301886791
126.992 71.74428301886792
128.839 71.73328301886791
130.713 71.72828301886793
132.615 71.72928301886792
134.543 71.73228301886792
136.5 71.73828301886792
138.486 71.74128301886793
140.5 71.73928301886791
142.544 71.7342830188679
144.617 71.72428301886791
146.721 71.71528301886792
148.855 71.7042830188679
151.02 71.69528301886791
153.217 71.68528301886792
155.445 71.6732830188679
157.706 71.66328301886792
160.0 71.65028301886791
162.327 71.6372830188679
164.688 71.6272830188679
167.084 71.61928301886792
169.514 71.61828301886791
171.98 71.62528301886792
174.481 71.63928301886791
177.019 71.6522830188679
179.594 71.66028301886791
182.206 71.66228301886791
184.856 71.6572830188679
187.545 71.6462830188679
190.273 71.63328301886791
193.041 71.61928301886792
195.849 71.60728301886792
198.697 71.59628301886791
201.587 71.59328301886791
204.52 71.59028301886791
207.494 71.5802830188679
210.512 71.5722830188679
213.574 71.57128301886792
216.681 71.59028301886791
219.833 71.63528301886791
223.03 71.69028301886792
226.274 71.7342830188679
229.565 71.74428301886792
232.905 71.71928301886791
236.292 71.6792830188679
239.729 71.63928301886791
243.216 71.62028301886791
246.754 71.62128301886793
250.343 71.63028301886791
253.984 71.6402830188679
257.678 71.6572830188679
261.426 71.6822830188679
265.229 71.71128301886793
269.087 71.73728301886791
273.001 71.75328301886792
276.972 71.7342830188679
281.0 71.70828301886792
285.088 71.69628301886792
289.234 71.70628301886791
293.441 71.74128301886793
297.709 71.7812830188679
302.04 71.80628301886792
306.433 71.80928301886792
310.89 71.78728301886791
315.412 71.76328301886791
320.0 71.75628301886792
324.655 71.77528301886792
329.377 71.80028301886792
334.168 71.83328301886792
339.028 71.86028301886792
343.959 71.86028301886792
348.962 71.86428301886791
354.038 71.88128301886792
359.188 71.88328301886791
364.412 71.88528301886791
369.713 71.90028301886791
375.09 71.88228301886792
380.546 71.84428301886791
386.081 71.81428301886791
391.697 71.7832830188679
397.394 71.75728301886791
403.175 71.7172830188679
409.039 71.6972830188679
414.989 71.7172830188679
421.025 71.76328301886791
427.149 71.82928301886791
433.362 71.89528301886793
439.665 71.91628301886792
446.06 71.88228301886792
452.548 71.81428301886791
459.131 71.72228301886791
465.809 71.63428301886793
472.584 71.59928301886791
479.458 71.60728301886792
486.432 71.65028301886791
493.507 71.71128301886793
500.686 71.79628301886791
507.968 71.8872830188679
515.357 71.95428301886791
522.853 71.99628301886791
530.458 72.05828301886791
538.174 72.1022830188679
546.002 72.1612830188679
553.943 72.20728301886791
562.001 72.22528301886791
570.175 72.25128301886791
578.469 72.23228301886792
586.883 72.1912830188679
595.419 72.19628301886792
604.08 72.19528301886791
612.866 72.18728301886792
621.78 72.16628301886792
630.824 72.14928301886789
640.0 72.13828301886791
649.309 72.1582830188679
658.753 72.21128301886792
668.335 72.20628301886791
678.056 72.1852830188679
687.919 72.10528301886791
697.925 71.97528301886791
708.077 71.95928301886792
718.376 72.08428301886791
728.825 72.21828301886791
739.426 72.20428301886791
750.181 72.16828301886791
761.093 72.1752830188679
772.163 72.21228301886791
783.394 72.27928301886791
794.789 72.28128301886791
806.349 72.23828301886792
818.078 72.1922830188679
829.977 72.08628301886792
842.05 72.01628301886791
854.298 72.00628301886792
866.724 72.00328301886792
879.33 72.04328301886791
892.12 72.10428301886792
905.097 72.14328301886792
918.262 72.13828301886791
931.618 72.07228301886789
945.169 72.0272830188679
958.917 71.98128301886791
972.864 71.98428301886791
987.015 72.0302830188679
1001.37 72.0512830188679
1015.94 72.06628301886792
1030.71 72.07028301886791
1045.71 72.04428301886792
1060.92 72.04328301886791
1076.35 72.04228301886789
1092.0 72.00928301886792
1107.89 71.9782830188679
1124.0 72.04928301886792
1140.35 72.15028301886791
1156.94 72.07428301886792
1173.77 72.09028301886791
1190.84 72.1642830188679
1208.16 72.15728301886791
1225.73 72.1552830188679
1243.56 72.07928301886793
1261.65 71.93328301886791
1280.0 71.88028301886791
1298.62 71.8542830188679
1317.51 71.84628301886791
1336.67 71.86828301886791
1356.11 71.8012830188679
1375.84 71.75228301886791
1395.85 71.71028301886791
1416.15 71.6442830188679
1436.75 71.66128301886789
1457.65 71.63128301886792
1478.85 71.61928301886792
1500.36 71.62528301886792
1522.19 71.6142830188679
1544.33 71.70728301886791
1566.79 71.7802830188679
1589.58 71.84428301886791
1612.7 71.88528301886791
1636.16 71.84028301886791
1659.95 71.83528301886793
1684.1 71.75228301886791
1708.6 71.6642830188679
1733.45 71.60028301886791
1758.66 71.47928301886792
1784.24 71.36528301886791
1810.19 71.27528301886791
1836.52 71.1852830188679
1863.24 71.15328301886791
1890.34 71.15128301886791
1917.83 71.22028301886792
1945.73 71.33428301886792
1974.03 71.40628301886791
2002.74 71.44628301886792
2031.87 71.40928301886791
2061.43 71.31128301886791
2091.41 71.26728301886791
2121.83 71.21228301886791
2152.69 71.16628301886792
2184.01 71.15428301886791
2215.77 71.1222830188679
2248.0 71.07628301886791
2280.7 71.04428301886792
2313.87 71.07128301886792
2347.53 71.1092830188679
2381.68 71.10528301886791
2416.32 71.13228301886791
2451.46 71.15728301886791
2487.12 71.16628301886792
2523.3 71.22328301886793
2560.0 71.33028301886793
2597.24 71.4202830188679
2635.01 71.4732830188679
2673.34 71.50028301886792
2712.23 71.41228301886791
2751.68 71.22528301886791
2791.7 71.02828301886791
2832.31 70.7952830188679
2873.5 70.59428301886791
2915.3 70.5212830188679
2957.7 70.49028301886791
3000.72 70.49828301886791
3044.37 70.4972830188679
3088.65 70.40528301886792
3133.58 70.2272830188679
3179.16 69.99228301886791
3225.4 69.73628301886791
3272.31 69.56728301886791
3319.91 69.48928301886792
3368.2 69.5252830188679
3417.19 69.65928301886791
3466.89 69.7922830188679
3517.32 69.82728301886792
3568.48 69.75428301886791
3620.39 69.59128301886791
3673.05 69.43328301886791
3726.47 69.35628301886791
3780.67 69.4012830188679
3835.67 69.5512830188679
3891.46 69.72928301886793
3948.06 69.88528301886791
4005.49 70.02528301886791
4063.75 70.1642830188679
4122.86 70.30328301886792
4182.82 70.38928301886791
4243.66 70.3872830188679
4305.39 70.3002830188679
4368.01 70.1822830188679
4431.55 70.10028301886791
4496.01 70.05928301886792
4561.4 70.07928301886791
4627.75 70.12528301886792
4695.06 70.17528301886792
4763.35 70.25228301886791
4832.64 70.33728301886791
4902.93 70.4072830188679
4974.24 70.44828301886793
5046.6 70.48328301886791
5120.0 70.51628301886791
5194.47 70.49328301886791
5270.03 70.3962830188679
5346.68 70.26828301886792
5424.45 70.18128301886792
5503.35 70.18728301886793
5583.4 70.27828301886791
5664.61 70.45828301886792
5747.01 70.6672830188679
5830.6 70.83928301886792
5915.41 70.97828301886791
6001.45 71.07028301886791
6088.74 71.08328301886792
6177.3 71.0192830188679
6267.15 70.95128301886791
6358.31 70.9382830188679
6450.8 70.99628301886793
6544.62 71.11628301886793
6639.82 71.25528301886791
6736.4 71.40928301886791
6834.38 71.51728301886791
6933.79 71.53528301886791
7034.64 71.55628301886792
7136.96 71.5072830188679
7240.77 71.36128301886791
7346.09 71.2762830188679
7452.94 71.13728301886792
7561.35 70.96328301886791
7671.33 70.93328301886791
7782.91 70.87228301886793
7896.12 70.8052830188679
8010.97 70.82428301886792
8127.49 70.8012830188679
8245.71 70.76728301886791
8365.65 70.74028301886791
8487.33 70.6882830188679
8610.78 70.6432830188679
8736.03 70.65328301886791
8863.09 70.75028301886792
8992.01 70.88428301886792
9122.8 71.05528301886791
9255.5 71.2952830188679
9390.12 71.46828301886791
9526.7 71.56428301886791
9665.27 71.6272830188679
9805.86 71.62828301886792
9948.49 71.59328301886791
10093.2 71.63028301886791
10240.0 71.6882830188679
10388.9 71.7642830188679
10540.1 71.76628301886791
10693.4 71.75228301886791
10848.9 71.68328301886791
11006.7 71.5122830188679
11166.8 71.28228301886791
11329.2 70.99128301886792
11494.0 70.63928301886791
11661.2 70.3002830188679
11830.8 69.9962830188679
12002.9 69.79128301886792
12177.5 69.67928301886789
12354.6 69.70628301886791
12534.3 69.74728301886792
12716.6 69.79728301886792
12901.6 69.96028301886793
13089.2 70.11528301886791
13279.6 70.35128301886792
13472.8 70.54328301886791
13668.8 70.6822830188679
13867.6 70.82028301886791
14069.3 70.89928301886789
14273.9 70.98328301886792
14481.5 71.04128301886792
14692.2 71.05828301886791
14905.9 71.06028301886792
15122.7 71.01628301886791
15342.7 71.00028301886792
15565.8 70.99728301886792
15792.2 71.0272830188679
16021.9 71.10228301886791
16255.0 71.1402830188679
16491.4 71.17128301886791
16731.3 71.1552830188679
16974.7 71.13028301886791
17221.6 71.13328301886793
17472.1 71.16228301886791
17726.2 71.22028301886792
17984.0 71.28128301886791
18245.6 71.29028301886791
18511.0 71.31028301886789
18780.2 71.27828301886791
19053.4 71.24928301886791
19330.5 71.26128301886791
19611.7 71.27528301886791
19897.0 71.39228301886791
