Freq,On Axis,Listening Window,Sound Power,Early Reflections,Early Reflections DI,Sound Power DI,DI offset
20.5078,64.16280606060604,64.15318486933853,64.01790795249363,64.08055361424448,50.07263125509405,50.1352769168449,50
21.9727,64.95580606060605,64.93701309446405,64.55769611026113,64.75172624237743,50.18528685208662,50.379316984202916,50
23.4375,66.48300606060604,66.47136307235775,66.26045301230039,66.36657921325715,50.10478385910059,50.21091006005736,50
24.9023,66.99020606060603,66.97357923192314,66.62639208364476,66.80365037252383,50.169928859399306,50.34718714827838,50
26.3672,68.01450606060605,68.00004774846886,67.69868017528137,67.85117083292488,50.14887691554398,50.30136757318749,50
27.832,69.03840606060605,69.0204551095647,68.66756644529525,68.84570699123199,50.1747481183327,50.35288866426944,50
29.2969,69.81800606060605,69.80066894122535,69.44520988298567,69.62624364092419,50.174425300301166,50.35545905823969,50
30.7617,70.82040606060605,70.80109172573854,70.40935341015987,70.60951108336978,50.19158064236876,50.39173831557868,50
32.2266,71.41190606060604,71.39547340138054,71.0765790798151,71.2367817033934,50.15869169798714,50.31889432156544,50
33.6914,72.15030606060603,72.13135899195134,71.78040268953666,71.9544455326524,50.176913459298945,50.35095630241469,50
35.1562,72.81470606060603,72.79401712495624,72.3771887775254,72.58803357222664,50.205983552729606,50.41682834743084,50
36.6211,73.60380606060605,73.58520770718029,73.23594291753939,73.41034314085593,50.17486456632436,50.3492647896409,50
38.0859,74.27120606060605,74.25126698087863,73.876373520828,74.06559903730493,50.18566794357369,50.37489346005063,50
39.5508,74.95580606060605,74.93623104555103,74.57784942538947,74.75726554287638,50.17896550267464,50.35838162016155,50
41.0156,75.42320606060605,75.40349959815933,75.07416368362905,75.2387561566704,50.16474344148892,50.329335914530276,50
42.4805,76.29990606060605,76.27646965145738,75.81402749523589,76.0485278182326,50.227941833224776,50.462442156221485,50
43.9453,76.72080606060607,76.6982566653003,76.27386711109307,76.48883044396678,50.20942622133353,50.42438955420724,50
45.4102,77.40990606060605,77.38677090284173,76.94990512775789,77.17079380065664,50.21597710218509,50.436865775083845,50
46.875,77.96610606060605,77.94314496715114,77.51789492440885,77.73274147196875,50.21040349518239,50.42525004274229,50
48.3398,78.61610606060603,78.59274626454692,78.1737174612526,78.38420863514716,50.20853762939976,50.419028803294324,50
51.2695,79.84670606060607,79.81911624230092,79.31384993767017,79.57014825344538,50.24896798885554,50.50526630463075,50
52.7344,80.38500606060603,80.35694272097471,79.85235815058772,80.10596768279525,50.25097503817946,50.504584570386996,50
54.1992,80.79750606060605,80.77016648101012,80.28043189104397,80.52724461088351,50.24292187012661,50.48973458996615,50
55.6641,81.37210606060604,81.3414640658194,80.76712602820575,81.0572853584861,50.2841787073333,50.57433803761364,50
58.5938,82.39030606060604,82.36157388892667,81.83540057168852,82.09884156682669,50.26273232209998,50.52617331723815,50
60.0586,82.90200606060603,82.87277532991305,82.34652401616727,82.60929973430085,50.263475595612206,50.52625131374579,50
62.9883,83.82530606060605,83.79353328641356,83.2306212798384,83.51078845448728,50.28274483192628,50.56291200657516,50
64.4531,84.25310606060604,84.22094538127612,83.65938048392272,83.93811808071521,50.28282730056091,50.561564897353406,50
67.3828,85.05570606060604,85.02272776143347,84.46934376290442,84.74174356723485,50.28098419419862,50.55338399852906,50
68.8477,85.44700606060604,85.41332790948779,84.86259705996727,85.13306751890993,50.280260390577865,50.55073084952052,50
71.7773,86.20150606060605,86.16301960536809,85.5411932391444,85.84535647394205,50.317663131426045,50.62182636622369,50
74.707,86.96050606060604,86.92177861057647,86.28600249086209,86.59717286653003,50.32460574404644,50.63577611971438,50
77.6367,87.61600606060605,87.57418727305583,86.88089389128214,87.22421786244202,50.34996941061381,50.693293381773685,50
79.1016,87.91090606060605,87.86801438850344,87.1598133750046,87.51088130801776,50.35713308048568,50.70820101349884,50
82.0312,88.45590606060605,88.41016203330375,87.65265209874201,88.028480897626,50.38168113567775,50.75750993456174,50
84.9609,88.92120606060605,88.87314422672361,88.07513830367355,88.46972959729024,50.40341462943337,50.798005923050056,50
87.8906,89.17820606060604,89.13145203896853,88.3951230765638,88.7569575492551,50.37449448971343,50.73632896240473,50
90.8203,89.66550606060605,89.61028281133464,88.70635327063636,89.15927075745637,50.45101205387827,50.903929540698286,50
95.2148,89.92960606060605,89.87523834110235,89.00932871374661,89.43696954384001,50.43826879726234,50.865909627355734,50
98.1445,90.08650606060604,90.02789793231477,89.1075955474405,89.56156666121514,50.466331271099634,50.920302384874276,50
101.074,90.02980606060606,89.96995527704645,89.1006885311672,89.525390631483,50.444564645563446,50.86926674587926,50
105.469,90.12870606060605,90.05272651475235,88.9245870132845,89.47522707251241,50.57749944223994,51.12813950146786,50
108.398,90.48870606060606,90.41638098669858,89.2442994931859,89.82633663879417,50.59004434790441,51.17208149351268,50
112.793,90.69960606060604,90.62164530970767,89.38999464836496,90.00009439293422,50.62155091677346,51.23165066134271,50
117.188,90.71510606060605,90.63345527655457,89.2967607174986,89.96158630099578,50.671868975558795,51.33669455905597,50
120.117,90.79980606060604,90.71494478601629,89.29286827479118,90.00016706010194,50.714777725914345,51.422076511225114,50
124.512,90.69250606060605,90.60845246873504,89.16979508941033,89.88750100450055,50.72095146423449,51.43865737932471,50
128.906,90.44180606060604,90.35743820083249,89.0187041006989,89.67633122564831,50.68110697518418,51.33873410013359,50
133.301,90.39750606060605,90.30586995675088,88.84661225405769,89.5675923084438,50.738277648307076,51.45925770269319,50
139.16,90.30510606060605,90.20567226800044,88.59255495655152,89.39286848899633,50.81280377900411,51.61311731144892,50
143.555,90.13430606060604,90.03022966135657,88.37028876414719,89.18853259901095,50.84169706234562,51.65994089720938,50
147.949,89.97350606060604,89.86207722425452,88.11973584683795,88.9755879093245,50.88648931493002,51.742341377416565,50
153.809,89.92150606060605,89.79916347871536,87.84995997498724,88.8159445470603,50.98321893165506,51.949203503728114,50
159.668,90.19240606060605,90.07069023425159,88.01727526778896,89.04240266170453,51.02828757254706,52.053414966462626,50
165.527,90.12580606060604,90.0001633822586,87.91153573828944,88.94654555272172,51.05361782953689,52.08862764396916,50
171.387,90.07660606060605,89.94602220816088,87.67487843872499,88.81113437876726,51.13488782939362,52.271143769435895,50
177.246,89.87800606060605,89.74007023901535,87.31511150365425,88.53416835996356,51.205901879051794,52.4249587353611,50
183.105,89.68300606060603,89.54182973932546,87.03667877575164,88.29966515006905,51.24216458925642,52.505150963573826,50
188.965,89.78160606060605,89.63249220520521,86.98632087226846,88.31947269846862,51.313019506736595,52.646171332936746,50
196.289,89.91120606060605,89.75300871883086,86.89879480348706,88.34545729151172,51.407551427319135,52.85421391534379,50
203.613,89.91080606060605,89.72344408345953,86.48000334876289,88.14516691136373,51.578277172095795,53.243440734696634,50
210.938,89.80920606060604,89.63876738065858,86.36461426426398,88.02879166028579,51.60997572037279,53.2741531163946,50
218.262,89.52840606060605,89.36103108648358,86.27581576796719,87.81102306123978,51.5500080252438,53.08521531851639,50
225.586,89.99260606060605,89.79032647610296,86.35047588637973,88.07004661393339,51.720279862169576,53.439850589723235,50
232.91,90.21010606060605,89.99963768355872,86.15259901458154,88.12712798139252,51.8725097021662,53.84703866897718,50
241.699,89.87800606060605,89.6887349839047,85.7742162148512,87.78426512112581,51.90446986277888,53.9145187690535,50
250.488,90.29170606060606,90.10157764719031,86.01256522955494,88.11677823651108,51.98479941067923,54.089012417635374,50
259.277,90.26190606060604,90.06404777604841,85.89804306853466,88.0522405209276,52.011807255120814,54.16600470751375,50
268.066,89.63240606060603,89.44726788091359,85.28727068005998,87.40920210986155,52.03806577105203,54.15999720085361,50
276.855,89.97240606060605,89.76957449979022,85.28989639573486,87.60427398522295,52.16530051456728,54.47967810405537,50
287.109,89.44160606060605,89.24633330856375,85.00958897482788,87.09304218032034,52.15329112824341,54.23674433373587,50
297.363,90.16360606060604,89.91785995985109,85.22131564029573,87.5624971101603,52.35536284969079,54.69654431955536,50
307.617,90.22810606060605,90.03401525750446,85.3053998289925,87.70592309709096,52.328092160413505,54.72861542851196,50
319.336,89.40680606060604,89.21683868847128,84.66070517575919,86.90200499869952,52.31483368977176,54.556133512712094,50
329.59,89.64370606060605,89.47266287721985,84.9450710160092,87.17276215107867,52.299900726141175,54.52759186121065,50
341.309,90.40740606060604,90.16353256837505,85.66342017656005,87.79439334004189,52.369139228333154,54.500112391814994,50
353.027,91.14660606060605,90.88773516537124,85.83727049021329,88.29519773660832,52.592537428762924,55.050464675157954,50
366.211,91.42210606060604,91.14785415250583,85.8020248789986,88.35286983093233,52.794984321573494,55.345829273507235,50
379.395,91.29720606060604,91.05189213820096,85.75701614745745,88.29430097682899,52.75759116137196,55.294875990743506,50
392.578,90.36000606060605,90.14393887011342,85.0992460046725,87.38798726237229,52.755951607741125,55.04469286544092,50
405.762,90.23240606060605,89.94417435112132,84.71704415546813,87.02792632631242,52.916248024808894,55.22713019565319,50
420.41,90.55600606060605,90.22626908719288,84.86449284995807,87.2089168275668,53.01735225962608,55.36177623723481,50
435.059,90.17010606060603,89.76225799426491,84.3590527436683,86.5573352286801,53.20492276558481,55.40320525059661,50
451.172,91.61210606060605,91.16520717056069,84.56602264699671,87.41505125275025,53.750155917810446,56.59918452356398,50
465.82,91.01350606060605,90.6215308152446,84.22968741754164,86.89355148854654,53.72797932669806,56.39184339770296,50
483.398,90.45320606060605,90.08459164650185,84.38345885570361,86.57258497669133,53.51200666981052,55.70113279079824,50
499.512,90.23500606060605,89.81367815255003,83.98315341699073,86.14722914388722,53.66644900866281,55.830524735559294,50
517.09,90.49190606060604,90.02445352922015,84.68430741621722,86.49978022101047,53.524673308209685,55.34014611300293,50
536.133,90.99980606060605,90.27455526997053,83.8656415402093,85.9838404776638,54.29071479230673,56.40891372976124,50
555.176,91.33700606060604,90.69811656605398,83.6376064350635,86.14762215574534,54.550494410308644,57.06051013099048,50
574.219,91.08520606060603,90.63125685422591,84.01804805691795,86.27338159725076,54.35787525697515,56.61320879730796,50
594.727,90.08300606060605,89.61405552763759,83.58100829651524,85.52720963668929,54.0868458909483,56.03304723112235,50
615.234,89.83810606060605,89.15611911028526,83.12283111734011,84.91598401994344,54.24013509034182,56.03328799294515,50
637.207,90.22050606060606,89.54644604128127,83.34302844758884,85.15670755965066,54.389738481630616,56.203417593692436,50
659.18,89.52030606060606,88.8223710127405,82.44854662480992,84.37979281421082,54.44257819852969,56.37382438793058,50
682.617,88.76190606060607,87.98062554815436,82.18297891181439,83.69454398620523,54.28608156194913,55.79764663633998,50
707.52,89.95710606060605,89.23660904712153,82.84587858230257,84.71678376549008,54.519825281631455,56.39073046481896,50
732.422,89.28560606060604,88.53475904263895,82.80781225068017,84.43848074243688,54.09627830020207,55.72694679195878,50
757.324,90.59800606060605,89.86998884450705,83.87387481654578,85.79389439513504,54.07609444937201,55.99611402796127,50
785.156,91.21430606060605,90.39899347410855,84.51908558475355,86.48267758927445,53.916315884834106,55.879907889354996,50
811.523,91.26930606060604,90.42441989673029,84.07780716842011,86.26477442869404,54.159645468036246,56.34661272831018,50
840.82,90.66820606060605,90.07602762624686,83.33929050443345,85.83117294633703,54.24485467990982,56.736737121813405,50
870.117,90.96620606060604,89.92300716819881,82.89620741152794,85.32464676802681,54.598360400172,57.02679975667087,50
900.879,91.05110606060605,89.90146051993239,83.15130013519457,85.70132433903925,54.20013618089314,56.75016038473781,50
933.105,90.20740606060605,89.40200922671892,82.17454622206024,84.97737529091118,54.424633935807734,57.227463004658674,50
965.332,90.29920606060605,89.7477009908776,82.17734071722312,85.04189854964925,54.70580244122836,57.57036027365449,50
1000.49,90.36770606060605,89.5542787280661,81.92372986681539,84.74099483305565,54.81328389501044,57.6305488612507,50
1035.64,90.88270606060607,89.74210048131891,82.54042691586854,85.29561445708043,54.44648602423848,57.20167356545038,50
1072.27,90.28520606060604,89.41559155855491,82.40411696442618,84.95123182073206,54.464359737822846,57.01147459412873,50
1108.89,90.60950606060605,89.54094291072948,82.7380028735461,85.46196620199586,54.07897670873362,56.80294003718339,50
1148.44,90.98110606060605,89.41778340836996,82.7937529143976,85.36749668351894,54.05028672485102,56.624030493972356,50
1189.45,89.54350606060605,88.79542071089453,83.01320055004882,85.28691011064076,53.50851060025377,55.78222016084571,50
1230.47,89.30800606060605,88.73257141530641,82.96699853904583,85.40499882741969,53.32757258788672,55.76557287626058,50
1274.41,89.45430606060604,88.63977351193213,83.44626691699105,85.68966342073999,52.950110091192144,55.193506594941084,50
1319.82,90.34250606060604,89.07361420918869,83.69718005854065,85.99996636209472,53.073647847093966,55.37643415064804,50
1366.7,89.44450606060605,88.7392224621491,83.64921406625615,85.95580049718087,52.78342196496823,55.09000839589295,50
1413.57,89.63140606060605,88.42876994214353,83.50401808752397,85.54636847748162,52.88240146466191,54.92475185461956,50
1463.38,88.84460606060605,87.94969050621822,82.92509467503041,85.1589892830156,52.79070122320262,55.02459583118781,50
1516.11,88.44280606060605,87.55922091435684,82.1379380567436,84.77058617385018,52.788634740506666,55.42128285761325,50
1568.85,88.23890606060604,87.18280900395219,81.42064637129107,84.27291856544404,52.90989043850814,55.762162632661116,50
1624.51,89.25110606060605,87.7001926904244,81.67822836963882,84.70969529019845,52.99049740022595,56.021964320785585,50
1681.64,89.96850606060605,88.363158295663,81.98088946184936,85.09030923887171,53.27284905679129,56.38226883381364,50
1741.7,90.22660606060604,89.0587563039915,82.62086455350217,85.67193563296877,53.38682067102273,56.43789175048933,50
1803.22,90.23140606060605,89.29155735441745,82.91649585891128,85.9458604221043,53.345696932313146,56.37506149550617,50
1866.21,89.57450606060604,89.17389796872048,82.51100315638645,85.70304478885924,53.47085317986124,56.66289481233403,50
1932.13,89.70280606060605,88.9417229757905,82.13424635168201,85.2927819050302,53.6489410707603,56.80747662410849,50
1999.51,89.45270606060606,88.75204533252129,81.82563217518123,85.13537708613198,53.61666824638931,56.926413157340065,50
2069.82,90.20710606060607,88.9179783961672,81.46449645843157,85.06473192530945,53.853246470857755,57.45348193773563,50
2143.07,90.40400606060605,89.1865564621155,81.1985176603173,85.03601453760665,54.15054192450886,57.98803880179821,50
2219.24,89.86480606060604,89.0789270436828,80.9392825138587,84.75723462568203,54.321692418000765,58.139644529824096,50
2296.88,89.07010606060604,88.65372819720541,80.59287933052762,84.30073778433665,54.35299041286876,58.06084886667779,50
2378.91,89.82300606060605,88.42953793466907,80.31962968370357,84.12327610096453,54.30626183370454,58.1099082509655,50
2462.4,90.43540606060606,88.76579183642312,80.36645926764359,84.23368621208638,54.53210562433674,58.39933256877953,50
2548.83,90.10430606060604,88.69833700391504,80.06394417426571,84.02542802930697,54.67290897460808,58.63439282964933,50
2639.65,88.46820606060606,87.64053717297561,79.00032726117918,82.79579552866242,54.84474164431319,58.64020991179643,50
2731.93,87.53990606060604,86.34735265340602,77.57354022021008,81.51023076551799,54.83712188788803,58.77381243319594,50
2828.61,88.34060606060606,86.60741100638309,77.78687119375327,81.88904944381852,54.71836156256457,58.82053981262982,50
2928.22,90.14470606060604,88.24713823908391,79.2149947028108,83.55186049278983,54.69527774629408,59.03214353627311,50
3030.76,91.18170606060605,89.28024782010803,80.28504137600095,84.64471211917882,54.63553570092921,58.99520644410708,50
3137.7,91.57660606060605,89.86721893229188,80.94431806174121,85.2574135681209,54.60980536417098,58.92290087055066,50
3249.02,90.78390606060603,89.5403600251444,80.83147524862075,84.89319713529885,54.647162889845546,58.70888477652365,50
3363.28,90.12000606060604,89.01476392186275,80.28441018519096,84.26816250506026,54.74660141680249,58.73035373667179,50
3481.93,89.47960606060605,88.89597913721038,80.10400854767397,84.13300577062947,54.76297336658091,58.791970589536405,50
3604.98,89.95120606060604,89.23092752501498,80.69509399982542,84.69978192537619,54.53114559963879,58.53583352518956,50
3732.42,91.32740606060605,89.98541045128668,81.43838441643422,85.52948041401434,54.45593003727234,58.547026034852465,50
3864.26,90.99120606060603,90.02585245270427,81.29604879668074,85.50786183014118,54.51799062256309,58.729803656023535,50
4000.49,90.31980606060604,89.67150451308709,81.23320573596293,85.36993724261718,54.3015672704699,58.43829877712416,50
4141.11,91.53450606060605,90.22997149320776,81.71377517478228,85.94423987070944,54.28573162249832,58.51619631842547,50
4287.6,91.25670606060604,90.15057156691839,81.75044925655897,85.91820288895852,54.23236867795987,58.40012231035942,50
4438.48,90.78180606060604,90.19679392391953,81.75550856709526,85.92266369773965,54.27413022617988,58.44128535682427,50
4595.21,90.68660606060607,90.10605779782692,81.77612454790355,85.86445085868999,54.24160693913693,58.32993324992337,50
4756.35,90.34320606060606,90.53030274251878,82.34812185684659,86.30685164428334,54.223451098235444,58.182180885672196,50
4924.8,90.36630606060605,90.59922149394171,82.43458344298773,86.4861968663775,54.113024627564215,58.16463805095398,50
5097.66,90.57240606060606,90.87538189768756,82.48628603509651,86.50752877376078,54.36785312392678,58.38909586259105,50
5277.83,90.87330606060604,91.365664654718,83.19428768998114,87.05944188606104,54.306222768656966,58.171376964736865,50
5463.87,90.29840606060606,91.40383715306601,83.68380866100914,87.31761943764837,54.08621771541763,57.72002849205687,50
5657.23,90.20690606060604,91.47362006958032,83.86550954748293,87.22580103396524,54.24781903561508,57.60811052209739,50
5856.45,90.36570606060604,91.58475847397301,83.79582391478094,87.14371743677766,54.44104103719535,57.78893455919207,50
6062.99,90.42860606060604,90.99247364016254,82.95483517502257,86.45283185924694,54.5396417809156,58.03763846513998,50
6276.86,89.54080606060604,89.78536494379505,81.5885147128565,85.09014370028419,54.69522124351086,58.19685023093855,50
6498.05,86.47490606060605,86.89018809676895,78.77732219709011,82.18453879793714,54.705649298831815,58.11286589967884,50
6726.56,82.25640606060605,84.3611504595574,76.32806092629245,79.78448626731539,54.576664192242006,58.03308953326494,50
6963.87,84.85200606060604,86.31647076637243,77.56075940822119,81.43370919408319,54.88276157228924,58.755711358151245,50
7209.96,87.15510606060604,87.32630574486429,78.46353289142534,82.3731591722734,54.95314657259088,58.86277285343894,50
7464.84,87.34840606060605,87.59292229520297,78.89117184858256,82.88483083770429,54.70809145749868,58.70175044662041,50
7727.05,87.91230606060603,86.9442377342026,78.75119316310156,82.71218695035003,54.23205078385257,58.19304457110104,50
7999.51,87.17260606060604,85.97812039327299,78.09014846883383,82.11705299418864,53.86106739908435,57.88797192443916,50
