Freq,On Axis,Listening Window,Sound Power,Early Reflections,Early Reflections DI,Sound Power DI,DI offset
20.5078,63.94640000000001,63.9367788087325,63.80150189188757,63.86414755363842,50.07263125509408,50.13527691684493,50
21.9727,64.73940000000002,64.72060703385802,64.34129004965507,64.53532018177137,50.18528685208665,50.379316984202944,50
23.4375,66.26660000000001,66.25495701175169,66.04404695169436,66.15017315265109,50.10478385910059,50.21091006005733,50
24.9023,66.7738,66.75717317131708,66.4099860230387,66.58724431191777,50.169928859399306,50.34718714827838,50
26.3672,67.7981,67.78364168786281,67.48227411467532,67.63476477231883,50.14887691554398,50.30136757318749,50
27.832,68.822,68.80404904895863,68.4511603846892,68.62930093062594,50.17474811833269,50.35288866426943,50
29.2969,69.6016,69.58426288061932,69.22880382237962,69.40983758031813,50.174425300301195,50.3554590582397,50
30.7617,70.604,70.5846856651325,70.19294734955383,70.39310502276372,50.19158064236878,50.391738315578664,50
32.2266,71.19549999999998,71.1790673407745,70.86017301920907,71.02037564278737,50.15869169798712,50.31889432156542,50
33.6914,71.9339,71.9149529313453,71.56399662893062,71.73803947204637,50.17691345929893,50.35095630241467,50
35.1562,72.5983,72.5776110643502,72.16078271691934,72.37162751162057,50.20598355272962,50.41682834743085,50
36.6211,73.3874,73.36880164657424,73.01953685693334,73.19393708024987,50.17486456632437,50.3492647896409,50
38.0859,74.0548,74.03486092027256,73.65996746022196,73.84919297669887,50.18566794357369,50.3748934600506,50
39.5508,74.73940000000002,74.71982498494498,74.36144336478343,74.54085948227032,50.17896550267466,50.35838162016155,50
41.0156,75.20680000000002,75.1870935375533,74.85775762302302,75.02235009606436,50.16474344148894,50.329335914530276,50
42.4805,76.0835,76.06006359085133,75.59762143462984,75.83212175762657,50.22794183322476,50.462442156221485,50
43.9453,76.5044,76.48185060469427,76.05746105048702,76.27242438336073,50.209426221333544,50.42438955420725,50
45.4102,77.1935,77.17036484223568,76.73349906715183,76.9543877400506,50.21597710218508,50.43686577508386,50
46.875,77.7497,77.7267389065451,77.30148886380282,77.5163354113627,50.21040349518239,50.42525004274228,50
48.3398,78.3997,78.37634020394088,77.95731140064653,78.16780257454111,50.20853762939977,50.41902880329435,50
51.2695,79.6303,79.60271018169487,79.09744387706414,79.35374219283933,50.24896798885554,50.50526630463074,50
52.7344,80.1686,80.14053666036867,79.63595208998166,79.8895616221892,50.25097503817946,50.50458457038701,50
54.1992,80.58110000000002,80.55376042040406,80.06402583043793,80.31083855027748,50.24292187012658,50.48973458996613,50
55.6641,81.1557,81.12505800521336,80.55071996759969,80.84087929788004,50.284178707333325,50.57433803761367,50
58.5938,82.1739,82.14516782832062,81.61899451108248,81.88243550622066,50.262732322099964,50.52617331723815,50
60.0586,82.6856,82.65636926930702,82.1301179555612,82.3928936736948,50.26347559561222,50.52625131374582,50
62.9883,83.6089,83.57712722580752,83.01421521923236,83.29438239388124,50.28274483192628,50.56291200657516,50
64.4531,84.0367,84.00453932067006,83.44297442331666,83.72171202010917,50.282827300560896,50.561564897353406,50
67.3828,84.8393,84.80632170082741,84.25293770229835,84.5253375066288,50.28098419419861,50.55338399852906,50
68.8477,85.2306,85.19692184888176,84.64619099936121,84.91666145830386,50.280260390577894,50.55073084952055,50
71.7773,85.98509999999999,85.94661354476206,85.32478717853834,85.62895041333601,50.317663131426045,50.621826366223715,50
74.707,86.7441,86.70537254997042,86.06959643025604,86.38076680592398,50.32460574404644,50.63577611971438,50
77.6367,87.3996,87.35778121244977,86.66448783067608,87.00781180183596,50.34996941061381,50.693293381773685,50
79.1016,87.6945,87.65160832789739,86.94340731439857,87.2944752474117,50.357133080485696,50.70820101349882,50
82.0312,88.2395,88.19375597269772,87.43624603813598,87.81207483701995,50.381681135677766,50.75750993456174,50
84.9609,88.7048,88.65673816611758,87.8587322430675,88.2533235366842,50.40341462943337,50.798005923050084,50
87.8906,88.9618,88.9150459783625,88.17871701595774,88.54055148864907,50.37449448971343,50.736328962404755,50
90.8203,89.4491,89.3938767507286,88.48994721003031,88.94286469685034,50.45101205387826,50.903929540698286,50
95.2148,89.7132,89.65883228049631,88.79292265314055,89.22056348323395,50.43826879726237,50.86590962735576,50
98.1445,89.87010000000001,89.81149187170874,88.89118948683445,89.34516060060908,50.46633127109966,50.92030238487429,50
101.074,89.8134,89.75354921644039,88.88428247056116,89.30898457087696,50.44456464556343,50.86926674587923,50
105.469,89.9123,89.83632045414629,88.70818095267845,89.25882101190635,50.57749944223994,51.12813950146784,50
108.398,90.2723,90.19997492609255,89.02789343257986,89.60993057818814,50.59004434790441,51.17208149351269,50
112.793,90.48319999999998,90.40523924910164,89.1735885877589,89.78368833232815,50.62155091677349,51.23165066134274,50
117.188,90.49870000000001,90.41704921594851,89.08035465689257,89.74518024038974,50.671868975558766,51.33669455905594,50
120.117,90.5834,90.49853872541024,89.07646221418514,89.78376099949591,50.71477772591433,51.4220765112251,50
124.512,90.4761,90.392046408129,88.95338902880428,89.67109494389452,50.72095146423449,51.438657379324724,50
128.906,90.2254,90.14103214022646,88.80229804009286,89.45992516504226,50.68110697518419,51.33873410013359,50
133.301,90.1811,90.08946389614485,88.63020619345164,89.35118624783776,50.73827764830709,51.45925770269321,50
139.16,90.0887,89.9892662073944,88.37614889594548,89.17646242839027,50.81280377900413,51.61311731144892,50
143.555,89.9179,89.81382360075052,88.15388270354114,88.9721265384049,50.84169706234563,51.65994089720938,50
147.949,89.7571,89.64567116364847,87.90332978623191,88.75918184871847,50.88648931493,51.742341377416565,50
153.809,89.70509999999999,89.58275741810931,87.63355391438118,88.59953848645425,50.98321893165506,51.94920350372813,50
159.668,89.976,89.85428417364552,87.80086920718293,88.8259966010985,51.02828757254703,52.0534149664626,50
165.527,89.9094,89.78375732165254,87.6951296776834,88.73013949211565,51.05361782953689,52.08862764396915,50
171.387,89.8602,89.72961614755482,87.45847237811894,88.5947283181612,51.13488782939362,52.27114376943588,50
177.246,89.6616,89.52366417840932,87.0987054430482,88.31776229935753,51.205901879051794,52.424958735361116,50
183.105,89.4666,89.3254236787194,86.82027271514559,88.083259089463,51.242164589256404,52.50515096357381,50
188.965,89.5652,89.41608614459916,86.76991481166243,88.10306663786255,51.31301950673661,52.64617133293673,50
196.289,89.69479999999999,89.53660265822481,86.68238874288102,88.12905123090567,51.407551427319135,52.85421391534379,50
203.613,89.6944,89.5070380228535,86.26359728815684,87.92876085075768,51.57827717209581,53.24344073469665,50
210.938,89.5928,89.42236132005254,86.14820820365793,87.81238559967974,51.6099757203728,53.274153116394615,50
218.262,89.31199999999998,89.14462502587752,86.05940970736114,87.59461700063375,51.55000802524377,53.085215318516376,50
225.586,89.7762,89.57392041549693,86.13406982577366,87.85364055332734,51.72027986216959,53.439850589723264,50
232.91,89.99370000000002,89.78323162295266,85.9361929539755,87.91072192078649,51.87250970216617,53.84703866897715,50
241.699,89.6616,89.47232892329863,85.55781015424515,87.56785906051978,51.90446986277885,53.91451876905349,50
250.488,90.0753,89.88517158658428,85.79615916894889,87.90037217590502,51.98479941067926,54.08901241763539,50
259.277,90.0455,89.84764171544235,85.6816370079286,87.83583446032156,52.011807255120786,54.16600470751375,50
268.066,89.416,89.23086182030752,85.07086461945391,87.1927960492555,52.03806577105202,54.15999720085361,50
276.855,89.756,89.55316843918418,85.07349033512881,87.38786792461688,52.16530051456729,54.47967810405537,50
287.109,89.2252,89.02992724795772,84.79318291422183,86.87663611971429,52.153291128243424,54.236744333735885,50
297.363,89.9472,89.70145389924504,85.00490957968968,87.34609104955425,52.35536284969079,54.69654431955536,50
307.617,90.0117,89.81760919689842,85.08899376838647,87.48951703648493,52.32809216041349,54.728615428511944,50
319.336,89.1904,89.00043262786522,84.44429911515314,86.68559893809349,52.31483368977173,54.55613351271208,50
329.59,89.4273,89.25625681661379,84.72866495540315,86.95635609047262,52.29990072614116,54.52759186121064,50
341.309,90.191,89.94712650776901,85.44701411595402,87.57798727943586,52.369139228333154,54.500112391814994,50
353.027,90.9302,90.6713291047652,85.62086442960724,88.07879167600225,52.59253742876295,55.05046467515797,50
366.211,91.2057,90.93144809189978,85.58561881839256,88.1364637703263,52.79498432157348,55.34582927350722,50
379.395,91.0808,90.83548607759491,85.54061008685142,88.07789491622293,52.75759116137198,55.29487599074349,50
392.578,90.1436,89.92753280950735,84.88283994406646,87.17158120176626,52.755951607741096,55.044692865440894,50
405.762,90.016,89.72776829051529,84.50063809486208,86.81152026570636,52.91624802480892,55.2271301956532,50
420.41,90.3396,90.00986302658681,84.64808678935204,86.99251076696076,53.01735225962605,55.36177623723478,50
435.059,89.9537,89.54585193365887,84.14264668306224,86.34092916807407,53.2049227655848,55.40320525059663,50
451.172,91.3957,90.94880110995466,84.34961658639065,87.1986451921442,53.75015591781046,56.599184523564006,50
465.82,90.7971,90.40512475463854,84.0132813569356,86.6771454279405,53.72797932669803,56.39184339770294,50
483.398,90.23680000000002,89.86818558589582,84.16705279509756,86.3561789160853,53.51200666981052,55.701132790798255,50
499.512,90.0186,89.59727209194398,83.76674735638468,85.93082308328118,53.666449008662795,55.830524735559294,50
517.09,90.2755,89.80804746861409,84.46790135561119,86.28337416040443,53.52467330820966,55.3401461130029,50
536.133,90.7834,90.05814920936449,83.64923547960323,85.76743441705777,54.290714792306716,56.40891372976125,50
555.176,91.1206,90.48171050544794,83.42120037445744,85.93121609513928,54.55049441030866,57.060510130990494,50
574.219,90.8688,90.41485079361985,83.8016419963119,86.05697553664473,54.35787525697512,56.61320879730795,50
594.727,89.8666,89.39764946703156,83.36460223590919,85.31080357608325,54.08684589094831,56.03304723112237,50
615.234,89.6217,88.93971304967923,82.90642505673407,84.69957795933738,54.24013509034185,56.03328799294516,50
637.207,90.0041,89.33003998067522,83.12662238698279,84.94030149904461,54.389738481630616,56.203417593692436,50
659.18,89.3039,88.60596495213447,82.23214056420386,84.16338675360475,54.442578198529716,56.37382438793061,50
682.617,88.5455,87.7642194875483,81.96657285120833,83.47813792559917,54.28608156194913,55.79764663633998,50
707.52,89.7407,89.02020298651549,82.62947252169651,84.50037770488404,54.51982528163144,56.39073046481897,50
732.422,89.0692,88.31835298203292,82.59140619007411,84.22207468183082,54.0962783002021,55.72694679195881,50
757.324,90.38159999999999,89.65358278390102,83.65746875593973,85.577488334529,54.07609444937202,55.99611402796128,50
785.156,90.99790000000002,90.1825874135025,84.30267952414749,86.2662715286684,53.916315884834106,55.87990788935501,50
811.523,91.0529,90.20801383612422,83.86140110781405,86.04836836808799,54.15964546803623,56.34661272831018,50
840.82,90.4518,89.8596215656408,83.12288444382739,85.61476688573099,54.24485467990981,56.736737121813405,50
870.117,90.7498,89.70660110759276,82.67980135092188,85.10824070742078,54.598360400171984,57.02679975667088,50
900.879,90.8347,89.68505445932632,82.93489407458853,85.48491827843318,54.20013618089314,56.7501603847378,50
933.105,89.99100000000001,89.18560316611288,81.9581401614542,84.76096923030515,54.424633935807734,57.22746300465869,50
965.332,90.08280000000002,89.53129493027156,81.96093465661708,84.8254924890432,54.70580244122836,57.57036027365447,50
1000.49,90.15130000000002,89.33787266746006,81.70732380620933,84.52458877244962,54.81328389501044,57.63054886125073,50
1035.64,90.6663,89.52569442071287,82.3240208552625,85.07920839647437,54.446486024238496,57.20167356545036,50
1072.27,90.0688,89.19918549794885,82.18771090382013,84.734825760126,54.464359737822846,57.011474594128714,50
1108.89,90.3931,89.32453685012345,82.52159681294006,85.24556014138983,54.07897670873362,56.80294003718339,50
1148.44,90.7647,89.20137734776392,82.57734685379154,85.1510906229129,54.05028672485102,56.624030493972384,50
1189.45,89.3271,88.5790146502885,82.79679448944276,85.07050405003473,53.50851060025377,55.78222016084574,50
1230.47,89.0916,88.51616535470036,82.75059247843978,85.18859276681363,53.327572587886735,55.76557287626058,50
1274.41,89.2379,88.4233674513261,83.22986085638502,85.47325736013394,52.95011009119216,55.193506594941084,50
1319.82,90.1261,88.85720814858264,83.4807739979346,85.78356030148868,53.073647847093966,55.37643415064804,50
1366.7,89.22810000000001,88.52281640154307,83.4328080056501,85.73939443657483,52.78342196496824,55.090008395892966,50
1413.57,89.41499999999999,88.21236388153747,83.28761202691793,85.32996241687556,52.88240146466191,54.924751854619544,50
1463.38,88.62820000000002,87.73328444561218,82.70868861442436,84.94258322240957,52.79070122320262,55.024595831187824,50
1516.11,88.2264,87.34281485375081,81.92153199613753,84.55418011324412,52.788634740506694,55.42128285761328,50
1568.85,88.0225,86.96640294334614,81.20424031068502,84.056512504838,52.90989043850814,55.762162632661116,50
1624.51,89.03470000000002,87.48378662981834,81.46182230903275,84.49328922959239,52.99049740022595,56.021964320785585,50
1681.64,89.75209999999998,88.14675223505695,81.7644834012433,84.87390317826565,53.2728490567913,56.382268833813654,50
1741.7,90.0102,88.84235024338544,82.40445849289611,85.45552957236272,53.38682067102272,56.43789175048933,50
1803.22,90.015,89.07515129381142,82.70008979830521,85.72945436149826,53.34569693231316,56.3750614955062,50
1866.21,89.35809999999998,88.95749190811443,82.29459709578042,85.48663872825321,53.47085317986122,56.66289481233402,50
1932.13,89.4864,88.72531691518444,81.91784029107598,85.07637584442415,53.64894107076029,56.80747662410846,50
1999.51,89.2363,88.53563927191524,81.60922611457516,84.91897102552592,53.616668246389324,56.92641315734008,50
2069.82,89.9907,88.70157233556114,81.24809039782554,84.84832586470338,53.853246470857755,57.4534819377356,50
2143.07,90.1876,88.97015040150944,80.98211159971123,84.8196084770006,54.15054192450884,57.98803880179821,50
2219.24,89.6484,88.86252098307676,80.72287645325265,84.540828565076,54.321692418000765,58.13964452982411,50
2296.88,88.8537,88.43732213659936,80.37647326992158,84.0843317237306,54.35299041286876,58.06084886667779,50
2378.91,89.60659999999999,88.21313187406301,80.10322362309753,83.90687004035847,54.30626183370454,58.109908250965475,50
2462.4,90.219,88.54938577581706,80.15005320703754,84.01728015148032,54.53210562433674,58.39933256877951,50
2548.83,89.8879,88.48193094330901,79.84753811365968,83.80902196870093,54.67290897460808,58.63439282964933,50
2639.65,88.2518,87.42413111236955,78.78392120057313,82.57938946805636,54.84474164431319,58.64020991179642,50
2731.93,87.3235,86.13094659279999,77.35713415960402,81.29382470491193,54.83712188788806,58.77381243319597,50
2828.61,88.1242,86.39100494577704,77.57046513314722,81.67264338321245,54.718361562564596,58.82053981262982,50
2928.22,89.92830000000001,88.03073217847788,78.99858864220474,83.33545443218377,54.69527774629411,59.03214353627314,50
3030.76,90.9653,89.063841759502,80.06863531539491,84.42830605857279,54.63553570092921,58.99520644410708,50
3137.7,91.3602,89.65081287168582,80.72791200113518,85.04100750751485,54.60980536417097,58.922900870550635,50
3249.02,90.5675,89.32395396453833,80.61506918801469,84.6767910746928,54.64716288984553,58.70888477652365,50
3363.28,89.9036,88.79835786125672,80.06800412458492,84.05175644445421,54.746601416802505,58.7303537366718,50
3481.93,89.26319999999998,88.67957307660431,79.88760248706794,83.91659971002343,54.76297336658088,58.791970589536376,50
3604.98,89.7348,89.01452146440894,80.47868793921938,84.48337586477015,54.53114559963879,58.53583352518956,50
3732.42,91.111,89.76900439068065,81.22197835582817,85.3130743534083,54.45593003727235,58.54702603485248,50
3864.26,90.7748,89.80944639209821,81.07964273607469,85.29145576953515,54.51799062256306,58.72980365602352,50
4000.49,90.1034,89.45509845248104,81.01679967535688,85.15353118201114,54.3015672704699,58.43829877712416,50
4141.11,91.3181,90.01356543260171,81.49736911417625,85.72783381010339,54.28573162249832,58.51619631842546,50
4287.6,91.0403,89.93416550631233,81.53404319595293,85.70179682835249,54.23236867795984,58.40012231035939,50
4438.48,90.56540000000001,89.98038786331348,81.5391025064892,85.7062576371336,54.27413022617988,58.44128535682428,50
4595.21,90.4702,89.88965173722087,81.55971848729752,85.64804479808394,54.24160693913693,58.32993324992336,50
4756.35,90.1268,90.31389668191274,82.13171579624053,86.09044558367731,54.22345109823543,58.18218088567221,50
4924.8,90.1499,90.38281543333567,82.2181773823817,86.26979080577144,54.11302462756423,58.16463805095397,50
5097.66,90.356,90.65897583708153,82.26987997449048,86.29112271315475,54.36785312392678,58.38909586259105,50
5277.83,90.65689999999998,91.14925859411194,82.9778816293751,86.843035825455,54.30622276865694,58.17137696473684,50
5463.87,90.082,91.18743109245995,83.46740260040309,87.10121337704234,54.086217715417604,57.720028492056855,50
5657.23,89.9905,91.25721400897427,83.6491034868769,87.00939497335918,54.247819035615095,57.60811052209738,50
5856.45,90.1493,91.36835241336695,83.57941785417489,86.92731137617162,54.44104103719533,57.78893455919206,50
6062.99,90.2122,90.7760675795565,82.73842911441653,86.23642579864088,54.539641780915616,58.03763846513996,50
6276.86,89.3244,89.568958883189,81.37210865225043,84.87373763967814,54.69522124351086,58.196850230938566,50
6498.05,86.2585,86.67378203616292,78.56091613648408,81.9681327373311,54.705649298831815,58.11286589967884,50
6726.56,82.04,84.14474439895136,76.1116548656864,79.56808020670934,54.57666419224202,58.033089533264956,50
6963.87,84.6356,86.1000647057664,77.34435334761513,81.21730313347715,54.882761572289255,58.755711358151274,50
7209.96,86.93869999999998,87.10989968425824,78.24712683081931,82.15675311166737,54.95314657259087,58.862772853438926,50
7464.84,87.132,87.37651623459692,78.67476578797653,82.66842477709824,54.70809145749868,58.701750446620395,50
7727.05,87.6959,86.72783167359654,78.53478710249553,82.495780889744,54.23205078385254,58.19304457110101,50
7999.51,86.9562,85.76171433266693,77.87374240822778,81.90064693358258,53.86106739908435,57.88797192443914,50
8282.23,86.39249999999998,85.1163830103068,77.92628723764365,81.79166417111705,53.32471883918976,57.190095772663156,50
8573.73,88.2506,85.93998278681217,78.85780619236763,82.690822018946,53.24916076786617,57.08217659444453,50
8876.95,88.9528,87.15862146995752,80.0492138894537,84.16914434532296,52.98947712463456,57.10940758050383,50
9188.96,89.1624,87.40606392492342,79.53355136558137,83.90667353452724,53.49939039039617,57.87251255934204,50
9514.16,89.7716,88.00558314244516,79.5620807832977,84.16033611994729,53.84524702249787,58.44350235914746,50
9849.61,90.867,88.6456740040745,79.88466170859635,84.66177003437113,53.98390396970336,58.76101229547814,50
10196.8,91.0129,88.87064075747574,80.0191182393417,84.88891539304792,53.98172536442782,58.85152251813405,50
10555.7,91.1549,89.07629619882677,80.21455485958839,85.13659635969589,53.93969983913088,58.86174133923838,50
10927.7,90.96520000000001,88.91637424871597,80.05740098190196,85.0318109896993,53.88456325901667,58.858973266814004,50
11313.0,90.1842,88.41183407451064,80.02352789006827,84.91931115679438,53.49252291771626,58.38830618444237,50
11712.9,89.297,87.87608374920165,79.63043349742021,84.57637127166674,53.29971247753491,58.24565025178144,50
12126.0,88.4882,87.74839521735004,79.51126042662129,84.35716337438518,53.39123184296486,58.237134790728746,50
