Freq "Listening Window"
20.5078 63.9367788087325
21.9727 64.72060703385802
23.4375 66.25495701175169
24.9023 66.75717317131708
26.3672 67.78364168786281
27.832 68.80404904895863
29.2969 69.58426288061932
30.7617 70.5846856651325
32.2266 71.1790673407745
33.6914 71.9149529313453
35.1562 72.5776110643502
36.6211 73.36880164657424
38.0859 74.03486092027256
39.5508 74.71982498494498
41.0156 75.1870935375533
42.4805 76.06006359085133
43.9453 76.48185060469427
45.4102 77.17036484223568
46.875 77.7267389065451
48.3398 78.37634020394088
51.2695 79.60271018169487
52.7344 80.14053666036867
54.1992 80.55376042040406
55.6641 81.12505800521336
58.5938 82.14516782832062
60.0586 82.65636926930702
62.9883 83.57712722580752
64.4531 84.00453932067006
67.3828 84.80632170082741
68.8477 85.19692184888176
71.7773 85.94661354476206
74.707 86.70537254997042
77.6367 87.35778121244977
79.1016 87.65160832789739
82.0312 88.19375597269772
84.9609 88.65673816611758
87.8906 88.9150459783625
90.8203 89.3938767507286
95.2148 89.65883228049631
98.1445 89.81149187170874
101.074 89.75354921644039
105.469 89.83632045414629
108.398 90.19997492609255
112.793 90.40523924910164
117.188 90.41704921594851
120.117 90.49853872541024
124.512 90.392046408129
128.906 90.14103214022646
133.301 90.08946389614485
139.16 89.9892662073944
143.555 89.81382360075052
147.949 89.64567116364847
153.809 89.58275741810931
159.668 89.85428417364552
165.527 89.78375732165254
171.387 89.72961614755482
177.246 89.52366417840932
183.105 89.3254236787194
188.965 89.41608614459916
196.289 89.53660265822481
203.613 89.5070380228535
210.938 89.42236132005254
218.262 89.14462502587752
225.586 89.57392041549693
232.91 89.78323162295266
241.699 89.47232892329863
250.488 89.88517158658428
259.277 89.84764171544235
268.066 89.23086182030752
276.855 89.55316843918418
287.109 89.02992724795772
297.363 89.70145389924504
307.617 89.81760919689842
319.336 89.00043262786522
329.59 89.25625681661379
341.309 89.94712650776901
353.027 90.6713291047652
366.211 90.93144809189978
379.395 90.83548607759491
392.578 89.92753280950735
405.762 89.72776829051529
420.41 90.00986302658681
435.059 89.54585193365887
451.172 90.94880110995466
465.82 90.40512475463854
483.398 89.86818558589582
499.512 89.59727209194398
517.09 89.80804746861409
536.133 90.05814920936449
555.176 90.48171050544794
574.219 90.41485079361985
594.727 89.39764946703156
615.234 88.93971304967923
637.207 89.33003998067522
659.18 88.60596495213447
682.617 87.7642194875483
707.52 89.02020298651549
732.422 88.31835298203292
757.324 89.65358278390102
785.156 90.1825874135025
811.523 90.20801383612422
840.82 89.8596215656408
870.117 89.70660110759276
900.879 89.68505445932632
933.105 89.18560316611288
965.332 89.53129493027156
1000.49 89.33787266746006
1035.64 89.52569442071287
1072.27 89.19918549794885
1108.89 89.32453685012345
1148.44 89.20137734776392
1189.45 88.5790146502885
1230.47 88.51616535470036
1274.41 88.4233674513261
1319.82 88.85720814858264
1366.7 88.52281640154307
1413.57 88.21236388153747
1463.38 87.73328444561218
1516.11 87.34281485375081
1568.85 86.96640294334614
1624.51 87.48378662981834
1681.64 88.14675223505695
1741.7 88.84235024338544
1803.22 89.07515129381142
1866.21 88.95749190811443
1932.13 88.72531691518444
1999.51 88.53563927191524
2069.82 88.70157233556114
2143.07 88.97015040150944
2219.24 88.86252098307676
2296.88 88.43732213659936
2378.91 88.21313187406301
2462.4 88.54938577581706
2548.83 88.48193094330901
2639.65 87.42413111236955
2731.93 86.13094659279999
2828.61 86.39100494577704
2928.22 88.03073217847788
3030.76 89.063841759502
3137.7 89.65081287168582
3249.02 89.32395396453833
3363.28 88.79835786125672
3481.93 88.67957307660431
3604.98 89.01452146440894
3732.42 89.76900439068065
3864.26 89.80944639209821
4000.49 89.45509845248104
4141.11 90.01356543260171
4287.6 89.93416550631233
4438.48 89.98038786331348
4595.21 89.88965173722087
4756.35 90.31389668191274
4924.8 90.38281543333567
5097.66 90.65897583708153
5277.83 91.14925859411194
5463.87 91.18743109245995
5657.23 91.25721400897427
5856.45 91.36835241336695
6062.99 90.7760675795565
6276.86 89.568958883189
6498.05 86.67378203616292
6726.56 84.14474439895136
6963.87 86.1000647057664
7209.96 87.10989968425824
7464.84 87.37651623459692
7727.05 86.72783167359654
7999.51 85.76171433266693
8282.23 85.1163830103068
8573.73 85.93998278681217
8876.95 87.15862146995752
9188.96 87.40606392492342
9514.16 88.00558314244516
9849.61 88.6456740040745
10196.8 88.87064075747574
10555.7 89.07629619882677
10927.7 88.91637424871597
11313.0 88.41183407451064
11712.9 87.87608374920165
12126.0 87.74839521735004
12553.7 88.22698517940705
12996.1 87.30844916375926
13454.6 88.10337605403748
13929.2 88.3830796139609
14419.9 88.3505561134185
14928.2 88.13589989249938
15455.6 86.51427302239674
16000.5 85.66035650734041
16564.5 86.7024440466036
17148.9 86.72497075357498
17752.4 86.73576756189354
18379.4 86.30400568732321
19026.9 85.51704856250916
19697.8 84.36398948337828
19999.5 83.87309411746187
