Freq "Estimated In-Room Response"
20.0 68.73613165584757
20.2909 68.88820587896139
20.586 69.04057921784984
20.8855 69.17044751165666
21.1893 69.3007102284017
21.4975 69.43124934568053
21.8102 69.56199509091712
22.1274 69.69304243076611
22.4492 69.82442356022545
22.7758 69.95587016944174
23.1071 70.08783710902061
23.4432 70.22106915467461
23.7841 70.41541444358347
24.1301 70.6099562265572
24.4811 70.80484373452708
24.8372 70.99998648232392
25.1984 71.19520041335329
25.5649 71.39077507096698
25.9368 71.58659378064614
26.3141 71.78267469943032
26.6968 72.00068469115213
27.0851 72.22245455481219
27.4791 72.44431579390144
27.8788 72.66633801157924
28.2843 72.88858115185309
28.6957 73.11090337831226
29.1131 73.33342658015435
29.5365 73.5588874097384
29.9661 73.78623833684945
30.402 74.01381162505733
30.8442 74.24153778580136
31.2929 74.46926340689971
31.748 74.69722146450806
32.2098 74.92535151071782
32.6783 75.14932537598838
33.1536 75.37331007297482
33.6359 75.59758289643663
34.1251 75.8217983456988
34.6215 76.0460745570317
35.125 76.27041803241515
35.6359 76.48601354216116
36.1543 76.70105846538226
36.6802 76.91611420149674
37.2137 77.13119056376802
37.755 77.3464776761787
38.3041 77.55742121496066
38.8613 77.76143518889853
39.4265 77.96566506053654
40.0 78.16984984900061
40.5818 78.37408943713716
41.1721 78.57548700665556
41.771 78.76909313788849
42.3785 78.96273584509288
42.9949 79.15626786386265
43.6203 79.35000688568635
44.2548 79.53962319692566
44.8985 79.72457620346142
45.5515 79.90963269976581
46.2141 80.09454829894668
46.8863 80.27956727238166
47.5683 80.45849117941947
48.2602 80.63723983021313
48.9621 80.81627209753927
49.6743 80.99532382523913
50.3968 81.17114032538552
51.1299 81.3463031502566
51.8736 81.52162115030706
52.6281 81.69682491572205
53.3936 81.87050394280557
54.1702 82.04373077263486
54.9581 82.21695628231348
55.7575 82.39022872092302
56.5685 82.56254700366694
57.3914 82.73486342109071
58.2261 82.90721204223647
59.073 83.07923782573228
59.9323 83.25102312243061
60.804 83.4228466246979
61.6884 83.59445809324082
62.5857 83.76542948506577
63.496 83.9364330163627
64.4196 84.10760571676268
65.3566 84.27745016658096
66.3073 84.44739611137466
67.2717 84.61740381901808
68.2502 84.78565121904519
69.2429 84.95376760962284
70.2501 85.12189855209965
71.2719 85.28771648852913
72.3086 85.4532358109791
73.3603 85.61865044522693
74.4274 85.78123739127193
75.5099 85.94384201787364
76.6083 86.10521463268128
77.7226 86.26452096694678
78.8531 86.42381030908848
80.0 86.5807469349659
81.1636 86.73716346388859
82.3442 86.89257444417109
83.5419 87.04619267515349
84.757 87.19976809263807
85.9899 87.35158199032725
87.2406 87.50312099671955
88.5096 87.65388353617462
89.797 87.80380888970794
91.1031 87.95330577321471
92.4282 88.10175474480457
93.7726 88.25031976908087
95.1366 88.39722148755608
96.5204 88.54423094392199
97.9243 88.68893970773216
99.3486 88.83347571637816
100.794 88.97279204423796
102.26 89.11121943688158
103.747 89.25252008490071
105.256 89.39478360283132
106.787 89.53650154806554
108.34 89.67813068376957
109.916 89.81896818228932
111.515 89.95959719348458
113.137 90.09926945170557
114.783 90.23844012937442
116.452 90.37659322605853
118.146 90.51326747408555
119.865 90.64917334121552
121.608 90.78176434266263
123.377 90.91328535064616
125.171 91.0406809723195
126.992 91.16504087900046
128.839 91.28685302386283
130.713 91.40271443828107
132.615 91.51587000039153
134.543 91.62568123887357
136.5 91.73024531847987
138.486 91.83260717570752
140.5 91.93195563430152
142.544 92.02728089595473
144.617 92.12036125688226
146.721 92.21154696656072
148.855 92.30003940241602
151.02 92.38718413371927
153.217 92.47343621342773
155.445 92.55935258305168
157.706 92.64555375182476
160.0 92.73268611487083
162.327 92.82092465330892
164.688 92.91046799417843
167.084 93.0007486616667
169.514 93.09096836059472
171.98 93.18013651025619
174.481 93.26718865627258
177.019 93.3515784954738
179.594 93.43159551794146
182.206 93.50633514737314
184.856 93.57379413787608
187.545 93.63235632115689
190.273 93.67922954893567
193.041 93.7143729873491
195.849 93.73894026781845
198.697 93.75597571973341
201.587 93.76983583919971
204.52 93.78613855466715
207.494 93.8096348159343
210.512 93.84323644724208
213.574 93.88626749908187
216.681 93.93599695950056
219.833 93.98766447765146
223.03 94.03675428051211
226.274 94.0811429913163
229.565 94.12049234678999
232.905 94.15654698657012
236.292 94.19111964821188
239.729 94.22610811405207
243.216 94.26178251685135
246.754 94.29795701655453
250.343 94.33375182674257
253.984 94.36870304922888
257.678 94.40305521467104
261.426 94.4370772785542
265.229 94.47278157194359
269.087 94.5112900625827
273.001 94.55380504081802
276.972 94.60048660074644
281.0 94.65008974531241
285.088 94.70031645179745
289.234 94.74647743645278
293.441 94.77485445913058
297.709 94.76469400094065
302.04 94.73636430846622
306.433 94.75710131936547
310.89 94.80628509817282
315.412 94.88063870832113
320.0 94.95049432915417
324.655 94.99912392040613
329.377 95.02087370883179
334.168 95.02024934778045
339.028 95.00226496420532
343.959 94.97925848498019
348.962 94.95920246023726
354.038 94.94992812372934
359.188 94.95670341816387
364.412 94.98149589311697
369.713 95.02295391874202
375.09 95.0752946334293
380.546 95.12918744165162
386.081 95.17800365238956
391.697 95.22198136763032
397.394 95.26320298332757
403.175 95.3014869032424
409.039 95.33442847926344
414.989 95.36132599153477
421.025 95.3853902501307
427.149 95.4069631540236
433.362 95.42094652856923
439.665 95.42131753243939
446.06 95.41299606474357
452.548 95.4134098763511
459.131 95.44324826254497
465.809 95.51375906042263
472.584 95.6247806219655
479.458 95.76187241887905
486.432 95.9090473438231
493.507 96.04817431688087
500.686 96.16232110657127
507.968 96.23995773264492
515.357 96.26122134151619
522.853 96.26585634930238
530.458 96.25236780728966
538.174 96.22733647048715
546.002 96.1896038924691
553.943 96.13075931499078
562.001 96.04319305764615
570.175 95.92803190594383
578.469 95.79267118729658
586.883 95.64330721087896
595.419 95.47342082808984
604.08 95.28692954422569
612.866 95.10262595536177
621.78 94.93105674518318
630.824 94.76202101263092
640.0 94.60105778647929
649.309 94.45739504875301
658.753 94.33663243897972
668.335 94.24257642523935
678.056 94.18653024779229
687.919 94.18333226913742
697.925 94.2332434015602
708.077 94.3102114348605
718.376 94.33911497927107
728.825 94.32908746994586
739.426 94.28353659053182
750.181 94.22907861148248
761.093 94.16353843296581
772.163 94.04654234255028
783.394 93.83417548543828
794.789 93.52033370623128
806.349 93.13450179470539
818.078 92.70943775089295
829.977 92.26037414118466
842.05 91.80106371235733
854.298 91.36257159002166
866.724 90.98992212204453
879.33 90.7221054493308
892.12 90.57044184717051
905.097 90.52385727074181
918.262 90.58397100759805
931.618 90.71388698675256
945.169 90.89820883618077
958.917 91.08200643967426
972.864 91.2389544522606
987.015 91.36745113244397
1001.37 91.46068017602137
1015.94 91.49804284963191
1030.71 91.46602993725188
1045.71 91.3713203553986
1060.92 91.2342718198077
1076.35 91.07228076538982
1092.0 90.9020122102464
1107.89 90.73446612989062
1124.0 90.53803257036964
1140.35 90.33479457884431
1156.94 90.19238387183582
1173.77 90.13187089358527
1190.84 90.12557296631377
1208.16 90.14201232781333
1225.73 90.18396013650238
1243.56 90.23734223412495
1261.65 90.27112333433355
1280.0 90.31980918713762
1298.62 90.40336795298094
1317.51 90.41742757403044
1336.67 90.26784130522176
1356.11 89.9694891570851
1375.84 89.69145724733616
1395.85 89.49637419224482
1416.15 89.28263815008887
1436.75 89.00536961476234
1457.65 88.71207469214025
1478.85 88.49110273615518
1500.36 88.37909180425088
1522.19 88.29127255364962
1544.33 88.20014067465753
1566.79 88.13367229271284
1589.58 88.14223418239042
1612.7 88.13780150750442
1636.16 88.07766383192433
1659.95 88.10135161902508
1684.1 88.233736641815
1708.6 88.36815829330665
1733.45 88.4833204876462
1758.66 88.55136925434675
1784.24 88.520716112473
1810.19 88.33547531025656
1836.52 88.01510569466477
1863.24 87.66148294291338
1890.34 87.31263659032568
1917.83 87.10533341279313
1945.73 87.18419081594918
1974.03 87.42982456887655
2002.74 87.74764576978613
2031.87 88.03026204022589
2061.43 88.13220935254452
2091.41 87.93138985173452
2121.83 87.4413175722721
2152.69 86.83431452526577
2184.01 86.26059692304429
2215.77 85.9081529121104
2248.0 85.88057640157794
2280.7 86.23506157251745
2313.87 86.84350666061377
2347.53 87.48430929969193
2381.68 88.13385293669506
2416.32 88.81701320383759
2451.46 89.44059609477532
2487.12 89.89123428606108
2523.3 90.10223481713813
2560.0 90.18524699061062
2597.24 90.26639494883943
2635.01 90.37594830058316
2673.34 90.48209003040628
2712.23 90.44712895738623
2751.68 90.27903101758052
2791.7 90.06733700582141
2832.31 89.84806160760462
2873.5 89.62863489132715
2915.3 89.39707335483564
2957.7 89.18306872961894
3000.72 88.96325729349522
3044.37 88.63453496445894
3088.65 88.19225011738477
3133.58 87.6922883731794
3179.16 87.22018864858843
3225.4 86.75767284573668
3272.31 86.26882252513983
3319.91 85.79196863919196
3368.2 85.41761589750578
3417.19 85.16920163564309
3466.89 84.95224777576293
3517.32 84.89175918504799
3568.48 84.97298701912074
3620.39 85.03423743909491
3673.05 85.08859733267931
3726.47 85.09680301020518
3780.67 85.04383833312019
3835.67 84.92753748219243
3891.46 84.81610214233285
3948.06 84.77806723114145
4005.49 84.86654120658801
4063.75 84.98747861127713
4122.86 85.01668032319196
4182.82 85.01685333610729
4243.66 85.04230453172445
4305.39 85.10893036444145
4368.01 85.21030036077883
4431.55 85.22609372725867
4496.01 85.14684895180639
4561.4 85.1124167883177
4627.75 85.26710942522007
4695.06 85.6291211448553
4763.35 85.97117169101476
4832.64 85.90663071796799
4902.93 85.54348067566488
4974.24 85.1921936527066
5046.6 84.92575869733525
5120.0 84.66254715129034
5194.47 84.52451405492786
5270.03 84.54061887472787
5346.68 84.54145629312984
5424.45 84.47266139001344
5503.35 84.42561876713472
5583.4 84.34020894431778
5664.61 84.11384623207888
5747.01 83.87045791016567
5830.6 83.73648650180316
5915.41 83.71654538946412
6001.45 83.73394317426207
6088.74 83.77538366009685
6177.3 83.86531647125571
6267.15 83.90709182038621
6358.31 83.78434898131877
6450.8 83.47000770500388
6544.62 83.17946331646417
6639.82 83.20081767596304
6736.4 83.30918641882349
6834.38 83.50920909517484
6933.79 83.77091327527509
7034.64 83.75910483012622
7136.96 83.41130844558157
7240.77 82.91124972090046
7346.09 82.42820190280456
7452.94 81.8434991548648
7561.35 81.2673131466906
7671.33 81.09042630297903
7782.91 80.90671467664878
7896.12 80.60348149562535
8010.97 80.19352063180011
8127.49 79.75070766487786
8245.71 79.39247092559371
8365.65 78.94000299676154
8487.33 78.25734994990466
8610.78 77.85725194121925
8736.03 78.1976009448492
8863.09 78.93712318085502
8992.01 79.63706230649213
9122.8 80.19463522771116
9255.5 80.65365220942739
9390.12 81.00252707672854
9526.7 81.20621876577744
9665.27 81.32900986538391
9805.86 81.47027528372854
9948.49 81.47433553259206
10093.2 81.45009231593245
10240.0 81.81597677428789
10388.9 82.39388957534152
10540.1 82.87945885773883
10693.4 82.98152758727642
10848.9 82.50320430211691
11006.7 81.66898707423564
11166.8 80.84005351660699
11329.2 79.94785335939929
11494.0 78.56803589882124
11661.2 76.39824082329699
11830.8 73.80572020683796
12002.9 72.19426934195549
12177.5 71.23586608041362
12354.6 70.51494064557825
12534.3 70.6853484127978
12716.6 71.92098960085683
12901.6 72.78984810854095
13089.2 73.17929029305714
13279.6 73.80703813674332
13472.8 74.57673615620635
13668.8 74.98122677885064
13867.6 75.88642474321568
14069.3 77.5677371704979
14273.9 78.56280636818941
14481.5 77.55165242052794
14692.2 75.52454189927981
14905.9 74.62147305166056
15122.7 74.89046849076507
15342.7 75.06455068019606
15565.8 74.3996270717135
15792.2 73.15385771647166
16021.9 72.1522162251531
16255.0 71.01179374005278
16491.4 69.2701162168901
16731.3 68.86943048140992
16974.7 69.80948327305629
17221.6 69.99108050630791
17472.1 69.34332977721073
17726.2 67.71873116263558
17984.0 65.9786899019515
18245.6 65.09221652138096
18511.0 64.47167685658701
18780.2 63.904912982353565
19053.4 62.64014748835183
19330.5 61.41712886731506
19611.7 60.293889778303026
19897.0 60.29960856517414
