Freq "On Axis"
20.5078 57.60994696969698
21.9727 59.769446969696986
23.4375 61.179546969696986
24.9023 63.589146969697
26.3672 65.68014696969699
27.832 66.82264696969699
29.2969 67.881846969697
30.7617 69.78134696969698
32.2266 70.90744696969699
33.6914 71.96264696969699
35.1562 73.32764696969699
36.6211 74.19964696969697
38.0859 74.95594696969698
39.5508 75.67354696969699
41.0156 76.54784696969699
42.4805 77.24814696969699
43.9453 77.73294696969697
45.4102 78.48824696969697
46.875 79.07224696969699
48.3398 79.62864696969699
51.2695 80.70274696969699
52.7344 81.12824696969699
54.1992 81.580046969697
55.6641 81.99084696969699
58.5938 82.68584696969698
60.0586 83.002746969697
62.9883 83.60174696969699
64.4531 83.87614696969699
67.3828 84.35374696969699
68.8477 84.45274696969699
71.7773 84.72914696969698
74.707 84.93244696969698
77.6367 85.03114696969699
79.1016 85.01954696969699
82.0312 85.02114696969699
84.9609 85.02174696969699
87.8906 85.10084696969699
90.8203 85.15414696969697
95.2148 85.072346969697
98.1445 84.95514696969698
101.074 84.856246969697
105.469 84.816746969697
108.398 84.67524696969699
112.793 84.383946969697
117.188 84.23794696969699
120.117 84.38564696969699
124.512 84.432346969697
128.906 84.207646969697
133.301 84.12654696969699
139.16 83.82514696969699
143.555 83.636246969697
147.949 83.680646969697
153.809 83.65824696969699
159.668 83.020146969697
165.527 82.91944696969699
171.387 83.255246969697
177.246 83.281646969697
183.105 83.20894696969698
188.965 83.25544696969698
196.289 83.24194696969698
203.613 82.805646969697
210.938 83.03644696969698
218.262 83.119446969697
225.586 82.942646969697
232.91 82.81054696969699
241.699 83.05884696969699
250.488 82.75354696969697
259.277 83.31074696969699
268.066 83.68134696969699
276.855 82.75884696969699
287.109 82.74454696969698
297.363 83.27034696969699
307.617 83.046246969697
319.336 82.33504696969699
329.59 82.23624696969699
341.309 82.60314696969698
353.027 82.53334696969699
366.211 82.937846969697
379.395 82.42684696969698
392.578 82.55874696969698
405.762 82.02704696969698
420.41 82.25504696969699
435.059 82.81954696969699
451.172 83.18254696969699
465.82 83.36354696969698
483.398 83.200346969697
499.512 82.88854696969699
517.09 82.61604696969698
536.133 82.60934696969699
555.176 82.05594696969699
574.219 82.34564696969699
594.727 81.24104696969698
615.234 83.44734696969701
637.207 84.70094696969699
659.18 84.05704696969698
682.617 84.530346969697
707.52 85.13774696969699
732.422 84.44854696969699
757.324 84.623446969697
785.156 84.68744696969699
811.523 84.09274696969699
840.82 83.91974696969699
870.117 82.62224696969699
900.879 83.25924696969699
933.105 84.02214696969699
965.332 84.10604696969699
1000.49 84.071046969697
1035.64 84.41834696969698
1072.27 83.95914696969699
1108.89 83.783846969697
1148.44 83.03704696969699
1189.45 82.46494696969698
1230.47 82.37354696969699
1274.41 82.16474696969699
1319.82 82.08124696969699
1366.7 81.60954696969699
1413.57 80.39194696969699
1463.38 78.58214696969699
1516.11 77.13404696969698
1568.85 78.098546969697
1624.51 79.46804696969699
1681.64 80.59264696969699
1741.7 80.80574696969698
1803.22 81.38854696969699
1866.21 81.609046969697
1932.13 81.54874696969699
1999.51 81.95384696969698
2069.82 81.97964696969699
2143.07 81.508146969697
2219.24 81.21124696969699
2296.88 81.95264696969699
2378.91 81.11784696969698
2462.4 79.946246969697
2548.83 80.51694696969699
2639.65 80.05784696969698
2731.93 79.392546969697
2828.61 79.48404696969699
2928.22 78.81774696969697
3030.76 77.37374696969701
3137.7 76.77734696969699
3249.02 75.416346969697
3363.28 76.23094696969699
3481.93 76.83314696969698
3604.98 78.377046969697
3732.42 78.82984696969697
3864.26 79.29274696969699
4000.49 76.99774696969699
4141.11 75.96544696969698
4287.6 77.02464696969699
4438.48 78.117746969697
4595.21 79.25314696969699
4756.35 79.450346969697
4924.8 79.39504696969699
5097.66 78.22544696969697
5277.83 78.620746969697
5463.87 81.83444696969698
5657.23 82.719146969697
5856.45 82.87194696969699
6062.99 82.95014696969699
6276.86 83.13764696969699
6498.05 83.452046969697
6726.56 83.656246969697
6963.87 83.63744696969698
7209.96 83.624546969697
7464.84 83.871546969697
7727.05 84.16594696969699
7999.51 84.41384696969699
8282.23 84.48354696969699
8573.73 84.34554696969698
8876.95 83.99284696969698
9188.96 83.89334696969699
9514.16 84.02464696969699
9849.61 83.88064696969698
10196.8 84.00474696969698
10555.7 83.83424696969699
10927.7 83.14654696969698
11313.0 82.84224696969699
11712.9 83.12104696969699
12126.0 83.35694696969699
12553.7 84.04774696969699
12996.1 84.62674696969697
13454.6 85.47964696969697
13929.2 86.25524696969698
14419.9 86.48134696969699
14928.2 86.224446969697
15455.6 85.58574696969697
16000.5 84.75734696969698
16564.5 84.05514696969699
17148.9 83.24274696969701
17752.4 82.09954696969699
18379.4 80.53784696969697
19026.9 78.79934696969698
19697.8 77.299246969697
19999.5 77.03494696969699
