Freq,On Axis,Listening Window,Sound Power,Early Reflections,Early Reflections DI,Sound Power DI,DI offset
20.5078,75.5667,75.567690446873,72.90217055654148,74.69450934071183,40.87318110616117,42.665519890331524,40
21.9727,77.0813,77.08237891991718,74.41684819832204,76.20922151684604,40.87315740307113,42.66553072159513,40
23.4375,78.1504,78.15135436702278,75.48590639127202,77.27852636366782,40.872828003354954,42.66544797575075,40
24.9023,79.22140000000002,79.22243832667908,76.55655936651492,78.34992401078759,40.87251431589149,42.665878960164164,40
26.3672,80.2193,80.22024772737389,77.55394386787806,79.34769569888371,40.872552028490176,42.66630385949583,40
27.832,81.11250000000001,81.11357186533927,78.44761510138451,80.24111628490769,40.87245558043158,42.66595676395475,40
29.2969,81.8565,81.85711906016824,79.18934286789121,80.98315947545524,40.873959584713006,42.66777619227703,40
30.7617,82.6882,82.68906899171242,80.02184317452239,81.81602781390991,40.873041177802506,42.66722581719003,40
32.2266,83.41730000000001,83.41808912260143,80.75054074264214,82.54517473622545,40.87291438637598,42.667548379959285,40
33.6914,84.01069999999999,84.0114386594127,81.34404520241998,83.13800859936163,40.87343006005108,42.66739345699273,40
35.1562,84.6341,84.63478316278307,81.96702463007388,83.76114762373194,40.87363553905112,42.667758532709186,40
36.6211,85.1882,85.18876416651172,82.52048582468598,84.31449789277553,40.87426627373618,42.66827834182574,40
38.0859,85.6345,85.63479284322455,82.96540109735264,84.75917601085561,40.875616832368934,42.669391745871906,40
39.5508,85.8527,85.85324442852082,83.18461294821198,84.97848667603066,40.87475775249017,42.66863148030885,40
41.0156,86.06789999999998,86.06833346734547,83.39880416458591,85.1943088129338,40.87402465441167,42.66952930275956,40
42.4805,86.39590000000001,86.39623267368069,83.7263671556227,85.52204739380238,40.874185279878304,42.66986551805799,40
43.9453,86.6685,86.66861370825116,83.99783809271263,85.7937051279974,40.87490858025376,42.67077561553853,40
45.4102,86.7808,86.78074577023999,84.10934099510982,85.90721020980395,40.87353556043604,42.67140477513017,40
46.875,86.8511,86.85003395523115,84.17720687780132,85.97959217334936,40.870441781881794,42.67282707742983,40
48.3398,86.6024,86.60133153410744,83.93143880728856,85.72880161192984,40.872529922177605,42.66989272681889,40
51.2695,86.97750000000002,86.97779968795491,84.31044798663575,86.1028838745495,40.87491581340541,42.66735170131916,40
52.7344,87.0507,87.05088333914063,84.38201768766228,86.17452151553914,40.876361823601485,42.66886565147834,40
54.1992,87.1206,87.12064046681716,84.45101366766563,86.24372854195278,40.87691192486439,42.66962679915153,40
55.6641,87.3051,87.30507809045419,84.63590427787058,86.42957923617519,40.875498854279,42.66917381258361,40
58.5938,87.1429,87.14277455832244,84.47255816080839,86.26651322525062,40.876261333071824,42.670216397514054,40
60.0586,87.1326,87.13248321316676,84.4602952321379,86.25602603155218,40.87645718161458,42.67218798102887,40
62.9883,86.81540000000001,86.81501328750036,84.1374322550138,85.93469283957805,40.880320447922315,42.67758103248656,40
64.4531,86.6823,86.681971503774,84.00592016201692,85.80255797912497,40.879413524649024,42.67605134175707,40
67.3828,86.8622,86.86218454812843,84.19126206729877,85.98540401546735,40.87678053266107,42.67092248082966,40
68.8477,86.85840000000002,86.85796940531658,84.18525655625771,85.98015382699552,40.87781557832106,42.67271284905887,40
71.7773,86.8421,86.84159683765486,84.16743571330314,85.96387273076826,40.8777241068866,42.67416112435173,40
74.707,86.8273,86.82689742445338,84.15341139162965,85.94999215977025,40.87690526468313,42.67348603282373,40
77.6367,86.5994,86.59934439115662,83.92743464239629,85.72324810842255,40.87609628273407,42.67190974876033,40
79.1016,86.5106,86.51049281430485,83.8387055107015,85.63409022382615,40.876402590478705,42.67178730360335,40
82.0312,86.6299,86.62918646579024,83.95525014190206,85.7511143623265,40.87807210346374,42.673936323888185,40
84.9609,86.6375,86.63658608206603,83.96137056910518,85.75796115493539,40.878624927130645,42.67521551296085,40
87.8906,86.4106,86.4091675520734,83.73164368852795,85.52991711875823,40.879250433315164,42.677523863545446,40
90.8203,86.43890000000002,86.43700945155194,83.75871973868419,85.55771235347831,40.879297098073636,42.67828971286775,40
95.2148,86.36069999999998,86.36098871370848,83.68850188027372,85.4848097475263,40.87617896618218,42.67248683343476,40
98.1445,86.0669,86.06888237831781,83.39581459866886,85.19217007440832,40.876712303909486,42.673067779648946,40
101.074,85.99970000000002,86.00051040603225,83.3236511843038,85.12714663970641,40.87336376632584,42.67685922172845,40
105.469,85.17860000000002,85.18032830389608,82.51709945888422,84.31332294433224,40.867005359563834,42.66322884501186,40
108.398,85.1112,85.11202836674327,82.45298677312054,84.24227995595143,40.86974841079184,42.65904159362273,40
112.793,84.9533,84.95254436987088,82.29116631604028,84.07177412445115,40.880770245419725,42.6613780538306,40
117.188,85.0669,85.06254001093859,82.37769816148337,84.15097362183822,40.91156638910037,42.684841849455225,40
120.117,85.34709999999998,85.34128294488502,82.62285152922655,84.41546372653879,40.925819218346234,42.71843141565847,40
124.512,85.5519,85.54349827061863,82.82434190889653,84.63494651308713,40.9085517575315,42.7191563617221,40
128.906,85.4117,85.40384587420118,82.6918201887036,84.50182115872937,40.90202471547181,42.71202568549758,40
133.301,85.31200000000001,85.30460405356321,82.59354182273142,84.40425459515419,40.900349458409025,42.711062230831786,40
139.16,85.2053,85.19760209732377,82.48675517379417,84.29731635838661,40.90028573893716,42.7108469235296,40
143.555,85.0916,85.0813804030072,82.36044656156159,84.17305340010593,40.908327002901274,42.720933841445614,40
147.949,84.8819,84.87939921154234,82.179342445244,83.9832184412414,40.89618077030093,42.70005676629833,40
153.809,84.5684,84.56751226584421,81.87104018293525,83.67755266566186,40.88995960018235,42.69647208290897,40
159.668,84.4632,84.45822062450104,81.75128160673373,83.56203547529137,40.89618514920967,42.70693901776731,40
165.527,84.4731,84.4667909543748,81.74950509104531,83.56125657732824,40.905534377046564,42.717285863329494,40
171.387,84.45150000000001,84.44161993428673,81.71257990705293,83.52879537084615,40.91282456344058,42.72904002723381,40
177.246,84.6228,84.61049523845358,81.85817822039706,83.68401827450234,40.926476963951245,42.752317018056516,40
183.105,84.73940000000002,84.72704969773692,81.96707274281557,83.79886068357465,40.92818901416227,42.75997695492134,40
188.965,84.4956,84.48500671911273,81.74106020375473,83.56774753184044,40.91725918727229,42.743946515358004,40
196.289,84.2324,84.22078238793699,81.47856340129528,83.29609597738543,40.92468641055156,42.74221898664172,40
203.613,84.812,84.78923409013035,81.94577802971241,83.80237869945437,40.986855390675984,42.843456060417935,40
210.938,84.8144,84.79135055321294,81.91909390783611,83.79299298058461,40.99835757262832,42.87225664537682,40
218.262,84.7845,84.76518398950901,81.89749761400219,83.77459855075209,40.99058543875692,42.86768637550682,40
225.586,84.68269999999998,84.66151834570854,81.7956519311824,83.67448523230303,40.987033113405516,42.86586641452614,40
232.91,84.7071,84.67654050415106,81.73156648385633,83.63928056558672,41.03725993856435,42.94497402029474,40
241.699,85.0271,84.98210190022982,81.94621884368476,83.89483257069064,41.08726932953918,43.03588305654506,40
250.488,85.0357,84.99127793098238,81.941341667942,83.90387049449029,41.087407436492086,43.04993626304038,40
259.277,85.75049999999999,85.69113191096375,82.52067295271267,84.52978687860067,41.16134503236307,43.170458958251075,40
268.066,86.346,86.27830847064638,83.04533268756157,85.079615762249,41.198692708397374,43.23297578308481,40
276.855,86.33100000000002,86.26227628539348,83.00166706114807,85.06134123264206,41.20093505275142,43.260609224245414,40
287.109,86.4873,86.41820679420417,83.13011284430321,85.20654534389482,41.21166145030935,43.288093949900954,40
297.363,86.5636,86.48922345973102,83.14581169351126,85.24981546771792,41.2394079920131,43.34341176621976,40
307.617,86.824,86.751089742215,83.37255553124321,85.50929945440537,41.241790287809636,43.37853421097179,40
319.336,87.06899999999999,86.99972259838593,83.61583966742393,85.76713865905987,41.23258393932606,43.383882930962,40
329.59,87.2259,87.14617869507263,83.66707510636957,85.84772995310448,41.29844874196816,43.47910358870307,40
341.309,87.786,87.6854573913907,84.06151882735364,86.30269407247988,41.38276331891082,43.62393856403706,40
353.027,87.9489,87.85099913637322,84.20673625367706,86.4506901364803,41.400308999892914,43.644262882696154,40
366.211,87.8448,87.75368838318859,84.14050385458907,86.37006028282313,41.383628100365456,43.61318452859952,40
379.395,87.93,87.82494285678807,84.16793680670082,86.43053738429627,41.3944054724918,43.65700605008725,40
392.578,87.88559999999998,87.7736357189385,84.0089419797021,86.30683524846403,41.46680047047447,43.76469373923639,40
405.762,87.7152,87.62250681116365,83.90145646106609,86.1721458234891,41.45036098767454,43.721050350097556,40
420.41,87.5891,87.48845969620366,83.78372167090771,86.04814449716488,41.44031519903878,43.70473802529595,40
435.059,87.4326,87.32482907141728,83.5859305070905,85.85254435097113,41.472284720446154,43.73889856432679,40
451.172,87.3133,87.2431893964048,83.64145536558112,85.84365453266498,41.39953486373982,43.60173403082368,40
465.82,87.0602,87.00907054546339,83.51785777995042,85.68373183605436,41.325338709409024,43.49121276551297,40
483.398,87.0214,86.95649448909015,83.56746306977612,85.71629430019777,41.24020018889237,43.38903141931402,40
499.512,87.29000000000002,87.19762074153563,83.72416824509521,85.90210830672133,41.2955124348143,43.473452496440416,40
517.09,87.15449999999998,87.10190185576712,83.69015496401536,85.82550295726949,41.27639889849763,43.41174689175176,40
536.133,87.3063,87.23869529219662,83.6875988815244,85.87381245123196,41.36488284096467,43.55109641067223,40
555.176,87.1206,87.08319912269351,83.6152081327078,85.78396773052516,41.29923139216835,43.46799098998571,40
574.219,87.4588,87.38451291424589,83.79462378530845,86.01081590022864,41.37369701401725,43.58988912893744,40
594.727,87.8955,87.77775212916217,83.86736481630592,86.17886791995524,41.59888420920693,43.910387312856244,40
615.234,87.1768,87.11388666298545,83.5896546286174,85.80269350894298,41.31119315404247,43.524232034368055,40
637.207,87.1651,87.06427408299085,83.58167095958163,85.8106355551875,41.253638527803346,43.48260312340922,40
659.18,86.7913,86.720585155604,83.15240989753086,85.34778093540086,41.372804220203136,43.56817525807314,40
682.617,86.6637,86.5754252926056,83.17755304976933,85.44948455028297,41.125940742322626,43.39787224283627,40
707.52,86.44219999999999,86.40406977037401,83.03627318756823,85.32631454406376,41.077755226310245,43.36779658280578,40
732.422,86.16329999999999,86.19133032485115,83.04026150370852,85.27698272061328,40.914347604237875,43.15106882114263,40
757.324,85.8643,85.95140861059039,83.0231037316247,85.2642123605952,40.687196249995196,42.92830487896569,40
785.156,86.175,86.1624214627733,82.62765105109669,85.03652789151194,41.12589357126136,43.534770411676604,40
811.523,85.36440000000002,85.53874162506656,82.67013053066702,84.91157939470327,40.6271622303633,42.86861109439954,40
840.82,85.6864,85.71795695235076,82.80096040099114,85.03524909595194,40.68270785639882,42.91699655135962,40
870.117,85.83670000000001,85.78357574764318,82.62484614322692,84.87795576887831,40.905619978764875,43.158729604416266,40
900.879,85.8988,85.73682021782193,82.52045828634898,84.91797456161956,40.81884565620237,43.216361931472946,40
933.105,85.6729,85.54802927366961,82.29903956489551,84.58272172337976,40.96530755028985,43.248989708774104,40
965.332,84.6938,84.7541992953073,81.95438617511581,84.18229312434461,40.57190617096269,42.79981312019149,40
1000.49,84.6737,84.74818333422957,81.5524615784738,83.73087223637468,41.017311097854886,43.19572175575577,40
1035.64,84.3603,84.54344843068966,81.79834610447577,83.93583760865693,40.60761082203274,42.745102326213896,40
1072.27,83.8902,83.92151896347593,81.25836934125792,83.28938714324988,40.63213182022605,42.663149622218015,40
1108.89,82.9066,82.95265534599645,81.09302350269843,83.05639812448489,39.89625722151156,41.85963184329802,40
1148.44,82.9359,82.81385382342523,81.11633018188108,82.8132385970305,40.00061522639473,41.69752364154415,40
1189.45,83.1664,82.861055713523,81.3279615426184,83.1027050577998,39.758350655723206,41.533094170904604,40
1230.47,84.12380000000002,83.6870000366564,81.2165705307303,83.29299902564432,40.39400101101208,42.470429505926106,40
1274.41,83.21090000000001,83.14730899511181,81.37201291370144,83.23635746670837,39.910951528403444,41.775296081410374,40
1319.82,84.1731,84.042371703798,81.17935218205497,83.40180034627242,40.64057135752557,42.86301952174303,40
1366.7,84.4624,84.4354735788128,81.69097760187994,83.84182240838356,40.59365117042924,42.74449597693287,40
1413.57,84.6128,84.50732742636484,81.78456722554692,83.83867924204921,40.66864818431563,42.722760200817916,40
1463.38,85.06710000000001,84.76905325581752,81.76562213492302,84.09153644080024,40.677516815017285,43.003431120894504,40
1516.11,84.266,84.14992034378011,81.8446136820143,83.91169710985076,40.23822323392935,42.30530666176581,40
1568.85,84.1995,83.82172445943868,81.7291232894086,83.48160031298086,40.340124146457825,42.09260117003008,40
1624.51,85.0239,84.6965188687343,81.45686792328473,83.53443641127772,41.16208245745658,43.23965094544957,40
1681.64,84.9511,84.84190353748932,81.65735018796732,83.54521751167769,41.296686025811624,43.18455334952199,40
1741.7,85.9362,85.82847171947964,81.63169075622048,83.86653401771886,41.961937701760775,44.19678096325916,40
1803.22,86.5583,86.26339472757346,81.61547098536496,83.93077075846442,42.33262396910904,44.64792374220849,40
1866.21,85.7542,85.7005023644706,81.22166108961753,83.5919983977282,42.10850396674239,44.47884127485307,40
1932.13,85.5937,85.42387203958889,80.96908004597523,83.40678892650982,42.01708311307907,44.454791993613654,40
1999.51,85.87269999999998,85.61424527669125,80.71304676191713,83.45792844287563,42.15631683381562,44.90119851477412,40
2069.82,86.1353,85.97926053009068,80.40196137618356,83.05724358288452,42.92201694720616,45.57729915390712,40
2143.07,86.0031,85.9975777460289,80.03399575879548,82.71520494156775,43.28237280446115,45.96358198723341,40
2219.24,85.3801,85.38954318790945,79.60912542227277,82.23059592755389,43.15894726035556,45.780417765636685,40
2296.88,84.25230000000002,84.3160732827251,78.81432990750135,81.49576474764322,42.82030853508188,45.501743375223754,40
2378.91,83.6686,83.66562598180283,78.052085297133,80.64748685561719,43.018139126185645,45.61354068466983,40
2462.4,84.95179999999999,84.60148449909906,78.12296684756578,80.64825073713497,43.953233761964086,46.47851765153328,40
2548.83,85.6391,85.12142207504006,78.30170872284194,80.78820727277997,44.33321480226009,46.81971335219812,40
2639.65,85.3869,84.71754595525844,77.97378694509013,80.4831659936477,44.23437996161074,46.74375901016832,40
2731.93,84.9067,83.98575946835683,77.38497036661258,79.7975797259829,44.18817974237393,46.600789101744255,40
2828.61,85.6856,84.69757535061886,78.36905352904954,80.45169576751871,44.24587958310015,46.328521821569325,40
2928.22,87.327,86.49528775265156,80.81048695116388,82.34462436604046,44.1506633866111,45.68480080148768,40
3030.76,88.412,87.8261292820209,82.54874418278142,83.77432966380715,44.05179961821375,45.27738509923948,40
3137.7,88.6533,88.35202733307372,83.79997981868844,84.70570834593005,43.64631898714367,44.55204751438528,40
3249.02,88.6202,88.2863301722294,84.1218409183572,85.03980346119825,43.24652671103115,44.164489253872205,40
3363.28,88.5041,88.29301894172073,84.18989550924618,84.87225362588012,43.42076531584061,44.10312343247455,40
3481.93,87.9881,88.15599139468395,84.41383431294416,84.78680129839694,43.369190096287014,43.74215708173979,40
3604.98,87.06210000000002,87.6362680621858,84.30692727963984,84.70135734122867,42.934910720957134,43.32934078254597,40
3732.42,87.3477,87.8202972262852,83.91116566237562,84.8425229627483,42.9777742635369,43.90913156390958,40
3864.26,87.5294,87.81005270168302,83.41474187787321,84.39285572259398,43.41719697908904,44.39531082380981,40
4000.49,87.0074,86.7242410076266,82.22792767277767,83.58867005379801,43.13557095382859,44.496313334848935,40
4141.11,88.6791,87.49195751078688,81.54031663107557,83.82656455557381,43.665392955213065,45.951640879711306,40
4287.6,89.3862,88.19146948390983,81.08684835102653,83.73577891581385,44.455690568095974,47.104621132883295,40
4438.48,89.2983,88.05987990186395,81.05388400308001,83.695788106727,44.36409179513696,47.00599589878394,40
4595.21,88.7482,87.54577535345811,80.80361429076703,83.36805705731689,44.17771829614122,46.74216106269108,40
4756.35,88.6455,87.7674079549758,81.39892357131315,83.39317794266302,44.37423001231278,46.36848438366265,40
4924.8,86.83259999999999,86.89448731638291,81.37340597039477,83.26889127642434,43.625596039958566,45.52108134598814,40
5097.66,85.43349999999998,86.44611822015655,81.3640753968201,83.55092030593289,42.89519791422366,45.08204282333645,40
5277.83,85.4269,85.88592440402718,80.71683150525537,83.56441689267302,42.321507511354156,45.16909289877181,40
5463.87,87.3798,86.7395076119756,81.1160842700159,84.389311706142,42.3501959058336,45.62342334195969,40
5657.23,87.5542,86.71212850779268,80.63299779568116,84.14262639313958,42.569502114653105,46.07913071211152,40
5856.45,87.90619999999998,86.87637712560266,80.53088993958676,84.04518937025348,42.83118775534918,46.3454871860159,40
6062.99,88.7767,87.45326172271075,80.48260588793217,84.05802778809856,43.39523393461219,46.97065583477858,40
6276.86,88.3973,87.66175031206159,80.66604201062844,84.17390134937264,43.48784896268894,46.99570830143314,40
6498.05,87.5215,87.5373944454694,80.35393343543154,84.16242914678378,43.37496529868562,47.18346101003786,40
6726.56,89.06110000000001,88.19775492865095,80.28448009028082,84.47159807509237,43.72615685355858,47.91327483837013,40
6963.87,88.4076,87.49225253362376,79.7755742756937,83.88144189565563,43.61081063796813,47.716678257930056,40
7209.96,88.3802,87.72286633292424,79.64820303148096,83.64262006113586,44.08024627178838,48.07466330144328,40
7464.84,89.0475,87.87077024382062,79.86586094785905,83.7109181010718,44.15985214274882,48.00490929596157,40
7727.05,88.4704,87.2887094831339,79.47924193250643,83.4267919503619,43.861917532772,47.809467550627474,40
7999.51,88.53659999999999,87.64640603072365,79.59968411589247,83.8049052948869,43.84150073583676,48.04672191483118,40
8282.23,88.47569999999999,87.71786226215363,79.48765898868031,83.76452523295904,43.953337029194586,48.23020327347332,40
8573.73,89.0645,88.0151771249087,79.84414634834067,83.93381909543781,44.08135802947089,48.17103077656803,40
8876.95,88.9963,88.00732975210028,79.91465241017181,83.89226513530069,44.115064616799586,48.092677341928464,40
9188.96,89.2621,88.28023705837698,79.8521172384227,84.31416347893924,43.96607357943775,48.42811981995429,40
9514.16,89.0369,88.04820698316263,79.41794300861815,84.22916567209901,43.819041311063614,48.63026397454448,40
9849.61,88.8953,87.7785755789377,79.36918170161596,84.35113290412131,43.42744267481639,48.40939387732175,40
10196.8,87.8937,86.85795154435885,79.3629431033477,84.10990236361192,42.74804918074693,47.49500844101115,40
10555.7,86.7365,85.74857963740531,79.47439142748638,83.87099019743722,41.87758943996809,46.27418820991893,40
10927.7,83.9591,83.7198285587612,79.18894929724871,83.40490465124955,40.31492390751164,44.53087926151248,40
11313.0,79.2011,80.74512473082231,78.22829879438451,82.469611820715,38.27551291010731,42.5168259364378,40
11712.9,74.6368,78.09217494323886,76.99472501875829,81.21638868860018,36.87578625463868,41.09744992448057,40
12126.0,75.04849999999999,76.51294558482837,75.5185737526569,80.03006393024826,36.48288165458011,40.99437183217147,40
