Freq "Listening Window"
20.5078 75.567690446873
21.9727 77.08237891991718
23.4375 78.15135436702278
24.9023 79.22243832667908
26.3672 80.22024772737389
27.832 81.11357186533927
29.2969 81.85711906016824
30.7617 82.68906899171242
32.2266 83.41808912260143
33.6914 84.0114386594127
35.1562 84.63478316278307
36.6211 85.18876416651172
38.0859 85.63479284322455
39.5508 85.85324442852082
41.0156 86.06833346734547
42.4805 86.39623267368069
43.9453 86.66861370825116
45.4102 86.78074577023999
46.875 86.85003395523115
48.3398 86.60133153410744
51.2695 86.97779968795491
52.7344 87.05088333914063
54.1992 87.12064046681716
55.6641 87.30507809045419
58.5938 87.14277455832244
60.0586 87.13248321316676
62.9883 86.81501328750036
64.4531 86.681971503774
67.3828 86.86218454812843
68.8477 86.85796940531658
71.7773 86.84159683765486
74.707 86.82689742445338
77.6367 86.59934439115662
79.1016 86.51049281430485
82.0312 86.62918646579024
84.9609 86.63658608206603
87.8906 86.4091675520734
90.8203 86.43700945155194
95.2148 86.36098871370848
98.1445 86.06888237831781
101.074 86.00051040603225
105.469 85.18032830389608
108.398 85.11202836674327
112.793 84.95254436987088
117.188 85.06254001093859
120.117 85.34128294488502
124.512 85.54349827061863
128.906 85.40384587420118
133.301 85.30460405356321
139.16 85.19760209732377
143.555 85.0813804030072
147.949 84.87939921154234
153.809 84.56751226584421
159.668 84.45822062450104
165.527 84.4667909543748
171.387 84.44161993428673
177.246 84.61049523845358
183.105 84.72704969773692
188.965 84.48500671911273
196.289 84.22078238793699
203.613 84.78923409013035
210.938 84.79135055321294
218.262 84.76518398950901
225.586 84.66151834570854
232.91 84.67654050415106
241.699 84.98210190022982
250.488 84.99127793098238
259.277 85.69113191096375
268.066 86.27830847064638
276.855 86.26227628539348
287.109 86.41820679420417
297.363 86.48922345973102
307.617 86.751089742215
319.336 86.99972259838593
329.59 87.14617869507263
341.309 87.6854573913907
353.027 87.85099913637322
366.211 87.75368838318859
379.395 87.82494285678807
392.578 87.7736357189385
405.762 87.62250681116365
420.41 87.48845969620366
435.059 87.32482907141728
451.172 87.2431893964048
465.82 87.00907054546339
483.398 86.95649448909015
499.512 87.19762074153563
517.09 87.10190185576712
536.133 87.23869529219662
555.176 87.08319912269351
574.219 87.38451291424589
594.727 87.77775212916217
615.234 87.11388666298545
637.207 87.06427408299085
659.18 86.720585155604
682.617 86.5754252926056
707.52 86.40406977037401
732.422 86.19133032485115
757.324 85.95140861059039
785.156 86.1624214627733
811.523 85.53874162506656
840.82 85.71795695235076
870.117 85.78357574764318
900.879 85.73682021782193
933.105 85.54802927366961
965.332 84.7541992953073
1000.49 84.74818333422957
1035.64 84.54344843068966
1072.27 83.92151896347593
1108.89 82.95265534599645
1148.44 82.81385382342523
1189.45 82.861055713523
1230.47 83.6870000366564
1274.41 83.14730899511181
1319.82 84.042371703798
1366.7 84.4354735788128
1413.57 84.50732742636484
1463.38 84.76905325581752
1516.11 84.14992034378011
1568.85 83.82172445943868
1624.51 84.6965188687343
1681.64 84.84190353748932
1741.7 85.82847171947964
1803.22 86.26339472757346
1866.21 85.7005023644706
1932.13 85.42387203958889
1999.51 85.61424527669125
2069.82 85.97926053009068
2143.07 85.9975777460289
2219.24 85.38954318790945
2296.88 84.3160732827251
2378.91 83.66562598180283
2462.4 84.60148449909906
2548.83 85.12142207504006
2639.65 84.71754595525844
2731.93 83.98575946835683
2828.61 84.69757535061886
2928.22 86.49528775265156
3030.76 87.8261292820209
3137.7 88.35202733307372
3249.02 88.2863301722294
3363.28 88.29301894172073
3481.93 88.15599139468395
3604.98 87.6362680621858
3732.42 87.8202972262852
3864.26 87.81005270168302
4000.49 86.7242410076266
4141.11 87.49195751078688
4287.6 88.19146948390983
4438.48 88.05987990186395
4595.21 87.54577535345811
4756.35 87.7674079549758
4924.8 86.89448731638291
5097.66 86.44611822015655
5277.83 85.88592440402718
5463.87 86.7395076119756
5657.23 86.71212850779268
5856.45 86.87637712560266
6062.99 87.45326172271075
6276.86 87.66175031206159
6498.05 87.5373944454694
6726.56 88.19775492865095
6963.87 87.49225253362376
7209.96 87.72286633292424
7464.84 87.87077024382062
7727.05 87.2887094831339
7999.51 87.64640603072365
8282.23 87.71786226215363
8573.73 88.0151771249087
8876.95 88.00732975210028
9188.96 88.28023705837698
9514.16 88.04820698316263
9849.61 87.7785755789377
10196.8 86.85795154435885
10555.7 85.74857963740531
10927.7 83.7198285587612
11313.0 80.74512473082231
11712.9 78.09217494323886
12126.0 76.51294558482837
12553.7 75.30376569385527
12996.1 73.58380815758636
13454.6 71.91788930236946
13929.2 72.04371480785298
14419.9 72.72810503663402
14928.2 72.6140865081161
15455.6 72.0912392273355
16000.5 71.3638164390111
16564.5 70.54883358282953
17148.9 70.07167192181794
17752.4 69.98036917445053
18379.4 69.94284456602512
19026.9 70.1323856296874
19697.8 70.4359401449662
19999.5 70.29596944069058
