Freq,Floor Bounce,Ceiling Bounce,Front Wall Bounce,Side Wall Bounce,Rear Wall Bounce,Total Early Reflection
20.5078,98.81794574938033,92.82418415413518,95.7359461561826,95.3329992606419,94.32836648278057,95.88898376425804
21.2402,100.60630638697238,95.13821376183554,97.7382448509631,97.34588357704091,96.37675895241152,97.84937991837515
21.9727,101.82716334944026,96.27149486403282,98.971216325969,98.56103635881739,97.48769750380912,99.04677005818738
22.7051,102.56181824777057,97.25977915529502,99.81793835359309,99.47108265054821,98.6128450927228,99.91821036345306
23.4375,103.15790549595525,97.96165974424981,100.46623950290422,100.15821819406275,99.43195682707253,100.5860698296761
24.1699,103.63672857942119,98.42176602705582,100.97171295765354,100.6518045244744,99.96279294277899,101.07873373320486
25.6348,104.47155429302772,99.64257044247745,102.04832938740721,101.66269454438249,100.73353667183991,102.02710000844708
26.3672,104.65684368757314,99.79990697211788,102.2536506916527,101.84822507451692,100.87383915759331,102.20660179050375
27.0996,104.85017798823199,100.07820481204418,102.52109603369927,102.07502128664275,100.96127504466718,102.41567096996813
27.832,105.03270878604555,100.33935035174038,102.77122003295119,102.31096116614647,101.11508842485658,102.62716804752279
29.2969,105.28289865036648,100.9493414815465,103.22191880134578,102.74596582132557,101.4915036734045,103.01507256936175
30.0293,105.161034642637,100.91982440483334,103.13957078807586,102.67648433326211,101.47856270644151,102.93834052648091
31.4941,105.3101809639497,101.17072282982677,103.35844743605767,102.88313770184708,101.71709600702134,103.13865298002753
32.2266,105.4339977921136,101.35941384216734,103.52687998611951,103.04625373304948,101.87175771587722,103.29202005182508
33.6914,105.54982732941815,101.59269460430097,103.72289531739487,103.23298483741574,102.05149771921626,103.46264154535199
34.4238,105.65302093463033,101.75533506490478,103.8657587343495,103.36883742322924,102.17757580882055,103.591538963465
35.8887,105.979321223092,102.12417889633458,104.24494340892167,103.72105717775462,102.46557521220628,103.93417829851542
37.3535,106.04462072788537,102.29302357881657,104.37639454367287,103.84152064134493,102.62621432935345,104.05161776232858
38.8184,106.17020560879367,102.47030661290525,104.55085080851693,103.99773689528156,102.72120482027678,104.19615813001077
39.5508,106.2544905513985,102.56687812639926,104.65286281323266,104.09000302304753,102.79570006498993,104.28608201065954
41.0156,106.40676955201305,102.73969344885622,104.83976440143968,104.24743245066088,102.8877330497205,104.441191203392
42.4805,106.63057490994076,102.92343391595641,105.08430013051772,104.43500382742566,102.90324227860576,104.62866393223192
43.9453,106.91638380432029,103.26272030820932,105.44096965698922,104.71346373390573,102.77481382889174,104.88297862530834
45.4102,106.97922788105903,103.51992171243676,105.57707239258278,104.87979559835763,102.7479169874801,104.99888601152317
47.6074,106.63984591264666,103.31057883280783,105.24636102398684,104.7268152353872,103.38485171386608,104.84375835158475
49.0723,106.65225750095726,103.3897923504156,105.29131355309404,104.77402813754566,103.59019764702872,104.90749307698849
50.5371,106.59139943545337,103.41777786295715,105.26883716370662,104.76382042857713,103.68875004695808,104.90122932493396
52.7344,106.71427453231976,103.48588169263327,105.38512169615869,104.83925547030164,103.78028166754643,105.00100684651947
54.1992,106.74890909347253,103.4804308659923,105.41841491347218,104.82992118943727,103.73430634790584,105.00914902285437
56.3965,106.72236039887453,103.37869344885623,105.39051683716029,104.73635848987712,103.48158947508495,104.92582355542213
58.5938,106.54164247365667,103.21929909943556,105.23428741449281,104.54980022881884,103.25635768746652,104.74609669481153
60.0586,106.45630761323072,103.11041420606543,105.15154870488597,104.43317468975754,103.10281739909541,104.64243499550714
62.2559,106.45751076318751,103.11037571990971,105.17545462890402,104.41155303428344,103.03513886286268,104.63464610790402
64.4531,106.71565774136796,103.29881699709243,105.46054335297555,104.57929624941937,102.82225593307834,104.80961779621082
66.6504,107.16087534848931,103.84815557817,105.93415322864318,105.09610159283568,102.92822467579568,105.24872241730648
69.5801,107.03790839669799,103.84508626610267,105.79673431285649,105.10223572204123,103.68482896330008,105.27690990393135
71.7773,107.05222405633153,103.78832949403771,105.79858361767128,105.04415407370749,103.70369795588346,105.2650395423601
73.9746,107.04764071380414,103.6847711385218,105.77702111901692,104.95842429896878,103.5966053381949,105.21301159079904
76.9043,106.96554852604048,103.5261826089649,105.69129282924554,104.81431808178293,103.44534941975778,105.09823047719064
79.834,106.89862349995093,103.47487628375282,105.67165413274762,104.71340242808846,103.26058123306814,105.02214039025681
82.7637,106.83384824900341,103.44531914937191,105.66934800638883,104.64501824544959,103.06890270450913,104.95958620953247
85.6934,106.88140198456973,103.34076709658373,105.72830532284263,104.6539941658817,103.01471440500305,104.96840462835893
88.623,107.14973463142617,103.41586797986551,105.98864945841244,104.84856592470864,103.40153690007777,105.21048656067335
91.5527,107.46093328271947,103.73956005518217,106.33199602776426,105.07756723192365,103.5750209603479,105.49813877784563
94.4824,107.47191130667049,103.81484270555008,106.3822542027989,105.0658412078676,103.2023093149953,105.47591494868362
98.1445,107.11200098618288,103.55699418257606,106.04496466274246,104.7186998624197,102.89960095007642,105.14473719720736
101.807,106.93453964955184,103.29854529998146,105.91799591774681,104.41477263835245,102.45316550684005,104.914616087608
105.469,107.01339631342938,103.36663802363552,106.08443671565938,104.47899116144809,101.40214229998345,104.89774414415
109.131,106.58525522626118,103.28266638373171,105.76879355501596,104.39766880181173,101.61162285943549,104.67210556755255
112.793,106.47286317126385,103.2832345845715,105.6922945902103,104.25607979146805,101.97779584278096,104.62959705361892
116.455,106.29870616764605,102.5806716715818,105.32469354588709,103.68521325709486,101.37597115059758,104.21371460392236
120.85,106.93663293467587,102.75223223912722,105.93119924105437,104.03223678368445,100.81702080120986,104.6179798041418
125.244,107.66631586514838,103.59294160703169,106.68638825956427,104.89621416220243,102.09275380857265,105.44055963339115
129.639,107.54163422960734,103.38447039701542,106.5520873821191,104.57369615462937,101.82142327798792,105.25457617163815
134.033,107.65879856317677,103.59253049584125,106.65085280206988,104.69176915969726,100.19277527942846,105.24668578376853
138.428,106.84463481402742,103.17690044366064,105.83533206643543,104.19127561552959,99.50390812743697,104.55269869496368
143.555,106.04359561545097,102.1602341123304,105.08940213199041,103.25937988630946,98.6551243946593,103.7090130081095
148.682,106.78027839574482,102.49303883074099,105.90416833152183,103.9101494264449,99.58664422840026,104.41031693806018
153.809,107.54262389572342,103.4203612940331,106.80702107546806,104.66625886153706,100.35733817155742,105.2335863540309
159.668,106.79091699648451,102.95340594256102,105.93308702686544,104.31555346059923,97.9620947234471,104.47069341936798
164.795,105.78196183144625,102.02382222058063,104.88238271181186,103.33041435967606,98.54697777467157,103.55112830843365
170.654,106.60214753398995,101.28892115991563,105.82531729320432,103.97616877240746,98.28490736605976,104.12113268920014
176.514,107.26596845262435,102.69483097033127,106.45789576335231,104.54283314898055,99.72266513844657,104.88451075773973
183.105,106.58445034384717,101.97414191928543,105.60984389897021,104.29945818041523,98.5204302926471,104.20666309103107
189.697,106.9941229999506,102.04920206145961,106.11182808922277,104.07447597115113,99.68238744113904,104.52637900751206
196.289,107.68229668287694,103.20215682099456,106.82435889845901,105.20460650347911,98.99438066016592,105.28303747091697
202.881,106.26399706317189,102.05337585751442,105.3406953344114,103.82419822128351,98.43048738871188,103.93201389798746
210.205,106.468637768423,101.67559749910724,105.8319672592109,104.04163740769758,98.08122494039979,104.12105962732389
217.529,107.00184652413958,102.6314026912974,106.6192717048107,105.45197300762729,97.95024333607729,104.93346571266814
225.586,105.78349955058299,101.20853640924501,104.81899814896408,103.76250685016444,99.29097738076847,103.56756183222261
232.91,105.75423686686604,100.83627903291493,104.6046118670814,103.2859570856952,99.94226265775848,103.41606287411336
241.699,108.78876557115173,103.66100996516498,108.2446199911318,106.15972082615527,99.42481261720489,106.34895913812191
249.756,106.90283392492104,102.08471704769192,105.94241341146619,104.13800460634464,97.39524506269233,104.34174581163269
258.545,107.65860804838098,101.18653914026036,106.0643628974629,103.83411545447505,98.3877694527728,104.56211290832213
268.066,108.43505993345059,102.86744791514248,107.39805878041766,106.28796495491268,98.53039836467413,105.881491289853
277.588,106.34292295380007,102.33418218813901,105.07500863065029,105.09719544347128,99.8508662869451,104.29341607783554
287.109,104.82974289740396,99.1208357010971,103.2290334294164,102.94121358294032,100.08929808619176,102.52851359877276
297.363,108.17317930507637,103.25729371457659,108.05890130250013,104.68109708446345,99.07162217063272,105.75764008821726
307.617,108.61025039020502,103.85756510135812,108.02655104195799,104.61945575913134,97.95786906685773,105.92452826558032
318.604,107.13918468377753,102.84278954566082,106.7323761738668,104.44903892740413,96.33153721296353,104.77901359227532
329.59,107.37723518511517,103.13730956208919,106.59012588839623,105.44535165898918,99.3955500470493,105.17469631677118
341.309,106.4047923336421,102.04287748778452,104.73610382408138,102.18747067123047,98.00069260774295,103.5149890034109
353.76,108.48157080025001,101.7952947360423,106.7155991670184,103.3687507360634,98.39085711323735,105.08342130772701
366.211,106.7395931267941,103.74280922657935,106.93699219693788,102.82327398449796,97.87402455927725,104.64070282990296
378.662,108.02278591560437,102.78773591985377,106.75734721613019,103.63960103937181,96.86909213400669,104.9915168857886
392.578,107.94572122359125,102.95319068933476,106.57584204704774,102.24230017628108,97.93887317017335,104.78525350825238
405.762,105.8995856403583,102.7802196573124,105.47312606616956,101.89288035371054,96.2360013822169,103.53329362293108
420.41,108.06816259486861,101.29002508490002,106.43629849417968,100.5810856513328,94.21048904547173,104.33413739775615
435.059,105.22330011637364,101.1947367471286,104.07667853954776,101.04030967457643,93.31260225318705,102.3992463599923
450.439,104.76090569839543,101.35921520596858,102.30979153922824,98.2985044263962,93.67343852229195,101.4434320366395
466.553,104.22483248758145,101.82829831686746,103.12502865184545,99.47821978178756,90.79344090903895,101.60119176746296
482.666,105.71090348062158,100.19500497319409,104.54253850315011,100.74053664860635,93.39975683197783,102.56304904712987
500.244,105.0486252740143,102.54138265665125,102.28932996969615,99.63252828631782,93.91842041246831,101.96046006085881
517.822,106.40757004031407,102.99817545002038,105.16378099605505,100.3611570089447,95.0999011127161,103.44836557309014
536.133,105.81882925377315,102.60094250638313,103.94549050667251,100.33046638771856,94.08376010709166,102.76655145033885
554.443,106.57611903207881,101.16222778260577,105.69264095589598,102.01723492402503,93.70172020378875,103.57455742742535
574.219,106.13537290628625,100.22339209947614,105.60720298251594,101.330838115069,92.5782796973202,103.15397123501147
594.727,105.49434828718476,99.42189409181955,105.07224893142357,101.30309449519416,92.80848380445795,102.636385851274
615.234,106.06446438040925,100.02641197462907,106.37617169093518,102.48461880467201,93.01869714028973,103.56422043666565
637.207,106.00264530277198,99.12578327637054,107.79955258499761,103.28970138605773,93.80020933744485,104.21568920757632
659.912,104.42912497076635,96.14707549066513,107.1140008537294,102.71956315203896,93.73145503889022,103.19579738904359
683.35,103.81161241282685,96.2766185341651,107.12644638744604,102.39100381745114,93.8116361310288,102.99473139188507
706.787,102.2799396810532,95.1630087152648,106.92074297150411,101.92992647695134,93.11010418901941,102.40756501353276
731.689,101.9622174491364,94.7851395090024,107.13669270557453,101.94629625159678,91.8396196875335,102.43653823082907
758.057,100.29483034786502,96.33275983188639,106.4373878440797,101.76966182175516,91.66217460499638,101.79126869648813
784.424,99.86188643153396,97.75323340771219,106.47404278833531,101.13336004139124,90.98445228045469,101.71939781198135
812.256,100.26691658683609,99.56048727340777,106.22328049174295,100.84676234517117,90.7635538886676,101.75670674516823
840.82,100.17292907526927,99.68192221619216,106.59853553898095,101.05241616809504,91.01071944152683,102.00837134861139
870.85,101.36564765664265,101.26381710652316,106.93065845370002,100.63977548428625,90.85998232884846,102.51413406350002
901.611,101.41769462863692,103.10003751421695,106.79103478465863,101.30660374442094,90.76784240938788,102.8666127568206
933.105,102.45632370875965,103.4823997786792,106.74591428049378,101.43572305647335,91.37778028152938,103.11598542910389
966.064,102.7914095785596,103.41361627055825,107.29746481245583,102.333553754533,92.0594681571241,103.5547453027994
999.756,102.00276986553202,102.94329873655305,106.8112390695802,101.06131982233904,92.29898225089578,102.92282689573914
1034.91,102.44473425164634,102.82079204465585,106.56425635316732,101.13993978644896,92.0326735515799,102.86171318725248
1071.53,102.45441902787447,102.74053030137007,106.8848101254839,101.60911770271234,91.33053143236403,103.05535054278968
1109.62,103.00093233903708,102.95900019437975,106.45249307781249,102.09399561513135,91.04146839138325,103.0694437281164
1148.44,103.50014771991495,102.74786963687855,107.19452320868685,102.17952281893254,92.25956054854299,103.49588857716925
1189.45,103.25931280835762,102.65454746987636,106.56007563947328,101.3608629364803,91.40537816015,103.00855861371157
1231.2,102.80521710988435,101.69529859184945,106.41991840844588,101.43945512924417,90.60736205589181,102.685066412002
1274.41,102.85225409826549,102.24034402617204,106.53623655378885,101.25483213677687,90.64755001308725,102.81440123432603
1319.82,103.22654200666122,102.31916810707011,106.24204123307547,101.91072279391446,90.89913327973431,102.87477077010935
1365.97,103.57758213696059,102.538719725689,106.4920512941579,102.071157017384,90.26898338055688,103.11728846443611
1414.31,103.82471207256616,102.56954135045501,106.30970217069074,101.6890940246074,91.58168939720379,103.05960462964974
1464.11,104.10108017839283,102.59188745286345,106.46333280857068,102.43513050928966,90.44333548467857,103.29572131718267
1515.38,105.42146514147818,102.8616653322338,106.14194496077131,101.64279933083816,90.71616710497408,103.46676795587021
1568.85,105.34832922660287,101.73253508451735,106.46189042773463,102.81474403149755,91.09642892575394,103.57365340079276
1624.51,105.02193566899592,102.1099586129194,106.08879055524346,102.5715818631126,91.09066276083198,103.34594710364954
1681.64,104.53290107311147,101.35233857532113,105.91861183732917,102.40772390898425,90.10625787144866,102.99100248666697
1740.97,105.2173794850544,102.10162535393924,105.78072680560881,102.78916876363995,90.23175727297155,103.31963955564841
1802.49,105.35207701496131,102.04023656182709,105.98782068016192,102.30064331613552,90.62798701608874,103.34973726365709
1866.21,105.66193987936227,102.16057696804235,106.59204929625447,102.18654628648125,90.42006226258242,103.67529434342906
1932.13,105.25314184769381,102.51307781935026,106.52309308189207,102.32331160590851,91.2315253060042,103.60462455733082
2000.24,104.46375628090284,102.60936698721322,106.09915422444996,102.25855026949553,91.12080423860331,103.2234979432785
2070.56,104.03241355774654,102.51730531308495,106.25713664919986,102.45769927350882,90.30932339598121,103.18414341488109
2143.8,105.21260208207029,102.74802594590082,106.44119454596427,102.7303515021025,90.30960211838263,103.65226683631836
2219.24,104.5248367956725,103.293146813336,106.90305739077175,103.02930610219781,89.98956805918333,103.7944720584848
2297.61,104.52144725750512,103.01575446320668,106.96382430887225,103.03733881415322,90.03264550646816,103.77247676305797
2378.17,104.5792819560973,103.32674569539056,106.90528940107556,103.16973358974442,90.00117361933985,103.83816996431541
2462.4,105.04352191071443,102.86172027086654,106.95954111287402,102.71507636836893,89.61750889615548,103.821032222326
2548.83,105.15438642448491,103.01681813790593,106.65407124698255,102.70439861354679,88.85976791859711,103.74702478950965
2638.92,104.95339695142772,102.74767245994686,106.88918013069892,102.94620730017795,90.0998078555041,103.79116608421795
2731.93,105.21512583020318,102.73053425653153,107.09367621836275,103.11554834794991,89.18068282908777,103.9623802260236
2828.61,105.01085093745847,103.10451622181189,106.82675110962276,102.68609598405432,89.4220821343323,103.79254750454167
2928.22,105.35790419414239,102.72394071095823,106.85404523274913,102.2175665625045,87.61637476654079,103.75722583663025
3031.49,103.95344341096818,102.18093538460853,106.1477015428555,102.20249353088938,89.03765087015348,103.0089445815725
3138.43,105.00398017596112,102.85090649293873,106.12224908167583,102.1380144468332,88.22420709499043,103.38071353861963
3249.02,103.71927525270745,102.16933351095477,106.20827960161327,102.30083056162671,88.90760900134684,102.99094987198983
3363.28,104.46644885068393,102.26734048364922,106.12327385177603,102.30449223650173,87.3562641291343,103.15227492537024
3481.93,103.895513782994,102.38389193114007,105.89979882390968,102.43320290238027,86.6829420942502,102.95414941981505
3604.98,104.60367683659419,102.21758088374123,106.13793944792918,102.129933496178,87.08625464776367,103.15823077970119
3732.42,104.46171701160789,102.40339897542104,106.23611419877024,102.01651126080141,84.70435594591052,103.16254957168896
3863.53,104.1421558243826,102.45614096886472,106.0964146173751,101.8000245373717,86.3006511219432,103.00271648345414
3999.76,104.5350134871427,102.44615452179976,106.2130553694572,101.82849324162298,85.64197283242213,103.1550825725874
4141.11,103.9028800573348,102.12232881844331,106.4669313163135,101.98878741643277,84.73898323890339,103.06641374784734
4286.87,104.91267902899405,102.48012200772276,106.65952029998499,101.74347820368467,86.23655448990287,103.439784689988
4438.48,104.21111537232578,102.68010357442061,106.28661955310547,102.15718458902458,85.21854508150504,103.1889012553101
4594.48,104.95280317252067,102.47553894463469,106.22517392960046,101.82736252930624,85.3980643753992,103.28261451119025
4757.08,104.23522337436093,102.71605181861834,106.37876571186645,101.9248582090688,84.68974609409926,103.20216388280942
4924.8,104.63648283471841,102.69391213743386,106.35779005594904,101.83609970557049,84.99164885013705,103.28319831821148
5098.39,104.67428580518704,102.58124884742513,106.30651372774274,101.98523826323978,83.45529321650822,103.27134851710636
5277.83,104.23246058530927,102.81675350546088,106.63101586024796,101.62126545965101,83.30457052386238,103.27988195030548
5463.87,105.37174510157315,103.09967126813004,106.76156126291887,101.56019541516255,83.0080835163999,103.6857819570822
5656.49,104.72737421601512,102.7451597397789,106.46728626657948,101.09269276473854,82.33731552360909,103.258418351051
5856.45,104.06681674796765,102.59143002906627,105.94789995450348,100.91184850901764,82.18064910372088,102.81064952486874
6062.99,104.68804902042,102.48276992180465,105.61049522566178,100.50069081642103,80.69022490211283,102.78196540551774
