Freq "Front Wall Bounce"
22.4 28.03508205956652
23.0 27.58661398116547
23.6 27.024120471141998
24.0 26.604604153266195
25.0 26.199514434544426
25.8 25.760753621437516
26.5 25.233449344123756
27.2 24.545774922195392
28.0 24.243139395337806
29.0 24.35742449135813
30.0 25.474611929734408
30.7 27.158081271972463
31.5 28.42880715674528
32.5 30.943139395337823
33.5 33.5
34.5 35.400000000000006
35.5 38.400000000000006
36.5 40.5
37.5 41.900000000000006
38.7 44.0716627539189
40.0 46.0
41.2 47.61442746339746
42.5 48.58585448910236
43.7 50.085854489102374
45.0 51.5
46.2 52.885854489102385
47.5 54.64313939533781
48.7 55.92880715674528
50.0 57.04313939533782
51.5 58.15742449135814
53.0 59.64313939533781
54.5 60.900000000000006
56.0 61.885854489102385
58.0 63.18585448910238
60.0 64.65742449135816
61.5 65.75742449135815
63.0 66.7716627539189
65.0 68.0
67.0 69.04313939533782
69.0 69.98585448910237
71.0 70.78585448910238
73.0 71.45742449135815
75.0 72.02880715674527
77.5 72.5716627539189
80.0 72.82880715674528
82.5 72.9716627539189
85.0 72.9716627539189
87.5 72.84313939533781
90.0 72.58585448910237
92.5 72.28618450501952
95.0 72.0147553152921
97.5 71.75742449135814
100.0 71.4716627539189
103.0 71.12913392494289
106.0 70.82913392494288
109.0 70.44313939533782
112.0 70.01475531529209
115.0 69.64346508697898
118.0 69.34346508697898
122.0 69.14346508697898
125.0 68.9861845050195
128.0 68.8861845050195
132.0 68.80065786069426
136.0 68.67199384997417
140.0 68.57231738497823
145.0 68.50130813607778
150.0 68.40130813607779
155.0 68.31573126164821
160.0 68.21573126164822
165.0 68.10163697981935
170.0 68.05905509047517
175.0 68.13110179883557
180.0 68.24510093472826
185.0 68.31606664920142
190.0 68.30229476693691
195.0 68.25971162456
200.0 68.15971162456
206.0 68.08879404668059
212.0 68.23175513861906
218.0 68.43175513861907
224.0 68.61834583164506
230.0 68.76325933618236
236.0 68.93465014071752
240.0 69.06264712636356
250.0 69.13565203000147
258.0 69.06325933618237
265.0 68.87780916640858
272.0 68.74831996303516
280.0 68.8317328344666
290.0 68.98879404668058
300.0 69.03175513861908
307.0 68.97461192973441
315.0 68.6778091664086
325.0 68.25054712567581
335.0 67.8762292462144
345.0 68.01834583164506
355.0 68.6762292462144
365.0 69.3762292462144
375.0 69.6477056434894
387.0 69.5610247430264
400.0 69.50392374556776
412.0 69.44831996303517
425.0 69.21834583164508
437.0 69.01834583164506
450.0 69.33338849099712
462.0 69.8762292462144
475.0 70.19073576156003
487.0 70.16264712636357
500.0 69.89497765699284
515.0 69.95221130127227
530.0 70.1228586333877
545.0 69.90942178676626
560.0 69.6538369797517
580.0 69.79728484062565
600.0 70.09497765699282
615.0 69.96910435091776
630.0 70.04367019549541
650.0 70.28693201565363
670.0 70.18693201565367
690.0 69.99460907312816
710.0 70.08721353649631
730.0 69.96829896145549
750.0 69.75560151542636
775.0 70.06761284154301
800.0 70.5488830794205
825.0 70.7203857253813
850.0 70.40344577203155
875.0 70.07959468694176
900.0 69.8149007458859
925.0 69.60634082996302
950.0 69.7313668251785
975.0 69.80815654995028
1000.0 69.89276638646169
1030.0 69.33075105401656
1060.0 68.32408605429102
1090.0 68.33854556059217
1120.0 68.77413203945692
1150.0 68.93556388387744
1180.0 68.90645007491806
1220.0 69.01513627627317
1250.0 69.31157596994444
1280.0 68.86171483373235
1320.0 68.23290209367292
1360.0 68.11605236749729
1400.0 67.63628713343701
1450.0 67.09913617288123
1500.0 67.20557747952637
1550.0 67.20406365703484
1600.0 66.74261297237265
1650.0 66.68030157451557
1700.0 66.61599799528817
1750.0 66.34417662251393
1800.0 66.62789345797654
1850.0 66.93601643182646
1900.0 66.70528213527834
1950.0 66.41678537278179
2000.0 66.34585964978453
2060.0 66.58580553873661
2120.0 66.67526415204955
2180.0 66.68070648584415
2240.0 67.10283409813654
2300.0 67.44385621582208
2360.0 67.53105639386919
2400.0 67.65574084481315
2500.0 67.94103226033444
2580.0 68.39927850722206
2650.0 68.18233458628355
2720.0 68.03422299219574
2800.0 67.68478004298672
2900.0 67.68315803699934
3000.0 68.03488830975769
3070.0 68.43266848737962
3150.0 69.19272180649571
3250.0 69.8245475101978
3350.0 69.62541376003044
3450.0 68.97388896676937
3550.0 68.56366805477946
3650.0 68.53192432292575
3750.0 68.24669808912336
3870.0 67.94873008994507
4000.0 68.2112953810412
4120.0 68.54805497477201
4250.0 68.71462074399525
4370.0 68.11445524344384
4500.0 67.60798026556209
4620.0 67.38628280605228
4750.0 67.27028844028285
4870.0 66.9509143325977
5000.0 66.83555535950289
5150.0 67.16311714703616
5300.0 67.68715380599147
5450.0 68.45233337639078
5600.0 68.9156532185976
5800.0 69.08314499361839
6000.0 68.98886823444963
6150.0 68.22570384389212
6300.0 67.61115314842283
6500.0 67.60117858340054
6700.0 68.76252818512528
6900.0 69.47316836858276
7100.0 69.49201410104875
7300.0 69.6212348599434
7500.0 70.3017271434463
7750.0 70.88574186504829
8000.0 71.54350666901918
8250.0 70.94302214483734
8500.0 69.2539711982196
8750.0 67.68152568620594
9000.0 65.26322889032927
9250.0 66.0322307273095
9500.0 68.65702315177575
9750.0 70.5253390277498
10000.0 70.3038955211631
10300.0 68.59112784198322
10600.0 66.97061423204387
10900.0 66.22820998815865
11200.0 68.11812692217438
11500.0 72.05854097461831
11800.0 73.12808399538397
12200.0 68.94087157606873
12500.0 64.74132766475863
12800.0 62.86416345685673
13200.0 65.47757398312791
13600.0 69.23427896480086
14000.0 68.77371791384951
14500.0 67.20830810332382
15000.0 67.95322707392258
15500.0 66.24822490232492
16000.0 64.70279604780137
16500.0 65.32647725160945
17000.0 65.37821218937543
17500.0 63.67699926639615
18000.0 60.6075549473469
18500.0 59.514915274275864
19000.0 58.98803159179424
19500.0 56.30143071711643
