Freq "Rear Wall Bounce"
22.4 54.33951021982875
23.0 53.67024883549402
23.6 53.27188166296622
24.0 53.127777104353214
25.0 53.369006373638996
25.8 53.889684430076926
26.5 54.67403843802529
27.2 55.64166937940138
28.0 56.66527205239305
29.0 57.69408689449071
30.0 58.63664919617173
30.7 59.43848414161948
31.5 60.15012796898546
32.5 60.787974925119016
33.5 61.376868764684446
34.5 62.01128178355253
35.5 62.71022741936173
36.5 63.505838777663854
37.5 64.45306716989302
38.7 65.49886077850343
40.0 66.64291850618997
41.2 67.87714751534041
42.5 69.20897929058069
43.7 70.52346410238451
45.0 71.88281876520381
46.2 73.27570583171521
47.5 74.65790612869232
48.7 75.97748190373844
50.0 77.27951345132705
51.5 78.54739416479335
53.0 79.77686751292995
54.5 80.92689835126563
56.0 81.9858151052072
58.0 83.01941236781484
60.0 83.8900337939579
61.5 84.6895730194519
63.0 85.3146079906327
65.0 85.85561666858548
67.0 86.22302825543349
69.0 86.53390097403309
71.0 86.72823165669631
73.0 86.85977488825311
75.0 86.93356381976878
77.5 86.94392264001668
80.0 86.91300896295526
82.5 86.8555160890611
85.0 86.76734763250036
87.5 86.67966052417506
90.0 86.60112081307821
92.5 86.52331909986012
95.0 86.46914709881565
97.5 86.40535807145787
100.0 86.38440795939735
103.0 86.34210257459458
106.0 86.30071640995827
109.0 86.30806885347762
112.0 86.32430289539542
115.0 86.36156005859898
118.0 86.38334858305896
122.0 86.40930977499795
125.0 86.41515675176468
128.0 86.41808793123242
132.0 86.37611488649515
136.0 86.30291067616939
140.0 86.20537640344185
145.0 86.10537640344185
150.0 85.91680717166503
155.0 85.68730045469445
160.0 85.44938925125561
165.0 85.12321936715236
170.0 84.77845016388068
175.0 84.42537093081442
180.0 84.11598154040183
185.0 83.7949095581123
190.0 83.53423895009382
195.0 83.30982421487874
200.0 83.11830649851981
206.0 82.96435214767828
212.0 82.81333862976243
218.0 82.70358951741264
224.0 82.5872351016653
230.0 82.43244824509328
236.0 82.26208920678611
240.0 82.0748728426007
250.0 81.90961312135423
258.0 81.7499762739384
265.0 81.5661683894687
272.0 81.39559114770843
280.0 81.23706103668657
290.0 81.02321233352842
300.0 80.83532741826573
307.0 80.58258388781094
315.0 80.33954345067714
325.0 80.13784836715853
335.0 79.92156851776532
345.0 79.70469389651215
355.0 79.47514525166527
365.0 79.2846683337865
375.0 79.0808340239929
387.0 78.85283862823519
400.0 78.65699233915014
412.0 78.51091993022803
425.0 78.3387525778163
437.0 78.00652377921632
450.0 77.4888989117703
462.0 76.69061107027937
475.0 75.60833509332295
487.0 74.64399766468358
500.0 73.87287375940674
515.0 73.34927563314383
530.0 72.91549234067574
545.0 72.5798150995236
560.0 72.34521301820686
580.0 72.24429994261865
600.0 72.2965967445467
615.0 72.48251222183666
630.0 72.73512188069472
650.0 73.015489572099
670.0 73.20176507234673
690.0 73.1616753725552
710.0 72.8732857383604
730.0 72.22286048293138
750.0 71.23418064641628
775.0 69.97145619169305
800.0 68.50842568813005
825.0 67.1155386202283
850.0 66.16624352345899
875.0 66.2188329188895
900.0 67.1984850114804
925.0 68.59947884382156
950.0 69.83563098874626
975.0 70.67279436302589
1000.0 71.06262869736956
1030.0 70.98104624691175
1060.0 70.56350568676552
1090.0 69.95487495106478
1120.0 69.36520172715998
1150.0 68.86978949436515
1180.0 68.59986883569056
1220.0 68.65440353769802
1250.0 68.95576530940961
1280.0 69.26216499245552
1320.0 69.3849609875318
1360.0 69.37036893505368
1400.0 69.18833189188267
1450.0 68.98644798691525
1500.0 68.7467386127787
1550.0 68.52403812625275
1600.0 68.27792448119312
1650.0 67.8644672732347
1700.0 67.26770420235482
1750.0 66.80601252869612
1800.0 66.50605474978852
1850.0 66.20734390041247
1900.0 65.83238172955899
1950.0 65.49228674081907
2000.0 65.327332804468
2060.0 65.45363157565707
2120.0 65.87569918368673
2180.0 66.31099497072172
2240.0 66.57139714182567
2300.0 66.47990500680154
2360.0 65.98331760722746
2400.0 65.11785742332236
2500.0 64.12905895140193
2580.0 63.38378675438193
2650.0 63.24231051810281
2720.0 63.695260028749885
2800.0 64.50182131563705
2900.0 65.33306721040778
3000.0 65.84693945445167
3070.0 65.63371923484299
3150.0 64.82874192410034
3250.0 64.2052254495004
3350.0 64.02280581925274
3450.0 64.12910197549692
3550.0 64.16109908813053
3650.0 64.02175454666386
3750.0 63.57670579693453
3870.0 62.95568770446286
4000.0 62.370237709503016
4120.0 62.09517662510035
4250.0 61.991504349597335
4370.0 61.9461268296358
4500.0 61.71539740970198
4620.0 61.249577636182465
4750.0 60.727116244807604
4870.0 60.37909340613899
5000.0 60.22402446186618
5150.0 59.95325451151609
5300.0 59.594761503694485
5450.0 59.554911521014674
5600.0 59.80708884128953
5800.0 59.77711431252786
6000.0 59.35535513903082
6150.0 58.801181042435076
6300.0 58.295343098951406
6500.0 57.81454213106619
6700.0 57.22647254015351
6900.0 56.51719273143186
7100.0 55.78718942429316
7300.0 55.430458859199376
7500.0 55.27114609864236
7750.0 54.947213120988465
8000.0 54.26891344012975
8250.0 53.8167375497475
8500.0 53.61456334641264
8750.0 53.37860488519425
9000.0 52.79500118718198
9250.0 52.1993326034879
9500.0 51.713455753631735
9750.0 51.516550671110565
10000.0 51.291539261456705
10300.0 50.204558337907116
10600.0 47.68221035528373
10900.0 43.6195065064575
11200.0 39.43714283805133
11500.0 38.904196647862335
11800.0 41.7852533417915
12200.0 43.54035851369554
12500.0 42.55149049966852
12800.0 40.12634318862982
13200.0 37.480580414664615
13600.0 35.27722106353275
14000.0 34.087423991919025
14500.0 34.1666761402893
15000.0 35.06792809765719
15500.0 35.892329267283
16000.0 35.637390823279844
16500.0 33.865733693532775
17000.0 31.170309776833875
17500.0 29.91786698701418
18000.0 30.316403334099448
18500.0 30.0211593890551
19000.0 28.078223624328587
19500.0 25.70961918261969
