Freq,On Axis,Listening Window,Sound Power,Early Reflections,Early Reflections DI,Sound Power DI,DI offset
20.5078,49.27886363636367,49.34942484806015,55.473989592719846,53.304747207555295,36.04467764050486,33.87543525534031,40
21.9727,51.697763636363675,51.69779306999459,55.69906753297269,54.02599221796751,37.671800852027076,35.9987255370219,40
23.4375,52.45136363636365,52.461947432574306,57.145441651034474,55.30017363931685,37.16177379325745,35.31650578153983,40
24.9023,53.85936363636367,53.89922587713036,58.49892557292395,56.70576224696313,37.19346363016723,35.40030030420641,40
26.3672,56.694063636363666,56.720595212513956,60.277354923933274,58.78733843163988,37.933256780874075,36.44324028858068,40
27.832,58.659763636363664,58.68743158934936,61.88920035093696,60.51372140583044,38.17371018351892,36.7982312384124,40
29.2969,60.55976363636364,60.586507964961015,63.454086985273705,62.191328863031316,38.3951791019297,37.13242097968731,40
30.7617,62.56516363636365,62.58613531968646,64.96887849041336,63.88044429525358,38.70569102443288,37.6172568292731,40
32.2266,64.09676363636366,64.1215284931968,66.35171946855596,65.32651682129298,38.79501167190382,37.76980902464085,40
33.6914,65.82946363636366,65.85440018160092,67.84329424236596,66.91422407656205,38.94017610503887,38.011105939234966,40
35.1562,67.43916363636366,67.46565790779681,69.2717332206167,68.41781507472442,39.047842833072394,38.193924687180115,40
36.6211,68.89836363636365,68.92373077488244,70.54141001553702,69.76646371431616,39.157267060566284,38.38232075934542,40
38.0859,70.23976363636366,70.26840872183374,71.79597176556355,71.06222282636297,39.20618589547077,38.47243695627019,40
39.5508,71.50896363636366,71.53899375198931,72.95239684915268,72.26808588858785,39.27090786340146,38.58659690283663,40
41.0156,72.72566363636366,72.75711454187793,74.06889317799144,73.43148885824951,39.32562568362842,38.688221363886484,40
42.4805,73.44976363636366,73.47616037550993,74.60725995808207,74.04535504253812,39.430805332971815,38.86890041742787,40
43.9453,73.82966363636368,73.8590680706744,74.95303615019009,74.41399634481485,39.44507172585955,38.90603192048431,40
45.4102,74.35676363636364,74.38503262884203,75.3866138170041,74.88951878137428,39.49551384746775,38.99841881183792,40
46.875,74.71716363636364,74.74672203360142,75.7168638019937,75.23371660977881,39.513005423822605,39.02985823160772,40
48.3398,75.03986363636366,75.07042780122818,75.99756014502267,75.53506610738042,39.53536169384776,39.0728676562055,40
51.2695,75.53756363636366,75.5688725877358,76.40568389968428,75.98515478965263,39.58371779808317,39.16318868805152,40
52.7344,75.74766363636365,75.77963254515687,76.58831815594436,76.18162652283573,39.598006022321144,39.19131438921251,40
54.1992,75.98156363636366,76.01347310573033,76.7715598600612,76.38866209184891,39.62481101388141,39.241913245669124,40
55.6641,76.13496363636365,76.16592361175498,76.86961949919262,76.51255927755429,39.65336433420069,39.29630411256235,40
58.5938,76.59406363636366,76.62216270553374,77.2155903855033,76.90984861188059,39.71231409365315,39.406572320030435,40
60.0586,76.65846363636365,76.68649469388046,77.24889331120403,76.9574966716178,39.72899802226266,39.437601382676434,40
62.9883,77.02906363636366,77.05634690729822,77.56150393274537,77.29871415323218,39.75763275406604,39.49484297455285,40
64.4531,77.14976363636366,77.17741315464343,77.67079861407043,77.41389686242606,39.763516292217375,39.506614540573,40
67.3828,77.41726363636366,77.44480137914715,77.90363618090808,77.66352977343769,39.78127160570946,39.54116519823907,40
68.8477,77.58946363636366,77.61649065682403,78.05288707339702,77.82331304548818,39.79317761133585,39.56360358342701,40
71.7773,77.93596363636365,77.96315900691499,78.37823251223662,78.1585161674657,39.804642839449286,39.58492649467837,40
74.707,78.38336363636365,78.40737513069374,78.73311678398265,78.55664847732959,39.85072665336415,39.674258346711085,40
77.6367,78.78036363636366,78.80252930951316,79.07229537393563,78.9228850833183,39.879644226194856,39.73023393557753,40
79.1016,78.91456363636365,78.93691347374215,79.20286863691663,79.05500997533576,39.88190349840639,39.73404483682552,40
82.0312,79.17456363636364,79.19703773323064,79.45292672439264,79.31024340322725,39.8867943300034,39.744111008838004,40
84.9609,79.47106363636365,79.49339538771014,79.73682533492129,79.60022649390716,39.89316889380298,39.756570052788845,40
87.8906,79.78256363636365,79.80224314460403,79.99571638919235,79.88153178219191,39.92071136241212,39.80652675541168,40
90.8203,80.20896363636366,80.2249713292527,80.33887952738048,80.26282303371025,39.96214829554245,39.88609180187221,40
95.2148,80.56866363636365,80.58191820600791,80.61477149227474,80.58052023943007,40.00139796657784,39.96714671373317,40
98.1445,80.70326363636366,80.71917264939802,80.82027701900408,80.7510851527153,39.96808749668271,39.89889563039394,40
101.074,80.96946363636366,80.98080538179646,81.01519541705537,80.9788043062632,40.00200107553326,39.96560996474109,40
105.469,81.32666363636366,81.33452103540243,81.27735487757309,81.28699556177325,40.04752547362918,40.05716615782934,40
108.398,81.65756363636365,81.66544771904846,81.62806664032716,81.62699033061253,40.03845738843593,40.037381078721296,40
112.793,82.00416363636366,82.00969598693511,81.9299932322387,81.94888152752148,40.060814459413635,40.07970275469641,40
117.188,82.27196363636365,82.27582746770737,82.16592981998517,82.19952867384988,40.07629879385749,40.10989764772221,40
120.117,82.40856363636365,82.41040108626132,82.30494822132285,82.333279954126,40.07712113213532,40.10545286493847,40
124.512,82.75806363636366,82.75360704621612,82.57972560573732,82.63948451187979,40.11412253433633,40.173881440478795,40
128.906,82.94066363636364,82.93531700640214,82.7290399595384,82.80474365026302,40.130573356139124,40.20627704686375,40
133.301,83.05706363636364,83.0498052410561,82.82335187930195,82.90758534868704,40.14221989236907,40.22645336175415,40
139.16,83.25436363636368,83.2425305778101,82.9605779059118,83.06957163322154,40.17295894458856,40.281952671898296,40
143.555,83.36086363636366,83.34546292694861,83.01773710642806,83.14700972886575,40.19845319808286,40.327725820520556,40
147.949,83.49286363636365,83.4725948357734,83.07137869825745,83.23608083207985,40.23651400369356,40.40121613751596,40
153.809,83.56036363636366,83.53883250636937,83.09527995407491,83.28357166376604,40.255260842603334,40.44355255229446,40
159.668,83.67006363636366,83.64854504259831,83.2270019949347,83.39959991894179,40.248945123656526,40.42154304766362,40
165.527,83.81586363636366,83.79231009176885,83.40884385207906,83.55814918679691,40.234160904971944,40.383466239689795,40
171.387,83.87006363636365,83.83936755277546,83.40853633951045,83.57957203151983,40.259795521255626,40.43083121326501,40
177.246,83.93256363636365,83.89344540463352,83.35122686662052,83.5774659789376,40.31597942569593,40.542218538013,40
183.105,83.89136363636366,83.8429144465217,83.17652175770709,83.45991545175777,40.38299899476394,40.66639268881461,40
188.965,83.92746363636365,83.87428939581108,83.06844319461538,83.42584323150056,40.44844616431051,40.80584620119569,40
196.289,83.85836363636366,83.80960859276114,83.04110154980796,83.38599493393274,40.4236136588284,40.768507042953175,40
203.613,83.94576363636364,83.88265572109992,82.98026499588387,83.38846294502758,40.49419277607234,40.90239072521605,40
210.938,84.02036363636367,83.95100611058739,82.95127080462916,83.40846712795143,40.54253898263596,40.999735305958225,40
218.262,83.96816363636364,83.90116610730963,82.89999116688082,83.35948198094056,40.54168412636908,41.00117494042881,40
225.586,83.96306363636367,83.88530948157914,82.82913148625082,83.30706653127385,40.578242950305295,41.056177995328326,40
232.91,84.11776363636366,84.03214994140572,82.78266790736748,83.37481581321556,40.65733412819016,41.24948203403824,40
241.699,84.13466363636365,84.04585425661534,82.68184315812428,83.338941918177,40.70691233843834,41.36401109849106,40
250.488,83.97866363636366,83.88323503610869,82.4610369585234,83.1374960076988,40.745739028409886,41.42219807758529,40
259.277,84.33386363636366,84.24058424469571,82.79231160827501,83.48068134102934,40.75990290366637,41.4482726364207,40
268.066,84.04236363636366,83.93926192386536,82.58317689727104,83.20507398074652,40.73418794311884,41.356085026594315,40
276.855,84.22266363636366,84.12084871047853,82.48438480504421,83.25825565248309,40.86259305799544,41.63646390543431,40
287.109,84.62816363636365,84.51429328203125,82.75306108063663,83.61929154262428,40.895001739406965,41.76123220139462,40
297.363,84.65636363636366,84.52119606707926,82.73273578016108,83.59397868981888,40.92721737726038,41.78846028691818,40
307.617,84.95596363636366,84.84747731925322,82.94848540382534,83.89647000311216,40.95100731614106,41.89899191542787,40
319.336,84.68756363636366,84.56601024167168,82.71553333091249,83.6290093823063,40.937000859365384,41.850476910759184,40
329.59,85.02016363636366,84.89451508825735,82.7716772026802,83.84823449211433,41.04628059614302,42.122837885577155,40
341.309,84.78056363636367,84.64353746568435,82.77781302096892,83.68514804247653,40.95838942320782,41.865724444715426,40
353.027,84.89036363636366,84.73401852066914,82.36240106596193,83.53671118802649,41.19730733264265,42.371617454707206,40
366.211,84.99926363636365,84.8499611314962,82.40792539649215,83.62852892765638,41.221432203839825,42.442035735004055,40
379.395,85.55286363636367,85.41719649478225,82.89261856285248,84.19679774138282,41.22039875339942,42.52457793192977,40
392.578,85.09406363636366,84.95844071345418,82.67972674463681,83.83345579555048,41.1249849179037,42.27871396881737,40
405.762,84.89786363636367,84.71403025206584,82.23858749983097,83.4432679670588,41.27076228500704,42.47544275223487,40
420.41,85.35956363636366,85.19155658095401,82.31180032196461,83.80411040132125,41.38744617963276,42.8797562589894,40
435.059,85.02986363636366,84.8732423325766,82.3110636974645,83.59477289929691,41.27846943327968,42.56217863511209,40
451.172,85.47296363636366,85.29094623078208,82.28671723478672,83.83521266058378,41.455733570198305,43.00422899599536,40
465.82,85.20336363636366,85.00519252688834,82.0960611729208,83.5702229946539,41.43496953223443,42.90913135396754,40
483.398,85.39226363636365,85.18920827319077,82.15416649691235,83.69673383157152,41.49247444161925,43.03504177627842,40
499.512,85.47386363636366,85.21390163445014,82.10006398635046,83.62878945432209,41.58511218012805,43.113837648099675,40
517.09,86.38466363636365,86.08199810641436,82.53301286099692,84.30576986194356,41.7762282444708,43.54898524541744,40
536.133,87.19816363636366,86.79365187636839,82.25584312906322,84.57913900552549,42.214512870842896,44.537808747305164,40
555.176,88.33566363636366,88.08117553,83.27787069300223,85.82561550342704,42.25556002657295,44.80330483699777,40
574.219,87.99266363636366,87.80655592915716,83.58575218807546,85.80653799466545,42.00001793449171,44.220803741081696,40
594.727,86.99996363636366,86.86876938974798,83.17294070164137,85.09924022596007,41.76952916378791,43.695828688106616,40
615.234,87.06436363636365,86.91472758721956,83.06820754340703,85.05696505811659,41.85776252910297,43.84652004381253,40
637.207,87.11706363636365,86.981450353276,83.33946129607264,85.2992800811889,41.682170272087106,43.64198905720336,40
659.18,87.26286363636365,87.10149235994655,83.17311557039994,85.26640554449158,41.83508681545497,43.928376789546604,40
682.617,86.93266363636366,86.82745637254743,83.17019881303885,85.12317269059905,41.70428368194838,43.65725755950858,40
707.52,86.81696363636365,86.82448256267921,83.6794832008934,85.39941632470706,41.425066237972146,43.14499936178581,40
732.422,86.15056363636367,86.12631164461185,83.92468440640785,85.14915296697109,40.97715867764076,42.201627238204,40
757.324,87.26136363636365,86.80737631805837,84.65162274297634,85.9173482505648,40.890028067493574,42.15575357508203,40
785.156,89.34296363636366,88.73949554192846,84.74020240080137,86.68199935552892,42.05749618639955,43.9992931411271,40
811.523,89.18816363636365,88.70297095520675,84.20768347402677,86.34934926617369,42.35362168903306,44.495287481179986,40
840.82,89.29126363636365,88.8677657889406,84.17696222720699,86.50845965643941,42.35930613250119,44.69080356173362,40
870.117,88.96986363636366,88.65557361037737,84.11619850732836,86.3707688002156,42.28480481016177,44.53937510304901,40
900.879,89.17326363636366,88.84951880040832,84.2124083028063,86.60142319424222,42.2480956061661,44.63711049760202,40
933.105,88.96406363636366,88.67096642853092,84.05425108608996,86.41312298151774,42.25784344701317,44.616715342440955,40
965.332,89.00546363636366,88.69090533430156,83.98565401997574,86.48555794696875,42.20534738733281,44.70525131432582,40
1000.49,89.15336363636368,88.84057527799966,83.95753679166292,86.49159822524852,42.34897705275114,44.883038486336744,40
1035.64,88.87636363636366,88.52068319767886,83.72119957095533,86.34941114622362,42.17127205145525,44.79948362672353,40
1072.27,89.03296363636366,88.59384466797991,83.5417294514937,86.2793859493105,42.314458718669414,45.052115216486214,40
1108.89,88.58336363636366,88.16467634702542,83.20352677114421,85.96524467130088,42.19943167572454,44.96114957588121,40
1148.44,88.12716363636366,87.69490452965795,82.71456794142341,85.56760352054994,42.12730100910801,44.980336588234536,40
1189.45,87.85786363636365,87.40088265262531,82.25495947794235,85.12788078795347,42.27300186467184,45.14592317468296,40
1230.47,87.78536363636366,87.3502333554793,82.00424368249367,84.8543264638412,42.4959068916381,45.34598967298564,40
1274.41,87.45356363636364,87.00743563822515,81.63041676788758,84.4900173243205,42.51741831390464,45.377018870337565,40
1319.82,87.00396363636366,86.57189493947966,81.2442615369123,84.11013716051201,42.46175777896765,45.32763340256736,40
1366.7,86.57516363636364,86.11651290012638,80.87905753720243,83.78301301218579,42.33349988794059,45.23745536292395,40
1413.57,86.76206363636366,86.20735165786421,81.04837165062507,83.98844276550722,42.21890889235699,45.15898000723914,40
1463.38,87.50216363636366,86.95593384096125,81.61542234252548,84.58692846167432,42.36900537928693,45.340511498435774,40
1516.11,87.64256363636366,87.21364116087253,81.90043742651378,84.64982907996244,42.56381208091008,45.31320373435875,40
1568.85,87.57706363636366,87.1226553210652,81.5409080173245,84.4812595843924,42.64139573667279,45.5817473037407,40
1624.51,86.95866363636367,86.51803558794401,81.10941706382587,83.89023491050688,42.627800677437136,45.40861852411814,40
1681.64,87.52906363636367,86.99503281304965,81.2926443450369,84.26555566339064,42.729477149659004,45.70238846801274,40
1741.7,88.34666363636366,87.6921787352181,81.72223339025811,84.70280626115668,42.989372474061426,45.969945344959996,40
1803.22,87.83836363636365,87.29958119397244,81.48609633014223,84.3731222368458,42.92645895712664,45.81348486383021,40
1866.21,88.09726363636366,87.43445960958869,81.76921122922428,84.54489746001028,42.88956214957841,45.6652483803644,40
1932.13,87.84986363636365,87.30187059821469,81.83994745322687,84.62290876307394,42.678961835140754,45.46192314498782,40
1999.51,87.86856363636366,87.40304273271718,82.01261075354509,84.76851578540222,42.63452694731497,45.39043197917209,40
2069.82,87.19896363636366,86.74683132386465,82.0070164924101,84.49670303272822,42.250128291136434,44.73981483145455,40
2143.07,87.37086363636365,86.83766068560016,81.85440175739971,84.30176850976252,42.53589217583763,44.98325892820044,40
2219.24,87.15026363636366,86.75042262470609,81.06573127809673,83.81415876915307,42.93626385555302,45.684691346609355,40
2296.88,85.69136363636366,85.062065845553,79.88055668142343,82.85090671665571,42.21115912889728,45.181509164129565,40
2378.91,84.71796363636366,84.07051122704456,79.55149532128416,82.40251871347013,41.66799251357443,44.5190159057604,40
2462.4,83.05006363636366,82.92183863620905,78.92476427013642,81.58530766578052,41.33653097042853,43.997074366072624,40
2548.83,81.99246363636365,81.95726627246916,78.47879511664667,81.60560384660911,40.35166242586004,43.47847115582249,40
2639.65,82.09246363636366,82.10077689038138,78.46554255482144,81.63752357806955,40.463253312311835,43.63523433555994,40
2731.93,81.52026363636365,81.82930738782858,78.43991754147119,81.58682331732577,40.24248407050281,43.38938984635739,40
2828.61,80.88306363636366,81.74148435675784,78.4888850299397,81.5989730146132,40.142511342144644,43.25259932681814,40
2928.22,82.39246363636366,83.28182789532667,79.1353454165874,82.31420901455066,40.967618880776016,44.14648247873927,40
3030.76,84.58316363636368,85.03954597899984,79.98544666767935,83.12975586449527,41.909790114504574,45.054099311320485,40
3137.7,86.30296363636364,86.24336215675028,80.06542923428134,83.20538991149886,43.037972245251424,46.17793292246894,40
3249.02,85.80866363636366,85.48216890879712,79.2785145590332,82.19054102239112,43.291627886406005,46.20365434976392,40
3363.28,83.70906363636365,83.8514049203913,78.82237990752701,80.80482471837149,43.04658020201981,45.029025012864295,40
3481.93,82.08616363636365,83.10173807714088,79.13482357063828,80.4438605559492,42.65787752119168,43.966914506502604,40
3604.98,80.50316363636367,82.81501252788925,79.60861072700973,80.96485139248828,41.85016113540097,43.20640180087952,40
3732.42,80.43866363636366,83.19591697889786,79.72336169597102,81.56673620882924,41.629180770068615,43.472555282926834,40
3864.26,82.50956363636365,84.17514594332297,80.33461563734015,82.6174649023668,41.55768104095617,43.840530305982824,40
4000.49,83.16046363636366,84.26155822777618,80.36647853922932,83.35140266627758,40.9101555614986,43.89507968854686,40
4141.11,82.49606363636366,83.59260039744589,80.38756561759055,83.10244788568093,40.49015251176496,43.20503477985534,40
4287.6,81.30106363636365,82.90853116414493,80.44615420949836,82.93481183139784,39.973719332747095,42.46237695464657,40
4438.48,79.57786363636366,82.18191857896784,80.56730027942051,83.03437029217258,39.147548286795256,41.61461829954733,40
4595.21,77.76086363636365,81.96082007157273,80.27511721878511,82.84785289524376,39.112967176328965,41.685702852787614,40
4756.35,77.26196363636365,82.54029094913834,80.36853804933389,83.1701398127209,39.370151136417434,42.171752899804446,40
4924.8,78.17306363636365,82.82052795061392,80.40049491012982,83.13744448280801,39.683083467805915,42.4200330404841,40
5097.66,78.79616363636366,83.28909191033704,80.53158039746152,83.12871707892998,40.160374831407054,42.75751151287551,40
5277.83,79.54856363636365,83.62496350641267,80.73000068823313,83.25572724836138,40.36923625805129,42.894962818179536,40
5463.87,81.07546363636365,83.93769326679924,80.68840482590245,83.28458891678353,40.65310435001571,43.24928844089679,40
5657.23,82.75606363636368,84.5302427075241,80.62435283238366,83.24643373331529,41.28380897420881,43.90588987514043,40
5856.45,84.35436363636367,85.22779711517305,80.66004463367067,83.40030863179989,41.82748848337316,44.56775248150238,40
6062.99,85.15596363636365,85.58072278232055,80.590972481261,83.36793078398188,42.21279199833867,44.989750301059544,40
6276.86,85.65986363636367,86.07403250437207,80.75032010787504,83.67990842732618,42.39412407704589,45.32371239649703,40
6498.05,86.45366363636367,86.45338703569372,80.61658383193338,83.6798639421466,42.77352309354713,45.83680320376034,40
6726.56,87.13566363636366,86.80370809772751,80.45320516491734,83.76156388404632,43.04214421368118,46.35050293281017,40
6963.87,87.73026363636365,86.9273978457947,80.28103654432685,83.69085016764303,43.236547678151666,46.64636130146785,40
7209.96,88.31836363636367,87.10788781371592,80.32955458923155,83.80150956234944,43.30637825136648,46.77833322448437,40
7464.84,88.37916363636366,87.03432442915158,80.38324854010446,83.99609952342959,43.03822490572199,46.65107588904712,40
7727.05,88.15676363636368,86.85676765888589,80.41423163945511,83.98414174254135,42.87262591634453,46.442536019430776,40
7999.51,87.84626363636366,86.6314528300855,80.20739375253518,83.76474537081864,42.86670745926685,46.42405907755031,40
