Freq "Listening Window"
20.5078 50.84096121169648
21.9727 53.18932943363092
23.4375 53.953483796210634
24.9023 55.39076224076669
26.3672 58.212131576150284
27.832 60.17896795298569
29.2969 62.07804432859737
30.7617 64.07767168332283
32.2266 65.61306485683316
33.6914 67.34593654523727
35.1562 68.95719427143314
36.6211 70.4152671385188
38.0859 71.7599450854701
39.5508 73.03053011562565
41.0156 74.24865090551427
42.4805 74.96769673914628
43.9453 75.35060443431072
45.4102 75.87656899247835
46.875 76.23825839723776
48.3398 76.56196416486452
51.2695 77.06040895137214
52.7344 77.27116890879321
54.1992 77.50500946936667
55.6641 77.65745997539133
58.5938 78.11369906917008
60.0586 78.1780310575168
62.9883 78.54788327093456
64.4531 78.66894951827976
67.3828 78.9363377427835
68.8477 79.10802702046038
71.7773 79.45469537055133
74.707 79.89891149433008
77.6367 80.2940656731495
79.1016 80.4284498373785
82.0312 80.68857409686699
84.9609 80.98493175134648
87.8906 81.29377950824038
90.8203 81.71650769288904
95.2148 82.07345456964426
98.1445 82.21070901303436
101.074 82.4723417454328
105.469 82.82605739903879
108.398 83.15698408268482
112.793 83.50123235057147
117.188 83.76736383134372
120.117 83.90193744989766
124.512 84.24514340985246
128.906 84.42685337003849
133.301 84.54134160469245
139.16 84.73406694144644
143.555 84.83699929058496
147.949 84.96413119940975
153.809 85.0303688700057
159.668 85.14008140623466
165.527 85.2838464554052
171.387 85.33090391641181
177.246 85.38498176826985
183.105 85.33445081015805
188.965 85.36582575944742
196.289 85.30114495639748
203.613 85.37419208473628
210.938 85.44254247422373
218.262 85.39270247094598
225.586 85.37684584521548
232.91 85.52368630504206
241.699 85.53739062025167
250.488 85.37477139974501
259.277 85.73212060833207
268.066 85.43079828750169
276.855 85.61238507411487
287.109 86.00582964566757
297.363 86.0127324307156
307.617 86.33901368288954
319.336 86.057546605308
329.59 86.38605145189368
341.309 86.13507382932069
353.027 86.22555488430548
366.211 86.34149749513254
379.395 86.90873285841859
392.578 86.44997707709052
405.762 86.20556661570218
420.41 86.68309294459036
435.059 86.36477869621294
451.172 86.78248259441843
465.82 86.49672889052468
483.398 86.68074463682711
499.512 86.70543799808648
517.09 87.5735344700507
536.133 88.28518824000471
555.176 89.57271189363632
574.219 89.2980922927935
594.727 88.36030575338432
615.234 88.4062639508559
637.207 88.47298671691235
659.18 88.59302872358288
682.617 88.31899273618377
707.52 88.31601892631555
732.422 87.61784800824819
757.324 88.2989126816947
785.156 90.2310319055648
811.523 90.19450731884308
840.82 90.35930215257694
870.117 90.14710997401372
900.879 90.34105516404466
933.105 90.16250279216726
965.332 90.1824416979379
1000.49 90.332111641636
1035.64 90.01221956131519
1072.27 90.08538103161627
1108.89 89.65621271066176
1148.44 89.1864408932943
1189.45 88.89241901626166
1230.47 88.84176971911565
1274.41 88.49897200186149
1319.82 88.063431303116
1366.7 87.60804926376274
1413.57 87.69888802150055
1463.38 88.44747020459758
1516.11 88.70517752450887
1568.85 88.61419168470152
1624.51 88.00957195158036
1681.64 88.48656917668599
1741.7 89.18371509885445
1803.22 88.7911175576088
1866.21 88.92599597322503
1932.13 88.79340696185103
1999.51 88.89457909635352
2069.82 88.238367687501
2143.07 88.32919704923648
2219.24 88.24195898834245
2296.88 86.55360220918934
2378.91 85.56204759068089
2462.4 84.41337499984539
2548.83 83.4488026361055
2639.65 83.59231325401772
2731.93 83.32084375146492
2828.61 83.23302072039418
2928.22 84.773364258963
3030.76 86.53108234263618
3137.7 87.73489852038662
3249.02 86.97370527243345
3363.28 85.34294128402765
3481.93 84.59327444077722
3604.98 84.30654889152558
3732.42 84.6874533425342
3864.26 85.66668230695932
4000.49 85.75309459141252
4141.11 85.08413676108222
4287.6 84.40006752778126
4438.48 83.67345494260418
4595.21 83.45235643520908
4756.35 84.0318273127747
4924.8 84.31206431425026
5097.66 84.78062827397338
5277.83 85.11649987004901
5463.87 85.42922963043559
5657.23 86.02177907116044
5856.45 86.7193334788094
6062.99 87.07225914595689
6276.86 87.5655688680084
6498.05 87.94492339933007
6726.56 88.29524446136386
6963.87 88.41893420943103
7209.96 88.59942417735226
7464.84 88.52586079278792
7727.05 88.34830402252224
7999.51 88.12298919372184
8282.23 87.86279259184414
8573.73 87.68304336596859
8876.95 87.45028676475684
9188.96 87.11570079903579
9514.16 86.58432678173646
9849.61 86.19680606852994
10196.8 86.14363895661697
10555.7 85.99083688687679
10927.7 85.90274728689793
11313.0 85.95881039345
11712.9 86.01396146680963
12126.0 86.33010111382328
12553.7 86.76390457466061
12996.1 87.3244310623791
13454.6 87.82004590479396
13929.2 88.1424854458217
14419.9 88.42880764535154
14928.2 88.76872965215355
15455.6 88.74626200679708
16000.5 88.12019484486797
16564.5 87.09597035456676
17148.9 85.88177644318674
17752.4 85.01371850774744
18379.4 84.38819949725861
19026.9 83.66949151185466
19697.8 82.84306224486629
19999.5 82.45218718540906
