Freq,On Axis,Listening Window,Sound Power,Early Reflections,Early Reflections DI,Sound Power DI,DI offset
20.5078,61.7472787878788,61.75456741858443,61.49216569390482,61.63893495281923,40.1156324657652,40.262401724679606,40
21.9727,62.4171787878788,62.428053680576696,62.260108571841855,62.352960376646706,40.07509330392999,40.16794510873484,40
23.4375,63.89437878787881,63.90469262381845,63.78922874273937,63.861060188022265,40.043632435796184,40.11546388107908,40
24.9023,64.70357878787881,64.71318443292203,64.57451422955525,64.65660708828248,40.05657734463955,40.138670203366786,40
26.3672,65.5723787878788,65.58316169256138,65.4623759463215,65.53623808637936,40.04692360618202,40.120785746239875,40
27.832,66.6826787878788,66.69035858983828,66.55425910757738,66.63468379096986,40.055674798868424,40.1360994822609,40
29.2969,67.5309787878788,67.53748029025355,67.37745825628505,67.46805110623632,40.06942918401724,40.1600220339685,40
30.7617,68.1868787878788,68.19448985967064,68.0802893615213,68.14694328026171,40.04754657940893,40.114200498149344,40
32.2266,69.1493787878788,69.15560831345854,69.02952188697608,69.10393370689143,40.05167460656712,40.12608642648246,40
33.6914,70.05917878787879,70.06274942214286,69.8900658591804,69.98598807098541,40.076761351157444,40.17268356296246,40
35.1562,70.8133787878788,70.81547131587092,70.62927505071085,70.72976080603132,40.0857105098396,40.18619626516008,40
36.6211,71.6778787878788,71.68015440788648,71.51155586330403,71.60266859285495,40.07748581503152,40.16859854458245,40
38.0859,72.4458787878788,72.44762566570346,72.2913223915481,72.37581543354732,40.07181023215614,40.15630327415535,40
39.5508,73.2996787878788,73.30004615663286,73.13617255332633,73.2237174117124,40.07632874492046,40.16387360330653,40
41.0156,74.3569787878788,74.35611629367547,74.18729507323285,74.27541703119546,40.08069926248001,40.168821220442624,40
42.4805,75.00237878787878,75.00030450841608,74.81042151726035,74.90619655806472,40.09410795035136,40.18988299115573,40
43.9453,75.97147878787881,75.96920074901614,75.80210620547635,75.88610386285985,40.083096886156284,40.16709454353979,40
45.4102,76.8905787878788,76.88654147899034,76.70091494006908,76.79300879968213,40.09353267930821,40.185626538921255,40
46.875,77.80457878787878,77.79976837431464,77.629553125676,77.71322847141317,40.086539902901464,40.17021524863864,40
48.3398,78.7672787878788,78.7604119829531,78.57367470110876,78.66341960403707,40.09699237891603,40.186737281844344,40
51.2695,80.7511787878788,80.73780270463403,80.47333233942545,80.59771912461147,40.14008358002256,40.26447036520858,40
52.7344,81.6380787878788,81.62353282645641,81.36965207723048,81.48890155806808,40.13463126838833,40.25388074922593,40
54.1992,82.5427787878788,82.52583559925166,82.26141469295747,82.38504922380994,40.14078637544172,40.26442090629419,40
55.6641,83.4451787878788,83.4247845379949,83.11852571429964,83.26199328445772,40.16279125353718,40.30625882369526,40
58.5938,84.8180787878788,84.79365852787024,84.50875379852374,84.63553168474623,40.15812684312401,40.28490472934649,40
60.0586,85.32677878787881,85.29927061783295,84.9943399905324,85.12839826381548,40.17087235401746,40.30493062730055,40
62.9883,85.74967878787879,85.71425130633766,85.35560787023425,85.51054084519119,40.20371046114647,40.35864343610341,40
64.4531,85.71227878787882,85.67262738829173,85.28463970926259,85.45087335303778,40.22175403525395,40.38798767902914,40
67.3828,85.2807787878788,85.23225990781962,84.79707413266644,84.97866876418941,40.25359114363022,40.43518577515319,40
68.8477,85.00137878787879,84.94724049856454,84.47191559561948,84.67091932391175,40.27632117465279,40.47532490294506,40
71.7773,84.39477878787879,84.32812940604822,83.74815870280852,83.998194422262,40.32993498378622,40.579970703239695,40
74.707,83.7698787878788,83.6905947042829,83.01259057107634,83.3098458667669,40.380748837515995,40.67800413320656,40
77.6367,83.1227787878788,83.02960906904671,82.24361409270834,82.58950819877212,40.44010087027459,40.78599497633837,40
79.1016,82.8058787878788,82.70543314087274,81.8661631613855,82.23590209729626,40.46953104357648,40.83926997948724,40
82.0312,82.3363787878788,82.22224112527547,81.278916023466,81.69552075374607,40.52672037152941,40.94332510180948,40
84.9609,81.90887878787879,81.781183682628,80.74222477752888,81.20261298392197,40.57857069870603,41.03895890509912,40
87.8906,81.6975787878788,81.55794386429379,80.447678029073,80.93985546297642,40.618088401317365,41.11026583522079,40
90.8203,81.7023787878788,81.55200684578679,80.34341301311032,80.88518533810499,40.6668215076818,41.20859383267647,40
95.2148,81.8872787878788,81.7246811029389,80.42219994458121,81.0119132496135,40.7127678533254,41.30248115835769,40
98.1445,82.1769787878788,82.00817424131766,80.65024606327175,81.27018324335336,40.7379909979643,41.35792817804591,40
101.074,82.4960787878788,82.32174558724587,80.89903391919962,81.55858838674824,40.76315720049763,41.42271166804625,40
105.469,83.1775787878788,82.99908466038518,81.44235126772105,82.19238106797981,40.80670359240537,41.55673339266413,40
108.398,83.71117878787878,83.53301848990797,81.97958083281712,82.72334198564994,40.809676504258036,41.55343765709085,40
112.793,84.11637878787879,83.9355743718646,82.3355365384776,83.09950635032082,40.83606802154378,41.600037833387006,40
117.188,84.2407787878788,84.06131640300441,82.39883896391395,83.20388959353114,40.85742680947327,41.662477439090466,40
120.117,84.2335787878788,84.05614870265255,82.38465552788723,83.19757053367019,40.85857816898236,41.67149317476532,40
124.512,83.9704787878788,83.79382444112669,82.1498072934316,82.9392079891829,40.854616451943784,41.64401714769508,40
128.906,83.6549787878788,83.47743349472732,81.84738890432672,82.62115367551219,40.85627981921513,41.6300445904006,40
133.301,83.3794787878788,83.19977709345775,81.51291933964445,82.3172683082481,40.88250878520965,41.6868577538133,40
139.16,83.0480787878788,82.86536125203025,81.11957622130396,81.95702532287945,40.90833592915081,41.745785030726296,40
143.555,82.8529787878788,82.6711010016747,80.89431408838811,81.74752844005464,40.92357256162006,41.776786913286585,40
147.949,82.6883787878788,82.5028962688221,80.68334429768504,81.55711029556913,40.94578597325297,41.81955197113706,40
153.809,82.6979787878788,82.5052950977274,80.51576976821964,81.4896426373616,41.0156524603658,41.98952532950776,40
159.668,82.8353787878788,82.65091786182246,80.66056904723648,81.64121773210641,41.00970012971605,41.990348814585985,40
165.527,82.8682787878788,82.68628335152299,80.83974226221999,81.75590486788997,40.93037848363302,41.846541089303,40
171.387,82.96917878787882,82.78117831259449,80.81514707680022,81.79817812335459,40.9830001892399,41.966031235794276,40
177.246,82.9096787878788,82.72516752064202,80.75460519814617,81.73721909919115,40.98794842145087,41.97056232249585,40
183.105,82.9801787878788,82.78859798012024,80.78540858564713,81.77759951271636,41.01099846740388,42.00318939447311,40
188.965,83.31687878787879,83.12241446592377,80.99223187620397,82.0847310563031,41.03768340962067,42.130182589719794,40
196.289,83.37297878787881,83.19090690002459,81.1447243576168,82.20358928382221,40.987317616202375,42.04618254240779,40
203.613,83.0491787878788,82.88955780896819,80.69403343643772,81.89699680492642,40.992561004041775,42.19552437253047,40
210.938,82.48637878787879,82.36260326326645,80.2420435798824,81.42506652900401,40.93753673426244,42.120559683384045,40
218.262,81.9119787878788,81.79121320299774,79.97399574765255,80.94619223394768,40.845020969050054,41.81721745534519,40
225.586,81.68027878787879,81.5610430223212,79.60929292257609,80.67717096866254,40.88387205365866,41.95175009974511,40
232.91,81.5439787878788,81.43851137450197,79.37029018821781,80.56138795011432,40.87712342438765,42.06822118628416,40
241.699,81.33277878787881,81.21280014872612,79.15637397722716,80.31914521063405,40.89365493809207,42.056426171498956,40
250.488,82.3404787878788,82.16224786465345,79.32854413493371,80.8583400675698,41.30390779708365,42.833703729719744,40
259.277,82.1979787878788,82.06913189653643,79.64236991745112,80.99162536676621,41.07750652977022,42.42676197908531,40
268.066,82.2087787878788,82.0543482233109,79.58478741140217,80.94627761346051,41.10807060985039,42.46956081190872,40
276.855,82.37337878787879,82.27965496795039,79.79227948909148,81.2083355411662,41.071319426784186,42.48737547885891,40
287.109,81.9223787878788,81.78040506792779,79.85073950716684,80.98000239361359,40.8004026743142,41.92966556076095,40
297.363,82.80397878787882,82.59863982828976,80.08584991137384,81.60970084639038,40.98893898189938,42.51278991691592,40
307.617,82.6349787878788,82.44966916568035,80.22787143773633,81.57517941547542,40.87448975020493,42.22179772794402,40
319.336,82.6732787878788,82.44813892804869,80.07321954784429,81.45385688602414,40.99428204202455,42.3749193802044,40
329.59,82.07497878787879,81.92490915412743,79.95819097718243,81.02828171730222,40.89662743682521,41.96671817694501,40
341.309,82.2143787878788,81.91421262685662,79.66418143855896,80.7656629985858,41.14854962827083,42.25003118829767,40
353.027,83.13407878787878,82.86415337273682,79.57001687070931,81.32719365791449,41.53695971482233,43.29413650202751,40
366.211,83.5953787878788,83.25274492561151,80.10991788521947,81.84151292182582,41.411232003785685,43.142827040392035,40
379.395,83.6989787878788,83.46043524221294,80.30974680894529,82.05962720527135,41.400808036941584,43.150688433267646,40
392.578,83.29597878787881,82.9846974147166,80.31002522989156,81.59552119234814,41.38917622236846,42.67467218482504,40
405.762,84.2223787878788,83.78502276442221,80.46498006977826,82.0270815379536,41.7579412264686,43.320042694643945,40
420.41,84.3341787878788,84.00686811657424,80.98485729964331,82.3444050506216,41.662463065952636,43.02201081693093,40
435.059,85.7608787878788,85.37404511846397,81.16397623100224,82.98136014362657,42.392684974837394,44.21006888746173,40
451.172,86.15837878787879,85.83259916081244,81.3390775195978,83.83235608772655,42.00024307308588,44.49352164121464,40
465.82,85.5834787878788,85.35569018758154,81.08262319855346,83.42766963873633,41.92802054884521,44.27306698902808,40
483.398,85.4219787878788,85.10434843118372,81.31006435982884,83.2960047284487,41.80834370273503,43.79428407135488,40
499.512,85.40677878787879,85.14837549858913,81.2607300568334,83.18235291760128,41.966022580987854,43.88764544175574,40
517.09,85.6938787878788,85.37843923382171,81.14766346431625,83.06615168584193,42.31228754797978,44.230775769505456,40
536.133,85.5753787878788,85.4187744949441,80.92527105824902,83.42680394171728,41.99197055322682,44.49350343669508,40
555.176,85.0228787878788,84.94731420400586,81.03968481706208,83.37954126336628,41.567772940639585,43.90762938694378,40
574.219,85.0413787878788,84.89377559421173,81.17866371282979,83.35951259860795,41.53426299560378,43.715111881381944,40
594.727,85.02207878787878,84.94296764343066,80.85876176704754,83.12600794625331,41.81695969717735,44.08420587638312,40
615.234,84.5806787878788,84.55092980322648,80.97201384677642,83.22061218096441,41.33031762226207,43.57891595645006,40
637.207,85.22907878787879,84.84734781002973,81.04394096262247,83.0144293920451,41.83291841798463,43.80340684740726,40
659.18,85.2943787878788,84.9846698605148,80.21766482073501,82.62996418352658,42.35470567698822,44.76700503977979,40
682.617,84.7912787878788,84.56642530253426,80.71198312593405,82.7023559481831,41.86406935435116,43.8544421766002,40
707.52,85.1497787878788,84.82721027791614,80.0816641658187,82.54661493878251,42.280595339133626,44.74554611209744,40
732.422,84.8254787878788,84.2612227725034,79.5437410866931,82.04974893430712,42.211473838196284,44.7174816858103,40
757.324,84.12677878787879,83.79912099020379,79.53479784869631,81.78988193620376,42.009239054000034,44.264323141507475,40
785.156,84.6958787878788,84.2622104536784,79.19896966465625,81.85138927734695,42.41082117633145,45.06324078902216,40
811.523,83.7194787878788,83.45267677195613,78.86617748452564,81.42210302652795,42.030573745428185,44.5864992874305,40
840.82,84.4329787878788,83.94669805636717,78.80337643400411,81.5136634731666,42.433034583200566,45.14332162236306,40
870.117,84.74657878787882,84.25862398639062,79.1806030845538,82.02502761941874,42.23359636697188,45.07802090183682,40
900.879,85.0161787878788,84.56333519054394,79.17208206876988,81.77161820592337,42.791716984620564,45.39125312177406,40
933.105,85.1867787878788,84.69702272613964,79.67786028714687,82.65567989512864,42.041342831010994,45.019162438992765,40
965.332,84.9873787878788,84.60809834484685,79.50676350851046,82.12775053984001,42.48034780500684,45.10133483633639,40
1000.49,85.3188787878788,84.84802286847858,79.50626427910585,82.31721246616712,42.53081040231146,45.34175858937273,40
1035.64,84.7137787878788,84.44836357753361,79.47092782596489,81.64962626091379,42.79873731661982,44.97743575156872,40
1072.27,84.5306787878788,84.4024338996203,79.0962842963494,81.84412068937493,42.55831321024537,45.30614960327091,40
1108.89,85.2482787878788,84.98798124132908,79.54490750382259,82.19202481552574,42.79595642580334,45.443073737506495,40
1148.44,82.7860787878788,83.05741471550225,79.27158091948387,82.40475018005276,40.65266453544949,43.78583379601838,40
1189.45,82.5131787878788,82.92956425317392,78.17190831025808,81.16481737319884,41.76474687997508,44.75765594291585,40
1230.47,83.16587878787878,83.63888557589333,78.1150078375435,81.06708454021803,42.57180103567529,45.523877738349825,40
1274.41,81.93927878787879,82.8110353987018,78.25752306893598,81.34274704902155,41.46828834968025,44.55351232976582,40
1319.82,84.3253787878788,84.16559404548981,77.72331199060102,81.07089277998736,43.09470126550245,46.44228205488879,40
1366.7,83.4564787878788,83.62630014351295,77.95401677238026,80.69943414226042,42.926866001252534,45.67228337113269,40
1413.57,84.4240787878788,84.04834858369414,77.39220634354925,80.51089890247175,43.537449681222384,46.65614224014489,40
1463.38,83.9110787878788,83.31477929602595,77.67533990321694,80.38876932011155,42.9260099759144,45.63943939280901,40
1516.11,81.3015787878788,81.16214043430456,76.05799853319938,79.1081210490829,42.054019385221665,45.10414190110518,40
1568.85,82.0408787878788,81.4727902571352,75.80827341441808,79.28155851408364,42.19123174305156,45.66451684271712,40
1624.51,82.8521787878788,81.94914141869874,76.1313014478108,79.28779541168686,42.661346007011886,45.817839970887945,40
1681.64,83.5848787878788,82.47793398832691,76.13731167470685,79.64058468154694,42.83734930677997,46.34062231362006,40
1741.7,83.1078787878788,82.16984540758513,75.56801578069756,78.89644225261357,43.27340315497156,46.601829626887564,40
1803.22,83.3205787878788,82.0202062722518,75.29064953195599,78.6586084453832,43.3615978268686,46.729556740295806,40
1866.21,81.5635787878788,80.45971799740092,75.11879723527632,77.33320940518188,43.12650859221904,45.3409207621246,40
1932.13,79.3241787878788,79.32598749129174,73.88657820391923,77.32313102377464,42.002856467517105,45.43940928737251,40
1999.51,80.2386787878788,79.95823902589287,74.04470034873053,77.69514307824784,42.26309594764503,45.913538677162336,40
2069.82,80.53497878787881,80.44578863312606,74.1068143213541,77.76067657229841,42.68511206082765,46.33897431177196,40
2143.07,80.9249787878788,80.90966860630266,74.17800267740832,78.00758552806478,42.90208307823788,46.731665928894344,40
2219.24,80.35857878787881,80.4720246044446,74.08397658160317,78.01852307499436,42.453501529450236,46.38804802284143,40
2296.88,80.5216787878788,80.24537290113891,74.32260129496912,78.42693002309171,41.81844287804719,45.92277160616979,40
2378.91,81.42947878787881,80.71339248464486,74.29712855292703,78.34125738184757,42.37213510279729,46.41626393171782,40
2462.4,83.1962787878788,82.20073307793778,74.41634901400788,78.57579692217654,43.62493615576125,47.784384063929906,40
2548.83,83.4440787878788,82.38899768484383,74.1357474490219,78.4522604351712,43.93673724967263,48.25325023582192,40
2639.65,82.4033787878788,81.54206089993063,73.6553473750467,78.23040930797991,43.31165159195072,47.88671352488393,40
2731.93,82.4592787878788,81.24616105501651,73.24529195465108,77.86689307791569,43.379267977100824,48.000869100365435,40
2828.61,84.08887878787881,83.13053917959172,75.01854409256374,79.57547189846287,43.555067281128856,48.11199508702798,40
2928.22,84.9915787878788,83.9405620175747,75.20521109006583,79.9047720462536,44.03578997132111,48.735350927508875,40
3030.76,84.3998787878788,83.2065437192782,73.8779696916156,78.78503337069905,44.42151034857915,49.3285740276626,40
3137.7,84.0294787878788,82.67585781852283,73.18357340193755,78.10808412776073,44.567773690762095,49.49228441658528,40
3249.02,83.6936787878788,82.31066234328502,72.84062726825543,77.9200834368732,44.39057890641182,49.470035075029585,40
3363.28,83.7058787878788,82.34054765205047,72.54697950305757,77.7106257186797,44.62992193337078,49.793568148992904,40
3481.93,83.5339787878788,82.43360997291026,72.82038149068973,77.88509366117573,44.54851631173453,49.613228482220535,40
3604.98,83.5734787878788,82.42370274182373,72.98405233262277,77.85503775636248,44.568664985461254,49.439650409200965,40
3732.42,84.3648787878788,82.92643270095047,73.13588533566009,77.8420862624887,45.084346438461765,49.79054736529038,40
3864.26,84.35347878787881,82.70082667067454,73.171429461618,77.83925773503417,44.86156893564038,49.52939720905654,40
4000.49,83.9002787878788,82.20981227398555,73.28877005080626,77.63272928659624,44.5770829873893,48.921042223179285,40
4141.11,84.3598787878788,82.79637973004816,73.96967109269697,78.00842117978765,44.78795855026051,48.82670863735119,40
4287.6,84.1626787878788,82.66032600810213,74.48811988059138,78.42221648599674,44.23810952210539,48.17220612751075,40
4438.48,84.5254787878788,83.49386481934792,75.49096089929215,79.47957908716012,44.0142857321878,48.00290392005577,40
4595.21,85.7542787878788,84.36056566811406,75.95734667739063,80.04481761451537,44.315748053598696,48.40321899072343,40
4756.35,87.02277878787879,84.49639014061606,76.28815701371686,80.23975747757913,44.256632663036925,48.2082331268992,40
4924.8,85.7478787878788,83.94439201280409,75.84829446593481,79.72729793835539,44.217094074448696,48.096097546869274,40
5097.66,84.35097878787879,83.11279202092125,75.13418938207585,79.01176540955197,44.10102661136928,47.9786026388454,40
5277.83,85.9413787878788,83.41183495409896,75.06186639721149,78.96659172625117,44.4452432278478,48.349968556887475,40
5463.87,86.4934787878788,83.8403322716051,75.74750028995095,79.32061188896093,44.51972038264418,48.09283198165416,40
5657.23,84.63527878787879,83.3530294961699,76.06413280773748,79.4197923322997,43.93323716387019,47.288896688432416,40
5856.45,83.19747878787881,82.30315653385321,75.5800389484714,78.90031037092368,43.402846162929535,46.723117585381814,40
6062.99,85.1394787878788,82.91346190384978,75.85406281333337,79.4298358560624,43.48362604778738,47.05939909051641,40
6276.86,84.5070787878788,82.28239154350281,75.85967441418519,79.25976282120868,43.02262872229413,46.42271712931762,40
6498.05,84.0379787878788,82.33917507477385,75.85017191999101,79.03341942136552,43.305755653408326,46.489003154782836,40
6726.56,84.1610787878788,82.32336982728442,76.0265906274226,79.19031029528874,43.133059531995684,46.29677919986182,40
6963.87,83.86387878787879,81.98696976717669,76.04737964759363,79.67181522165403,42.31515454552266,45.93959011958306,40
7209.96,84.75347878787879,82.93931852081681,76.46852387698623,80.21382945269382,42.725489068123,46.47079464383059,40
7464.84,86.12077878787879,83.67355344633633,76.32310924158244,80.44296734387594,43.23058610246039,47.350444204753884,40
7727.05,86.13957878787879,83.52324247577651,76.51376562100153,80.40517313694467,43.118069338831845,47.00947685477499,40
7999.51,85.33867878787879,82.45345289643943,76.11101149378756,79.78191736525567,42.671535531183764,46.34244140265187,40
8282.23,82.4695787878788,80.51381239088717,75.36915585029242,78.84806038202272,41.665752008864445,45.14465654059475,40
