Freq "Rear Wall Bounce"
20.5078 54.49376807472841
21.9727 55.142076365272615
23.4375 56.140399281758434
24.9023 58.18960664841542
26.3672 59.10473789380244
27.832 60.59261915332341
29.2969 61.63135858256969
30.7617 62.61946309465493
32.2266 63.57927130349667
33.6914 64.96126474241738
35.1562 66.33171568360585
36.6211 67.37973847525286
38.0859 68.60688943469792
39.5508 69.70071731907298
41.0156 71.00877383277249
42.4805 72.13402772918619
43.9453 73.27552831253944
45.4102 74.40425437863921
46.875 75.41860798570411
48.3398 76.2334870414938
51.2695 77.87179274514763
52.7344 78.5816669171016
54.1992 79.2979804903802
55.6641 79.94091450875742
58.5938 81.23191158736816
60.0586 81.75374344701409
62.9883 82.78197180614086
64.4531 83.24293148040212
67.3828 84.05299425833853
68.8477 84.52594669411832
71.7773 85.50157917840613
74.707 86.10285571820916
77.6367 86.65917594394001
79.1016 87.11825481583665
82.0312 87.84123820350526
84.9609 88.17530468582576
87.8906 88.81623733033739
90.8203 89.39585382784145
95.2148 89.89053025253455
98.1445 90.27058352603039
101.074 90.7337270277498
105.469 91.08470352399522
108.398 91.26278869851548
112.793 91.52607094699182
117.188 91.66293852980407
120.117 91.59893638380049
124.512 91.55506018076433
128.906 91.52557267253079
133.301 91.34430832975086
139.16 91.15980224045792
143.555 91.03360510197896
147.949 90.85378278886803
153.809 90.48695684946617
159.668 90.25137238549623
165.527 90.08163178377424
171.387 89.79805144066928
177.246 89.55910000537405
183.105 89.34034953228328
188.965 89.09256610798856
196.289 88.75118647982033
203.613 88.53100383168534
210.938 88.35239124679829
218.262 88.15224604403753
225.586 88.0053783539929
232.91 87.65286569843731
241.699 87.38602033088492
250.488 87.08899089497834
259.277 87.00679794945405
268.066 86.72641296580663
276.855 86.66079657624209
287.109 86.55347170434752
297.363 86.27172097857033
307.617 86.1823579373368
319.336 85.89238564871174
329.59 85.42329962995792
341.309 85.55501745830314
353.027 85.16460662088633
366.211 85.12215627543881
379.395 85.11585266785602
392.578 84.88989233793825
405.762 84.70592370447682
420.41 84.65822112256792
435.059 84.5451182104856
451.172 83.906686613856
465.82 83.94127252281181
483.398 83.62542476955454
499.512 83.82562158614064
517.09 83.48578106873522
536.133 83.62862801784237
555.176 83.65697677877303
574.219 83.57716005462535
594.727 82.76227172312925
615.234 82.36323511664628
637.207 82.79811243211304
659.18 82.93731289510026
682.617 83.3951583208448
707.52 83.06980965978998
732.422 82.99481605904832
757.324 83.08236647610323
785.156 82.89260090484747
811.523 83.770362856012
840.82 84.02945015754811
870.117 84.38609737321777
900.879 83.9753483403281
933.105 84.37056208621578
965.332 84.77976407634182
1000.49 85.3129591429898
1035.64 84.52427236602828
1072.27 84.29972826790836
1108.89 83.4265781946815
1148.44 82.954981621397
1189.45 82.45709562779514
1230.47 82.42604659421923
1274.41 82.59976225602486
1319.82 82.94709860471235
1366.7 82.01659770772437
1413.57 81.156175742698
1463.38 80.31947895967066
1516.11 79.29585087296579
1568.85 77.70302607501542
1624.51 77.46071706006907
1681.64 79.4422958553859
1741.7 82.64845749697865
1803.22 82.30378600332806
1866.21 79.89074336829438
1932.13 78.88124324134553
1999.51 78.73500404093421
2069.82 79.12631491382673
2143.07 79.48908276667798
2219.24 77.88911296160664
2296.88 76.94013491073873
2378.91 77.00913697087468
2462.4 77.87191199357305
2548.83 78.01493383892705
2639.65 77.3690719639913
2731.93 77.06310496359842
2828.61 77.48325405828189
2928.22 77.60685648004406
3030.76 77.98921972029096
3137.7 78.52432756067749
3249.02 78.90176141507898
3363.28 78.8585413089523
3481.93 78.65959869668438
3604.98 78.95370655390707
3732.42 78.75930025851468
3864.26 77.94561477043435
4000.49 77.49871457360238
4141.11 77.14073384932291
4287.6 76.28215746138721
4438.48 75.79300398258003
4595.21 75.25670464331454
4756.35 75.40987275401231
4924.8 75.3560341207437
5097.66 75.04085098244204
5277.83 74.70441258333295
5463.87 74.69166838731205
5657.23 73.63755783390451
5856.45 73.84078952565915
6062.99 74.08113164634926
6276.86 73.41431429689635
6498.05 72.28490445322217
6726.56 72.02161039173924
6963.87 71.45604877294694
7209.96 71.97393777391255
7464.84 72.00638406462966
7727.05 72.69425303715181
7999.51 72.51446213380778
8282.23 72.75763782566536
8573.73 72.21510806702706
8876.95 70.90451998852714
9188.96 70.30668155068658
9514.16 69.05248398787036
9849.61 69.22912729427746
10196.8 68.52994830606373
10555.7 68.47850945817264
10927.7 68.18592320584415
11313.0 67.64289892281097
11712.9 67.08963452024615
12126.0 66.66648443555736
12553.7 66.09309012818146
12996.1 65.05181725236035
13454.6 63.92671613910518
13929.2 63.126775913882895
14419.9 62.91325134870566
14928.2 63.37456360194962
15455.6 63.26959665510729
16000.5 63.18046413631721
16564.5 62.20880780110825
17148.9 60.737968331289395
17752.4 60.45393427571237
18379.4 60.024711688921215
19026.9 58.512864592024144
19697.8 57.725580399012884
19999.5 58.409030263669976
