Freq "Estimated In-Room Response"
22.4 47.81233269308969
23.0 48.51426096784617
23.6 49.261956478633564
24.0 50.011949326953854
25.0 50.540852421416545
25.8 50.80933025824315
26.5 51.020239474928346
27.2 51.215264901966904
28.0 51.643466948273655
29.0 52.20653867726317
30.0 52.65307218129287
30.7 53.23032112019881
31.5 53.96086229214124
32.5 54.80701645590891
33.5 55.69903065072397
34.5 56.60600648301339
35.5 57.59991955433189
36.5 58.63692912961601
37.5 59.668210745893006
38.7 60.81974343480995
40.0 62.045171443875475
41.2 63.39531941907599
42.5 64.56984919728599
43.7 65.83005976530664
45.0 66.97755723008935
46.2 68.08537797857527
47.5 69.3250580519846
48.7 70.48641206187095
50.0 71.51847827565331
51.5 72.44719640252312
53.0 73.28100951168196
54.5 74.09387855327644
56.0 74.89824595206339
58.0 75.82656015677094
60.0 76.77234808152033
61.5 77.63968999295898
63.0 78.54790212814086
65.0 79.6677106772945
67.0 80.73840392972828
69.0 81.81161352254746
71.0 82.84640708725443
73.0 83.65478970080106
75.0 84.351168290527
77.5 85.33201629602293
80.0 86.2937282686837
82.5 87.03981474295551
85.0 87.48361938709193
87.5 87.65934591663833
90.0 88.12565945540908
92.5 88.74923331791616
95.0 89.3519556058808
97.5 89.83170242427893
100.0 90.44453442320618
103.0 90.90810704408369
106.0 91.20136520829116
109.0 91.33425517768099
112.0 91.54558087126907
115.0 91.62477983204461
118.0 91.65125048643783
122.0 91.68828378440215
125.0 91.72842636252872
128.0 91.63855866090046
132.0 91.53076174025024
136.0 91.33864438158385
140.0 91.12171394406948
145.0 90.8819750851441
150.0 90.7351851386508
155.0 90.67466720918117
160.0 90.46261555332502
165.0 90.29242486119526
170.0 90.27692993918323
175.0 90.19569923469366
180.0 90.22440498060875
185.0 90.25226488449171
190.0 90.26841220750485
195.0 90.2023248851506
200.0 90.15544667227195
206.0 89.96447845573174
212.0 89.6546788517169
218.0 89.3172801207513
224.0 89.1219268875077
230.0 89.04569917282947
236.0 89.02318470709233
240.0 88.9402542860171
250.0 88.80454143598199
258.0 88.62568675429249
265.0 88.46523836461292
272.0 88.34170390666411
280.0 88.22382358665574
290.0 88.12001859576965
300.0 87.9541300320192
307.0 87.82975540521521
315.0 87.7913579411752
325.0 87.80689271616082
335.0 87.78481166995938
345.0 87.56687520976755
355.0 87.13997150778266
365.0 86.85240062590202
375.0 86.69717288837394
387.0 86.32082209684891
400.0 85.75565178215169
412.0 85.28928257523822
425.0 85.01957560225016
437.0 84.8539626399048
450.0 84.73913720893056
462.0 84.93457721603762
475.0 85.34942045629741
487.0 85.67570213733349
500.0 85.8973549234387
515.0 85.99517115696442
530.0 86.2258723434813
545.0 86.49154177533522
560.0 86.62060854848033
580.0 86.4924369859829
600.0 86.32955258038429
615.0 86.16573126992819
630.0 86.05200124174432
650.0 85.91214990808922
670.0 85.77004654158223
690.0 85.63728776157433
710.0 85.50889745132818
730.0 85.38361010301315
750.0 85.29328659055423
775.0 85.17553904467738
800.0 84.99170020983348
825.0 84.82267502014047
850.0 84.75168223352068
875.0 84.68430359294172
900.0 84.72109091949748
925.0 84.8379128386432
950.0 85.02558004987782
975.0 85.26227321929532
1000.0 85.50939269664839
1030.0 85.66682582670947
1060.0 85.73034078105479
1090.0 85.67149123451227
1120.0 85.46741429593948
1150.0 85.12673492884103
1180.0 84.68834707170227
1220.0 84.28144284913093
1250.0 84.05435139955902
1280.0 84.08357492939722
1320.0 84.25699042068591
1360.0 84.47739409070796
1400.0 84.598405277236
1450.0 84.65222963649794
1500.0 84.50002638049935
1550.0 84.21512063896047
1600.0 83.80901504837225
1650.0 83.29157907672972
1700.0 82.81781144781857
1750.0 82.6315970587406
1800.0 82.83060209817148
1850.0 83.1825054198438
1900.0 83.47017647957314
1950.0 83.5630263502236
2000.0 83.47446804403205
2060.0 83.43018638253686
2120.0 83.41295191824017
2180.0 83.38510607075419
2240.0 83.34173614488311
2300.0 83.25773632241506
2360.0 83.06924992158613
2400.0 82.87960545900783
2500.0 82.69252876845478
2580.0 82.61320615215331
2650.0 82.5397964367949
2720.0 82.50117856354976
2800.0 82.44840482191483
2900.0 82.42807401173278
3000.0 82.53868898812924
3070.0 82.57536727618412
3150.0 82.43749249513691
3250.0 82.32247786176411
3350.0 82.16572924531714
3450.0 82.18755438989392
3550.0 82.21443278256109
3650.0 81.74481626737871
3750.0 81.22502732227635
3870.0 81.61103745179615
4000.0 81.51538697941929
4120.0 81.1781299233571
4250.0 81.01253456252529
4370.0 80.88524324966484
4500.0 80.62791067578428
4620.0 80.23090662012235
4750.0 80.12815749499529
4870.0 79.93569511097475
5000.0 79.80387882838222
5150.0 79.85962970315283
5300.0 79.71264435510604
5450.0 79.55558878563617
5600.0 79.83263749381634
5800.0 79.83283889076453
6000.0 79.7062733530385
6150.0 79.56861866627541
6300.0 79.09171190929084
6500.0 78.86050488309856
6700.0 79.14270739989419
6900.0 78.90185167197744
7100.0 78.32780565342388
7300.0 78.07253241828424
7500.0 78.21612338204432
7750.0 78.26948374309691
8000.0 78.64636519562349
8250.0 78.56097886609034
8500.0 78.67590808372452
8750.0 78.70144129991829
9000.0 78.49333174595031
9250.0 78.38495039664768
9500.0 77.39138896534419
9750.0 77.16555091377411
10000.0 77.03469855793966
10300.0 75.60636155621874
10600.0 75.97436037404498
10900.0 76.56091501512392
11200.0 76.11461293111834
11500.0 75.81065267663645
11800.0 76.95501421018331
12200.0 77.9222487167057
12500.0 77.44784479136328
12800.0 76.79550093908843
13200.0 76.45713791271272
13600.0 75.53441401828088
14000.0 75.50765761309702
14500.0 73.69316544968872
15000.0 71.72471515343953
15500.0 71.22242547258791
16000.0 70.55912350196688
16500.0 70.37872915442539
17000.0 69.36674120996575
17500.0 68.28758539048762
18000.0 66.93376326528583
18500.0 66.18730678619299
19000.0 65.01424837226618
19500.0 63.476617950499886
