Freq "Estimated In-Room Response"
22.4 48.989547882963095
23.0 49.69147615771958
23.6 50.43917166850697
24.0 51.18916451682726
25.0 51.71806761128995
25.8 51.98654544811656
26.5 52.197454664801754
27.2 52.39248009184031
28.0 52.82068213814706
29.0 53.383753867136576
30.0 53.83028737116628
30.7 54.40753631007222
31.5 55.13807748201465
32.5 55.984231645782316
33.5 56.87624584059738
34.5 57.783221672886796
35.5 58.7771347442053
36.5 59.814144319489415
37.5 60.845425935766414
38.7 61.99695862468336
40.0 63.22238663374888
41.2 64.5725346089494
42.5 65.7470643871594
43.7 67.00727495518005
45.0 68.15477241996275
46.2 69.26259316844867
47.5 70.502273241858
48.7 71.66362725174436
50.0 72.69569346552672
51.5 73.62441159239653
53.0 74.45822470155537
54.5 75.27109374314985
56.0 76.0754611419368
58.0 77.00377534664435
60.0 77.94956327139374
61.5 78.81690518283239
63.0 79.72511731801427
65.0 80.8449258671679
67.0 81.91561911960169
69.0 82.98882871242087
71.0 84.02362227712784
73.0 84.83200489067447
75.0 85.52838348040041
77.5 86.50923148589634
80.0 87.4709434585571
82.5 88.21702993282892
85.0 88.66083457696534
87.5 88.83656110651174
90.0 89.30287464528249
92.5 89.92644850778957
95.0 90.52917079575421
97.5 91.00891761415234
100.0 91.62174961307959
103.0 92.0853222339571
106.0 92.37858039816457
109.0 92.5114703675544
112.0 92.72279606114247
115.0 92.80199502191802
118.0 92.82846567631124
122.0 92.86549897427555
125.0 92.90564155240213
128.0 92.81577385077387
132.0 92.70797693012365
136.0 92.51585957145726
140.0 92.29892913394289
145.0 92.05919027501751
150.0 91.91240032852421
155.0 91.85188239905457
160.0 91.63983074319843
165.0 91.46964005106867
170.0 91.45414512905664
175.0 91.37291442456707
180.0 91.40162017048216
185.0 91.42948007436512
190.0 91.44562739737826
195.0 91.37954007502401
200.0 91.33266186214536
206.0 91.14169364560514
212.0 90.8318940415903
218.0 90.49449531062471
224.0 90.2991420773811
230.0 90.22291436270288
236.0 90.20039989696573
240.0 90.1174694758905
250.0 89.9817566258554
258.0 89.8029019441659
265.0 89.64245355448632
272.0 89.51891909653752
280.0 89.40103877652915
290.0 89.29723378564306
300.0 89.1313452218926
307.0 89.00697059508862
315.0 88.96857313104861
325.0 88.98410790603423
335.0 88.96202685983279
345.0 88.74409039964095
355.0 88.31718669765607
365.0 88.02961581577543
375.0 87.87438807824735
387.0 87.49803728672232
400.0 86.9328669720251
412.0 86.46649776511163
425.0 86.19679079212356
437.0 86.0311778297782
450.0 85.91635239880397
462.0 86.11179240591103
475.0 86.52663564617082
487.0 86.8529173272069
500.0 87.0745701133121
515.0 87.17238634683783
530.0 87.40308753335471
545.0 87.66875696520863
560.0 87.79782373835374
580.0 87.66965217585631
600.0 87.5067677702577
615.0 87.3429464598016
630.0 87.22921643161773
650.0 87.08936509796263
670.0 86.94726173145564
690.0 86.81450295144774
710.0 86.68611264120159
730.0 86.56082529288656
750.0 86.47050178042764
775.0 86.35275423455079
800.0 86.16891539970689
825.0 85.99989021001387
850.0 85.92889742339409
875.0 85.86151878281512
900.0 85.89830610937089
925.0 86.01512802851661
950.0 86.20279523975123
975.0 86.43948840916873
1000.0 86.6866078865218
1030.0 86.84404101658288
1060.0 86.9075559709282
1090.0 86.84870642438568
1120.0 86.64462948581289
1150.0 86.30395011871444
1180.0 85.86556226157568
1220.0 85.45865803900433
1250.0 85.23156658943243
1280.0 85.26079011927062
1320.0 85.43420561055932
1360.0 85.65460928058137
1400.0 85.7756204671094
1450.0 85.82944482637134
1500.0 85.67724157037276
1550.0 85.39233582883388
1600.0 84.98623023824565
1650.0 84.46879426660313
1700.0 83.99502663769198
1750.0 83.808812248614
1800.0 84.00781728804489
1850.0 84.35972060971721
1900.0 84.64739166944655
1950.0 84.740241540097
2000.0 84.65168323390546
2060.0 84.60740157241027
2120.0 84.59016710811358
2180.0 84.5623212606276
2240.0 84.51895133475652
2300.0 84.43495151228846
2360.0 84.24646511145954
2400.0 84.05682064888124
2500.0 83.86974395832819
2580.0 83.79042134202672
2650.0 83.71701162666831
2720.0 83.67839375342317
2800.0 83.62562001178824
2900.0 83.60528920160618
3000.0 83.71590417800265
3070.0 83.75258246605753
3150.0 83.61470768501032
3250.0 83.49969305163752
3350.0 83.34294443519055
3450.0 83.36476957976733
3550.0 83.3916479724345
3650.0 82.92203145725212
3750.0 82.40224251214975
3870.0 82.78825264166956
4000.0 82.6926021692927
4120.0 82.35534511323051
4250.0 82.1897497523987
4370.0 82.06245843953825
4500.0 81.80512586565769
4620.0 81.40812180999576
4750.0 81.3053726848687
4870.0 81.11291030084816
5000.0 80.98109401825563
5150.0 81.03684489302624
5300.0 80.88985954497944
5450.0 80.73280397550958
5600.0 81.00985268368974
5800.0 81.01005408063794
6000.0 80.8834885429119
6150.0 80.74583385614882
6300.0 80.26892709916424
6500.0 80.03772007297196
6700.0 80.3199225897676
6900.0 80.07906686185085
7100.0 79.50502084329729
7300.0 79.24974760815765
7500.0 79.39333857191772
7750.0 79.44669893297032
8000.0 79.8235803854969
8250.0 79.73819405596375
8500.0 79.85312327359793
8750.0 79.8786564897917
9000.0 79.67054693582372
9250.0 79.56216558652109
9500.0 78.5686041552176
9750.0 78.34276610364752
10000.0 78.21191374781307
10300.0 76.78357674609215
10600.0 77.15157556391839
10900.0 77.73813020499733
11200.0 77.29182812099175
11500.0 76.98786786650986
11800.0 78.13222940005672
12200.0 79.0994639065791
12500.0 78.62505998123669
12800.0 77.97271612896184
13200.0 77.63435310258613
13600.0 76.71162920815429
14000.0 76.68487280297043
14500.0 74.87038063956213
15000.0 72.90193034331294
15500.0 72.39964066246132
16000.0 71.73633869184029
16500.0 71.5559443442988
17000.0 70.54395639983916
17500.0 69.46480058036103
18000.0 68.11097845515924
18500.0 67.3645219760664
19000.0 66.19146356213959
19500.0 64.6538331403733
