Freq,Floor Bounce,Ceiling Bounce,Front Wall Bounce,Side Wall Bounce,Rear Wall Bounce,Total Early Reflection
22.4,29.71355929945655,30.63268757119691,31.94383384461166,32.968261482996226,31.732374837676886,31.54024394352622
23.0,31.14942981751709,31.712087908071382,33.471692055799096,34.40019075340861,33.1846712476203,32.94320148629559
23.6,32.43550260909036,32.66688340325048,34.80729583086476,35.7412930936399,34.5072333541752,34.215698439608914
24.0,33.48574913891936,33.42236216959829,36.07345353945654,37.0499093690798,35.694027686002656,35.38057399358878
25.0,34.53994111166001,34.18752389906949,37.350351106029095,38.39804906132885,36.82760313019939,36.55755026661025
25.8,37.587267847614285,36.88615193394081,38.84521267327004,39.918093399535124,38.32346270737234,38.437998547215884
26.5,40.39643568420722,39.59458754629536,40.542172251317695,41.63682922549451,40.04843444235475,40.498678112388305
27.2,42.581779972412946,41.58192912376616,42.17394629658669,43.3035312130216,41.70979031350818,42.31639239448016
28.0,44.309671695249634,43.258035221502624,43.67278336182771,44.84949756371789,43.22947661563434,43.91027426109541
29.0,45.682196718458,44.58910480561006,45.11974172238915,46.28125502155008,44.63692479224268,45.31062755495846
30.0,46.89408963790565,45.72909084157253,46.490297361761876,47.64905301317542,45.97941152586101,46.60302315766522
30.7,49.046800478877074,47.81627940083642,48.58749460883989,49.67053809511434,48.055678490967765,48.687799450746084
31.5,51.93647412390415,50.71007799780291,51.13494805868861,52.10550649854865,50.63446873114172,51.347719848370346
32.5,54.19238562216104,52.940441679454906,53.132993883918616,54.024604765059976,52.65206414889822,53.43166666398106
33.5,56.021041662987486,54.74044167945489,54.789383175578294,55.61528418019218,54.33852766231881,55.14571758554264
34.5,57.584934924608476,56.27071732495408,56.24531800125736,56.98646125878871,55.77185099450956,56.61957002168667
35.5,59.14935766478273,57.805318067664686,57.718645107393215,58.346614759017015,57.23954455777984,58.102033006688785
36.5,61.30906430015982,59.90531806766471,59.67705295136379,60.169027184487064,59.205737443323684,60.11240703244651
37.5,63.17449351030437,61.70531806766469,61.36451844566902,61.738469386829436,60.928748622649906,61.851364443334646
38.7,64.70531806766472,63.20531806766469,62.86133140436236,63.11282746815171,62.39201955310624,63.329080486945045
40.0,66.1053180676647,64.5053180676647,64.1517096406012,64.29683321373957,63.696592999227036,64.63408497760136
41.2,67.73663575667186,66.07071732495409,65.77770173156414,65.75846195343473,65.2912961339453,66.21478150413397
42.5,69.56845083805433,67.8053180676647,67.58154874489854,67.39598736182737,67.11911563726449,67.98770063722367
43.7,71.10076749445561,69.3053180676647,69.12203666763436,68.8014574102538,68.65274918659408,69.49365052822418
45.0,72.46845083805432,70.6069050103546,70.50589691238154,70.04603325366405,70.0153484419951,70.83009839354762
46.2,73.73513059177982,71.83821129888743,71.81996744084832,71.21228642407782,71.3303993209591,72.09041397573688
47.5,74.93358982687997,73.00542400732661,73.08757755241119,72.34168719985568,72.57559126220768,73.29278945963499
48.7,76.03358982687996,74.04136150423587,74.24235434408045,73.37822029851027,73.731946402486,74.39089564206634
50.0,77.03358982687998,75.00934661896389,75.31117397323769,74.32483077962245,74.76577450004099,75.39584436393362
51.5,77.9669218511605,75.84136150423588,76.33650110222618,75.26708907288072,75.71913993334438,76.33395667584004
53.0,78.7669218511605,76.61007799780292,77.28939043962266,76.18168647184775,76.58069158069566,77.18811995116022
54.5,79.56692185116049,77.31007799780294,78.18547773016476,77.0240077236327,77.3830462062807,77.99784739916005
56.0,80.43358982687998,78.07928732607432,79.07923958023359,77.94690346776407,78.19374591386153,78.85311577272448
58.0,81.33358982687997,78.8792873260743,80.02033768984208,78.94797135521306,79.00211945809569,79.74628590245463
60.0,82.13358982687997,79.61227178315617,80.92033768984209,79.83844416267233,79.77250346441141,80.56713306068994
61.5,82.83358982687999,80.24283030471976,81.64440429044095,80.6003103719683,80.3978790596597,81.25951725100843
63.0,83.26692185116049,80.74283030471975,82.17163999557947,81.1478484946734,80.87871469911748,81.75154601993789
65.0,83.7669218511605,81.24283030471975,82.71255340770314,81.7255596341036,81.35606977367864,82.2705130438157
67.0,84.1669218511605,81.74283030471973,83.22629284859728,82.30637666567767,81.74109333722728,82.74156501942487
69.0,84.56692185116049,82.30690501035458,83.70883392422631,82.88652310955767,82.11561730922215,83.21538470706538
71.0,84.96692185116049,82.80690501035458,84.15102932502434,83.40701684748923,82.44791482152687,83.6533562507272
73.0,85.26692185116049,83.33821129888743,84.54968251873754,83.92810876878413,82.78092826788729,84.06136578725724
75.0,85.5669218511605,83.80306957104253,84.89201157347763,84.35887594662975,83.08377107071665,84.42503947457283
77.5,85.76692185116049,84.13513059177983,85.16394614417361,84.64933483520727,83.31237755465041,84.68621966295012
80.0,85.93358982687998,84.43513059177982,85.36394614417361,84.90969908743214,83.49461122879596,84.90495290935424
82.5,86.10076749445562,84.73513059177982,85.59234112187347,85.13786457953863,83.69108499191618,85.12625149694628
85.0,86.2669218511605,85.03513059177983,85.82066351962519,85.39959388897087,83.91559315537302,85.35850834115085
87.5,86.43358982687998,85.30076749445563,86.00522459953352,85.59334473282968,84.07307389256455,85.55183590436167
90.0,86.5669218511605,85.50076749445562,86.14900913746983,85.78247500941002,84.20469601254538,85.71119113126214
92.5,86.6669218511605,85.63513059177983,86.31963474575119,85.87230619233952,84.28375383282442,85.82846272127567
95.0,86.6669218511605,85.73513059177984,86.39141823839317,85.8780650344121,84.2976946009761,85.86697297870558
97.5,86.76692185116049,85.83513059177983,86.49141823839317,85.93622024248772,84.3579964256948,85.95309408364508
100.0,86.83435140868504,85.93513059177982,86.605545668495,86.03714420728807,84.44473440709316,86.04681566777317
103.0,86.93435140868503,86.10306957104251,86.74899345116079,86.11557353850172,84.53906719770517,86.1649796326741
106.0,87.00076749445562,86.20306957104252,86.8762292462144,86.17740600057729,84.60389465374773,86.2508875999017
109.0,87.16845083805433,86.40306957104252,87.0762292462144,86.29768949083687,84.71049602322212,86.41490552237569
112.0,87.20306957104252,86.53821129888743,87.2496365298453,86.39082466483231,84.78607800082408,86.51912088747935
115.0,87.23821129888744,86.63821129888744,87.36325933618237,86.43152870290409,84.78365515898776,86.58210172305085
118.0,87.23821129888744,86.7069050103546,87.4206172224105,86.42517132899897,84.77785921989056,86.60788345367651
122.0,87.20690501035459,86.77609175449221,87.50553018506753,86.4181248517557,84.75053560671346,86.63063486154185
125.0,87.20690501035459,86.87609175449221,87.56391523505613,86.44347896528623,84.7265741453112,86.66752138040346
128.0,87.1760917544922,86.87609175449221,87.57688318935992,86.40603351622872,84.66426714940116,86.64872547405498
132.0,87.11227178315617,86.84576719438469,87.59073576156003,86.36347267120156,84.58206771904024,86.61301760674392
136.0,87.08219967332305,86.84576719438469,87.59073576156003,86.3454486287173,84.48790597544874,86.59117141282677
140.0,87.0489851487955,86.84576719438469,87.63239351163143,86.29773051812022,84.40458184646022,86.5751312006111
145.0,86.98219967332305,86.84576719438469,87.64738767640054,86.26505510749938,84.30021115984725,86.54545884826
150.0,86.95260953202218,86.78219967332305,87.61867338788393,86.1927843997904,84.15959744026362,86.4877134625045
155.0,86.91916705502753,86.78219967332305,87.63371491468452,86.18472813178708,84.03834775252942,86.46867097343218
160.0,86.88982856673472,86.71916705502754,87.61935148886056,86.10955426442737,83.92365436209843,86.41778565461733
165.0,86.86096514237182,86.61916705502752,87.61935148886056,86.0455973012193,83.77727685545345,86.3617815805281
170.0,86.82758719283592,86.58982856673471,87.6209895119551,85.99007724773375,83.62995337782834,86.32213789434732
175.0,86.76096514237182,86.48982856673473,87.6062477469953,85.92919783006765,83.44667233824349,86.25119732764675
180.0,86.72758719283593,86.42758719283593,87.59212260426057,85.8606291222478,83.30545879625689,86.19929723974683
185.0,86.69897445130924,86.32758719283594,87.59306682898556,85.82191241951178,83.15429107925584,86.14960304148624
190.0,86.69897445130924,86.26588846059688,87.59306682898556,85.76215398495093,82.9885755568814,86.10932905251228
195.0,86.63752777300029,86.170829702843,87.59306682898556,85.73691480982679,82.84251816646426,86.05689226896753
200.0,86.63752777300029,86.13752777300029,87.60854895275357,85.70327258021962,82.71319841889077,86.03606654516896
206.0,86.6096325668162,86.10963256681619,87.62262085707492,85.66825007660422,82.59526665257907,86.01067321945278
212.0,86.50963256681621,86.08219812790055,87.6503254954045,85.6263091449941,82.46496681519037,85.97084892882496
218.0,86.50963256681621,86.04898359150842,87.6633340311709,85.60942347862475,82.30600797802526,85.95081039277257
224.0,86.52179738688895,86.02179738688893,87.67788361157317,85.58306541043747,82.19570323814935,85.93807279948966
230.0,86.42179738688895,85.98219812790056,87.67788361157317,85.5448487737723,82.04281576309397,85.88742057365904
236.0,86.3950645803583,85.92179738688897,87.72159254681314,85.4900495399315,81.87904324753222,85.85897915967891
240.0,86.33546263134683,85.8950645803583,87.70718890601232,85.44721988950204,81.70997813985423,85.81443989828468
250.0,86.23546263134683,85.7950645803583,87.6788309368222,85.3637664034895,81.55340954873814,85.73540627774817
258.0,86.10942248426018,85.6687803399679,87.663597780615,85.28850671438381,81.35878489078522,85.64843759803703
265.0,85.98382334167596,85.5094224842602,87.59366590096782,85.18195301424738,81.11099666614948,85.5284382032847
272.0,85.82526453928848,85.28382334167596,87.53628240487205,85.06596951002581,80.84236054473327,85.3895651616232
280.0,85.66726558859612,85.05062128010364,87.45126317223465,84.92753316534767,80.56206112456688,85.23631576328107
290.0,85.54258273663014,84.84258273663016,87.36585318030743,84.79195373301494,80.28175719472684,85.09647673490846
300.0,85.41832544184972,84.54258273663015,87.3113697656497,84.69195373301493,79.97426961442787,84.95611451861933
307.0,85.26136837622765,84.26136837622764,87.25601069626089,84.57477345629493,79.66776670713296,84.81041442017938
315.0,85.13776734285541,83.9491520399883,87.18683032261247,84.44021454587343,79.38165734104565,84.6616078449941
325.0,85.08161208533421,83.60330383828928,87.14468607398672,84.37532592857853,79.08628449947268,84.547053998811
335.0,85.01457895753309,83.32643297742509,87.13249470790723,84.29739641042246,78.81670136752504,84.45369977307644
345.0,84.9586572401787,83.0509882350122,87.14783715855255,84.24320590956941,78.56072809454089,84.38100414995307
355.0,85.03610707977349,82.82457993687898,87.14783715855255,84.21848740932336,78.38323555193234,84.35239801797488
365.0,85.0809849055068,82.57277674488687,87.1794312559753,84.18955649125023,78.17056107190007,84.32442938099928
375.0,85.0809849055068,82.30174601124772,87.19460907312816,84.16700331578876,77.9444723224082,84.27991877243353
387.0,85.05906263657509,82.25131759580826,87.22419165084968,84.10753615849514,77.72296873783874,84.25831037473041
400.0,85.13753193576905,81.96382205324667,87.22779810731608,84.04387866232922,77.48600861888008,84.22112562502453
412.0,85.18343461029552,81.78493054864312,87.24315712943682,83.96554704676882,77.25437604380973,84.19326722487985
425.0,85.02990957385144,81.71498382011471,87.17139489047995,83.78350310379639,76.9406241713947,84.07087992920795
437.0,85.10921140720403,81.34885135917305,87.14527647678783,83.60119429309904,76.64306330851822,83.99415185294158
450.0,84.95648313414827,81.08405461574941,87.09149000804193,83.39956222163575,76.33448213420341,83.85619606924594
462.0,84.80432912249856,80.72057765478031,86.97942950454676,83.14626411833373,76.07186262035074,83.67727967433125
475.0,84.66493035341095,80.38795498774302,86.86384303720574,82.87480756095907,75.75501572830251,83.49973974229025
487.0,84.5137899675559,79.8114589804255,86.76384303720575,82.61773046670821,75.50610316686148,83.30979111205099
500.0,84.4137899675559,79.2092030381973,86.7403597080729,82.43951317629391,75.31394487256107,83.18528926176735
515.0,84.39484664455459,78.58397949702585,86.69532132940299,82.2939204185535,75.19818665221122,83.08432379908797
530.0,84.37625435142637,77.82536925857934,86.69769915528124,82.20086103858026,75.13301062269691,83.01297138868243
545.0,84.34449659419708,77.11456592084492,86.65353468947968,82.12241008885707,75.08233663273877,82.92871329764374
560.0,84.2261160916701,76.98716272676828,86.71138948623644,82.16672045323632,75.08605936787289,82.92475354858314
580.0,84.0261160916701,76.13060038152965,86.5531616094336,82.00049116775209,74.87922491774108,82.71924054009092
600.0,83.8765534603207,75.10222384079289,86.36952137770935,81.86541040205897,74.64727354014464,82.51782828306219
615.0,83.67655346032069,74.37716812661407,86.22965876413623,81.77891015910744,74.41760987406064,82.34801490805731
630.0,83.64449659419708,73.19871273408432,86.08544943356851,81.65820398639953,74.0785002787743,82.20328659507324
650.0,83.66322504785602,73.31895633767824,86.14872173849258,81.65539778725498,73.8207610501371,82.23443218610744
670.0,83.88230649956843,73.56512351383324,86.32321580577666,81.72017959976348,73.54036387811693,82.39179424464021
690.0,84.12154865751023,74.06687251848889,86.6286828220732,81.89609688105507,73.31481445820178,82.6488341507103
710.0,84.21115315731633,74.63149313701221,86.90517075909814,81.98914695932757,73.0020329367841,82.83830825245586
730.0,84.10190565802709,75.19959529697505,87.06901012420431,81.93710588362767,72.59859280896919,82.89534977129777
750.0,83.85147543072807,75.6856444051711,87.14192561099225,81.80041240697237,72.05157319994274,82.85566094817246
775.0,83.55234182425075,76.24611403139875,87.106646951814,81.56891330524218,71.39082806729158,82.73997588903174
800.0,83.28375354619892,76.94963978119758,87.04788015467587,81.34269780586098,70.82580531453368,82.63685997483776
825.0,83.31657454846322,78.01213611976861,87.16388763286795,81.29082605124121,70.35817700180198,82.75918722301465
850.0,83.35078859213112,78.93855083142047,87.2777816523844,81.2957391197535,69.84761194147652,82.89293913222247
875.0,83.36082861347982,79.64583147157398,87.31063265137014,81.23398498917398,69.21693171537133,82.96024258366344
900.0,83.1719180290656,79.94090753602633,87.13533703455998,80.94126898231224,68.33036279529452,82.8071161127489
925.0,82.8840546157494,79.93920982111143,86.88276791315761,80.57184324989457,67.29529565307062,82.55348295863189
950.0,82.61411392837596,79.79430744544665,86.63116590732878,80.1768678056833,66.14769027274242,82.2870421702959
975.0,82.5756958151824,79.79780984381857,86.53116590732878,79.93971120850607,65.15264063618042,82.19166846527736
1000.0,82.73925752533572,79.95648313414827,86.59311817543234,79.93472234971794,64.41963863926844,82.27651189201102
1030.0,82.98838259233904,80.00432912249856,86.66553913251636,79.88305547871273,63.73710007493695,82.36959691351728
1060.0,83.10566507474114,79.95648313414827,86.62439686838734,79.75211261877543,62.93182004625207,82.35287317834955
1090.0,83.10833704711783,79.80432912249856,86.42439686838735,79.56837689797145,62.20873808864211,82.20807556757073
1120.0,83.1666541182005,79.62457993687899,86.24878217304109,79.39788083945359,61.81932009080073,82.09087334848827
1150.0,83.29409265572765,79.52457993687896,86.08381101919689,79.3290405736508,61.89214630801057,82.02069596649973
1180.0,83.40517745233018,79.34520516099383,85.77646749427682,79.22046666802986,62.27914643733418,81.86637574277157
1220.0,83.41853025325683,79.06620989389218,85.36288612066845,79.01495415733221,62.80683471417511,81.6182680102581
1250.0,83.37605289976871,78.85664821100016,84.93559206366898,78.82276035113357,63.40673480314631,81.36369772789512
1280.0,83.41393096343394,78.68509485802376,84.55743769712898,78.67228432107873,64.11284099689918,81.17393319344276
1320.0,83.41117002597231,78.51719474435357,84.09242476973739,78.49853654589447,64.90968722235915,80.94033855120674
1360.0,83.41117002597231,78.37757950460713,83.7145973303546,78.3427361189379,65.6774736406787,80.7580350531505
1400.0,83.57183354972274,78.55999961744989,83.58423790982869,78.37506088889431,66.48747607496692,80.79819914705477
1450.0,83.89444369100744,78.892378988098,83.73935569001368,78.64609140355611,67.32496355407207,81.05728355364387
1500.0,84.26137189992221,79.392378988098,84.02650421657837,78.96951578762364,68.2138126534641,81.41101739057801
1550.0,84.5491554931737,79.74258273663014,84.21519578835485,79.26237351032384,68.85952431018129,81.67500559257977
1600.0,84.47654672910747,79.66136837622763,84.18732867610979,79.28496738226157,69.00131951616017,81.63069032311597
1650.0,84.58509820479183,79.70330383828927,84.35859693065055,79.49130700166079,69.12985439871707,81.76526834280361
1700.0,84.56615422006834,79.57245249207645,84.51559488374856,79.69531277981808,69.03088590452809,81.82337938919503
1750.0,84.53042214017361,79.42457993687897,84.67497499962799,79.90464579992195,68.82176474488001,81.87682932613201
1800.0,84.43174271310298,79.28230649956843,84.88018295444188,80.05757662790306,68.52085593106808,81.92166883244676
1850.0,84.31628511153325,79.32756634145693,85.21865020723921,80.22337999021933,68.11772217625845,82.04194689513436
1900.0,84.08888863538652,79.29723594431543,85.53862255105729,80.34915786104008,67.49514969059442,82.11341706180771
1950.0,83.84520516099381,79.27211025799338,85.84291870864185,80.34612974434599,66.86942403714589,82.1700305129164
2000.0,83.83510550729974,79.36691728331716,86.24559657324919,80.4432549061361,66.520609869626,82.37929710501945
2060.0,83.87436617787408,79.40827710656964,86.64234028516522,80.45599671776154,66.26471312154858,82.59190955103335
2120.0,84.04472243308102,79.49466814462869,87.04643157857716,80.4960386150704,66.13672474735625,82.85821257728556
2180.0,84.14347039029353,79.47117608287158,87.34393021284092,80.38241649130956,66.04979439168515,83.02713620739827
2240.0,83.97283593357047,79.11837626972827,87.27950688342321,80.01422845055633,65.80288445675349,82.87750856518522
2300.0,83.46423314951328,78.46673210761146,86.84757579233384,79.3847243177313,65.40953580658463,82.38777524979014
2360.0,82.81442345365728,77.62812833708283,86.27327578210912,78.63526812805686,64.98029430140926,81.75652537212616
2400.0,82.08456243414705,76.64027530866605,85.63775753252798,77.85385035680841,64.53255909643316,81.05739010638545
2500.0,81.70840017459456,75.97822079791517,85.35618369222662,77.55282608733687,64.34715429094845,80.72402996762662
2580.0,81.7369776185303,75.74450134732098,85.5840502922776,77.72979189084596,64.55196614244494,80.86787400872892
2650.0,81.8646631416146,75.5111608175926,85.90151142594134,78.07751506778375,64.7834125302854,81.11007114845509
2720.0,81.75876018037256,75.16161973556076,85.97174134844279,78.21547470342367,64.74189802671084,81.12308416159026
2800.0,81.50792657619245,74.83243475604748,85.8114747153325,78.16310392799174,64.50252079140932,80.94445543069236
2900.0,81.1667330308201,74.74165288164494,85.5140970374368,78.08519624101577,64.23927538501822,80.67132700111152
3000.0,81.05528988291042,75.06226370149552,85.34888976531792,78.23960607034994,64.11530360735752,80.58060821164612
3070.0,81.02536925857933,75.61904449785341,85.30513062081432,78.50012375414907,64.05156150542489,80.61211619020199
3150.0,81.0946681446287,76.12643297742508,85.25776660866906,78.77149450964077,63.85906197887111,80.66707335381248
3250.0,80.98456243414705,76.4809849055068,85.07184330593311,78.90385692166379,63.413444261340246,80.5790163335568
3350.0,80.82626487750089,76.71395652088273,84.78918560198952,78.94572257816274,62.69971783332208,80.40944060302475
