Freq "Ceiling Bounce"
22.4 30.63268757119691
23.0 31.712087908071382
23.6 32.66688340325048
24.0 33.42236216959829
25.0 34.18752389906949
25.8 36.88615193394081
26.5 39.59458754629536
27.2 41.58192912376616
28.0 43.258035221502624
29.0 44.58910480561006
30.0 45.72909084157253
30.7 47.81627940083642
31.5 50.71007799780291
32.5 52.940441679454906
33.5 54.74044167945489
34.5 56.27071732495408
35.5 57.805318067664686
36.5 59.90531806766471
37.5 61.70531806766469
38.7 63.20531806766469
40.0 64.5053180676647
41.2 66.07071732495409
42.5 67.8053180676647
43.7 69.3053180676647
45.0 70.6069050103546
46.2 71.83821129888743
47.5 73.00542400732661
48.7 74.04136150423587
50.0 75.00934661896389
51.5 75.84136150423588
53.0 76.61007799780292
54.5 77.31007799780294
56.0 78.07928732607432
58.0 78.8792873260743
60.0 79.61227178315617
61.5 80.24283030471976
63.0 80.74283030471975
65.0 81.24283030471975
67.0 81.74283030471973
69.0 82.30690501035458
71.0 82.80690501035458
73.0 83.33821129888743
75.0 83.80306957104253
77.5 84.13513059177983
80.0 84.43513059177982
82.5 84.73513059177982
85.0 85.03513059177983
87.5 85.30076749445563
90.0 85.50076749445562
92.5 85.63513059177983
95.0 85.73513059177984
97.5 85.83513059177983
100.0 85.93513059177982
103.0 86.10306957104251
106.0 86.20306957104252
109.0 86.40306957104252
112.0 86.53821129888743
115.0 86.63821129888744
118.0 86.7069050103546
122.0 86.77609175449221
125.0 86.87609175449221
128.0 86.87609175449221
132.0 86.84576719438469
136.0 86.84576719438469
140.0 86.84576719438469
145.0 86.84576719438469
150.0 86.78219967332305
155.0 86.78219967332305
160.0 86.71916705502754
165.0 86.61916705502752
170.0 86.58982856673471
175.0 86.48982856673473
180.0 86.42758719283593
185.0 86.32758719283594
190.0 86.26588846059688
195.0 86.170829702843
200.0 86.13752777300029
206.0 86.10963256681619
212.0 86.08219812790055
218.0 86.04898359150842
224.0 86.02179738688893
230.0 85.98219812790056
236.0 85.92179738688897
240.0 85.8950645803583
250.0 85.7950645803583
258.0 85.6687803399679
265.0 85.5094224842602
272.0 85.28382334167596
280.0 85.05062128010364
290.0 84.84258273663016
300.0 84.54258273663015
307.0 84.26136837622764
315.0 83.9491520399883
325.0 83.60330383828928
335.0 83.32643297742509
345.0 83.0509882350122
355.0 82.82457993687898
365.0 82.57277674488687
375.0 82.30174601124772
387.0 82.25131759580826
400.0 81.96382205324667
412.0 81.78493054864312
425.0 81.71498382011471
437.0 81.34885135917305
450.0 81.08405461574941
462.0 80.72057765478031
475.0 80.38795498774302
487.0 79.8114589804255
500.0 79.2092030381973
515.0 78.58397949702585
530.0 77.82536925857934
545.0 77.11456592084492
560.0 76.98716272676828
580.0 76.13060038152965
600.0 75.10222384079289
615.0 74.37716812661407
630.0 73.19871273408432
650.0 73.31895633767824
670.0 73.56512351383324
690.0 74.06687251848889
710.0 74.63149313701221
730.0 75.19959529697505
750.0 75.6856444051711
775.0 76.24611403139875
800.0 76.94963978119758
825.0 78.01213611976861
850.0 78.93855083142047
875.0 79.64583147157398
900.0 79.94090753602633
925.0 79.93920982111143
950.0 79.79430744544665
975.0 79.79780984381857
1000.0 79.95648313414827
1030.0 80.00432912249856
1060.0 79.95648313414827
1090.0 79.80432912249856
1120.0 79.62457993687899
1150.0 79.52457993687896
1180.0 79.34520516099383
1220.0 79.06620989389218
1250.0 78.85664821100016
1280.0 78.68509485802376
1320.0 78.51719474435357
1360.0 78.37757950460713
1400.0 78.55999961744989
1450.0 78.892378988098
1500.0 79.392378988098
1550.0 79.74258273663014
1600.0 79.66136837622763
1650.0 79.70330383828927
1700.0 79.57245249207645
1750.0 79.42457993687897
1800.0 79.28230649956843
1850.0 79.32756634145693
1900.0 79.29723594431543
1950.0 79.27211025799338
2000.0 79.36691728331716
2060.0 79.40827710656964
2120.0 79.49466814462869
2180.0 79.47117608287158
2240.0 79.11837626972827
2300.0 78.46673210761146
2360.0 77.62812833708283
2400.0 76.64027530866605
2500.0 75.97822079791517
2580.0 75.74450134732098
2650.0 75.5111608175926
2720.0 75.16161973556076
2800.0 74.83243475604748
2900.0 74.74165288164494
3000.0 75.06226370149552
3070.0 75.61904449785341
3150.0 76.12643297742508
3250.0 76.4809849055068
3350.0 76.71395652088273
3450.0 77.1708338338135
3550.0 77.89562483724394
3650.0 78.24934890169722
3750.0 78.09040221489248
3870.0 77.62406634433559
4000.0 77.51755713588665
4120.0 76.95592043373775
4250.0 75.79417633457007
4370.0 75.2939824175496
4500.0 75.92827544223798
4620.0 76.82434865057793
4750.0 76.7420679435548
4870.0 75.21299747465916
5000.0 74.81869494070851
5150.0 76.52630272058379
5300.0 77.50207240334949
5450.0 77.73249005336113
5600.0 77.6421550156115
5800.0 76.96239477036437
6000.0 75.64885135917307
6150.0 74.2261160916701
6300.0 72.87825745704102
6500.0 71.20199903162158
6700.0 69.44197022557485
6900.0 69.98343461029552
7100.0 73.27695775614916
7300.0 76.25131759580826
7500.0 77.60814994938131
7750.0 78.18127869327917
8000.0 78.77093249231424
8250.0 79.11403375853045
8500.0 78.28981795749586
8750.0 76.35374816470484
9000.0 74.31423455486666
9250.0 74.9012362720128
9500.0 77.99781379627191
9750.0 78.7512650258149
10000.0 76.74036306093899
10300.0 74.54796443729296
10600.0 73.97499736119995
10900.0 75.38008538610644
11200.0 77.73818451355058
11500.0 79.36443385409608
11800.0 79.58825860623132
12200.0 78.00165971691963
12500.0 74.54942636664187
12800.0 73.79691915590438
13200.0 74.64424044125234
13600.0 75.04654555240529
14000.0 75.85345843440055
14500.0 76.38686427957849
15000.0 75.57436617787407
15500.0 72.40937829065057
16000.0 68.63920982111144
16500.0 67.67757950460712
17000.0 68.39723682439924
17500.0 68.02909084157254
18000.0 67.54898514879551
18500.0 65.95603885002969
19000.0 61.311728464373786
19500.0 60.746596928048305
