Freq "Ceiling Bounce"
22.4 31.123826811703225
23.0 32.203227148577696
23.6 33.158022643756794
24.0 33.9135014101046
25.0 34.678663139575804
25.8 37.37729117444712
26.5 40.08572678680167
27.2 42.07306836427247
28.0 43.74917446200894
29.0 45.08024404611638
30.0 46.22023008207884
30.7 48.307418641342736
31.5 51.201217238309226
32.5 53.43158091996122
33.5 55.2315809199612
34.5 56.76185656546039
35.5 58.296457308171
36.5 60.39645730817102
37.5 62.196457308171006
38.7 63.696457308171006
40.0 64.99645730817102
41.2 66.5618565654604
42.5 68.29645730817101
43.7 69.79645730817101
45.0 71.09804425086091
46.2 72.32935053939374
47.5 73.49656324783292
48.7 74.53250074474218
50.0 75.5004858594702
51.5 76.33250074474219
53.0 77.10121723830923
54.5 77.80121723830925
56.0 78.57042656658064
58.0 79.37042656658062
60.0 80.10341102366249
61.5 80.73396954522607
63.0 81.23396954522606
65.0 81.73396954522606
67.0 82.23396954522605
69.0 82.7980442508609
71.0 83.2980442508609
73.0 83.82935053939374
75.0 84.29420881154884
77.5 84.62626983228614
80.0 84.92626983228614
82.5 85.22626983228614
85.0 85.52626983228615
87.5 85.79190673496194
90.0 85.99190673496193
92.5 86.12626983228614
95.0 86.22626983228615
97.5 86.32626983228614
100.0 86.42626983228614
103.0 86.59420881154882
106.0 86.69420881154883
109.0 86.89420881154884
112.0 87.02935053939375
115.0 87.12935053939376
118.0 87.19804425086092
122.0 87.26723099499853
125.0 87.36723099499852
128.0 87.36723099499852
132.0 87.336906434891
136.0 87.336906434891
140.0 87.336906434891
145.0 87.336906434891
150.0 87.27333891382936
155.0 87.27333891382936
160.0 87.21030629553385
165.0 87.11030629553383
170.0 87.08096780724102
175.0 86.98096780724104
180.0 86.91872643334224
185.0 86.81872643334225
190.0 86.7570277011032
195.0 86.66196894334931
200.0 86.6286670135066
206.0 86.6007718073225
212.0 86.57333736840687
218.0 86.54012283201473
224.0 86.51293662739525
230.0 86.47333736840687
236.0 86.41293662739528
240.0 86.38620382086461
250.0 86.28620382086461
258.0 86.15991958047421
265.0 86.00056172476651
272.0 85.77496258218227
280.0 85.54176052060996
290.0 85.33372197713648
300.0 85.03372197713647
307.0 84.75250761673395
315.0 84.44029128049462
325.0 84.09444307879559
335.0 83.8175722179314
345.0 83.54212747551851
355.0 83.31571917738529
365.0 83.06391598539318
375.0 82.79288525175403
387.0 82.74245683631457
400.0 82.45496129375299
412.0 82.27606978914943
425.0 82.20612306062102
437.0 81.83999059967937
450.0 81.57519385625572
462.0 81.21171689528663
475.0 80.87909422824933
487.0 80.30259822093181
500.0 79.70034227870362
515.0 79.07511873753216
530.0 78.31650849908566
545.0 77.60570516135124
560.0 77.47830196727459
580.0 76.62173962203596
600.0 75.5933630812992
615.0 74.86830736712038
630.0 73.68985197459064
650.0 73.81009557818456
670.0 74.05626275433956
690.0 74.5580117589952
710.0 75.12263237751853
730.0 75.69073453748136
750.0 76.17678364567742
775.0 76.73725327190506
800.0 77.44077902170389
825.0 78.50327536027493
850.0 79.42969007192679
875.0 80.1369707120803
900.0 80.43204677653264
925.0 80.43034906161775
950.0 80.28544668595296
975.0 80.28894908432488
1000.0 80.44762237465459
1030.0 80.49546836300487
1060.0 80.44762237465459
1090.0 80.29546836300487
1120.0 80.1157191773853
1150.0 80.01571917738528
1180.0 79.83634440150014
1220.0 79.55734913439849
1250.0 79.34778745150648
1280.0 79.17623409853007
1320.0 79.00833398485989
1360.0 78.86871874511344
1400.0 79.0511388579562
1450.0 79.38351822860432
1500.0 79.88351822860432
1550.0 80.23372197713645
1600.0 80.15250761673394
1650.0 80.19444307879559
1700.0 80.06359173258276
1750.0 79.91571917738528
1800.0 79.77344574007475
1850.0 79.81870558196324
1900.0 79.78837518482175
1950.0 79.76324949849969
2000.0 79.85805652382348
2060.0 79.89941634707596
2120.0 79.985807385135
2180.0 79.9623153233779
2240.0 79.60951551023459
2300.0 78.95787134811778
2360.0 78.11926757758914
2400.0 77.13141454917236
2500.0 76.46936003842148
2580.0 76.23564058782729
2650.0 76.00230005809891
2720.0 75.65275897606708
2800.0 75.32357399655379
2900.0 75.23279212215125
3000.0 75.55340294200184
3070.0 76.11018373835972
3150.0 76.6175722179314
3250.0 76.97212414601312
3350.0 77.20509576138905
3450.0 77.66197307431982
3550.0 78.38676407775026
3650.0 78.74048814220353
3750.0 78.58154145539879
3870.0 78.1152055848419
4000.0 78.00869637639296
4120.0 77.44705967424406
4250.0 76.28531557507638
4370.0 75.78512165805591
4500.0 76.41941468274429
4620.0 77.31548789108425
4750.0 77.23320718406111
4870.0 75.70413671516548
5000.0 75.30983418121482
5150.0 77.0174419610901
5300.0 77.9932116438558
5450.0 78.22362929386745
5600.0 78.13329425611781
5800.0 77.45353401087068
6000.0 76.13999059967938
6150.0 74.7172553321764
6300.0 73.36939669754733
6500.0 71.6931382721279
6700.0 69.93310946608116
6900.0 70.47457385080183
7100.0 73.76809699665547
7300.0 76.74245683631457
7500.0 78.09928918988763
7750.0 78.67241793378548
8000.0 79.26207173282056
8250.0 79.60517299903677
8500.0 78.78095719800217
8750.0 76.84488740521115
9000.0 74.80537379537297
9250.0 75.39237551251911
9500.0 78.48895303677823
9750.0 79.24240426632122
10000.0 77.2315023014453
10300.0 75.03910367779928
10600.0 74.46613660170627
10900.0 75.87122462661276
11200.0 78.22932375405689
11500.0 79.85557309460239
11800.0 80.07939784673763
12200.0 78.49279895742595
12500.0 75.04056560714818
12800.0 74.28805839641069
13200.0 75.13537968175865
13600.0 75.5376847929116
14000.0 76.34459767490686
14500.0 76.8780035200848
15000.0 76.06550541838038
15500.0 72.90051753115688
16000.0 69.13034906161775
16500.0 68.16871874511344
17000.0 68.88837606490556
17500.0 68.52023008207885
18000.0 68.04012438930182
18500.0 66.447178090536
19000.0 61.8028677048801
19500.0 61.23773616855462
