Freq "Floor Bounce"
22.4 30.204698539962862
23.0 31.640569058023402
23.6 32.92664184959668
24.0 33.976888379425674
25.0 35.03108035216633
25.8 38.0784070881206
26.5 40.88757492471353
27.2 43.07291921291926
28.0 44.80081093575595
29.0 46.173335958964316
30.0 47.385228878411965
30.7 49.53793971938339
31.5 52.42761336441046
32.5 54.683524862667355
33.5 56.5121809034938
34.5 58.07607416511479
35.5 59.64049690528904
36.5 61.80020354066613
37.5 63.66563275081069
38.7 65.19645730817103
40.0 66.59645730817101
41.2 68.22777499717817
42.5 70.05959007856065
43.7 71.59190673496192
45.0 72.95959007856064
46.2 74.22626983228614
47.5 75.42472906738628
48.7 76.52472906738628
50.0 77.52472906738629
51.5 78.45806109166682
53.0 79.25806109166682
54.5 80.0580610916668
56.0 80.9247290673863
58.0 81.82472906738629
60.0 82.62472906738628
61.5 83.3247290673863
63.0 83.7580610916668
65.0 84.25806109166682
67.0 84.65806109166681
69.0 85.0580610916668
71.0 85.4580610916668
73.0 85.7580610916668
75.0 86.05806109166681
77.5 86.2580610916668
80.0 86.4247290673863
82.5 86.59190673496194
85.0 86.75806109166682
87.5 86.9247290673863
90.0 87.05806109166681
92.5 87.15806109166681
95.0 87.15806109166681
97.5 87.2580610916668
100.0 87.32549064919135
103.0 87.42549064919135
106.0 87.49190673496193
109.0 87.65959007856064
112.0 87.69420881154883
115.0 87.72935053939375
118.0 87.72935053939375
122.0 87.6980442508609
125.0 87.6980442508609
128.0 87.66723099499852
132.0 87.60341102366249
136.0 87.57333891382936
140.0 87.54012438930181
145.0 87.47333891382937
150.0 87.4437487725285
155.0 87.41030629553384
160.0 87.38096780724103
165.0 87.35210438287814
170.0 87.31872643334223
175.0 87.25210438287813
180.0 87.21872643334224
185.0 87.19011369181555
190.0 87.19011369181555
195.0 87.1286670135066
200.0 87.1286670135066
206.0 87.10077180732252
212.0 87.00077180732252
218.0 87.00077180732252
224.0 87.01293662739526
230.0 86.91293662739527
236.0 86.88620382086461
240.0 86.82660187185314
250.0 86.72660187185315
258.0 86.6005617247665
265.0 86.47496258218227
272.0 86.3164037797948
280.0 86.15840482910244
290.0 86.03372197713645
300.0 85.90946468235603
307.0 85.75250761673396
315.0 85.62890658336173
325.0 85.57275132584053
335.0 85.5057181980394
345.0 85.44979648068501
355.0 85.5272463202798
365.0 85.57212414601311
375.0 85.57212414601311
387.0 85.5502018770814
400.0 85.62867117627536
412.0 85.67457385080183
425.0 85.52104881435775
437.0 85.60035064771034
450.0 85.44762237465459
462.0 85.29546836300487
475.0 85.15606959391727
487.0 85.00492920806221
500.0 84.90492920806221
515.0 84.8859858850609
530.0 84.86739359193268
545.0 84.8356358347034
560.0 84.7172553321764
580.0 84.51725533217642
600.0 84.367692700827
615.0 84.167692700827
630.0 84.1356358347034
650.0 84.15436428836233
670.0 84.37344574007474
690.0 84.61268789801655
710.0 84.70229239782265
730.0 84.5930448985334
750.0 84.34261467123439
775.0 84.04348106475706
800.0 83.77489278670524
825.0 83.80771378896954
850.0 83.84192783263744
875.0 83.85196785398614
900.0 83.66305726957191
925.0 83.37519385625572
950.0 83.10525316888227
975.0 83.06683505568871
1000.0 83.23039676584203
1030.0 83.47952183284535
1060.0 83.59680431524745
1090.0 83.59947628762414
1120.0 83.65779335870681
1150.0 83.78523189623397
1180.0 83.89631669283649
1220.0 83.90966949376315
1250.0 83.86719214027502
1280.0 83.90507020394026
1320.0 83.90230926647862
1360.0 83.90230926647862
1400.0 84.06297279022905
1450.0 84.38558293151375
1500.0 84.75251114042852
1550.0 85.04029473368001
1600.0 84.96768596961378
1650.0 85.07623744529815
1700.0 85.05729346057466
1750.0 85.02156138067993
1800.0 84.92288195360929
1850.0 84.80742435203956
1900.0 84.58002787589284
1950.0 84.33634440150013
2000.0 84.32624474780606
2060.0 84.3655054183804
2120.0 84.53586167358733
2180.0 84.63460963079984
2240.0 84.46397517407678
2300.0 83.95537239001959
2360.0 83.3055626941636
2400.0 82.57570167465336
2500.0 82.19953941510087
2580.0 82.22811685903662
2650.0 82.35580238212091
2720.0 82.24989942087888
2800.0 81.99906581669876
2900.0 81.65787227132641
3000.0 81.54642912341673
3070.0 81.51650849908565
3150.0 81.58580738513501
3250.0 81.47570167465337
3350.0 81.3174041180072
3450.0 81.43460963079983
3550.0 82.0513802324014
3650.0 82.37873970339554
3750.0 82.23180729944632
3870.0 81.96147863683701
4000.0 81.9379264370048
4120.0 81.52227391739515
4250.0 80.45340665453944
4370.0 80.11716376407324
4500.0 80.8605591041736
4620.0 81.92872892940126
4750.0 82.113786584486
4870.0 80.84718047415163
5000.0 80.6893213353312
5150.0 82.55816286259949
5300.0 83.78939383687997
5450.0 84.16693255130599
5600.0 84.39369008124115
5800.0 83.88355982277939
6000.0 82.81462480583235
6150.0 81.61631969486226
6300.0 80.43161002055623
6500.0 78.8125394143198
6700.0 77.08759440773865
6900.0 77.55434450154804
7100.0 80.6857636141479
7300.0 83.24068840253805
7500.0 84.05831778592594
7750.0 84.09094265231356
8000.0 84.2705476768118
8250.0 84.25436428836232
8500.0 83.10946600964513
8750.0 81.08815816726387
9000.0 79.14559772576695
9250.0 80.0431212700418
9500.0 83.64718047415163
9750.0 84.81382984238508
10000.0 83.19322978369308
10300.0 81.23950659113054
10600.0 80.93377977952991
10900.0 82.49947628762413
11200.0 85.0131783395771
11500.0 86.76550862242455
11800.0 87.1022947855641
12200.0 85.58020438070199
12500.0 82.15288910107164
12800.0 81.30469853996284
13200.0 82.00878079206112
13600.0 82.36920731488738
14000.0 83.03477472896125
14500.0 83.59430301037352
15000.0 82.90984157005923
15500.0 79.81263999406056
16000.0 76.18282767920726
16500.0 75.12214069563247
17000.0 75.8298629391518
17500.0 75.21571210319328
18000.0 74.50886079390169
18500.0 72.51571210319328
19000.0 67.30659450284958
19500.0 66.30239804918548
