Freq "Rear Wall Bounce"
22.4 31.732374837676844
23.0 33.184671247620315
23.6 34.50723335417521
24.0 35.69402768600267
25.0 36.82760313019941
25.8 38.32346270737233
26.5 40.04843444235476
27.2 41.709790313508165
28.0 43.229476615634326
29.0 44.63692479224267
30.0 45.979411525861025
30.7 48.05567849096778
31.5 50.63446873114171
32.5 52.65206414889823
33.5 54.338527662318825
34.5 55.77185099450958
35.5 57.23954455777982
36.5 59.20573744332367
37.5 60.92874862264992
38.7 62.39201955310622
40.0 63.69659299922702
41.2 65.29129613394528
42.5 67.11911563726449
43.7 68.65274918659406
45.0 70.01534844199509
46.2 71.33039932095912
47.5 72.5755912622077
48.7 73.73194640248602
50.0 74.76577450004098
51.5 75.71913993334438
53.0 76.58069158069566
54.5 77.38304620628068
56.0 78.19374591386153
58.0 79.00211945809569
60.0 79.77250346441143
61.5 80.3978790596597
63.0 80.87871469911748
65.0 81.35606977367863
67.0 81.74109333722728
69.0 82.11561730922215
71.0 82.44791482152687
73.0 82.78092826788728
75.0 83.08377107071665
77.5 83.31237755465041
80.0 83.49461122879595
82.5 83.69108499191617
85.0 83.91559315537302
87.5 84.07307389256455
90.0 84.20469601254538
92.5 84.2837538328244
95.0 84.29769460097609
97.5 84.3579964256948
100.0 84.44473440709316
103.0 84.53906719770517
106.0 84.60389465374772
109.0 84.71049602322212
112.0 84.78607800082406
115.0 84.78365515898776
118.0 84.77785921989056
122.0 84.75053560671346
125.0 84.72657414531119
128.0 84.66426714940116
132.0 84.58206771904025
136.0 84.48790597544874
140.0 84.40458184646022
145.0 84.30021115984725
150.0 84.15959744026362
155.0 84.03834775252942
160.0 83.92365436209843
165.0 83.77727685545347
170.0 83.62995337782834
175.0 83.44667233824349
180.0 83.3054587962569
185.0 83.15429107925584
190.0 82.9885755568814
195.0 82.84251816646426
200.0 82.71319841889077
206.0 82.59526665257906
212.0 82.46496681519037
218.0 82.30600797802528
224.0 82.19570323814935
230.0 82.04281576309396
236.0 81.87904324753222
240.0 81.70997813985423
250.0 81.55340954873813
258.0 81.35878489078523
265.0 81.11099666614948
272.0 80.84236054473327
280.0 80.5620611245669
290.0 80.28175719472682
300.0 79.97426961442787
307.0 79.66776670713296
315.0 79.38165734104564
325.0 79.08628449947268
335.0 78.81670136752504
345.0 78.56072809454088
355.0 78.38323555193236
365.0 78.17056107190007
375.0 77.94447232240822
387.0 77.72296873783874
400.0 77.48600861888008
412.0 77.25437604380973
425.0 76.94062417139469
437.0 76.64306330851821
450.0 76.33448213420343
462.0 76.07186262035074
475.0 75.75501572830251
487.0 75.50610316686148
500.0 75.31394487256105
515.0 75.1981866522112
530.0 75.13301062269691
545.0 75.08233663273876
560.0 75.08605936787288
580.0 74.87922491774108
600.0 74.64727354014462
615.0 74.41760987406064
630.0 74.07850027877431
650.0 73.8207610501371
670.0 73.54036387811695
690.0 73.31481445820178
710.0 73.0020329367841
730.0 72.59859280896919
750.0 72.05157319994274
775.0 71.39082806729158
800.0 70.82580531453368
825.0 70.35817700180199
850.0 69.84761194147652
875.0 69.21693171537133
900.0 68.33036279529453
925.0 67.29529565307062
950.0 66.14769027274241
975.0 65.15264063618042
1000.0 64.41963863926844
1030.0 63.73710007493693
1060.0 62.931820046252085
1090.0 62.20873808864209
1120.0 61.819320090800744
1150.0 61.89214630801055
1180.0 62.27914643733419
1220.0 62.806834714175096
1250.0 63.40673480314632
1280.0 64.11284099689917
1320.0 64.90968722235915
1360.0 65.67747364067871
1400.0 66.48747607496692
1450.0 67.32496355407207
1500.0 68.21381265346409
1550.0 68.8595243101813
1600.0 69.00131951616015
1650.0 69.12985439871707
1700.0 69.03088590452808
1750.0 68.82176474488001
1800.0 68.5208559310681
1850.0 68.11772217625845
1900.0 67.49514969059442
1950.0 66.86942403714588
2000.0 66.52060986962601
2060.0 66.26471312154858
2120.0 66.13672474735625
2180.0 66.04979439168514
2240.0 65.80288445675347
2300.0 65.40953580658464
2360.0 64.98029430140926
2400.0 64.53255909643315
2500.0 64.34715429094845
2580.0 64.55196614244494
2650.0 64.78341253028542
2720.0 64.74189802671083
2800.0 64.50252079140932
2900.0 64.2392753850182
3000.0 64.11530360735753
3070.0 64.0515615054249
3150.0 63.8590619788711
3250.0 63.41344426134023
3350.0 62.6997178333221
3450.0 62.32083930271946
3550.0 62.60195628205514
3650.0 62.87532408121194
3750.0 62.76377033783058
3870.0 62.53208183336861
4000.0 62.64034175180501
4120.0 62.26887442897214
4250.0 61.30208395056334
4370.0 61.0521453705482
4500.0 61.908450537052516
4620.0 63.07587343324539
4750.0 63.27254198807174
4870.0 62.042377391686585
5000.0 61.78428522953203
5150.0 63.49059565367082
5300.0 64.33386947350692
5450.0 64.39861472698303
5600.0 64.1962776073631
5800.0 63.37625755360895
6000.0 61.934532103767935
6150.0 60.35853611390024
6300.0 58.893705976606526
6500.0 57.068492096221604
6700.0 55.11526387878135
6900.0 55.41358187131982
7100.0 58.428256578481665
7300.0 60.924767273050605
7500.0 61.61740000190119
7750.0 61.579634367494435
8000.0 61.63726823686824
8250.0 61.58866259687244
8500.0 60.35838118166643
8750.0 58.209537379403685
9000.0 56.17099273985872
9250.0 56.7883162657281
9500.0 60.162737813706144
9750.0 61.035923378838305
10000.0 59.1650480763129
10300.0 56.97057280819811
10600.0 56.30244520365602
10900.0 57.55867609002746
11200.0 59.67236718673689
11500.0 60.96388606646525
11800.0 60.75463639745408
12200.0 58.71832140306245
12500.0 54.8762476778908
12800.0 53.62492890206761
13200.0 54.00711840352747
13600.0 53.96443201447181
14000.0 54.36926769190396
14500.0 54.575314757021374
15000.0 53.578737307483806
15500.0 50.364878854688385
16000.0 46.80605630425433
16500.0 46.17553341116388
17000.0 47.51694833933067
17500.0 47.72026043367373
18000.0 47.874232253449804
18500.0 47.01894153447438
19000.0 43.14432026768458
19500.0 43.143523864151575
