Freq,Floor Bounce,Ceiling Bounce,Front Wall Bounce,Side Wall Bounce,Rear Wall Bounce,Total Early Reflection
20.5078,62.82435807594558,58.849016290615424,63.39933248501646,59.725818890053006,72.90742542562663,67.04860981225065
21.9727,64.15016112965867,64.19675650104372,63.68952276076587,66.35548296225267,74.9984413351654,69.39511386230149
23.4375,67.93887185001624,67.45104981199283,68.17266459950238,68.28481494369682,76.21814667756527,71.26754454763342
24.9023,70.66529988700367,70.05689038066173,70.62827247342616,70.98740164289447,77.79599401945495,73.26733292734362
26.3672,73.88284596956015,72.72631656500401,73.59407274515459,73.6150961449747,79.09500341803061,75.32091195208986
27.832,75.6604148247842,74.41461801037987,75.36312902596619,75.1682872537596,80.3381569405871,76.80882481903053
29.2969,76.79308580870868,75.73853671875011,76.34815687953379,76.80795625353612,81.789168904614,78.16022480566545
30.7617,79.11307071630767,77.73681454297,78.49933749135678,78.79403792355967,82.84176133438481,79.82124947645814
32.2266,80.27535104296442,78.79739451212754,79.56119722191289,79.92502737852844,83.5654646082976,80.77955098786353
33.6914,81.45349904382776,79.84268599316074,80.65166105603346,81.05215168198708,84.3077024938958,81.75758688829931
35.1562,82.05495094573102,80.34219678712397,81.22337858259193,81.57663120762183,84.79321756129883,82.28674888088031
36.6211,83.00420953797098,81.25866630927177,82.14623153857801,82.49280975370608,85.36797107945776,83.09194710452789
38.0859,83.9856522906827,82.12747738705224,83.04090092775532,83.4215198208043,86.02229602805667,83.9269832398586
39.5508,84.67711062187497,82.80530796723923,83.73006310561465,84.10002270709549,86.48398818684592,84.54076356732145
41.0156,85.21984021650292,83.33418219393154,84.23207290783901,84.67104748372421,86.90224904542168,85.04145026900035
42.4805,85.7733573381062,83.87895332927911,84.77333054324822,85.19165547760718,87.2433161867152,85.52146808502151
43.9453,86.55985169909194,84.5969454387596,85.5271107500726,85.92431532161572,87.78756683668934,86.21214553720229
45.4102,87.06120378898305,85.10107525930184,86.0003551164864,86.44598345086317,88.2896912681066,86.71312860163724
46.875,87.64498982529017,85.601142073283,86.52506938951154,87.0056346770297,88.77202179426378,87.24180706212606
48.3398,88.19707875780546,86.10363719597744,87.04996403607464,87.55485877235833,89.19259882469062,87.74486965884313
51.2695,89.0000418705311,86.95560748101478,87.87881903198156,88.36091697682366,89.83217050956291,88.51472055210988
52.7344,89.45657967001199,87.43259810495888,88.34487051944282,88.81355721598588,90.18154479197597,88.94627030056826
54.1992,90.00444328528877,88.02226337273525,88.90463644520786,89.36128561763617,90.64817416879754,89.48069944630639
55.6641,90.66744685602012,88.65813909347482,89.54140412680749,89.99414047332864,91.19897089791706,90.10020597479348
58.5938,91.29281710573979,89.06949155532021,90.09192778655319,90.54716336003891,91.53774931114695,90.5951840614546
60.0586,91.51130449597856,89.25969473104074,90.31005436955881,90.72893429688796,91.583932989789,90.7601026954824
62.9883,91.89401126046,89.61233208298579,90.68262528979672,91.06049137729728,91.74618030348856,91.07413269707143
64.4531,92.00166795289844,89.69937264614938,90.78460749991234,91.14314806678817,91.75326723985135,91.1495151060428
67.3828,92.16971834718721,89.83049658640361,90.93307176459581,91.27536737235695,91.79177761886379,91.27200890734994
68.8477,92.2562258563652,89.87638213615239,91.01058559891995,91.32688665093914,91.75718073071045,91.31695572143434
71.7773,92.36318337937676,89.88961691365631,91.1112658340922,91.32416888475889,91.45667916930783,91.29988700945282
74.707,92.38827234132829,89.85717825140281,91.12668262539457,91.29978709185211,91.28960393488794,91.26559093352371
77.6367,92.21439380978738,89.62069879622233,90.92273559107062,91.09625030464434,91.09084797347171,91.06589701434919
79.1016,92.12898462465454,89.49563899784081,90.83098095744913,90.9833501644811,90.93953806898756,90.95485047123061
82.0312,91.97619574641044,89.31047694862583,90.70827799194495,90.77733507302257,90.52694559610734,90.74199722167376
84.9609,91.86465771692419,89.18795573598494,90.60912951897134,90.58527953917682,90.11638948813456,90.55968528018182
87.8906,91.59819586479023,88.83518593666601,90.30583109544432,90.26300917289302,89.74575248485135,90.24330991888307
90.8203,91.29971464980727,88.54732153220039,90.02249549985879,89.93039330083626,89.346549572197,89.92481014975596
95.2148,90.7992142304887,87.91441351270703,89.47465026829862,89.32250245038654,88.69226089730901,89.3473124479692
98.1445,90.46867553448467,87.47295921199847,89.14161143291521,88.89390853821895,88.0794019049105,88.93342232636485
101.074,90.19493090894521,87.12977161330079,88.88226986164707,88.538717700315,87.51904259806258,88.59075658603135
105.469,90.27450288877151,87.0014979898908,89.02894207415753,88.47039213310427,86.89957806843252,88.52371838908452
108.398,90.74481113730485,87.42041084821511,89.56302016070433,88.95482200620884,87.08308093782543,88.96577592497314
112.793,90.76174712554834,87.36723412359535,89.53708924775117,88.93660007763943,87.03938091114955,88.948249272827
117.188,90.45911945740858,87.0821599253818,89.25526519222741,88.61414122445866,86.67470883889581,88.64095454525616
120.117,90.46867537512753,87.05749498588148,89.27897485332969,88.55748061093409,86.33991878189332,88.59347904719937
124.512,91.0252801217203,87.42635573890763,89.80689672617864,89.09207954088812,86.91705986256436,89.11554662229499
128.906,90.85574513893255,87.2953017715924,89.62919198322034,88.8927616635832,86.70858427005336,88.93875321704483
133.301,90.83430284833605,87.24059588450253,89.59833045178638,88.84964113044126,86.59392120604929,88.89519244974913
139.16,90.54350143748192,87.09975076027564,89.33027600270555,88.58060358664162,86.15024005744965,88.61721467653986
143.555,90.20892536405967,86.67173322407551,88.89371818006552,88.15581279077882,85.90417916482828,88.23804532552869
147.949,89.72669973898265,86.07769052326317,88.36886211379003,87.60398589560793,85.47112786673294,87.72266180580795
153.809,89.73414299344783,85.8281174278307,88.45209022737305,87.38352467784544,84.7903820343912,87.59251498529146
159.668,90.28015380272002,85.61479335324898,88.89737716190312,87.75038145641794,84.38046670838807,87.89105352797554
165.527,90.32588293001426,85.33641793681386,88.92223835162679,87.62726309257786,83.9673951512718,87.82218503358337
171.387,91.13188638388391,86.10971477615145,89.66706869233133,87.95723964651026,82.94317793289038,88.39345791524036
177.246,91.4180579117503,86.53315037562686,90.07667492655152,88.86381668483642,85.54079692149594,89.01133729903407
183.105,90.16250109861952,85.3396574102395,88.82506015066386,87.76253002202252,85.5243935463897,87.92005015120526
188.965,90.47429816783414,85.30533720422366,89.28703966353679,87.85852617855116,84.80440812710432,88.0838615971873
196.289,91.39053785778593,86.23994575987129,90.35620528278507,89.08445407352897,84.67110848134398,89.01640113529801
203.613,90.78952792255225,86.22879999679336,89.99755612801565,88.84266662551954,84.7208496525935,88.67002580906464
210.938,90.17332592443512,85.76173198635922,89.09759786261489,88.04712657773766,85.10825937161945,88.05093281121347
218.262,90.53713890836946,85.68543732241855,89.45338333948922,88.23593873973945,84.0347082787502,88.19947675657922
225.586,90.24044591178071,85.65070733490353,89.30341199402153,88.29864337839601,84.62505939333782,88.11845557061176
232.91,89.92362089629214,84.95722557227056,88.82027605011825,87.80376630802472,84.92939976451868,87.74083729415969
241.699,89.23524484102644,81.86096020054836,87.22235149851434,86.61876343109589,84.70809937396496,86.57876123384011
250.488,88.22891100991987,82.80791258052639,87.74569667103195,85.96164125886648,85.08257040349207,86.37084485284312
259.277,90.52850416024668,85.21378825627517,90.14692698765357,88.14158674142972,82.79684044232896,88.24552095440043
268.066,90.18637863279494,86.00335868714289,90.28640458384628,89.25946176364094,82.37011146911641,88.48343498946791
276.855,88.79211915245443,85.01813230506485,88.6222715231554,88.57359667595813,84.07241675244904,87.44820221623917
287.109,91.13609007173858,81.9164641178913,88.93218373755508,87.62023362653883,85.10060822005435,87.97718439986485
297.363,92.49546768170038,82.05459880104412,90.4661019178861,88.38436200733197,82.1007787767134,88.92291460283802
307.617,92.14706856935224,84.96749154443734,91.50435403423182,89.77702407617085,82.56593610893904,89.54030977354249
319.336,90.63307912664067,85.27699902614819,90.23451220753267,89.25134981408704,83.01536911520697,88.56288907115126
329.59,90.86883357215788,85.05994006632385,90.37805949299569,89.37839938714211,83.81703941634535,88.73961461170143
341.309,91.08651072789904,85.01808017203942,90.29023035141972,89.56967051304873,84.50269217909822,88.8745862595426
353.027,91.91872724299867,85.05857496070918,91.1272638080575,89.71674301132573,83.9331639881027,89.40178222157539
366.211,91.18330850832683,84.90134258383947,90.89736601886398,89.829108126807,84.21588109021009,89.11397664095679
379.395,90.30051821162704,84.98088126905603,90.1654937026845,88.40811085437338,83.02804782344717,88.22072681149308
392.578,90.22526735753486,84.98821026361982,90.1287680444214,88.5891449815754,83.28896562574909,88.2407166870698
405.762,89.97321323946387,83.94764004728002,89.89345496628039,88.35380143297662,84.14309360056234,88.00979285502292
420.41,91.82816006755351,83.3687986234126,90.56673684857417,87.91797505990033,83.26163311183035,88.70530160585956
435.059,92.09157712511171,83.57701731865541,90.96606831875526,88.1876260294065,83.22603658860223,88.99237334215772
451.172,91.2059649833469,82.49251145162118,90.5819924537833,88.65376223856246,83.9968849948435,88.60393249970612
465.82,89.89708950503851,82.52007171028384,90.455881647724,86.53739510783555,83.52274410527401,87.6959976721156
483.398,90.68222439239136,83.71895378469921,89.59117316811393,85.7064286509331,81.27631220668727,87.51579922041404
499.512,90.28680492611791,82.58733209816697,88.92806498496594,85.33827190602963,80.65215448460842,86.97060869470852
517.09,91.59636996419792,83.67157848210765,89.0743034717438,83.86439109650507,80.611118867716,87.54919473949145
536.133,92.18882859938161,83.05202579838792,90.51711680647173,86.42680010388185,81.17874597404993,88.51760077904709
555.176,90.27187371048804,82.82306493111713,89.8305784879696,86.86242322431916,80.32094814838153,87.4991134499782
574.219,91.1275770126943,83.68438014654677,89.46829706113945,85.61860148352723,80.81693166059637,87.63448693386357
594.727,91.04574541024436,83.15014048302403,88.74790797390224,85.13689103457074,78.96787107277368,87.21569145514543
615.234,92.1130144547119,84.21409969198372,90.20862149098295,87.85811670285011,80.70506665473914,88.65467961888737
637.207,91.89856474080165,82.97292730575936,91.06653152562218,88.14233781259544,79.90015922728355,88.7790756594748
659.18,91.85164762235533,80.90429308688734,89.97916603159399,86.8247216979332,78.88095764627593,88.07356237949067
682.617,91.21367400930048,81.20191889252247,89.69091080109465,86.31878429996206,79.42663125880664,87.63676764542465
707.52,90.93964068456538,81.15953972298692,89.30892050447356,85.49655533259518,77.65894596806973,87.22288874804471
732.422,90.51232602261477,81.67691189219917,88.71357726262234,84.53518412514333,75.87470609742138,86.70018423446052
757.324,90.8692425623704,82.23208846334755,88.00336029692758,84.04799971609154,74.74667631632957,86.6351869281267
785.156,88.04694597111978,80.42913966983802,88.96120247478746,83.75885680992774,76.53956484449282,85.60662849789027
811.523,89.45065970090619,82.78787531022898,87.60965429944874,82.56652914868248,75.30981929935918,85.71115147676437
840.82,87.94251006611995,82.12231912285128,88.27864511630253,82.60581609184852,73.48685166225032,85.2191621369841
870.117,88.91666307139164,80.47336737775578,89.09527236082481,84.03527378074514,74.86707032265772,85.99140395573878
900.879,88.40624888546483,82.88648034115346,89.75379509352567,84.34118528104166,75.5185656326153,86.31330750969475
933.105,86.89100319610114,82.53286930092129,89.74037686747556,84.433475825666,76.06085162924715,85.86101438491175
965.332,89.0132816488437,81.99794773014852,89.5629958405705,84.3389955617192,75.44546918751642,86.3670215920966
1000.49,87.73703888479693,80.46957091330256,90.19173461847552,84.54495598276725,76.54963684737609,86.19175969166969
1035.64,86.32437256176007,81.47563977870269,90.18682582295368,84.40082519218623,75.65860476842266,85.85613456980764
1072.27,87.05655999372617,82.01844483409646,89.84029976215425,84.30323518531004,77.26402048283992,85.9182799935651
1108.89,87.32305369951132,80.06426802527116,89.15944427316653,82.92447773061602,75.68262455962346,85.31096904943377
1148.44,85.60305458403455,80.56245192283092,88.67875915201303,83.55013752729285,74.01953198318733,84.67329122840668
1189.45,83.72459235444464,80.18672147186851,88.87517574885337,81.99542827301417,74.03394149498544,84.13503796790391
1230.47,83.16409564946476,80.9953508710557,88.29262611889057,81.8030004481659,76.03073200483207,83.80014854938213
1274.41,82.23490474349909,80.15993638082395,88.05111138968827,81.41244350177729,73.30151000035919,83.30128595478897
1319.82,82.35896733650259,84.787382918443,88.9217731200279,83.17657552549264,76.40805878900267,84.78552637721728
1366.7,80.55807683026532,85.12752090951886,90.06831818572323,84.3109210393905,75.93738664952154,85.47600061516823
1413.57,81.92845906983992,85.48234277982618,90.74290496748645,85.04029796047858,78.15790900784125,86.1918594759413
1463.38,82.04115472846091,87.25179742128618,91.5932296456879,86.33922787255266,77.57539911080235,87.1965601758663
1516.11,85.2356982456643,87.33389065850525,91.40527443305413,86.46156495391942,78.510955357806,87.43648680131318
1568.85,86.17451419008971,87.10997147373192,91.69079569603676,86.53862975060031,78.40642047663775,87.6706786515716
1624.51,87.34431626973716,85.93559449910816,90.43020647810111,86.24060298040061,77.86777389964138,87.02586731251711
1681.64,87.60066484213225,87.13386037501161,89.5322817944508,85.59747344001032,76.72818819726423,86.8128630262489
1741.7,87.95755577175201,86.238788873333,89.76260582598093,85.52979509431819,76.33093026975494,86.79873622989858
1803.22,88.19385692043589,86.4590515777477,90.00008282487622,86.7791885359463,76.71388466371613,87.20247911594038
1866.21,89.06742850335674,86.79961643363251,89.79863977277734,85.54199509976037,75.80079959775017,87.22029020856822
1932.13,88.54094588942704,87.24577330577003,88.27145704198769,85.06014702423238,73.78907792016945,86.55376654485435
1999.51,88.76712277528556,88.03197477412223,88.57047969101936,84.16203323648358,71.69499576237445,86.7824814172336
2069.82,88.92660042301657,89.28287326294955,88.56803593335378,84.70141997731618,71.90293857332964,87.25690197787972
2143.07,88.35643316295884,89.0205803809682,89.59250575907775,84.9665886746238,72.6973644195405,87.36536582791192
2219.24,89.21367900844375,88.89775538551947,89.06924291747364,84.65828919866011,71.4313967509739,87.36162498276121
2296.88,88.77755097062348,89.70787293021993,88.97984194861222,83.3864720104751,72.44888375359444,87.34949289489794
2378.91,89.45274759908203,89.56770424723129,89.8570974520441,85.23417707332244,72.36291266602032,87.93157169879107
2462.4,89.58644716569914,89.85662254813963,90.20757030894092,85.07217026725257,71.8021199574022,88.14556480417909
2548.83,89.52248191443233,89.16199363433262,90.1301057042638,84.98287880635468,72.62705878045918,87.90158251852816
2639.65,89.25505868756798,88.9614264206649,90.16716351787446,85.35471859585016,71.59129295754846,87.81968830205372
2731.93,88.85426076400628,89.32933692560044,90.61217351867265,85.6511588937567,73.34719584060066,88.01457458436418
2828.61,88.97346652090683,88.95377106125176,91.07025358580555,86.18195673015214,72.35877041438667,88.1785858983347
2928.22,88.34684480961832,88.60556184270825,90.53674640649032,86.29090628861115,71.92839840325655,87.75480628910987
3030.76,88.48694745083722,88.61011427913608,91.25739471762341,85.62657610924582,72.01734211498619,87.99197044778238
3137.7,88.65439732456173,89.39012752352653,90.7476845377467,86.01958560152408,72.68582785817068,88.0738460764729
3249.02,88.87908322719412,88.48979231484492,91.32780499938237,86.84007470080246,72.961066055186,88.24681536253104
3363.28,89.00193948307744,88.04091409908337,90.798489345488,86.91907672276905,71.34257698627407,87.97823579702218
3481.93,88.79440136659679,88.1936036362611,90.60005673127566,86.90224933933463,70.14116402093393,87.8758131477965
3604.98,88.67258799428035,87.78358025778111,90.5516438866306,87.12977907678918,69.68818926210851,87.77871691357448
3732.42,88.98574207165906,87.45705920113241,90.49098469988245,86.68275739687039,69.60333962551054,87.69854780485966
3864.26,88.86672726101267,86.54701366737804,90.82020105322563,86.62218299506507,70.0621675733496,87.63324785544211
4000.49,89.46178781707373,86.39037702437909,90.55657794106025,86.10249876779145,68.90551528859987,87.59080053697078
4141.11,89.11571210462311,85.76338737964862,90.30648710075376,85.55021414917118,67.82589949380531,87.21133772245422
4287.6,89.00255761646335,85.02687436165174,90.99546339556412,86.21191392290362,68.25503597254814,87.47458979774055
4438.48,89.04769807537222,84.87251481691655,90.46305743964588,86.126333322415,69.59216342768087,87.22906348807476
4595.21,88.64844387082479,84.19644646697229,91.03683868109209,86.76793979551734,69.96927938757534,87.40372565774726
4756.35,88.72707077077835,84.47352297426364,90.5377613230846,86.51938524039099,69.58104579663174,87.18609592108751
4924.8,88.56236629291476,84.20341315668,91.28637066807804,87.13131767962548,67.81501843888294,87.55688106337419
5097.66,88.24589404160875,83.56037372499307,90.83200837531999,86.5030146014122,68.33872565006163,87.09217639747095
5277.83,87.72012217617586,84.19423301811912,91.67080020304603,87.3358788933342,68.84985930220506,87.59307144050722
5463.87,87.79135453384895,84.0706469835427,91.37951032676236,87.13187619997326,66.785000529032,87.4067302846103
5657.23,87.76555692010425,84.6139186857308,91.39157522156056,87.30693303740125,69.13236653283204,87.4987795923603
5856.45,87.80396254356098,84.50700855732548,91.21178903469065,86.87347852905505,68.10875854417819,87.32475733400949
6062.99,87.52407814234809,83.35660950679299,91.10325717784451,86.56928857966957,70.03713773753736,87.05048764817617
6276.86,87.23692172441234,83.25981540030874,90.98524132845677,86.05707204419164,67.1670324287791,86.82027946462011
6498.05,86.58855763330335,82.73353817020481,90.48204512255033,85.62410601626135,67.3202210612045,86.29699318978157
6726.56,86.09671839705649,83.13192895785079,90.71573612073009,85.90670969039905,67.89453748824619,86.41021773711594
6963.87,85.81719816276629,82.68973525263763,90.73032387087596,85.70041748451531,66.80365627223671,86.28788934836378
7209.96,85.70567646160427,82.45733471644593,91.04720761192324,85.45113919508918,66.50760268446462,86.38711586768389
7464.84,85.62969816070716,82.7274449975634,91.43187637046873,85.94447162338551,67.06482513117683,86.70551702953134
7727.05,85.18377211634713,82.6650546877047,92.31804076672204,86.76588002111896,68.70818860309969,87.32753436205412
7999.51,85.40695395399489,83.01997613534304,92.64517276898391,86.70924724938851,68.82519951992157,87.57825213060366
8282.23,85.85875264161626,83.4629144526045,92.77715686688245,86.72252643816968,68.4826350784663,87.7524911560178
8573.73,83.87414396028773,81.47115078784739,90.65079530616953,84.67220186752883,66.32485182698778,85.66678299108274
8876.95,83.03206601995345,80.47923954367037,89.69383491466446,83.47063193814576,65.50948066824353,84.6850131751181
9188.96,84.8662235748493,81.73472501081746,91.46444118461233,84.91062628133028,66.49615321796696,86.37690311998064
9514.16,85.72591786171026,81.46217505635619,92.1410985852672,85.46348566616629,66.36312488470946,87.00217163581213
9849.61,86.79592836946813,80.81909052318113,92.39182545465981,85.52365318317065,67.41199149871215,87.31706755155892
