Freq,On Axis,Listening Window,Sound Power,Early Reflections,Early Reflections DI,Sound Power DI,DI offset
22.4,21.400000000000006,21.400000000000006,21.27339313198786,21.318073323537135,20.08192667646287,20.126606868012146,20
23.0,22.299999999999983,22.299999999999983,22.227098793464506,22.26251736163792,20.037482638362064,20.072901206535477,20
23.6,23.200000000000017,23.200000000000017,23.093322275517295,23.148248041405083,20.051751958594934,20.106677724482722,20
24.0,24.099999999999994,24.099999999999994,24.007225360959723,24.052362525951423,20.04763747404857,20.09277463904027,20
25.0,24.900000000000006,24.900000000000006,24.85422602188109,24.882273584308564,20.017726415691442,20.045773978118916,20
25.8,25.799999999999983,25.799999999999983,25.754226021881067,25.78227358430857,20.017726415691413,20.045773978118916,20
26.5,26.700000000000017,26.700000000000017,26.579081567190258,26.62014539650181,20.079854603498205,20.12091843280976,20
27.2,27.599999999999994,27.599999999999994,27.473393131987876,27.518073323537152,20.081926676462842,20.126606868012118,20
28.0,28.400000000000006,28.400000000000006,28.34051232685198,28.37314056054666,20.026859439453347,20.059487673148027,20
29.0,29.299999999999983,29.31122549985841,29.25471133182114,29.28227358430854,20.028951915549868,20.056514168037268,20
30.0,30.200000000000017,30.200000000000017,30.135572213160913,30.171093624513446,20.02890637548657,20.064427786839104,20
30.7,31.099999999999994,31.122422059205178,31.05519658753542,31.08227358430858,20.040148474896597,20.067225471669758,20
31.5,32.099999999999994,32.099999999999994,31.993681939896987,32.039626500246726,20.06037349975327,20.106318060103007,20
32.5,33.0,33.0,32.931369658679614,32.96904572325431,20.03095427674569,20.068630341320386,20
33.5,34.0,34.0,33.88077714344888,33.93549992619998,20.06450007380002,20.11922285655112,20
34.5,34.900000000000006,34.900000000000006,34.80906626617684,34.852362525951435,20.04763747404857,20.090933733823164,20
35.5,35.79999999999998,35.79999999999998,35.75329893635373,35.78023094938101,20.019769050618976,20.046701063646253,20
36.5,36.79999999999998,36.79999999999998,36.68954323077955,36.74618933644214,20.05381066355784,20.110456769220434,20
37.5,37.70000000000002,37.70000000000002,37.61921225633628,37.66301056302186,20.03698943697816,20.080787743663734,20
38.7,38.599999999999994,38.599999999999994,38.52423750781608,38.56699685585849,20.033003144141503,20.075762492183912,20
40.0,39.5,39.5,39.4165071338594,39.46301056302184,20.03698943697816,20.083492866140602,20
41.2,40.400000000000006,40.400000000000006,40.284216169548785,40.34218389018798,20.057816109812023,20.11578383045122,20
42.5,41.29999999999998,41.25583957685777,41.15909849239529,41.197724000030234,20.058115576827532,20.09674108446248,20
43.7,42.099999999999994,42.099999999999994,41.99139164485118,42.046189336442126,20.05381066355787,20.108608355148817,20
45.0,42.900000000000006,42.900000000000006,42.81150245857958,42.86095884577125,20.039041154228755,20.088497541420423,20
46.2,43.70000000000002,43.70000000000002,43.62090763319722,43.66494702141404,20.03505297858598,20.079092366802797,20
47.5,44.599999999999994,44.533589826879975,44.42675558267223,44.46990821838614,20.063681608493837,20.106834244207747,20
48.7,45.3,45.31122549985842,45.21032324693853,45.26095884577127,20.050266654087153,20.100902252919894,20
50.0,46.2,46.15583957685776,46.02581760709111,46.08045909088885,20.075380485968907,20.130021969766645,20
51.5,46.900000000000006,46.91122549985843,46.801156638850046,46.8568525011288,20.054372998729633,20.110068861008386,20
53.0,47.7,47.71122549985843,47.597978042322495,47.654844651785396,20.056380848073033,20.113247457535934,20
54.5,48.599999999999994,48.555839576857764,48.40316448032499,48.47239345774173,20.083446119116033,20.152675096532775,20
56.0,49.400000000000006,49.400000000000006,49.241693324092125,49.32302545919825,20.076974540801757,20.15830667590788,20
58.0,50.2,50.2,50.07735869569754,50.145750947135625,20.054249052864378,20.122641304302462,20
60.0,51.099999999999994,51.099999999999994,50.928735355794245,51.012257606644866,20.08774239335513,20.17126464420575,20
61.5,52.0,52.0,51.827325920008704,51.91402740359703,20.085972596402968,20.172674079991296,20
63.0,52.900000000000006,52.900000000000006,52.69952529225483,52.790496342474114,20.10950365752589,20.200474707745173,20
65.0,53.8,53.8,53.63379718870732,53.718058890517085,20.081941109482912,20.166202811292678,20
67.0,54.8,54.77797591781378,54.54768349846144,54.65034808544709,20.127627832366684,20.230292419352338,20
69.0,55.70000000000002,55.70000000000002,55.497806717902904,55.60604940889573,20.09395059110429,20.202193282097113,20
71.0,56.7,56.65583957685777,56.415859359841846,56.5278185252358,20.12802105162197,20.239980217015926,20
73.0,57.599999999999994,57.599999999999994,57.33779596243076,57.46862801779925,20.131371982200747,20.262204037569234,20
75.0,58.599999999999994,58.522422059205184,58.256732742417796,58.38353248479552,20.13888957440966,20.265689316787387,20
77.5,59.5,59.4447289505772,59.14997535901503,59.29237583350972,20.152353117067477,20.29475359156217,20
80.0,60.3,60.3,59.99972368169263,60.15212228995779,20.14787771004221,20.30027631830737,20
82.5,61.2,61.17797591781378,60.82559612882815,60.99766189135508,20.180314026458703,20.35237978898563,20
85.0,62.0,61.97797591781378,61.61373528061148,61.79386100451026,20.184114913303517,20.3642406372023,20
87.5,62.8,62.75583957685777,62.34823579815283,62.54791077659375,20.207928800264014,20.40760377870494,20
90.0,63.5,63.4447289505772,63.0165020081058,63.22012669867638,20.22460225190082,20.428226942471397,20
92.5,64.1,64.07797591781377,63.62606702112184,63.84211321297413,20.235862704839647,20.451908896691933,20
95.0,64.69999999999999,64.67797591781377,64.19631860128816,64.4250995829274,20.252876334886366,20.481657316525613,20
97.5,65.2,65.17797591781378,64.66941829532033,64.92557108115061,20.252404836663175,20.508557622493456,20
100.0,65.6,65.6,65.07744594417542,65.33393585110913,20.266064148890862,20.52255405582457,20
103.0,66.0,65.97797591781378,65.39641184409656,65.68420955777312,20.293766360040664,20.581564073717217,20
106.0,66.3,66.25583957685775,65.66690084304071,65.96301234232044,20.292827234537313,20.588938733817045,20
109.0,66.5,66.47797591781378,65.83786459222227,66.153845263251,20.32413065456278,20.640111325591505,20
112.0,66.7,66.58925841531061,65.9352425412167,66.26064800567609,20.32861040963452,20.654015874093915,20
115.0,66.7,66.65583957685777,65.96561546146211,66.31302470251518,20.342814874342594,20.690224115395665,20
118.0,66.7,66.65583957685777,65.93869786764854,66.28557519697976,20.37026437987801,20.71714170920923,20
122.0,66.7,66.60051167804048,65.85467845781488,66.22591966132785,20.374592016712626,20.74583322022559,20
125.0,66.6,66.5340975629221,65.75030217144412,66.13529390068217,20.398803662239928,20.78379539147798,20
128.0,66.5,66.4340975629221,65.63788368594652,66.03013320489455,20.40396435802755,20.796213876975585,20
132.0,66.4,66.37797591781379,65.5535292716102,65.94971101705903,20.428264900754755,20.824446646203583,20
136.0,66.4,66.33409756292212,65.49102891638165,65.9086841930326,20.425413369889526,20.843068646540473,20
140.0,66.4,66.33409756292212,65.46622469846112,65.89570628050727,20.438391282414855,20.867872864461006,20
145.0,66.4,66.31173585711585,65.43263529382335,65.86027224387479,20.45146361324106,20.879100563292496,20
150.0,66.4,66.3005116780405,65.41558539441954,65.8458751943237,20.454636483716797,20.884926283620956,20
155.0,66.3,66.2340975629221,65.34385494324317,65.78164535249252,20.452452210429584,20.89024261967893,20
160.0,66.2,66.13409756292211,65.25307202381876,65.68731995874617,20.446777604175935,20.881025539103348,20
165.0,66.1,66.03409756292211,65.12340175537939,65.56578918529235,20.468308377629768,20.910695807542723,20
170.0,66.0,65.93409756292212,65.00142610558535,65.45311357496166,20.480983987960457,20.932671457336767,20
175.0,65.9,65.83409756292211,64.90802644494357,65.35311357496167,20.480983987960443,20.926071117978537,20
180.0,66.0,65.8454944791988,64.90690835044971,65.36205423399397,20.483440245204832,20.938586128749094,20
185.0,66.1,66.01274477799038,65.00538435321982,65.48160969776573,20.531135080224644,21.007360424770553,20
190.0,66.3,66.21274477799038,65.17507015959995,65.6737065664078,20.53903821158258,21.037674618390426,20
195.0,66.6,66.44701360926962,65.3680866244188,65.88103808934198,20.565975519927633,21.078926984850824,20
200.0,66.80000000000001,66.66971018796762,65.5088358821095,66.0583213383895,20.61138884957812,21.16087430585813,20
206.0,66.9,66.76971018796762,65.5357122376579,66.10651155576126,20.66319863220636,21.233997950309714,20
212.0,66.9,66.70328449402552,65.42245097491667,66.0195267004813,20.68375779354423,21.280833519108853,20
218.0,66.7,66.51476245148908,65.16420143261749,65.79164202218394,20.72312042930514,21.350561018871588,20
224.0,66.4,66.24901542823476,64.82695759248682,65.47794972269108,20.771065705543677,21.422057835747935,20
230.0,66.3,66.06063752019827,64.5597814317517,65.24285623669651,20.81778128350176,21.500856088446568,20
236.0,66.3,66.06063752019827,64.50938061071436,65.22982794423716,20.830809575961112,21.55125690948391,20
240.0,66.5,66.26063752019827,64.60155812815935,65.36522729929739,20.895410220900885,21.65907939203892,20
250.0,66.6,66.4286960173745,64.6841207531184,65.51143022748217,20.91726578989234,21.7445752642561,20
258.0,66.7,66.5286960173745,64.62082137847531,65.52485084725609,21.00384517011841,21.907874638899187,20
265.0,66.7,66.5286960173745,64.5011212533473,65.51162825424885,21.017067763125652,22.027574764027193,20
272.0,67.0,66.80681734560616,64.58589564940084,65.6970766750389,21.109740670567263,22.220921696205323,20
280.0,67.4,67.20681734560614,64.85655432176979,66.07283283226745,21.13398451333869,22.350263023836348,20
290.0,67.8,67.56363182410125,65.10206407390366,66.38816590610597,21.175465917995282,22.461567750197588,20
300.0,67.9,67.66363182410126,65.11975561991758,66.45219713504898,21.211434689052282,22.543876204183675,20
307.0,67.8,67.58676720294032,64.92963199690021,66.3107346099828,21.27603259295752,22.65713520604011,20
315.0,67.7,67.44384286412335,64.7074719204871,66.14160237044743,21.302240493675924,22.73637094363626,20
325.0,67.8,67.50251655429953,64.61516190580807,66.10164227554861,21.40087427875092,22.887354648491467,20
335.0,68.1,67.73793451608317,64.66065142122554,66.26515341373698,21.47278110234619,23.077283094857634,20
345.0,68.29999999999998,67.85013461874148,64.5548037444129,66.27238678051586,21.57774783822562,23.295330874328585,20
355.0,68.0,67.59542515610899,64.10040343044133,65.9586760949611,21.63674906114788,23.495021725667655,20
365.0,67.6,67.16202399355363,63.565159889281475,65.50931840003969,21.652705593513943,23.596864104272157,20
375.0,67.8,67.44985729134677,63.89279510811616,65.86548970334096,21.58436758800582,23.557062183230613,20
387.0,68.7,68.33090076176758,64.90115711394931,66.8182289311908,21.512671830576778,23.42974364781827,20
400.0,68.9,68.56174742436448,65.3588493924012,67.18396292114902,21.377784503215466,23.202898031963286,20
412.0,68.20000000000002,67.89542515610898,64.86603292398624,66.61643307839728,21.278992077711706,23.029392232122746,20
425.0,67.5,67.14284283604019,64.15537705999957,65.86481952772881,21.278023308311376,22.987465776040622,20
437.0,67.5,67.1122954506123,64.08186899814405,65.81370465215429,21.298590798458008,23.030426452468248,20
450.0,67.5,67.08487025125702,63.945124604416634,65.7144853111019,21.37038494015512,23.13974564684038,20
462.0,67.19999999999999,66.69139987003263,63.55397013685868,65.30775529560444,21.38364457442819,23.137429733173946,20
475.0,67.19999999999999,66.65272231604743,63.668646534725525,65.32472413684458,21.32799817920285,22.984075781321906,20
487.0,67.5,66.88085429509148,64.0964111202889,65.59213569608772,21.288718599003758,22.784443174802576,20
500.0,67.0,66.2741363547649,63.63815062412061,64.93672854096236,21.337407813802542,22.635985730644293,20
515.0,66.0,65.26799367903848,62.47435260353005,63.68672321300669,21.581270466031796,22.793641075508432,20
530.0,66.6,65.8472907187452,62.49076298574042,63.86859427986158,21.978696438883617,23.356527733004782,20
545.0,67.19999999999999,66.48327754762323,62.355217132109885,64.18781408712486,22.295463460498368,24.128060415513346,20
560.0,67.1,66.46446611219118,61.83691143811782,64.14325679865237,22.3212093135388,24.62755467407335,20
580.0,67.1,66.46816855562894,61.74123375979755,64.27198681989952,22.19618173572941,24.726934795831383,20
600.0,67.19999999999999,66.61446342789066,62.08284281570869,64.58746495884287,22.026998469047783,24.531620612181968,20
615.0,67.4,66.74039879586307,62.353090936165614,64.79216376468206,21.948235031181014,24.387307859697458,20
630.0,67.4,66.62226892167507,62.16231740524391,64.66727667456783,21.954992247107242,24.45995151643116,20
650.0,67.4,66.57168115650619,61.95783507315039,64.5812524751149,21.990428681391293,24.613846083355796,20
670.0,67.3,66.37425062508147,61.692643321709156,64.32675812371669,22.047492501364786,24.681607303372317,20
690.0,67.6,66.51539686245759,61.776533086456595,64.3481051686781,22.16729169377949,24.738863776000997,20
710.0,68.1,66.95858035080026,61.93298609499229,64.55828166417982,22.400298686620445,25.025594255807974,20
730.0,68.5,67.43230432650061,62.05587084509402,64.84223412399301,22.590070202507604,25.376433481406593,20
750.0,68.5,67.44632714530604,61.91716460071531,64.78731915248972,22.659007992816328,25.529162544590733,20
775.0,69.4,68.27251871938334,62.578901758049454,65.49184386419536,22.780674855187982,25.693616961333888,20
800.0,70.2,69.07251871938334,62.96730359344362,66.09660979266567,22.975908926717665,26.105215125939722,20
825.0,70.4,69.40158831966232,63.208192379203865,66.5288864052465,22.872701914415828,26.19339594045846,20
850.0,71.0,70.02794788044898,64.19773181349248,67.4564366165465,22.57151126390248,25.830216066956496,20
875.0,71.1,70.01263816633133,64.52875554953917,67.68057728062742,22.33206088570391,25.483882616792158,20
900.0,71.1,69.87251679610404,64.50542170967233,67.63420073012487,22.238316065979163,25.367095086431704,20
925.0,71.0,69.81634809757969,64.20946216979051,67.48725523752475,22.329092860054942,25.60688592778918,20
950.0,70.6,69.42755799542876,63.73434059266552,67.11371729088877,22.313840704539984,25.69321740276324,20
975.0,69.6,68.4053653426568,62.8463398942247,66.08282233307227,22.32254300958452,25.559025448432095,20
1000.0,69.6,68.26559762935132,62.47941473617769,65.71524151152825,22.55035611782307,25.78618289317363,20
1030.0,69.69999999999999,68.47251679610403,62.47755105366991,65.84418270204768,22.628334094056356,25.99496574243412,20
1060.0,70.79999999999998,69.59915784966411,63.5982947223205,66.9503208534118,22.648836996252314,26.000863127343607,20
1090.0,70.6,69.43922029126117,63.20713089384894,66.64721283575328,22.792007455507886,26.232089397412224,20
1120.0,70.9,69.66783298524726,63.29915141948295,66.8067727912283,22.86106019401896,26.368681565764305,20
1150.0,70.6,69.40818409140671,62.94122726152385,66.34954374339496,23.05864034801175,26.46695682988286,20
1180.0,70.79999999999998,69.741399379927,63.23826516171903,66.64493849296643,23.09646088696057,26.503134218207975,20
1220.0,70.6,69.58879582235937,63.09156007368466,66.54923828841143,23.039557533947942,26.49723574867471,20
1250.0,71.0,70.18387416178632,63.561995049368775,67.09112405453918,23.09275010724714,26.621879112417545,20
1280.0,71.1,70.53228612218203,63.88754105891847,67.44749350986457,23.084792612317457,26.644745063263557,20
1320.0,69.9,69.70953687369717,63.373825528526396,66.78198257905999,22.92755429463719,26.33571134517078,20
1360.0,69.9,69.97073545201454,63.70709454374486,66.9905647944847,22.98017065752984,26.26364090826968,20
1400.0,69.5,69.61631098441357,63.45963001360563,66.71557191367688,22.90073907073669,26.15668097080794,20
1450.0,69.6,69.54727835722142,63.34874090891512,66.54292976644686,23.004348590774555,26.198537448306297,20
1500.0,69.30000000000001,68.89438860564286,62.42313527861327,65.81511493499339,23.07927367064947,26.471253327029586,20
1550.0,68.8,68.19330769248742,61.45029583539332,64.94434007502232,23.248967617465098,26.743011857094103,20
1600.0,69.4,68.96705177411346,62.762677439605596,65.99438793637381,22.972663837739645,26.20437433450786,20
1650.0,69.2,68.72855918833733,63.05489362316278,65.95332190593167,22.775237282405655,25.673665565174545,20
1700.0,69.6,68.7050574297758,62.9326799767244,65.86966791633253,22.835389513443275,25.772377453051405,20
1750.0,70.1,68.89417729908273,63.17538780887878,66.17735412303968,22.71682317604305,25.718789490203946,20
1800.0,69.69999999999999,68.35084821824343,62.839993574577264,65.74848677928087,22.60236143896256,25.510854643666164,20
1850.0,69.5,68.0273770859296,62.541298153179525,65.405003038356,22.6223740475736,25.486078932750075,20
1900.0,69.8,68.18656007384344,62.83939341517862,65.59237675391371,22.594183319929726,25.34716665866482,20
1950.0,70.0,68.23229193508197,62.767581440746596,65.59425883830527,22.63803309677671,25.464710494335378,20
2000.0,70.0,68.13441112158993,62.55684745441944,65.38338772016985,22.751023401420085,25.577563667170494,20
2060.0,69.8,68.07835828055714,62.238515308654286,65.17726173787773,22.90109654267941,25.839842971902854,20
2120.0,69.0,67.67554356279295,61.9989932169095,64.86234672039353,22.81319684239942,25.676550345883456,20
2180.0,69.30000000000001,68.02175882180438,62.42674906899522,65.25767694728961,22.764081874514773,25.595009752809162,20
2240.0,70.2,68.76715967242508,62.843864928159604,65.7554919726505,23.011667699774577,25.923294744265476,20
2300.0,70.2,68.9735653106878,62.94579136563338,65.83797174808751,23.13559356260029,26.02777394505442,20
2360.0,70.3,69.33239738731882,63.44268249689253,66.27682166870215,23.055575718616666,25.88971489042629,20
2400.0,69.4,68.73467624271098,63.00895539383815,65.71425008006099,23.020426162649983,25.725720848872825,20
2500.0,68.9,68.34718066142575,62.81130068598682,65.45866651845563,22.888514142970124,25.53587997543893,20
2580.0,68.7,68.26038733392654,62.79141623169599,65.46216013342881,22.798227200497735,25.468971102230554,20
2650.0,68.6,67.91402706061488,62.45313787274844,65.10043744250487,22.813589618110015,25.460889187866442,20
2720.0,68.9,68.04667788197756,62.446528023123335,65.11354014544398,22.93313773653358,25.600149858854223,20
2800.0,69.8,68.84825521152574,63.00791816495007,65.75132589916822,23.096929312357517,25.84033704657567,20
2900.0,70.4,69.41702635686771,63.26306049872831,66.09092643736527,23.32609991950244,26.1539658581394,20
3000.0,70.70000000000002,69.78322962023246,63.398167027193125,66.26811651069904,23.515113109533416,26.385062593039336,20
3070.0,70.70000000000002,69.9023850446272,63.39937150259226,66.29593385214461,23.60645119248258,26.503013542034935,20
3150.0,70.70000000000002,70.08455342713492,63.34023717407557,66.2614705134551,23.823082913679826,26.744316253059353,20
3250.0,70.3,69.90199649997498,63.11415246155923,66.02375565764572,23.878240842329262,26.787844038415756,20
3350.0,70.4,70.36780713374912,63.739149228231014,66.53495411575753,23.832853017991596,26.62865790551811,20
3450.0,70.6,70.85651238345221,64.2351370980035,67.01856701018839,23.83794537326382,26.621375285448707,20
3550.0,71.3,71.63435553706587,65.07926759021419,67.84582773247394,23.788527804591936,26.555087946851685,20
3650.0,71.6,71.82267271156852,65.33259608864469,68.07768969385626,23.744983017712258,26.490076622923823,20
3750.0,71.6,71.72735797270153,65.37061862116198,68.08765599166169,23.639701981039835,26.356739351539545,20
3870.0,72.4,72.4428839333522,66.16481358066568,68.87645173016244,23.566432203189763,26.278070352686527,20
4000.0,72.19999999999999,72.3029627270605,66.28257383234518,68.9276910018783,23.375271725182202,26.020388894715325,20
4120.0,72.0,71.62599549193104,65.81872129038497,68.43254537511567,23.19345011681537,25.807274201546065,20
4250.0,71.80000000000001,70.90724197545232,65.0794373995096,67.79464009009212,23.112601885360206,25.82780457594272,20
