Freq "Listening Window"
20.5078 62.0531419898943
21.9727 60.884050246537015
23.4375 59.59186496685999
24.9023 60.732069144195805
26.3672 62.97645822875805
27.832 64.173075254357
29.2969 65.99124571996795
30.7617 68.236083179568
32.2266 70.91579828063679
33.6914 71.74286533424471
35.1562 72.6198675623503
36.6211 73.9281638984001
38.0859 75.89977705359644
39.5508 76.86022189784964
41.0156 77.70375652163752
42.4805 78.57791279966504
43.9453 79.31079141549276
45.4102 79.97413122635305
46.875 80.53852170626061
48.3398 81.1321603914444
51.2695 82.0146318543984
52.7344 82.43157827855498
54.1992 82.80683599287867
55.6641 83.18332235716879
58.5938 83.80943677670315
60.0586 84.09694256750782
62.9883 84.53868140755168
64.4531 84.84716279251225
67.3828 85.51607862433109
68.8477 85.72333965912357
71.7773 86.2870167639743
74.707 86.76605288416641
77.6367 87.12071302694062
79.1016 87.28967175810679
82.0312 87.60034662740742
84.9609 87.83098589597469
87.8906 88.19073845560109
90.8203 88.60280973108902
95.2148 88.85355826862715
98.1445 88.90878613049435
101.074 88.92236745671877
105.469 89.01009526970952
108.398 89.031060661446
112.793 88.78418490482979
117.188 88.4775612416075
120.117 88.56897097109484
124.512 89.28346221297667
128.906 89.11281171212762
133.301 88.9254238141646
139.16 88.622571058753
143.555 88.39983434160564
147.949 88.34394253565259
153.809 88.62716559471164
159.668 87.93966994349738
165.527 87.87970368116964
171.387 87.98913434587962
177.246 88.32597799871118
183.105 88.10477792360575
188.965 87.93139154454667
196.289 87.74614405914043
203.613 87.4477208727836
210.938 87.48926821949306
218.262 87.60734322266516
225.586 87.12112365786388
232.91 86.96068969914977
241.699 87.33201553793272
250.488 87.24085141935738
259.277 88.15706062793024
268.066 88.07617634784222
276.855 87.40329730199745
287.109 86.95128026381127
297.363 86.76834704691586
307.617 86.96226693584437
319.336 86.73435757795077
329.59 87.33915436433286
341.309 87.21195576980301
353.027 86.47448743558947
366.211 86.58580412471449
379.395 86.38321545966066
392.578 86.63403876766127
405.762 86.59974453196128
420.41 85.36747318964117
435.059 86.81397274462557
451.172 87.90614308241152
465.82 89.64201425932983
483.398 88.9881774960341
499.512 88.64867231072739
517.09 87.82956433455942
536.133 87.71429457322617
555.176 88.09070821432145
574.219 88.651439893203
594.727 88.88242446100465
615.234 88.99394753892096
637.207 88.81490539439307
659.18 87.71624751197955
682.617 87.45010786754248
707.52 87.95629182925303
732.422 87.39729465147379
757.324 87.83767638904159
785.156 87.41935984159944
811.523 87.76330112546434
840.82 88.27588705495376
870.117 88.48997096765048
900.879 88.71419302140401
933.105 87.7728171952869
965.332 87.19791089417797
1000.49 87.16246203052441
1035.64 88.8429127487116
1072.27 88.41190077592044
1108.89 88.22302441401276
1148.44 86.55413541353654
1189.45 86.58998095779748
1230.47 86.39314959168698
1274.41 86.1186097080851
1319.82 87.7470781936981
1366.7 87.35703278240898
1413.57 87.45562658396997
1463.38 87.5677358120484
1516.11 86.89760234864806
1568.85 86.80243319858363
1624.51 87.12596424373986
1681.64 87.18976235340185
1741.7 87.20630886870441
1803.22 88.26963144943991
1866.21 88.76940790948086
1932.13 88.77430002065492
1999.51 88.88328931592794
2069.82 89.36544576784684
2143.07 89.16952111631471
2219.24 88.53262045384511
2296.88 88.79630970662161
2378.91 88.77141458229653
2462.4 88.40889630520212
2548.83 89.0323040385053
2639.65 88.99118014196017
2731.93 88.61761276425916
2828.61 88.89021013209884
2928.22 88.69368129322048
3030.76 88.58446867964241
3137.7 88.53280998175627
3249.02 88.63945090385064
3363.28 88.66095416165388
3481.93 88.79284412958235
3604.98 88.86830529758956
3732.42 88.76601913422753
3864.26 88.9591331127359
4000.49 88.78077629171548
4141.11 89.09431729249194
4287.6 88.92905129608765
4438.48 88.87759722498794
4595.21 88.74044653141797
4756.35 88.64210774670555
4924.8 88.50397767490028
5097.66 88.89956843664243
5277.83 89.08137476745969
5463.87 89.25650865457752
5657.23 89.34852591341007
5856.45 89.61628296663181
6062.99 89.6123833750697
6276.86 89.46816722701001
6498.05 89.5764383114576
6726.56 89.50440867214853
6963.87 89.26618075121436
7209.96 89.14658937722074
7464.84 89.12064155838912
7727.05 89.20421355891484
7999.51 89.34578337372858
8282.23 89.3881706248922
8573.73 89.37497113961685
8876.95 89.28386755301955
9188.96 89.2091204369629
9514.16 89.36657882835081
9849.61 89.5236274755974
10196.8 89.70620031862502
10555.7 89.74735912053899
10927.7 90.05657636853697
11313.0 90.2794220260378
11712.9 90.27568959589986
12126.0 90.39143129199056
12553.7 90.58028434028554
12996.1 90.85419298276223
13454.6 90.86628108943307
13929.2 90.74828460471907
14419.9 90.46854481164624
14928.2 89.85732480364615
15455.6 89.05628899697666
16000.5 88.43036434026763
16564.5 88.18202612593517
17148.9 88.15698148829638
17752.4 88.08430186862113
18379.4 87.5008621011514
19026.9 86.02015252666015
19697.8 83.78787179442311
19999.5 83.00568005962701
