Freq,On Axis,Listening Window,Sound Power,Early Reflections,Early Reflections DI,Sound Power DI,DI offset
22.4,62.0,62.011225499858426,59.345243048778926,61.15266682846216,30.858558671396267,32.6659824510795,30
23.0,62.2,62.189001920046636,59.50413320766317,61.320305721875414,30.86869619817122,32.68486871238346,30
23.6,62.3,62.3,59.6134947041173,61.43642059478445,30.863579405215546,32.6865052958827,30
24.0,62.39999999999999,62.39999999999999,59.725565909091145,61.544270848691525,30.855729151308466,32.674434090908846,30
25.0,62.60000000000001,62.58900192004664,59.90413320766315,61.720305721875405,30.868696198171236,32.68486871238349,30
25.8,62.8,62.78900192004663,60.09528695050949,61.90413083056204,30.88487108948459,32.69371496953714,30
26.5,62.89999999999999,62.91122549985842,60.24010533500095,62.04427084869154,30.86695465116688,32.67112016485747,30
27.2,63.10000000000001,63.10000000000001,60.42733225518374,62.24427084869154,30.855729151308466,32.672667744816266,30
28.0,63.3,63.28900192004663,60.607174721158984,62.4281851324818,30.86081678756483,32.681827198887646,30
29.0,63.39999999999999,63.41122549985842,60.7452430487789,62.552666828462165,30.858558671396253,32.665982451079515,30
30.0,63.60000000000001,63.61122549985842,60.94524304877892,62.752666828462154,30.858558671396267,32.6659824510795,30
30.7,63.8,63.81122549985842,61.14524304877892,62.952666828462156,30.858558671396267,32.6659824510795,30
31.5,63.999999999999986,64.01122549985841,61.34524304877891,63.15266682846217,30.85855867139624,32.6659824510795,30
32.5,64.2,64.21122549985843,61.54524304877893,63.35266682846216,30.858558671396267,32.6659824510795,30
33.5,64.4,64.41122549985842,61.74524304877893,63.552666828462165,30.858558671396253,32.665982451079486,30
34.5,64.6,64.61122549985842,61.94524304877892,63.752666828462154,30.858558671396267,32.6659824510795,30
35.5,64.9,64.88900192004665,62.200337694667624,64.0203057218754,30.86869619817125,32.68866422537903,30
36.5,65.09999999999998,65.09999999999998,62.41349470411731,64.23642059478446,30.863579405215518,32.68650529588267,30
37.5,65.3,65.31122549985842,62.63687084111662,64.44427084869153,30.866954651166893,32.674354658741805,30
38.7,65.5,65.51122549985841,62.840105335000956,64.64427084869153,30.86695465116688,32.671120164857456,30
40.0,65.8,65.78900192004663,63.095286950509475,64.90413083056202,30.884871089484605,32.693714969537155,30
41.2,66.0,65.98900192004665,63.29528695050949,65.10413083056204,30.884871089484605,32.693714969537155,30
42.5,66.2,66.18900192004664,63.49528695050948,65.30413083056204,30.88487108948459,32.693714969537155,30
43.7,66.40000000000002,66.38900192004665,63.6952869505095,65.50413083056205,30.884871089484605,32.693714969537155,30
45.0,66.49999999999999,66.51122549985841,63.84010533500094,65.64427084869153,30.86695465116688,32.67112016485747,30
46.2,66.6,66.6112254998584,63.94524304877892,65.75266682846217,30.85855867139624,32.665982451079486,30
47.5,66.7,66.71122549985843,64.04010533500094,65.84427084869154,30.866954651166893,32.671120164857484,30
48.7,66.8,66.81122549985842,64.14010533500094,65.94427084869154,30.86695465116688,32.671120164857484,30
50.0,66.9,66.91122549985842,64.24010533500093,66.04427084869154,30.86695465116688,32.671120164857484,30
51.5,67.0,67.01122549985843,64.34524304877893,66.15266682846216,30.858558671396267,32.6659824510795,30
53.0,67.2,67.18900192004664,64.49528695050948,66.30413083056203,30.884871089484605,32.693714969537155,30
54.5,67.3,67.28900192004663,64.60717472115896,66.4281851324818,30.86081678756483,32.681827198887675,30
56.0,67.50000000000001,67.48900192004665,64.80033769466762,66.6203057218754,30.86869619817125,32.68866422537903,30
58.0,67.59999999999998,67.6112254998584,64.9452430487789,66.75266682846217,30.85855867139624,32.6659824510795,30
60.0,67.8,67.81122549985842,65.14524304877892,66.95266682846216,30.858558671396267,32.6659824510795,30
61.5,68.1,68.08900192004663,65.40717472115897,67.22818513248181,30.860816787564815,32.68182719888766,30
63.0,68.3,68.31122549985841,65.6368708411166,67.44427084869154,30.866954651166864,32.674354658741805,30
65.0,68.60000000000001,68.60000000000001,65.90876836786607,67.72030572187539,30.879694278124617,32.691231632133935,30
67.0,68.90000000000002,68.88900192004665,66.20033769466762,68.0203057218754,30.86869619817125,32.68866422537903,30
69.0,69.2,69.18900192004664,66.4952869505095,68.30413083056204,30.88487108948459,32.69371496953714,30
71.0,69.5,69.48900192004663,66.80033769466762,68.6203057218754,30.868696198171236,32.688664225379014,30
73.0,69.8,69.78900192004663,67.10413320766317,68.92030572187541,30.86869619817122,32.68486871238346,30
75.0,70.09999999999998,70.29002197288078,67.63436174047764,69.44476398667267,30.84525798620811,32.655660232403136,30
77.5,70.5,70.65609215500938,67.99674666068246,69.80371064792297,30.852381507086406,32.659345494326914,30
80.0,70.8,70.95609215500939,68.32438775828076,70.13771953292834,30.818372622081043,32.63170439672862,30
82.5,71.10000000000001,71.2900219728808,68.64710614795128,70.44968831438162,30.840333658499176,32.64291582492952,30
85.0,71.40000000000002,71.59002197288079,68.95563398309811,70.74968831438161,30.840333658499176,32.63438798978268,30
87.5,71.7,71.85609215500938,69.2158615498949,71.02142583768176,30.834666317327617,32.64023060511448,30
90.0,71.8,72.01198520535992,69.37421312193084,71.16410258958753,30.84788261577239,32.637772083429084,30
92.5,71.9,72.05609215500938,69.4158615498949,71.22142583768176,30.834666317327617,32.64023060511448,30
95.0,71.9,72.05609215500938,69.42449430238116,71.22967411534175,30.82641803966763,32.63159785262822,30
97.5,71.9,72.05609215500938,69.4158615498949,71.22142583768176,30.834666317327617,32.64023060511448,30
100.0,71.8,72.01198520535992,69.40441220932857,71.20622785497581,30.805757350384113,32.60757299603135,30
103.0,71.8,71.97822721186674,69.37070006985438,71.16024930553432,30.817977906332416,32.60752714201236,30
106.0,71.8,71.97822721186674,69.3649373566007,71.15205894804708,30.826168263819653,32.61328985526603,30
109.0,71.8,71.95609215500939,69.33724908568517,71.14025709775984,30.815835057249544,32.618843069324214,30
112.0,71.8,71.95609215500939,69.32281050719929,71.12142583768177,30.834666317327617,32.633281647810094,30
115.0,71.7,71.93434563061504,69.30467536460198,71.10525540605897,30.82909022455607,32.629670266013065,30
118.0,71.7,71.87822721186674,69.2744920635254,71.06024930553433,30.817977906332416,32.60373514834134,30
122.0,71.6,71.84548281841985,69.24799737737602,71.04190114374121,30.80358167467864,32.59748544104383,30
125.0,71.6,71.83434563061503,69.221834972465,71.01812241515051,30.816223215464518,32.61251065815003,30
128.0,71.6,71.83434563061503,69.22904571440402,71.02067145300374,30.81367417761129,32.60529991621101,30
132.0,71.7,71.87822721186674,69.28978969479878,71.0700573890236,30.80816982284314,32.58843751706796,30
136.0,71.8,72.03434563061504,69.42904571440401,71.22067145300375,30.81367417761129,32.605299916211024,30
140.0,72.0,72.17822721186671,69.57449206352541,71.36024930553431,30.817977906332402,32.6037351483413,30
145.0,72.1,72.34548281841985,69.73701245532598,71.52873355006658,30.816749268353277,32.60847036309387,30
150.0,72.3,72.50076167153067,69.89310512393561,71.67704962614499,30.823712045385676,32.607656547595056,30
155.0,72.50000000000001,72.65609215500938,70.05417034722893,71.85338985162372,30.802702303385658,32.60192180778044,30
160.0,72.7,72.85609215500938,70.21606697035264,72.02472702883475,30.83136512617463,32.640025184656736,30
165.0,72.89999999999999,73.04498217571201,70.39927773455832,72.21684133598596,30.828140839726046,32.64570444115368,30
170.0,73.0,73.23434563061502,70.56137519935227,72.3777052130121,30.856640417602918,32.672970431262755,30
175.0,73.2,73.35609215500936,70.7018057810989,72.51684133598597,30.83925081902339,32.654286373910466,30
180.0,73.2,73.35609215500936,70.66250934328774,72.49173260853885,30.86435954647051,32.693582811721626,30
185.0,73.1,73.24498217571201,70.52677040930644,72.36565485113238,30.879327324579634,32.718211766405574,30
190.0,72.89999999999999,73.05609215500938,70.35755901190232,72.20309498863976,30.85299716636962,32.698533143107056,30
195.0,72.8,72.95609215500937,70.19940616216577,72.05000739164332,30.906084763366053,32.7566859928436,30
200.0,72.59999999999998,72.76743157327174,70.02983609578833,71.8741210324287,30.893310540843032,32.73759547748341,30
206.0,72.50000000000001,72.64498217571203,69.86394193983,71.73240864110234,30.91257353460969,32.78104023588203,30
212.0,72.4,72.4782330650839,69.68141283552885,71.55210467242614,30.92612839265776,32.79682022955505,30
218.0,72.3,72.36692185116051,69.55261205510267,71.43713641427804,30.92978543688247,32.81430979605784,30
224.0,72.3,72.36692185116051,69.54926702464155,71.43713641427804,30.92978543688247,32.81765482651896,30
230.0,72.3,72.45609215500939,69.6271315316407,71.51252409167105,30.943568063338333,32.82896062336869,30
236.0,72.4,72.50076749445562,69.68971180571997,71.5725547365618,30.928212757893817,32.81105568873565,30
240.0,72.4,72.55609215500937,69.75960395135904,71.63840455719067,30.9176875978187,32.79648820365033,30
250.0,72.50000000000001,72.65609215500938,69.84111553193776,71.71252409167107,30.943568063338304,32.814976623071615,30
258.0,72.59999999999998,72.72267658830113,69.91454835163272,71.79263588357766,30.930040704723467,32.80812823666841,30
265.0,72.59999999999998,72.6669218511605,69.90305318446646,71.77018158729426,30.896740263866235,32.76386866669404,30
272.0,72.50000000000001,72.64498217571203,69.86732205980628,71.73240864110234,30.91257353460969,32.777660115905746,30
280.0,72.4,72.55609215500937,69.79257878334641,71.65000739164331,30.906084763366053,32.76351337166295,30
290.0,72.4,72.48900192004665,69.7395526892624,71.59820772174221,30.890794198304434,32.74944923078425,30
300.0,72.3,72.42267658830113,69.66841673092573,71.52534410155981,30.89733248674132,32.7542598573754,30
307.0,72.2,72.35609215500936,69.60486001523006,71.45839229927955,30.89769985572981,32.751232139779304,30
315.0,72.2,72.35609215500936,69.59969871039401,71.45000739164333,30.90608476336604,32.756393444615355,30
325.0,72.2,72.35609215500936,69.60825844487881,71.46330120721257,30.892790947796797,32.74783371013055,30
335.0,72.2,72.37822721186673,69.62751243822738,71.48342508773811,30.894802124128617,32.750714773639345,30
345.0,72.2,72.35609215500936,69.62333396494526,71.4844024365374,30.87168971847197,32.732758190064104,30
355.0,72.2,72.34498217571203,69.58975107691148,71.45839229927955,30.88658987643248,32.75523109880055,30
365.0,72.2,72.28900192004663,69.54307879702102,71.4030718563376,30.885930063709026,32.745923123025605,30
375.0,72.1,72.22267658830111,69.46077028380532,71.31745953009752,30.90521705820359,32.761906304495795,30
387.0,72.1,72.1669218511605,69.38220521364069,71.24370760474797,30.923214246412527,32.78471663751981,30
400.0,72.2,72.21173585711585,69.40749524965395,71.28082802702939,30.93090783008647,32.80424060746191,30
412.0,72.3,72.34523538608283,69.51339038231309,71.3878542459212,30.95738114016163,32.83184500376974,30
425.0,72.4,72.45660314969003,69.61149732041041,71.47720564695578,30.979397502734244,32.84510582927962,30
437.0,72.50000000000001,72.55660314969002,69.7013788525243,71.56695156507017,30.98965158461985,32.85522429716572,30
450.0,72.59999999999998,72.59027257090358,69.71894474016769,71.59658738505682,30.993685185846758,32.87132783073589,30
462.0,72.59999999999998,72.6015232095018,69.70178042966593,71.58993152600313,31.01159168349868,32.899742779835876,30
475.0,72.59999999999998,72.63588035141758,69.71270131467556,71.61843615506983,31.017444196347753,32.92317903674203,30
487.0,72.59999999999998,72.59027257090358,69.62101796512242,71.53618990608241,31.054082664821166,32.96925460578116,30
500.0,72.50000000000001,72.48050017092457,69.47312942825236,71.4075956078548,31.07290456306977,33.00737074267221,30
515.0,72.4,72.4015232095018,69.35350690366441,71.3074020669677,31.094121142534107,33.04801630583739,30
530.0,72.4,72.41300581665409,69.32927741764404,71.29642091920121,31.11658489745288,33.083728399010056,30
545.0,72.50000000000001,72.5015232095018,69.3448220326347,71.35310114546496,31.148422064036836,33.1567011768671,30
560.0,72.50000000000001,72.5581183996721,69.34247250355537,71.36436705545424,31.19375134421786,33.215645896116726,30
580.0,72.4,72.4792497982632,69.22079594030255,71.27493632984721,31.20431346841599,33.258453857960646,30
600.0,72.3,72.35660314969002,69.03578311708802,71.1106367873718,31.245966362318214,33.320820032602,30
615.0,72.2,72.2581183996721,68.87145069497585,70.993129167654,31.264989232018095,33.38666770469625,30
630.0,72.2,72.2353610012272,68.79298006100582,70.94329797034506,31.292063030882147,33.44238094022138,30
650.0,72.1,72.19052899113584,68.69830408066937,70.87433061721929,31.31619837391655,33.49222491046646,30
670.0,71.9,72.01299987486318,68.46728118190522,70.66480097932623,31.348198895536953,33.54571869295796,30
690.0,71.7,71.76945253554453,68.19941105043901,70.40865538593003,31.3607971496145,33.57004148510552,30
710.0,71.6,71.68102013714314,68.11608904970906,70.32487762872168,31.356142508421456,33.564931087434076,30
730.0,71.7,71.71502336890957,68.12225887131311,70.33233797086599,31.382685398043577,33.59276449759646,30
750.0,71.7,71.71502336890957,68.07770928816188,70.30489187594576,31.410131492963814,33.637314080747686,30
775.0,71.7,71.71502336890957,68.02667502382685,70.27776421647494,31.437259152434635,33.688348345082716,30
800.0,71.8,71.80604496832918,68.07797645202676,70.34666428474709,31.459380683582083,33.728068516302415,30
825.0,72.0,71.99454391774933,68.23470505416132,70.50663080517563,31.487913112573693,33.759838863588,30
850.0,72.2,72.08378881309228,68.37299869807593,70.61742318602133,31.466365627070957,33.71079011501635,30
875.0,72.2,72.08378881309228,68.44635713266037,70.66227160913483,31.42151720395745,33.63743168043192,30
900.0,72.2,72.00681734560614,68.30253098598821,70.56180225129675,31.445015094309383,33.704286359617925,30
925.0,72.2,72.00681734560614,68.05912952945494,70.44707128832643,31.55974605727971,33.9476878161512,30
950.0,72.3,72.1389195729906,67.92620045808665,70.4306593383451,31.708260234645508,34.21271911490395,30
975.0,72.3,72.10708482926708,67.71297360769526,70.3104369553477,31.796647873919383,34.39411122157182,30
1000.0,72.3,72.09855684849735,67.54074712609473,70.21221555603249,31.886341292464863,34.557809722402624,30
1030.0,72.59999999999998,72.37892674764835,67.66291529740786,70.40155036047271,31.97737638717564,34.71601145024049,30
1060.0,72.89999999999999,72.68335179759366,67.80792033368019,70.60769229984972,32.07565949774394,34.87543146391347,30
1090.0,73.1,72.90719135340352,67.88722045515364,70.73428220636121,32.172909147042304,35.01997089824988,30
1120.0,73.2,72.94284283604019,67.77860001257964,70.68512658851222,32.257716247527966,35.16424282346054,30
1150.0,73.2,72.88195909129965,67.58576476054766,70.54106927050559,32.34088982079406,35.29619433075199,30
1180.0,73.3,72.98458872466793,67.51306437305465,70.53560976104039,32.44897896362754,35.47152435161328,30
1220.0,73.5,73.1157481279372,67.44491013795826,70.55149844620318,32.56424968173401,35.670837989978935,30
1250.0,73.5,73.05243869770362,67.18160735826605,70.3678804918233,32.68455820588032,35.87083133943757,30
1280.0,73.7,73.11025417288018,67.00700066332006,70.28440794954773,32.82584622333245,36.10325350956012,30
1320.0,73.99999999999999,73.34165163694809,67.08410204616798,70.42282708943826,32.91882454750983,36.2575495907801,30
1360.0,74.2,73.50313506911202,67.18363914462121,70.54421871094932,32.958916358162696,36.31949592449081,30
1400.0,74.3,73.61083359724837,67.18811448701003,70.61544627942128,32.995387317827095,36.42271911023835,30
1450.0,74.2,73.5979413633204,67.06648915032933,70.58076158351953,33.01717977980087,36.53145221299107,30
1500.0,74.3,73.69321557510884,67.15958414899283,70.68012347595369,33.013092099155145,36.533631426116,30
1550.0,74.4,73.8015886651205,67.30780506983888,70.82034482310422,32.98124384201628,36.49378359528163,30
1600.0,74.4,73.78527868402684,67.32393800369154,70.79034454288238,32.994934141144455,36.4613406803353,30
1650.0,74.7,74.06084489464402,67.57632081107138,71.01614388339378,33.04470101125024,36.48452408357264,30
1700.0,75.2,74.48356571857704,67.8679263632628,71.32899508757318,33.154570631003864,36.615639355314244,30
1750.0,75.6,74.87304257627441,68.10206571295357,71.60884770980675,33.26419486646766,36.77097686332084,30
1800.0,76.10000000000001,75.27719493694596,68.30937502088294,71.9103518395487,33.366843097397265,36.96781991606302,30
1850.0,76.40000000000002,75.54278585710871,68.37068781322382,72.06873965889564,33.474046198213074,37.17209804388489,30
1900.0,76.7,75.79700523720435,68.60177574791534,72.30233997146082,33.49466526574352,37.195229489289005,30
1950.0,77.1,76.07903888520245,68.81378144927503,72.54984833733656,33.529190547865895,37.265257435927424,30
2000.0,77.3,76.2644297858714,68.98019384110786,72.70973385152986,33.55469593434154,37.28423594476354,30
2060.0,77.4,76.310457927439,69.10559688623543,72.79993352768498,33.51052439975402,37.20486104120357,30
2120.0,77.3,76.24433706791287,69.11729959185168,72.78733600943788,33.45700105847499,37.12703747606119,30
2180.0,77.1,76.11587044549852,69.09625277807079,72.7371239465673,33.37874649893122,37.019617667427724,30
2240.0,77.1,76.12267264111709,69.20018634317161,72.78919945758444,33.33347318353265,36.92248629794548,30
2300.0,77.1,76.22335510236636,69.46186855396179,72.98798317972586,33.235371922640496,36.76148654840456,30
2360.0,77.1,76.27740939454749,69.68346551143843,73.160697464317,33.116711930230494,36.59394388310906,30
2400.0,76.8,76.12273123291568,69.73819969587477,73.1792812196885,32.94345001322718,36.384531537040914,30
2500.0,76.49999999999999,75.97304334183364,69.75601025148866,73.19030444920632,32.78273889262732,36.217033090344984,30
2580.0,76.10000000000001,75.63848434832272,69.49863536659676,72.98017429068088,32.65831005764184,36.13984898172596,30
2650.0,75.8,75.41085532090084,69.33999538648966,72.85143798154608,32.55941733935475,36.070859934411175,30
2720.0,75.39999999999999,75.31424056961684,69.23728020165204,72.77578946464223,32.53845110497461,36.0769603679648,30
2800.0,74.9,75.16973378646458,69.17655882234006,72.72723342986569,32.442500356598885,35.99317496412452,30
2900.0,74.6,75.08568981875545,69.07042148949596,72.65394058516114,32.43174923359432,36.0152683292595,30
3000.0,74.4,74.84214311575815,68.73170236665861,72.38050639813818,32.46163671761997,36.11044074909954,30
3070.0,74.2,74.73338964339203,68.56594347505761,72.24137529342586,32.49201434996617,36.16744616833442,30
3150.0,74.1,74.83808221116904,68.52704140174743,72.23636425544258,32.60171795572646,36.31104080942161,30
3250.0,73.99999999999999,74.90334367661401,68.5141735948048,72.25756153983342,32.645782136780596,36.38917008180921,30
3350.0,73.7,74.82302338461344,68.39829708918718,72.17123158969889,32.651791794914544,36.424726295426254,30
3450.0,73.90000000000002,74.79628786035936,68.2810463383957,72.06404214363948,32.73224571671987,36.51524152196366,30
3550.0,74.4,75.00432518849603,68.33938755575868,72.1167541657732,32.887571022722824,36.66493763273735,30
3650.0,74.6,75.14558685862433,68.36655221883039,72.1850308725884,32.96055598603593,36.779034639793935,30
3750.0,74.6,75.06088577688486,68.24807698520671,72.07490336391982,32.98598241296504,36.81280879167815,30
3870.0,74.6,74.85703041610753,68.0145460505144,71.86141709209406,32.995613324013476,36.84248436559314,30
4000.0,75.00000000000001,75.05860008044733,68.12536086007087,72.00410268702028,33.054497393427056,36.933239220376464,30
4120.0,75.5,74.97667605094206,67.96594000514055,71.8770907748026,33.099585276139464,37.01073604580151,30
4250.0,76.0,75.20374365538267,68.0767304167518,72.02317983782883,33.18056381755383,37.127013238630866,30
4370.0,76.10000000000001,75.07872783690996,67.92172329512466,71.9068960273332,33.17183180957676,37.1570045417853,30
