Freq "Listening Window"
20.5078 45.51391318883773
21.9727 49.08642910705447
23.4375 51.606987548204074
24.9023 54.259427934330574
26.3672 56.751519739232606
27.832 59.47989382304631
29.2969 61.44204096864901
30.7617 63.434442124043954
32.2266 65.1333826169169
33.6914 67.00497666216503
35.1562 68.42579367863479
36.6211 69.78314967189795
38.0859 71.01283467735352
39.5508 72.04537251728222
41.0156 72.96048107032827
42.4805 73.88302236092433
43.9453 74.7415589096909
45.4102 75.39245428340294
46.875 75.97874380797614
48.3398 76.52441460679152
51.2695 77.47877055518265
52.7344 77.85520950432951
54.1992 78.23778989089918
55.6641 78.6396026715057
58.5938 79.27800714471726
60.0586 79.54593134920516
62.9883 80.12054955497447
64.4531 80.28602658660543
67.3828 80.56196894594504
68.8477 80.63651349346338
71.7773 81.10735968799862
74.707 81.53129970471927
77.6367 81.40634839556091
79.1016 81.39117684851432
82.0312 81.79663691333579
84.9609 81.93807290085772
87.8906 81.84480894805486
90.8203 81.64776578978287
95.2148 81.97691077955061
98.1445 81.9402852567366
101.074 81.76121380262184
105.469 81.95505744608533
108.398 82.00243438745849
112.793 81.93612501011171
117.188 81.72232116730287
120.117 81.61242941055933
124.512 81.70026177868394
128.906 81.5718695663268
133.301 81.54126705776281
139.16 81.48837481574371
143.555 81.27589675803374
147.949 81.13016346890518
153.809 81.11247484660112
159.668 81.27506927109627
165.527 81.1977349666767
171.387 81.16509205360113
177.246 81.06423059905002
183.105 80.8488236422689
188.965 80.86223246900536
196.289 81.04224125519642
203.613 80.85134771250968
210.938 80.7772681326983
218.262 80.58717269735597
225.586 80.57786668627284
232.91 80.6725672052118
241.699 80.58680781268032
250.488 80.95134014607555
259.277 80.77637437359765
268.066 80.48973472421179
276.855 80.74630953011192
287.109 80.3695891072083
297.363 80.67674163198294
307.617 80.54318117294267
319.336 80.45555576198157
329.59 80.6235290018832
341.309 80.88189726422927
353.027 81.39965224491061
366.211 82.27823686915258
379.395 82.29793567882723
392.578 81.9497128447558
405.762 81.80336331089413
420.41 82.20644764852952
435.059 81.47760013493345
451.172 82.32281331259375
465.82 81.58143588514609
483.398 81.32556366665939
499.512 81.15968913141629
517.09 80.61494066238487
536.133 80.96742423022243
555.176 81.13892995574675
574.219 80.64934375111196
594.727 80.17855027915563
615.234 80.27901025856995
637.207 81.29948141499523
659.18 81.32094574134027
682.617 82.14461931443614
707.52 82.53726752854013
732.422 82.50579508869794
757.324 82.58303252489983
785.156 82.04871498755301
811.523 81.24367489329235
840.82 80.61218236138077
870.117 80.69437486654095
900.879 81.30748151346063
933.105 81.6601462809491
965.332 81.56165729990921
1000.49 81.39577338635314
1035.64 81.52679999458675
1072.27 81.09533980460778
1108.89 81.60460430930709
1148.44 82.07551733625363
1189.45 82.42993908278261
1230.47 82.45863115661044
1274.41 82.56204733375696
1319.82 81.98598082660895
1366.7 81.45982584923678
1413.57 81.82939758715183
1463.38 82.10293037293785
1516.11 81.97706212951242
1568.85 81.37692397899119
1624.51 80.84392147991423
1681.64 80.55150061987808
1741.7 81.04230989020942
1803.22 81.72439881745544
1866.21 81.21901105133819
1932.13 80.01080764419599
1999.51 80.52282587422141
2069.82 81.24150866945027
2143.07 80.89430288820645
2219.24 80.32561494212716
2296.88 80.75435192248169
2378.91 80.57180220421468
2462.4 79.99969542186251
2548.83 80.27940199919902
2639.65 79.90924004113086
2731.93 79.13290677240626
2828.61 79.81305415244077
2928.22 79.24037199339222
3030.76 78.90276144701691
3137.7 79.28638724295043
3249.02 79.28098206129485
3363.28 79.19291163543322
3481.93 79.67484407039316
3604.98 79.36840970897948
3732.42 79.36342400039204
3864.26 79.66787662427261
4000.49 79.39275796344714
4141.11 79.11521962944435
4287.6 79.6146911413372
4438.48 78.73753269030362
4595.21 79.48941303303579
4756.35 79.06183884800453
4924.8 79.26977707450902
5097.66 78.95255203569124
5277.83 78.87682565106223
5463.87 79.59008890180746
5657.23 79.56777285767645
5856.45 79.04296242073309
6062.99 79.29931945199154
6276.86 79.80188987784396
6498.05 79.94760165531981
6726.56 80.03943424176644
6963.87 80.45626679729007
7209.96 80.61383801995393
7464.84 80.63067464202776
7727.05 80.72113209231294
7999.51 80.65494725230546
8282.23 80.48384431752498
8573.73 80.22798744002561
8876.95 80.03342569209143
9188.96 80.0050946786494
9514.16 79.94629534298232
9849.61 79.92346710699243
10196.8 80.00794069829618
10555.7 80.14525773148038
10927.7 80.29302078552556
11313.0 80.30653409866007
11712.9 80.31794776548355
12126.0 80.27860669196323
12553.7 80.0925793986228
12996.1 79.6842983363076
13454.6 79.16205797132363
13929.2 78.91150925756693
14419.9 78.5848931124151
14928.2 78.20014030681777
15455.6 77.94820259158152
16000.5 77.93559588734654
16564.5 77.93278727612838
17148.9 77.84581040667372
17752.4 77.79432089114489
18379.4 77.30259442603594
19026.9 77.16222923179915
19697.8 76.84388088356032
19999.5 76.7410831844126
