Freq "Ceiling Bounce"
22.4 21.483383388977586
23.0 21.739513413992086
23.6 22.322016874900157
24.0 24.600184744869864
25.0 26.100576376296374
25.8 27.227700716857925
26.5 28.25743008332671
27.2 28.87154023850576
28.0 29.50900093088231
29.0 30.066041145756344
30.0 31.130883171546344
30.7 33.02933043421359
31.5 34.58230649956843
32.5 35.91395652088272
33.5 37.057598821275405
34.5 38.10920925226938
35.5 39.26966078457042
36.5 41.44963978119759
37.5 43.37035193787355
38.7 44.94258273663013
40.0 46.34805664755615
41.2 47.63758968889496
42.5 49.51595200332332
43.7 51.39470218621025
45.0 52.99470218621025
46.2 54.415952003323326
47.5 55.83758968889495
48.7 57.759620342001114
50.0 59.43921161314461
51.5 60.985737811579554
53.0 62.40962251076208
54.5 63.89257011413608
56.0 65.41753803239935
58.0 66.86878033996791
60.0 68.25521969308379
61.5 69.58219812790055
63.0 70.8096325668162
65.0 71.93752777300028
67.0 73.13752777300027
69.0 74.32758719283592
71.0 75.42758719283592
73.0 76.38982856673472
75.0 77.2566725593005
77.5 78.08982856673472
80.0 78.71916705502753
82.5 79.41916705502754
85.0 80.11916705502753
87.5 80.68219967332304
90.0 81.18219967332304
92.5 81.5457671943847
95.0 81.84576719438469
97.5 82.21227178315618
100.0 82.64576719438469
103.0 82.87609175449221
106.0 83.1760917544922
109.0 83.50986628672328
112.0 83.80986628672329
115.0 83.9760917544922
118.0 84.14044167945491
122.0 84.27609175449221
125.0 84.3404416794549
128.0 84.3404416794549
132.0 84.3404416794549
136.0 84.3404416794549
140.0 84.27150800786939
145.0 84.17150800786938
150.0 84.07150800786938
155.0 84.07150800786938
160.0 83.97150800786939
165.0 83.97150800786939
170.0 83.90306957104252
175.0 83.83663575667187
180.0 83.80306957104253
185.0 83.76845083805432
190.0 83.7030695710425
195.0 83.60306957104252
200.0 83.60306957104252
206.0 83.60306957104252
212.0 83.60306957104252
218.0 83.7030695710425
224.0 83.77150800786937
230.0 83.80306957104253
236.0 83.87150800786937
240.0 83.97150800786939
250.0 83.97150800786939
258.0 83.90690501035459
265.0 83.90690501035459
272.0 83.77609175449223
280.0 83.57609175449221
290.0 83.4122717831562
300.0 83.18219967332304
307.0 82.91916705502754
315.0 82.61916705502752
325.0 82.3898285667347
335.0 82.12758719283593
345.0 81.92758719283594
355.0 81.79897445130925
365.0 81.73752777300027
375.0 81.7096325668162
387.0 81.64898359150841
400.0 81.48888547155003
412.0 81.36194867563766
425.0 81.20265450340338
437.0 80.84391724861638
450.0 80.58573915648971
462.0 80.22812233674837
475.0 79.89674297331737
487.0 79.51458026313014
500.0 79.289595285612
515.0 79.289595285612
530.0 79.30962074754837
545.0 79.38573603864207
560.0 79.40791075563449
580.0 79.36268190818896
600.0 79.16268190818897
615.0 78.91904449785343
630.0 78.74520516099382
650.0 78.62457993687899
670.0 78.5527499421436
690.0 78.46322504785601
710.0 78.19472217650473
730.0 77.87915446671192
750.0 77.39723594431544
775.0 76.87211025799337
800.0 76.71145898042549
825.0 76.76691728331716
850.0 76.85206000485604
875.0 76.79641043056627
900.0 76.62680426515608
925.0 77.08795498774302
950.0 77.79723594431542
975.0 78.22756634145692
1000.0 78.23209919948374
1030.0 77.6017460112477
1060.0 77.00174601124772
1090.0 76.80146480937388
1120.0 76.3034858149106
1150.0 76.1370245814502
1180.0 76.02537703077311
1220.0 75.25632382767522
1250.0 74.05366398410077
1280.0 73.44277775075741
1320.0 72.91678155938054
1360.0 72.4661057977034
1400.0 72.31354111816742
1450.0 72.68836336106192
1500.0 73.0529952582449
1550.0 73.300892817766
1600.0 73.71055696564261
1650.0 74.15934271306732
1700.0 74.68692145185187
1750.0 75.32389224424517
1800.0 75.99764339402714
1850.0 76.36239477036438
1900.0 76.5531529792421
1950.0 76.3946681446287
2000.0 76.3138851117672
2060.0 76.32100182927414
2120.0 76.36091364210785
2180.0 76.62664543441659
2240.0 76.63695108716924
2300.0 76.45206000485607
2360.0 76.31798740949019
2400.0 76.47569581518242
2500.0 76.99037884047719
2580.0 77.45800804769341
2650.0 77.39037884047718
2720.0 76.62406634433559
2800.0 75.62790007353126
2900.0 74.84465953615896
3000.0 74.63131741555753
3070.0 74.75218761292406
3150.0 74.89083949114905
3250.0 74.63510550729974
3350.0 74.60937829065055
3450.0 75.47100612011482
3550.0 75.9361070797735
3650.0 75.7694198636673
3750.0 75.71638770313007
3870.0 75.93638088039144
4000.0 76.17625435142637
4120.0 76.34123053036839
4250.0 76.3114593810032
4370.0 76.34878700732918
4500.0 76.02802377249941
4620.0 75.35592043373775
4750.0 74.79898600207457
4870.0 74.66882143514853
5000.0 74.98397949702586
5150.0 74.79682786047022
5300.0 74.26597401860917
5450.0 74.10827710656966
5600.0 74.41326997082845
5800.0 74.8081499493813
6000.0 74.9370245814502
6150.0 75.15218761292408
6300.0 75.22081894554057
6500.0 75.14053501177823
6700.0 75.24053501177823
6900.0 74.9223915743246
7100.0 73.9608286134798
7300.0 74.17863643206258
7500.0 74.58938741782677
7750.0 74.31112494659284
8000.0 73.95750331865466
8250.0 73.17044124537496
8500.0 72.34424662765986
8750.0 71.86727756537363
9000.0 72.11457659839161
9250.0 72.15119501300417
9500.0 72.20204404422746
9750.0 73.06988350036804
10000.0 73.77473140136793
10300.0 74.10285095761179
10600.0 74.052976291648
10900.0 73.88716272676827
11200.0 73.82519075000121
11500.0 73.32140017381349
11800.0 71.43169190828986
12200.0 70.32762437426565
12500.0 70.53741786327002
12800.0 70.4796746760709
13200.0 68.95150771982452
13600.0 67.22380429492318
14000.0 66.13184151733778
14500.0 65.07655051664695
15000.0 64.31398368587386
15500.0 64.77132734098726
16000.0 64.45249347780619
16500.0 63.45934515608312
17000.0 63.7602463116381
17500.0 62.33010557114832
18000.0 60.8264203942459
18500.0 57.88869355288361
19000.0 58.70204404422748
19500.0 53.21622495047967
