Freq "Ceiling Bounce"
22.4 21.53781376872439
23.0 21.79394379373889
23.6 22.37644725464699
24.0 24.654615124616697
25.0 26.155006756043207
25.8 27.282131096604758
26.5 28.311860463073486
27.2 28.925970618252563
28.0 29.563431310629085
29.0 30.12047152550315
30.0 31.18531355129315
30.7 33.083760813960396
31.5 34.63673687931524
32.5 35.968386900629525
33.5 37.11202920102221
34.5 38.163639632016185
35.5 39.324091164317224
36.5 41.504070160944394
37.5 43.424782317620355
38.7 44.997013116376934
40.0 46.40248702730295
41.2 47.69202006864177
42.5 49.570382383070125
43.7 51.44913256595706
45.0 53.049132565957024
46.2 54.47038238307013
47.5 55.892020068641756
48.7 57.81405072174792
50.0 59.49364199289141
51.5 61.04016819132636
53.0 62.46405289050887
54.5 63.94700049388288
56.0 65.47196841214614
58.0 66.92321071971472
60.0 68.3096500728306
61.5 69.63662850764736
63.0 70.86406294656301
65.0 71.99195815274709
67.0 73.19195815274708
69.0 74.38201757258273
71.0 75.48201757258272
73.0 76.44425894648153
75.0 77.3111029390473
77.5 78.14425894648153
80.0 78.77359743477435
82.5 79.47359743477435
85.0 80.17359743477434
87.5 80.73663005306985
90.0 81.23663005306986
92.5 81.6001975741315
95.0 81.90019757413151
97.5 82.26670216290299
100.0 82.7001975741315
103.0 82.93052213423901
106.0 83.23052213423901
109.0 83.56429666647009
112.0 83.86429666647011
115.0 84.030522134239
118.0 84.19487205920171
122.0 84.33052213423902
125.0 84.3948720592017
128.0 84.3948720592017
132.0 84.3948720592017
136.0 84.3948720592017
140.0 84.32593838761619
145.0 84.2259383876162
150.0 84.12593838761617
155.0 84.12593838761617
160.0 84.0259383876162
165.0 84.0259383876162
170.0 83.95749995078933
175.0 83.89106613641867
180.0 83.85749995078932
185.0 83.82288121780114
190.0 83.75749995078934
195.0 83.65749995078932
200.0 83.65749995078932
206.0 83.65749995078932
212.0 83.65749995078932
218.0 83.75749995078934
224.0 83.82593838761618
230.0 83.85749995078932
236.0 83.92593838761618
240.0 84.0259383876162
250.0 84.0259383876162
258.0 83.9613353901014
265.0 83.9613353901014
272.0 83.83052213423902
280.0 83.63052213423902
290.0 83.46670216290299
300.0 83.23663005306985
307.0 82.97359743477435
315.0 82.67359743477434
325.0 82.44425894648153
335.0 82.18201757258272
345.0 81.98201757258272
355.0 81.85340483105605
365.0 81.79195815274707
375.0 81.764062946563
387.0 81.70341397125523
400.0 81.54331585129684
412.0 81.41637905538447
425.0 81.2570848831502
437.0 80.89834762836318
450.0 80.64016953623651
462.0 80.28255271649519
475.0 79.95117335306418
487.0 79.56901064287695
500.0 79.3440256653588
515.0 79.3440256653588
530.0 79.36405112729517
545.0 79.44016641838887
560.0 79.46234113538131
580.0 79.41711228793577
600.0 79.21711228793578
615.0 78.97347487760024
630.0 78.79963554074062
650.0 78.67901031662578
670.0 78.60718032189041
690.0 78.51765542760282
710.0 78.24915255625152
730.0 77.93358484645873
750.0 77.45166632406224
775.0 76.92654063774017
800.0 76.76588936017231
825.0 76.82134766306397
850.0 76.90649038460285
875.0 76.85084081031307
900.0 76.68123464490287
925.0 77.14238536748982
950.0 77.85166632406224
975.0 78.28199672120373
1000.0 78.28652957923055
1030.0 77.65617639099452
1060.0 77.05617639099452
1090.0 76.85589518912069
1120.0 76.35791619465742
1150.0 76.19145496119701
1180.0 76.07980741051992
1220.0 75.31075420742204
1250.0 74.10809436384758
1280.0 73.49720813050422
1320.0 72.97121193912736
1360.0 72.52053617745021
1400.0 72.36797149791423
1450.0 72.74279374080872
1500.0 73.10742563799172
1550.0 73.3553231975128
1600.0 73.76498734538939
1650.0 74.21377309281412
1700.0 74.74135183159868
1750.0 75.37832262399199
1800.0 76.05207377377394
1850.0 76.41682515011118
1900.0 76.60758335898888
1950.0 76.4490985243755
2000.0 76.36831549151402
2060.0 76.37543220902097
2120.0 76.41534402185465
2180.0 76.68107581416338
2240.0 76.69138146691604
2300.0 76.50649038460284
2360.0 76.37241778923698
2400.0 76.53012619492921
2500.0 77.044809220224
2580.0 77.51243842744023
2650.0 77.44480922022399
2720.0 76.67849672408238
2800.0 75.68233045327808
2900.0 74.89908991590576
3000.0 74.68574779530435
3070.0 74.80661799267088
3150.0 74.94526987089586
3250.0 74.68953588704656
3350.0 74.66380867039737
3450.0 75.52543649986163
3550.0 75.9905374595203
3650.0 75.82385024341409
3750.0 75.77081808287689
3870.0 75.99081126013824
4000.0 76.23068473117317
4120.0 76.3956609101152
4250.0 76.36588976075001
4370.0 76.40321738707596
4500.0 76.08245415224623
4620.0 75.41035081348456
4750.0 74.85341638182138
4870.0 74.72325181489532
5000.0 75.03840987677266
5150.0 74.85125824021702
5300.0 74.32040439835598
5450.0 74.16270748631646
5600.0 74.46770035057526
5800.0 74.86258032912811
6000.0 74.99145496119702
6150.0 75.20661799267086
6300.0 75.27524932528736
6500.0 75.19496539152505
6700.0 75.29496539152504
6900.0 74.97682195407143
7100.0 74.01525899322661
7300.0 74.2330668118094
7500.0 74.64381779757356
7750.0 74.36555532633966
8000.0 74.01193369840146
8250.0 73.22487162512176
8500.0 72.39867700740668
8750.0 71.92170794512045
9000.0 72.16900697813841
9250.0 72.20562539275099
9500.0 72.25647442397427
9750.0 73.12431388011484
10000.0 73.82916178111473
10300.0 74.1572813373586
10600.0 74.1074066713948
10900.0 73.94159310651509
11200.0 73.87962112974802
11500.0 73.37583055356028
11800.0 71.48612228803667
12200.0 70.38205475401247
12500.0 70.59184824301681
12800.0 70.53410505581772
13200.0 69.00593809957132
13600.0 67.27823467466997
14000.0 66.18627189708457
14500.0 65.13098089639374
15000.0 64.36841406562068
15500.0 64.82575772073409
16000.0 64.50692385755299
16500.0 63.51377553582992
17000.0 63.81467669138489
17500.0 62.38453595089513
18000.0 60.880850773992734
18500.0 57.943123932630414
19000.0 58.75647442397428
19500.0 53.270655330226475
