Freq "Side Wall Bounce"
22.4 10.104990031460005
23.0 11.415137797920323
23.6 13.054270204540046
24.0 16.403943769730233
25.0 18.98574320654913
25.8 21.095536940025198
26.5 22.925771367752645
27.2 24.454358949944293
28.0 25.80897428530193
29.0 27.0674615283113
30.0 28.64073486724152
30.7 31.04125891445574
31.5 33.02178755013128
32.5 34.65282398655245
33.5 36.042531007896315
34.5 37.28978656805765
35.5 38.59986702262458
36.5 40.867479291991145
37.5 42.802970479194556
38.7 44.44748828255533
40.0 45.81901399808163
41.2 47.143162967536256
42.5 48.97372910787644
43.7 50.85582689852839
45.0 52.38747509546391
46.2 53.79899131204482
47.5 55.20006699417732
48.7 57.08930517708865
50.0 58.76961008181823
51.5 60.313948347278085
53.0 61.69182374910642
54.5 63.23968642826247
56.0 64.79972193471829
58.0 66.31877358297083
60.0 67.72639604885697
61.5 69.11789658140871
63.0 70.38984501449511
65.0 71.53928328400428
67.0 72.74534232582782
69.0 73.9549241980838
71.0 75.06182932828615
73.0 76.0088473270792
75.0 76.84996026094254
77.5 77.65781704693842
80.0 78.29324549769635
82.5 78.99324549769636
85.0 79.69540937813117
87.5 80.27008823812396
90.0 80.74332901413436
92.5 81.13665397451827
95.0 81.45420765173647
97.5 81.84262650527623
100.0 82.30089986103842
103.0 82.60492429149289
106.0 82.87966518370058
109.0 83.2476578557421
112.0 83.58250277549223
115.0 83.75103960634975
118.0 83.9150533742634
122.0 84.04103025336897
125.0 84.10253196320204
128.0 84.03052438981615
132.0 84.0611106195752
136.0 84.03278913105737
140.0 83.97154284148456
145.0 83.86286745149047
150.0 83.76286745149048
155.0 83.70354892818663
160.0 83.63432505668564
165.0 83.63432505668564
170.0 83.5628126849318
175.0 83.4752547490394
180.0 83.4745270634243
185.0 83.407705632503
190.0 83.34992362888897
195.0 83.2560061894302
200.0 83.21085753710668
206.0 83.22473372760348
212.0 83.24831145360386
218.0 83.26709138304204
224.0 83.27174017404525
230.0 83.29265755507403
236.0 83.35107645519068
240.0 83.37127126873732
250.0 83.31748929352551
258.0 83.24170597358076
265.0 83.13167265608834
272.0 82.95937879003397
280.0 82.70881478199618
290.0 82.48251543578576
300.0 82.21938904373305
307.0 81.91935709761417
315.0 81.57735613140638
325.0 81.33259376853296
335.0 81.13260201043225
345.0 80.98291537551344
355.0 80.90646208435739
365.0 80.91887952542054
375.0 80.98398167047398
387.0 81.10918179523392
400.0 81.14666185352166
412.0 81.22069382381625
425.0 81.22928160888759
437.0 81.11208610108429
450.0 81.03633238169519
462.0 80.83782546980663
475.0 80.68488935593368
487.0 80.44867120712703
500.0 80.3988782745799
515.0 80.47184400530799
530.0 80.59846017692759
545.0 80.77753534851203
560.0 80.90713307468933
580.0 80.9680753803732
600.0 80.90516966358831
615.0 80.79522226303119
630.0 80.74198746763804
650.0 80.7740751867922
670.0 80.84387724286339
690.0 80.89679157693382
710.0 80.8398921337268
730.0 80.65307377842844
750.0 80.2719081389719
775.0 79.84603281364686
800.0 79.68196529391707
825.0 79.65542405190001
850.0 79.49796737219555
875.0 79.09072847435043
900.0 78.56667309904529
925.0 78.61286510607799
950.0 78.79888675276206
975.0 78.52489666358352
1000.0 77.88383462810935
1030.0 76.79384850233262
1060.0 76.04766362879275
1090.0 75.83143532961793
1120.0 75.60385292143408
1150.0 75.71370802589847
1180.0 76.09925072381398
1220.0 75.94903026682934
1250.0 75.52126453395942
1280.0 75.49152709551133
1320.0 75.5334612202922
1360.0 75.54737908504659
1400.0 75.7293987027084
1450.0 76.14455559209708
1500.0 76.29571625977245
1550.0 76.13870828090818
1600.0 76.17316587282676
1650.0 76.3646187239986
1700.0 76.66272996964709
1750.0 77.13678868818018
1800.0 77.62644109272586
1850.0 77.8329318697027
1900.0 77.8921203877036
1950.0 77.55967824217366
2000.0 77.29774197414146
2060.0 77.04821422582322
2120.0 76.78021251906536
2180.0 76.5676257188283
2240.0 76.09825459061824
2300.0 75.41446917538083
2360.0 74.8121530041779
2400.0 74.45089072358486
2500.0 74.58847525370558
2580.0 74.9017757485727
2650.0 74.74916008119631
2720.0 74.00602969711822
2800.0 73.05801448848528
2900.0 72.41785957492122
3000.0 72.3179193081162
3070.0 72.60743479245883
3150.0 72.85844639842011
3250.0 72.63321173794796
3350.0 72.50284326297566
3450.0 73.17802095691223
3550.0 73.48288320186778
3650.0 73.13236810355966
3750.0 72.94874713223673
3870.0 72.99243927712924
4000.0 73.06894772885201
4120.0 73.10210320091073
4250.0 73.00093231129141
4370.0 72.92692317236029
4500.0 72.51111694084885
4620.0 71.82597401902322
4750.0 71.28439122406114
4870.0 71.27839903274536
5000.0 71.64147707851996
5150.0 71.53350836502901
5300.0 71.15770934060914
5450.0 71.19682590311837
5600.0 71.67081538542723
5800.0 72.3376239786389
6000.0 72.73858768153897
6150.0 73.22507524451184
6300.0 73.57385618308201
6500.0 73.70568079606298
6700.0 74.0791695126488
6900.0 74.00715516930478
7100.0 73.35569535534702
7300.0 73.89048882987085
7500.0 74.64062272566049
7750.0 74.80309277558719
8000.0 74.82556370509614
8250.0 74.24850501551525
8500.0 73.68639149928921
8750.0 73.38767931433256
9000.0 73.74308496282076
9250.0 73.82644833289132
9500.0 73.76169083182221
9750.0 74.49711404334528
10000.0 75.0277661783847
10300.0 75.30602914163298
10600.0 75.24321589543032
10900.0 75.1389584207921
11200.0 75.21745305464114
11500.0 74.88514582018034
11800.0 73.22975991421916
12200.0 72.3348079510756
12500.0 72.69363321224856
12800.0 72.64345035624238
13200.0 71.04426585316534
13600.0 69.17607884470088
14000.0 68.08688876375055
14500.0 67.09825663434154
15000.0 66.60003152430659
15500.0 67.41065224252947
16000.0 67.35136883063684
16500.0 66.5089753201557
17000.0 66.74901046795414
17500.0 65.05659376136758
18000.0 63.37293351181417
18500.0 60.18539412764392
19000.0 60.84848814138326
19500.0 55.12420076268762
