Freq "On Axis"
22.4 28.184810126582278
23.0 27.684810126582278
23.6 27.184810126582278
24.0 26.7848101265823
25.0 26.2848101265823
25.8 25.7848101265823
26.5 25.384810126582295
27.2 24.684810126582278
28.0 24.384810126582295
29.0 24.584810126582283
30.0 25.684810126582278
30.7 27.384810126582295
31.5 28.584810126582283
32.5 31.184810126582278
33.5 33.68481012658228
34.5 35.58481012658228
35.5 38.58481012658228
36.5 40.68481012658228
37.5 42.08481012658228
38.7 44.2848101265823
40.0 46.18481012658228
41.2 47.7848101265823
42.5 48.7848101265823
43.7 50.2848101265823
45.0 51.684810126582306
46.2 53.08481012658228
47.5 54.884810126582295
48.7 56.18481012658229
50.0 57.2848101265823
51.5 58.384810126582295
53.0 59.884810126582295
54.5 61.08481012658228
56.0 62.08481012658228
58.0 63.384810126582295
60.0 64.8848101265823
61.5 65.98481012658229
63.0 66.98481012658229
65.0 68.18481012658228
67.0 69.28481012658227
69.0 70.18481012658229
71.0 70.98481012658229
73.0 71.6848101265823
75.0 72.28481012658229
77.5 72.7848101265823
80.0 73.08481012658231
82.5 73.18481012658228
85.0 73.18481012658228
87.5 73.08481012658231
90.0 72.7848101265823
92.5 72.5848101265823
95.0 72.28481012658229
97.5 71.98481012658229
100.0 71.6848101265823
103.0 71.3848101265823
106.0 71.0848101265823
109.0 70.68481012658228
112.0 70.2848101265823
115.0 69.8848101265823
118.0 69.58481012658228
122.0 69.3848101265823
125.0 69.28481012658227
128.0 69.1848101265823
132.0 69.0848101265823
136.0 68.98481012658229
140.0 68.8848101265823
145.0 68.78481012658229
150.0 68.68481012658229
155.0 68.5848101265823
160.0 68.48481012658229
165.0 68.3848101265823
170.0 68.3848101265823
175.0 68.48481012658229
180.0 68.5848101265823
185.0 68.68481012658229
190.0 68.68481012658229
195.0 68.5848101265823
200.0 68.48481012658229
206.0 68.48481012658229
212.0 68.5848101265823
218.0 68.78481012658229
224.0 68.98481012658229
230.0 69.1848101265823
236.0 69.3848101265823
240.0 69.48481012658229
250.0 69.58481012658228
258.0 69.48481012658229
265.0 69.28481012658227
272.0 69.0848101265823
280.0 69.1848101265823
290.0 69.3848101265823
300.0 69.3848101265823
307.0 69.3848101265823
315.0 69.0848101265823
325.0 68.68481012658229
335.0 68.28481012658229
345.0 68.3848101265823
355.0 69.0848101265823
365.0 69.78481012658229
375.0 70.0848101265823
387.0 69.98481012658229
400.0 69.8848101265823
412.0 69.8848101265823
425.0 69.58481012658228
437.0 69.3848101265823
450.0 69.78481012658229
462.0 70.2848101265823
475.0 70.58481012658231
487.0 70.58481012658231
500.0 70.3848101265823
515.0 70.48481012658229
530.0 70.58481012658231
545.0 70.3848101265823
560.0 70.18481012658229
580.0 70.3848101265823
600.0 70.58481012658231
615.0 70.48481012658229
630.0 70.58481012658231
650.0 70.8848101265823
670.0 70.78481012658229
690.0 70.68481012658228
710.0 70.78481012658229
730.0 70.68481012658228
750.0 70.48481012658229
775.0 70.78481012658229
800.0 71.18481012658229
825.0 71.3848101265823
850.0 71.18481012658229
875.0 70.8848101265823
900.0 70.58481012658231
925.0 70.3848101265823
950.0 70.58481012658231
975.0 70.78481012658229
1000.0 70.78481012658229
1030.0 70.18481012658229
1060.0 69.1848101265823
1090.0 69.0848101265823
1120.0 69.28481012658227
1150.0 69.28481012658227
1180.0 69.28481012658227
1220.0 69.58481012658228
1250.0 69.98481012658229
1280.0 69.58481012658228
1320.0 68.98481012658229
1360.0 68.8848101265823
1400.0 68.5848101265823
1450.0 68.18481012658228
1500.0 68.28481012658229
1550.0 68.28481012658229
1600.0 67.98481012658229
1650.0 68.08481012658231
1700.0 68.08481012658231
1750.0 67.8848101265823
1800.0 68.28481012658229
1850.0 68.5848101265823
1900.0 68.3848101265823
1950.0 68.18481012658228
2000.0 68.08481012658231
2060.0 68.28481012658229
2120.0 68.3848101265823
2180.0 68.28481012658229
2240.0 68.78481012658229
2300.0 69.0848101265823
2360.0 68.98481012658229
2400.0 69.0848101265823
2500.0 69.1848101265823
2580.0 69.3848101265823
2650.0 68.98481012658229
2720.0 68.5848101265823
2800.0 68.08481012658231
2900.0 68.08481012658231
3000.0 68.28481012658229
3070.0 68.5848101265823
3150.0 69.0848101265823
3250.0 69.58481012658228
3350.0 69.58481012658228
3450.0 69.0848101265823
3550.0 68.68481012658229
3650.0 68.3848101265823
3750.0 68.18481012658228
3870.0 67.98481012658229
4000.0 67.98481012658229
4120.0 68.3848101265823
4250.0 68.5848101265823
4370.0 68.3848101265823
4500.0 68.3848101265823
4620.0 68.3848101265823
4750.0 68.48481012658229
4870.0 68.3848101265823
5000.0 68.48481012658229
5150.0 68.8848101265823
5300.0 69.28481012658227
5450.0 69.68481012658229
5600.0 69.78481012658229
5800.0 69.48481012658229
6000.0 69.1848101265823
6150.0 68.48481012658229
6300.0 67.8848101265823
6500.0 67.98481012658229
6700.0 69.0848101265823
6900.0 69.8848101265823
7100.0 69.98481012658229
7300.0 69.8848101265823
7500.0 69.78481012658229
7750.0 69.78481012658229
8000.0 69.58481012658228
8250.0 68.98481012658229
8500.0 69.1848101265823
8750.0 69.3848101265823
9000.0 67.5848101265823
9250.0 67.98481012658229
9500.0 69.58481012658228
9750.0 70.2848101265823
10000.0 69.68481012658229
10300.0 68.5848101265823
10600.0 67.8848101265823
10900.0 67.48481012658229
11200.0 68.18481012658228
11500.0 69.78481012658229
11800.0 70.3848101265823
12200.0 69.3848101265823
12500.0 67.48481012658229
12800.0 65.18481012658229
13200.0 66.98481012658229
13600.0 69.78481012658229
14000.0 69.8848101265823
14500.0 69.58481012658228
15000.0 70.18481012658229
15500.0 68.18481012658228
16000.0 65.58481012658231
16500.0 65.98481012658229
17000.0 66.5848101265823
17500.0 65.18481012658229
18000.0 61.384810126582295
18500.0 59.58481012658228
19000.0 59.384810126582295
19500.0 57.98481012658229
