Freq "Sound Power"
22.4 29.529254678807803
23.0 27.59963724815009
23.6 26.134861552923297
24.0 26.674368156762142
25.0 27.964999565274525
25.8 27.86368960719537
26.5 26.313497669186233
27.2 25.175989260429702
28.0 25.210855070227637
29.0 25.061805317865634
30.0 25.988992791899676
30.7 27.614691257500596
31.5 28.888381109101942
32.5 31.302563602011958
33.5 33.859756940583424
34.5 35.74589774655013
35.5 38.66008128748558
36.5 40.6803757975031
37.5 42.04307354680634
38.7 44.18712251126058
40.0 46.11936326209815
41.2 47.72598473245674
42.5 48.6113646253436
43.7 50.08867883017457
45.0 51.504215231153665
46.2 52.8384868471467
47.5 54.5855590696099
48.7 55.831092560706566
50.0 56.93565425248812
51.5 57.99263880511347
53.0 59.42455946554189
54.5 60.666072283837565
56.0 61.66500422157324
58.0 62.91826836490347
60.0 64.39778955126405
61.5 65.49034412072962
63.0 66.46255052112112
65.0 67.66799317703531
67.0 68.7107311946402
69.0 69.63923770395083
71.0 70.41815857336935
73.0 71.0812625105686
75.0 71.64785805896884
77.5 72.15110133290366
80.0 72.40646994942166
82.5 72.5569903095857
85.0 72.49786186469359
87.5 72.36691800488396
90.0 72.13404479445833
92.5 71.82127343958946
95.0 71.5111636499509
97.5 71.24452897780282
100.0 70.9524259366185
103.0 70.5650261290706
106.0 70.2416226673428
109.0 69.88538240513859
112.0 69.42919467994061
115.0 68.97257322470759
118.0 68.62722694770495
122.0 68.35102811063351
125.0 68.14361722569096
128.0 68.07983731346347
132.0 67.98176954439947
136.0 67.88059259827699
140.0 67.84436998039294
145.0 67.7158908604501
150.0 67.34614617270915
155.0 67.1495568067108
160.0 67.06318478368499
165.0 66.93182443946496
170.0 66.8631730920772
175.0 66.89194175519316
180.0 66.94089994671948
185.0 66.87831954967919
190.0 66.76146582145623
195.0 66.60034978541427
200.0 66.40936422897082
206.0 66.32836615486977
212.0 66.39342407513428
218.0 66.56824974790797
224.0 66.68485686270049
230.0 66.61046821913985
236.0 66.33679170749112
240.0 66.14778333579066
250.0 66.03121073549931
258.0 65.87137812786567
265.0 65.60478438233586
272.0 65.46548066871284
280.0 65.64789391921786
290.0 65.7824485443169
300.0 65.9962178665505
307.0 65.9901483169723
315.0 65.64509574821426
325.0 64.95175468751738
335.0 64.35333177201989
345.0 64.40948226247207
355.0 64.97438164851671
365.0 65.55119342348885
375.0 65.76477560044886
387.0 65.76801280689386
400.0 65.92412021392065
412.0 65.80967690799633
425.0 65.46741344546633
437.0 65.26138541974629
450.0 65.78392808278511
462.0 66.11304269528647
475.0 66.12166698628408
487.0 66.28924600399657
500.0 65.76037717810456
515.0 65.37759298003667
530.0 65.60193275296754
545.0 65.33457192591571
560.0 64.97218232290791
580.0 65.02601641856415
600.0 65.40458587135028
615.0 65.30190257920543
630.0 65.09267347303792
650.0 65.27449299342445
670.0 65.34076342519116
690.0 65.14576558287034
710.0 65.0532427447917
730.0 65.20119600353459
750.0 64.99159259007526
775.0 65.52483450990732
800.0 66.32313014628842
825.0 66.60785652708525
850.0 66.56881792393095
875.0 66.2814237943476
900.0 66.09734325979203
925.0 65.49178170459729
950.0 65.2143745338875
975.0 65.24917036467866
1000.0 65.44719861140965
1030.0 66.40885578392606
1060.0 66.11445444649219
1090.0 65.74937957844716
1120.0 66.11006233170711
1150.0 66.02939195395422
1180.0 65.15681314596648
1220.0 64.40980581368733
1250.0 64.44218578553958
1280.0 63.98000670435229
1320.0 63.06461614329139
1360.0 62.81338678910659
1400.0 62.176420552828645
1450.0 60.97844905929006
1500.0 60.50360586735293
1550.0 60.11236723619692
1600.0 58.87984993292535
1650.0 58.32584515636168
1700.0 58.35942302774711
1750.0 57.52880517034711
1800.0 57.3962682897036
1850.0 57.91854148034189
1900.0 57.787936036374745
1950.0 57.657542031464175
2000.0 57.833947617821394
2060.0 58.05859236592332
2120.0 57.85184955063244
2180.0 57.972189352073556
2240.0 58.849441763700995
2300.0 59.45426718573441
2360.0 59.47643292683266
2400.0 59.599603664530974
2500.0 60.27045738293626
2580.0 61.010756077918955
2650.0 60.57496873070484
2720.0 60.489738627495655
2800.0 60.45003975895
2900.0 60.45504466732211
3000.0 60.76937867357893
3070.0 61.275072471684254
3150.0 62.16029557042718
3250.0 62.772004445525994
3350.0 62.3355990349599
3450.0 61.545335394077156
3550.0 61.138520502284194
3650.0 61.370773896679594
3750.0 61.14286902037975
3870.0 60.55926060088299
4000.0 60.913178373428394
4120.0 61.0723033489333
4250.0 61.15390271969153
4370.0 60.07780608292748
4500.0 58.97642047995488
4620.0 58.58173814148985
4750.0 58.13095275210033
4870.0 57.66049059634696
5000.0 57.38788030643761
5150.0 57.73249846191166
5300.0 58.490156001717764
5450.0 59.47648476520811
5600.0 60.49165630983212
5800.0 60.69534844025959
6000.0 60.55143021977747
6150.0 59.55550588567199
6300.0 58.71009846979666
6500.0 58.55601162656171
6700.0 59.453726968763306
6900.0 60.137828503529704
7100.0 60.11140830832021
7300.0 60.59611798954654
7500.0 62.06359346618257
7750.0 62.786166257819076
8000.0 63.42345015828913
8250.0 62.680527577585934
8500.0 60.58328534583531
8750.0 58.6512648794795
9000.0 56.223285698017165
9250.0 57.39633418881887
9500.0 60.273468970001076
9750.0 62.17083305504893
10000.0 61.97883919051846
10300.0 60.058917174251704
10600.0 58.437766069625056
10900.0 57.80271527361947
11200.0 59.41722309178962
11500.0 63.297409798373664
11800.0 64.27398150599555
12200.0 60.141251425596906
12500.0 56.37037621479975
12800.0 54.36063808226584
13200.0 55.67475714436762
13600.0 59.13880464138636
14000.0 59.34845982160277
14500.0 57.92346351452596
15000.0 58.220695811347625
15500.0 55.95416861309759
16000.0 54.732910882935954
16500.0 55.52931250036217
17000.0 56.36677559672472
17500.0 55.020829404768094
18000.0 50.392849278929845
18500.0 49.46903458645497
19000.0 50.20970994458416
19500.0 47.203341414293675
