Freq,On Axis,Listening Window,Sound Power,Early Reflections,Early Reflections DI,Sound Power DI,DI offset
22.4,31.21012658227849,38.570185490531514,36.039912400947486,37.071133270845706,31.499052219685808,32.53027308958403,30
23.0,32.71012658227849,41.52340982947325,38.401738874085,39.40114750798105,32.1222623214922,33.121670955388254,30
23.6,34.1101265822785,44.35299204355337,40.752768935826936,41.71844700877611,32.63454503477726,33.600223107726436,30
24.0,35.5101265822785,45.56097821898598,42.031843864074716,43.07807120206283,32.48290701692315,33.529134354911264,30
25.0,36.91012658227851,46.42125468630917,43.47658732846725,44.41856458068841,32.00269010562076,32.94466735784192,30
25.8,38.41012658227851,47.31736966017749,45.11177833794858,45.89665573814804,31.42071392202945,32.20559132222891,30
26.5,39.810126582278514,47.385690080909995,45.83043350345403,46.34449279138343,31.041197289526565,31.555256577455964,30
27.2,41.6101265822785,46.50154693937401,44.74913465213805,44.54151776696315,31.960029172410856,31.752412287235956,30
28.0,43.21012658227849,48.168237870723715,46.64004034395836,45.88789865399448,32.28033921672923,31.528197526765354,30
29.0,44.810126582278514,50.97648010560545,49.91038201403893,48.71347775264039,32.26300235296506,31.066098091566516,30
30.0,46.310126582278514,50.74129669311705,49.552594537831766,48.759953841088674,31.981342852028376,31.188702155285284,30
30.7,47.71012658227849,49.05445980624796,47.61940976925305,47.6030869791208,31.45137282712716,31.43505003699491,30
31.5,49.21012658227849,48.9308157381964,47.800179859270656,48.011360555454615,30.919455182741785,31.130635878925744,30
32.5,50.6101265822785,49.26594573904836,48.56603454042275,48.861541732318614,30.40440400672975,30.699911198625614,30
33.5,52.0101265822785,50.67534446164157,50.1779050526018,50.36997673402564,30.30536772761593,30.49743940903977,30
34.5,53.41012658227851,52.331114944717086,52.08009100476718,52.10335339585946,30.22776154885763,30.251023939949903,30
35.5,54.71012658227849,53.98463120396211,54.07475550445662,53.98806711259057,29.99656409137154,29.90987569950549,30
36.5,56.1101265822785,55.5782708102397,55.37211792513696,55.654955256641486,29.923315553598215,30.20615288510274,30
37.5,57.21012658227849,57.04413296286761,56.249325632534195,57.037928818579246,30.00620414428836,30.794807330333413,30
38.7,58.5101265822785,58.72429430135735,57.1513892597643,58.34861048069301,30.375683820664335,31.572905041593046,30
40.0,59.91012658227851,60.56544135448732,58.528271946386724,59.554987854249276,31.010453500238043,32.037169408100596,30
41.2,61.1101265822785,62.01846643841844,59.80582657731057,60.66558955871997,31.35287687969847,32.212639861107874,30
42.5,62.21012658227849,63.57842645756051,61.421794450433936,62.25927867738805,31.319147780172457,32.156632007126575,30
43.7,63.210126582278505,65.60179432948624,63.576725649230184,64.4543893043214,31.147405025164844,32.025068680256055,30
45.0,64.3101265822785,67.43752577799367,65.61588413428481,66.45898479107308,30.978540986920592,31.82164164370886,30
46.2,65.4101265822785,67.84013001985593,66.49294818263904,67.11174490328291,30.728385116573023,31.347181837216894,30
47.5,66.41012658227848,67.70572715482774,66.78657217181801,67.2484617396702,30.457265415157536,30.919154983009733,30
48.7,67.3101265822785,67.16388665625814,65.22824697839782,66.24524537498394,30.918641281274205,31.935639677860323,30
50.0,68.2101265822785,67.69014607766779,65.23603780365484,66.53784530968059,31.1523007679872,32.45410827401295,30
51.5,69.1101265822785,68.67134039246935,65.99645972382412,67.36635884783574,31.304981544633605,32.67488066864523,30
53.0,69.91012658227851,69.50977984416386,66.80664936418715,68.16176362532752,31.348016218836335,32.70313047997671,30
54.5,70.5101265822785,70.12221611983684,67.56827858749034,68.84986028307227,31.27235583676456,32.553937532346495,30
56.0,71.1101265822785,70.71628057453603,68.26962588004243,69.4851672490037,31.231113325532334,32.4466546944936,30
58.0,71.71012658227849,71.31895373662488,68.97963835096772,70.13313490841156,31.185818828213314,32.33931538565716,30
60.0,72.3101265822785,71.86722308754237,69.68222280785344,70.74402374082455,31.123199346717826,32.185000279688936,30
61.5,72.81012658227849,72.28646864200937,70.29778319329306,71.24803956807888,31.038429073930487,31.98868544871631,30
63.0,73.3101265822785,72.69667899117375,70.78691323340925,71.66812095330808,31.02855803786568,31.909765757764504,30
65.0,73.6101265822785,73.00845119449464,71.11192413844579,71.93325512212446,31.075196072370176,31.896527056048853,30
67.0,74.0101265822785,73.2157971810608,71.43423648273827,72.17368168365816,31.042115497402634,31.781560698322522,30
69.0,74.21012658227849,73.36223847349767,71.66793659430525,72.38781320366799,30.97442526982968,31.694301879192423,30
71.0,74.4101265822785,73.73202977292755,72.10834040396819,72.83939896267839,30.89263081024916,31.62368936895936,30
73.0,74.5101265822785,74.14706977578365,72.94320796473737,73.49788487538225,30.649184900401394,31.20386181104628,30
75.0,74.6101265822785,74.42289485826188,73.61762333666057,74.00142719906249,30.421467659199394,30.805271521601313,30
77.5,74.6101265822785,74.5442241452006,74.03026176796246,74.27234562928838,30.27187851591222,30.513962377238144,30
80.0,74.5101265822785,74.52135208213693,74.28918270021897,74.36992490938567,30.151427172751255,30.232169381917956,30
82.5,74.3101265822785,74.38835964736238,74.47601893225709,74.41216570087298,29.976193946489403,29.912340715105287,30
85.0,74.21012658227849,74.31038242883437,74.65687817552978,74.44969545637626,29.86068697245811,29.65350425330459,30
87.5,74.0101265822785,74.19989210498855,74.68960358654883,74.40723019393897,29.792661911049578,29.510288518439722,30
90.0,73.7101265822785,73.9247103222833,74.31518755762502,74.10091499814195,29.823795324141358,29.60952276465828,30
92.5,73.6101265822785,73.77755815555025,73.8109571927846,73.85545806743107,29.92210008811918,29.966600962765654,30
95.0,73.4101265822785,73.60015452847065,73.13874633223111,73.47784958869923,30.122304939771425,30.461408196239546,30
97.5,73.2101265822785,73.47932145011336,72.66368792518733,73.17338129996045,30.305940150152907,30.815633524926028,30
100.0,73.2101265822785,73.45586258188229,72.80908074322406,73.25368406645765,30.202178515424634,30.646781838658228,30
103.0,73.2101265822785,73.47856582102901,72.99781913072664,73.31705374175661,30.1615120792724,30.480746690302368,30
106.0,73.4101265822785,73.62236692912974,73.19332832036983,73.4952853588932,30.12708157023654,30.42903860875991,30
109.0,73.6101265822785,73.77730036790506,73.34293198289197,73.65230031739722,30.125000050507836,30.434368385013087,30
112.0,73.81012658227851,73.89989794267557,73.45270699500696,73.77301817483509,30.126879767840478,30.447190947668602,30
115.0,73.91012658227848,73.9556210614773,73.41728835812108,73.77006564700073,30.185555414476568,30.538332703356218,30
118.0,74.0101265822785,74.05511465618568,73.50821921415292,73.86235511710517,30.192759539080512,30.546895442032763,30
122.0,74.1101265822785,74.13254864148368,73.46130255930944,73.84880079744948,30.283747844034195,30.671246082174235,30
125.0,74.1101265822785,74.0548555328557,73.33825234230285,73.74012847738243,30.31472705547327,30.716603190552846,30
128.0,74.0101265822785,73.9548555328557,73.23815300855807,73.61100506486638,30.343850467989327,30.71670252429763,30
132.0,73.81012658227851,73.76596615913627,73.04937048698464,73.42077780684079,30.34518835229548,30.716595672151627,30
136.0,73.5101265822785,73.63280317057963,72.88458582807303,73.26413479811701,30.368668372462622,30.748217342506607,30
140.0,73.3101265822785,73.33331811189562,72.46210535075272,72.85868154321065,30.47463656868497,30.8712127611429,30
145.0,73.0101265822785,73.03331811189562,71.92844479063254,72.42437935462605,30.60893875726957,31.104873321263085,30
150.0,72.9101265822785,72.72468048253772,71.5117225490477,72.08723514427938,30.637445338258345,31.212957933490017,30
155.0,72.9101265822785,72.71268464099862,71.41979208391399,72.02883073373405,30.683853907264563,31.292892557084627,30
160.0,72.9101265822785,72.69166662339381,71.30400023551711,71.95650666142016,30.73515996197365,31.387666387876706,30
165.0,73.1101265822785,72.8916666233938,71.42044178727788,72.09752053518217,30.794146088211633,31.471224836115923,30
170.0,73.3101265822785,73.03712950236114,71.51855321649455,72.20431316797291,30.832816334388227,31.518576285866587,30
175.0,73.5101265822785,73.21617764054537,71.69878526718132,72.35478471279059,30.86139292775478,31.517392373364046,30
180.0,73.6101265822785,73.29418430109101,71.81183449648373,72.41113597059424,30.883048330496763,31.48234980460728,30
185.0,73.7101265822785,73.37129861842371,71.79825008525633,72.38910517051289,30.982193447910817,31.57304853316738,30
190.0,73.5101265822785,73.19716250659252,71.50395126702536,72.11813255293521,31.07902995365731,31.693211239567162,30
195.0,73.3101265822785,72.93323337334124,71.03208430204629,71.7353169535025,31.197916419838734,31.901149071294952,30
200.0,72.9101265822785,72.54519686891982,70.30174930769648,71.17633095585762,31.368865913062194,32.243447561223334,30
206.0,72.41012658227851,72.0145422544457,69.41662430607659,70.51835792324135,31.496184331204347,32.597917948369115,30
212.0,71.9101265822785,71.50221285731618,68.4267972670059,69.845298322664,31.656914534652188,33.075415590310286,30
218.0,71.6101265822785,71.21454225444569,67.75366230822353,69.43847161473755,31.776070639708138,33.460879946222164,30
224.0,71.71012658227849,71.29119469289707,67.51071066347095,69.4564713439166,31.83472334898046,33.78048402942612,30
230.0,72.3101265822785,71.89119469289705,67.7670214535309,69.92482119495274,31.966373497944303,34.124173239366144,30
236.0,73.0101265822785,72.67801383376991,68.30894279310321,70.63484662941252,32.04316720435739,34.3690710406667,30
240.0,73.6101265822785,73.3621443353882,69.32245081197345,71.44139606720593,31.920748268182265,34.03969352341474,30
250.0,74.1101265822785,73.79716250659253,69.82450894590121,71.87855044115155,31.918612065440982,33.97265356069131,30
258.0,74.21012658227849,73.92764829823629,69.9432192094828,72.03630356459047,31.891344733645823,33.98442908875349,30
265.0,74.0101265822785,73.74801993522487,69.94831241919042,71.99634189771005,31.75167803751482,33.79970751603446,30
272.0,73.6101265822785,73.49062675320307,69.89305155104674,71.85609373398174,31.634533019221337,33.597575202156335,30
280.0,73.1101265822785,73.07932145011337,69.69449881598182,71.54533048900244,31.53399096111093,33.38482263413155,30
290.0,72.71012658227852,72.61216724721281,69.43628485674547,71.20627690127904,31.40589034593377,33.175882390467336,30
300.0,72.5101265822785,72.50091795076915,69.47235553419283,71.16726172868343,31.33365622208572,33.02856241657632,30
307.0,72.81012658227849,72.65820031283235,69.69786664150297,71.37579762752983,31.282402685302515,32.96033367132938,30
315.0,73.3101265822785,73.1059751900516,69.73759190462675,71.63739118887185,31.46858400117975,33.36838328542484,30
325.0,73.81012658227851,73.63988720119079,70.04634115831755,71.94996309924716,31.68992410194363,33.59354604287324,30
335.0,74.1101265822785,73.90453167648498,70.7952763705494,72.30589567046894,31.598636006016037,33.10925530593558,30
345.0,74.21012658227849,73.8417195250042,70.40686734754196,72.01513033158892,31.826589193415273,33.43485217746223,30
355.0,74.21012658227849,73.78065199880044,69.86576660076248,71.72405033944672,32.05660165935372,33.91488539803795,30
365.0,74.21012658227849,73.84914817988741,69.72590031781118,71.73271198869189,32.11643619119552,34.12324786207623,30
375.0,74.3101265822785,73.93691677474551,69.5915795300611,71.6241572004949,32.312759574250606,34.345337244684416,30
387.0,74.21012658227849,73.90790958286982,69.45656992564014,71.44762630018229,32.46028328268753,34.45133965722968,30
400.0,74.21012658227849,73.85503034185918,69.18962211991808,71.50749163925335,32.34753870260583,34.66540822194109,30
412.0,74.3101265822785,74.02467542579635,69.15887689127625,71.71031952082383,32.314355904972516,34.865798534520096,30
425.0,74.5101265822785,74.18798079168347,69.34588474270527,71.94720276610448,32.24077802557899,34.842096048978206,30
437.0,74.4101265822785,74.15751597427594,69.54384212417823,72.07679805957362,32.08071791470232,34.61367385009771,30
450.0,74.0101265822785,73.85519596633117,69.59036636266798,71.98821082279757,31.866985143533597,34.26482960366319,30
462.0,73.81012658227851,73.69195594585422,70.06386455118773,72.13192431603159,31.56003162982263,33.628091394666484,30
475.0,74.0101265822785,73.82873014461333,70.24928035039676,72.2613229939379,31.567407150675436,33.57944979421657,30
487.0,74.0101265822785,73.53420678779767,70.10779204857778,72.08590463471194,31.448302153085734,33.426414739219894,30
500.0,73.91012658227848,73.28928238549287,69.665201699692,71.76815299064782,31.521129394845047,33.62408068580086,30
515.0,73.91012658227848,73.24588836607029,69.35932836241271,71.54886737216441,31.69702099390588,33.88656000365758,30
530.0,74.1101265822785,73.34311965929793,69.01266969046128,71.28551132777741,32.05760833152051,34.330449968836646,30
545.0,74.5101265822785,73.77517825966444,68.77839884350666,71.40097160222476,32.374206657439686,34.99677941615778,30
560.0,75.21012658227852,74.56214919596985,69.05813668693355,72.0576257439045,32.50452345206536,35.5040125090363,30
580.0,75.7101265822785,75.071100646589,69.41325013139462,72.60723072342907,32.46386992315993,35.65785051519438,30
600.0,75.8101265822785,75.3407515314432,69.92104077900446,73.08437484353085,32.25637668791235,35.419710752438746,30
615.0,75.7101265822785,75.39916668347553,70.20138025184139,73.21108406424908,32.18808261922645,35.19778643163414,30
630.0,75.6101265822785,75.19724928470245,69.79733697502583,72.75287806356505,32.4443712211374,35.39991230967662,30
650.0,75.6101265822785,75.15553060022366,69.67547257773992,72.65824597119868,32.497284629024975,35.48005802248373,30
670.0,75.4101265822785,74.98047907486736,69.59997859949847,72.58199203951014,32.39848703535722,35.38050047536889,30
690.0,75.0101265822785,74.48902891497795,68.8558251157735,71.92029948653433,32.56872942844362,35.63320379920445,30
710.0,74.4101265822785,73.84776892399209,67.88481288339659,70.9554695892606,32.89229933473149,35.9629560405955,30
730.0,74.1101265822785,73.59401557367516,67.4324424863872,70.43123007741481,33.162785496260355,36.16157308728796,30
750.0,73.91012658227848,73.45063081972805,67.04752738871827,70.11769921736318,33.332931602364866,36.40310343100978,30
775.0,74.0101265822785,73.41693962355558,66.53226287544376,69.76774429522828,33.649195328327295,36.884676748111815,30
800.0,74.1101265822785,73.36965243533272,66.23588103818125,69.57974595280183,33.789906482530895,37.13377139715148,30
825.0,73.91012658227848,73.26025392957975,66.19204113874282,69.55530571389104,33.7049482156887,37.068212790836924,30
850.0,73.91012658227848,73.14620114736488,65.87344176586264,69.29510748000051,33.85109366736437,37.27275938150224,30
875.0,74.0101265822785,73.01343866898168,65.50787282200591,69.0415318131324,33.971906855849284,37.50556584697577,30
900.0,74.0101265822785,73.07431927249071,65.41130412709714,68.99529699347161,34.0790222790191,37.66301514539357,30
925.0,74.0101265822785,73.00342838759121,65.09134265386801,68.68043561314067,34.32299277445054,37.9120857337232,30
950.0,74.0101265822785,73.0947615280746,64.83765439573648,68.430770260186,34.663991267888605,38.25710713233812,30
975.0,74.21012658227849,73.13250697371991,64.76153030498752,68.26283701069359,34.869669963026325,38.370976668732396,30
1000.0,74.5101265822785,73.37826985267002,65.01361625737215,68.54640057847938,34.83186927419064,38.36465359529787,30
1030.0,75.0101265822785,74.05062718600942,65.91971919724075,69.51174090539658,34.53888628061284,38.13090798876867,30
1060.0,75.1101265822785,74.1465242106447,66.00945125835793,69.65364307204547,34.49288113859923,38.13707295228677,30
1090.0,74.7101265822785,73.74312894913405,65.47556170794661,69.1750302267252,34.56809872240885,38.267567241187436,30
1120.0,74.21012658227849,73.18925767433686,64.89244377848681,68.54828963534337,34.64096803899349,38.29681389585005,30
1150.0,74.1101265822785,73.0097553305735,64.59225140437319,68.36839824831074,34.64135708226276,38.41750392620031,30
1180.0,74.1101265822785,72.7494924386653,64.2052466265803,68.04681107148943,34.70268136717587,38.544245812084995,30
1220.0,74.6101265822785,73.34549434299434,64.72783717984612,68.68177926740233,34.66371507559201,38.61765716314822,30
1250.0,75.0101265822785,73.72674746104394,65.24248247973527,69.17390580777754,34.5528416532664,38.48426498130867,30
1280.0,75.6101265822785,74.20405319306607,65.12592997276862,69.41001710968823,34.79403608337785,39.078123220297456,30
1320.0,76.2101265822785,74.83586478237864,65.53680715379474,69.95323922393285,34.88262555844578,39.299057628583896,30
1360.0,76.41012658227848,74.89557533862029,65.55649515996063,69.99013333025246,34.90544200836783,39.33908017865966,30
1400.0,76.31012658227851,74.86380630886342,65.61748011149449,70.05565047887123,34.80815582999219,39.24632619736893,30
1450.0,76.31012658227851,74.98997072553709,66.13841304062834,70.4237383338421,34.566232391694996,38.851557684908755,30
1500.0,76.1101265822785,74.95364010750677,66.1573985772273,70.37872857428002,34.574911533226754,38.796241530279474,30
1550.0,75.6101265822785,74.63978062867608,66.56113740465757,70.49240692081526,34.14737370786082,38.078643224018506,30
1600.0,75.1101265822785,74.18646265834612,66.00094460382745,69.90711607235333,34.27934658599278,38.18551805451867,30
1650.0,74.8101265822785,73.66784352608101,64.84297518339021,69.0081074137317,34.65973611234932,38.824868342690806,30
1700.0,74.7101265822785,73.23033411070051,63.835444934093914,68.25194950336294,34.978384607337574,39.3948891766066,30
1750.0,74.8101265822785,73.09979392910473,63.38686418069048,67.93724207904306,35.162551850061675,39.712929748414254,30
1800.0,75.21012658227852,73.48351450311705,63.72329396584294,68.23197151845315,35.2515429846639,39.76022053727411,30
1850.0,75.21012658227852,73.42842888454814,64.04977851495153,68.42576181533258,35.00266706921556,39.37865036959661,30
1900.0,75.6101265822785,74.06620365198204,65.14306527549752,69.29908419574676,34.76711945623528,38.923138376484516,30
1950.0,76.2101265822785,74.84912525103192,66.00005223496495,70.07678918565651,34.77233606537541,38.84907301606697,30
2000.0,76.5101265822785,75.35047754721263,66.71801213501658,70.55798707241789,34.79249047479475,38.632465412196055,30
2060.0,76.71012658227849,75.86764911515068,67.50858467245172,71.20158795843523,34.66606115671546,38.359064442698966,30
2120.0,77.1101265822785,76.87372629950576,68.91468450255353,72.49283081882947,34.38089548067629,37.959041796952235,30
2180.0,77.3101265822785,77.48734964076947,69.77612514155157,73.25500535877326,34.232344281996205,37.71122449921789,30
2240.0,77.1101265822785,77.78233953845265,70.04942306819972,73.42290681081465,34.359432727637994,37.73291647025293,30
2300.0,76.6101265822785,77.08418275025093,69.4771641357644,72.80958085992255,34.274601890328384,37.607018614486535,30
2360.0,76.41012658227848,75.99515044764773,68.0639574966474,71.74561763847055,34.24953280917718,37.93119295100033,30
2400.0,76.8101265822785,76.32241727005848,68.16358381400576,71.81022470230788,34.5121925677506,38.15883345605272,30
2500.0,77.2101265822785,76.85492748412808,68.88502429684202,72.35973461320349,34.4951928709246,37.969903187286064,30
2580.0,77.3101265822785,77.46012459476992,69.68766510473985,73.03836229691221,34.42176229785771,37.77245949003007,30
2650.0,76.6101265822785,77.06337030255237,69.36548989468388,72.55817615888856,34.505194143663815,37.697880407868496,30
2720.0,75.8101265822785,76.1061422804739,68.61087973296289,71.7859396600813,34.32020262039261,37.49526254751102,30
2800.0,75.6101265822785,75.80327775751708,68.53867637811172,71.80330418658544,33.999973570931644,37.26460137940536,30
2900.0,75.6101265822785,75.68826944576432,68.29737369714124,71.73857337356596,33.949696072198364,37.39089574862308,30
