Freq "On Axis"
22.4 31.21012658227849
23.0 32.71012658227849
23.6 34.1101265822785
24.0 35.5101265822785
25.0 36.91012658227851
25.8 38.41012658227851
26.5 39.810126582278514
27.2 41.6101265822785
28.0 43.21012658227849
29.0 44.810126582278514
30.0 46.310126582278514
30.7 47.71012658227849
31.5 49.21012658227849
32.5 50.6101265822785
33.5 52.0101265822785
34.5 53.41012658227851
35.5 54.71012658227849
36.5 56.1101265822785
37.5 57.21012658227849
38.7 58.5101265822785
40.0 59.91012658227851
41.2 61.1101265822785
42.5 62.21012658227849
43.7 63.210126582278505
45.0 64.3101265822785
46.2 65.4101265822785
47.5 66.41012658227848
48.7 67.3101265822785
50.0 68.2101265822785
51.5 69.1101265822785
53.0 69.91012658227851
54.5 70.5101265822785
56.0 71.1101265822785
58.0 71.71012658227849
60.0 72.3101265822785
61.5 72.81012658227849
63.0 73.3101265822785
65.0 73.6101265822785
67.0 74.0101265822785
69.0 74.21012658227849
71.0 74.4101265822785
73.0 74.5101265822785
75.0 74.6101265822785
77.5 74.6101265822785
80.0 74.5101265822785
82.5 74.3101265822785
85.0 74.21012658227849
87.5 74.0101265822785
90.0 73.7101265822785
92.5 73.6101265822785
95.0 73.4101265822785
97.5 73.2101265822785
100.0 73.2101265822785
103.0 73.2101265822785
106.0 73.4101265822785
109.0 73.6101265822785
112.0 73.81012658227851
115.0 73.91012658227848
118.0 74.0101265822785
122.0 74.1101265822785
125.0 74.1101265822785
128.0 74.0101265822785
132.0 73.81012658227851
136.0 73.5101265822785
140.0 73.3101265822785
145.0 73.0101265822785
150.0 72.9101265822785
155.0 72.9101265822785
160.0 72.9101265822785
165.0 73.1101265822785
170.0 73.3101265822785
175.0 73.5101265822785
180.0 73.6101265822785
185.0 73.7101265822785
190.0 73.5101265822785
195.0 73.3101265822785
200.0 72.9101265822785
206.0 72.41012658227851
212.0 71.9101265822785
218.0 71.6101265822785
224.0 71.71012658227849
230.0 72.3101265822785
236.0 73.0101265822785
240.0 73.6101265822785
250.0 74.1101265822785
258.0 74.21012658227849
265.0 74.0101265822785
272.0 73.6101265822785
280.0 73.1101265822785
290.0 72.71012658227852
300.0 72.5101265822785
307.0 72.81012658227849
315.0 73.3101265822785
325.0 73.81012658227851
335.0 74.1101265822785
345.0 74.21012658227849
355.0 74.21012658227849
365.0 74.21012658227849
375.0 74.3101265822785
387.0 74.21012658227849
400.0 74.21012658227849
412.0 74.3101265822785
425.0 74.5101265822785
437.0 74.4101265822785
450.0 74.0101265822785
462.0 73.81012658227851
475.0 74.0101265822785
487.0 74.0101265822785
500.0 73.91012658227848
515.0 73.91012658227848
530.0 74.1101265822785
545.0 74.5101265822785
560.0 75.21012658227852
580.0 75.7101265822785
600.0 75.8101265822785
615.0 75.7101265822785
630.0 75.6101265822785
650.0 75.6101265822785
670.0 75.4101265822785
690.0 75.0101265822785
710.0 74.4101265822785
730.0 74.1101265822785
750.0 73.91012658227848
775.0 74.0101265822785
800.0 74.1101265822785
825.0 73.91012658227848
850.0 73.91012658227848
875.0 74.0101265822785
900.0 74.0101265822785
925.0 74.0101265822785
950.0 74.0101265822785
975.0 74.21012658227849
1000.0 74.5101265822785
1030.0 75.0101265822785
1060.0 75.1101265822785
1090.0 74.7101265822785
1120.0 74.21012658227849
1150.0 74.1101265822785
1180.0 74.1101265822785
1220.0 74.6101265822785
1250.0 75.0101265822785
1280.0 75.6101265822785
1320.0 76.2101265822785
1360.0 76.41012658227848
1400.0 76.31012658227851
1450.0 76.31012658227851
1500.0 76.1101265822785
1550.0 75.6101265822785
1600.0 75.1101265822785
1650.0 74.8101265822785
1700.0 74.7101265822785
1750.0 74.8101265822785
1800.0 75.21012658227852
1850.0 75.21012658227852
1900.0 75.6101265822785
1950.0 76.2101265822785
2000.0 76.5101265822785
2060.0 76.71012658227849
2120.0 77.1101265822785
2180.0 77.3101265822785
2240.0 77.1101265822785
2300.0 76.6101265822785
2360.0 76.41012658227848
2400.0 76.8101265822785
2500.0 77.2101265822785
2580.0 77.3101265822785
2650.0 76.6101265822785
2720.0 75.8101265822785
2800.0 75.6101265822785
2900.0 75.6101265822785
3000.0 75.6101265822785
3070.0 75.0101265822785
3150.0 74.4101265822785
3250.0 74.6101265822785
3350.0 75.21012658227852
3450.0 75.4101265822785
3550.0 75.7101265822785
3650.0 75.0101265822785
3750.0 73.6101265822785
3870.0 72.9101265822785
4000.0 74.0101265822785
4120.0 75.1101265822785
4250.0 75.31012658227849
4370.0 75.4101265822785
4500.0 75.1101265822785
4620.0 74.7101265822785
4750.0 75.0101265822785
4870.0 76.0101265822785
5000.0 76.2101265822785
5150.0 75.7101265822785
5300.0 75.5101265822785
5450.0 75.21012658227852
5600.0 74.5101265822785
5800.0 74.3101265822785
6000.0 74.6101265822785
6150.0 75.31012658227849
6300.0 75.5101265822785
6500.0 74.7101265822785
6700.0 73.7101265822785
6900.0 73.2101265822785
7100.0 72.6101265822785
7300.0 72.1101265822785
7500.0 73.0101265822785
7750.0 75.0101265822785
8000.0 76.2101265822785
8250.0 75.9101265822785
8500.0 75.4101265822785
8750.0 75.21012658227852
9000.0 75.21012658227852
9250.0 73.91012658227848
9500.0 73.81012658227851
9750.0 74.6101265822785
10000.0 74.8101265822785
10300.0 75.1101265822785
10600.0 74.0101265822785
10900.0 74.3101265822785
11200.0 75.1101265822785
11500.0 74.8101265822785
11800.0 73.81012658227851
12200.0 74.91012658227851
12500.0 74.3101265822785
12800.0 71.31012658227851
13200.0 69.6101265822785
13600.0 68.91012658227848
14000.0 71.5101265822785
14500.0 71.9101265822785
15000.0 69.0101265822785
15500.0 70.4101265822785
16000.0 77.9101265822785
16500.0 77.1101265822785
17000.0 73.91012658227848
17500.0 72.9101265822785
18000.0 72.1101265822785
18500.0 70.1101265822785
19000.0 68.5101265822785
19500.0 68.91012658227848
