Freq "Estimated In-Room Response"
22.4 -2.4551759258799564
23.0 0.07423208493671041
23.6 5.067263202250501
24.0 10.076381664422229
25.0 12.42973923299158
25.8 14.17465917679013
26.5 16.45592170191307
27.2 17.949488041701073
28.0 17.815424397176372
29.0 18.04966805407028
30.0 17.19507122186897
30.7 16.669988554771095
31.5 16.69284887628848
32.5 17.368621422012694
33.5 22.284135183292705
34.5 25.733966902838887
35.5 29.315612310486785
36.5 35.94368161911436
37.5 39.948160655200724
38.7 43.59136482998363
40.0 47.866624310349835
41.2 50.781606783438576
42.5 53.86745533208156
43.7 56.51263826980647
45.0 58.788325903379146
46.2 61.13806925732615
47.5 62.97609820488867
48.7 64.52855810485534
50.0 65.7985957950077
51.5 66.72234871155699
53.0 67.42834060770991
54.5 67.97411360402184
56.0 68.29026779643564
58.0 69.24716433080452
60.0 70.41754858172588
61.5 71.58784304555344
63.0 72.47541937684613
65.0 73.26129872897573
67.0 73.96283706298846
69.0 74.68396827852325
71.0 75.37279140375644
73.0 76.05801960025286
75.0 76.70899953472829
77.5 77.34111370523841
80.0 77.89984007022487
82.5 78.40514021566639
85.0 78.88011588907479
87.5 79.3067568415403
90.0 79.67720637418645
92.5 79.95045052770234
95.0 80.14517942824534
97.5 80.3114942543432
100.0 80.40697396236342
103.0 80.43978327075575
106.0 80.43978107192012
109.0 80.466536702504
112.0 80.50840663818974
115.0 80.52636877716357
118.0 80.36570009157464
122.0 80.06047324995387
125.0 79.66279989461094
128.0 79.4126260443815
132.0 79.25002641793427
136.0 79.16694813883669
140.0 79.19184260706734
145.0 79.21920370485208
150.0 79.39696951983922
155.0 79.87823322769802
160.0 80.48522920553572
165.0 80.89726205978441
170.0 81.09182612949958
175.0 80.94970300908221
180.0 80.24730728298164
185.0 79.0494308593944
190.0 77.68234561660533
195.0 76.52815542521687
200.0 75.91460062616045
206.0 76.04767969622613
212.0 77.31329963182972
218.0 78.50987277009274
224.0 79.18352631804967
230.0 79.14108319866997
236.0 78.39004275108846
240.0 77.55974982617553
250.0 76.82656354608284
258.0 76.38493230368701
265.0 76.45929412219054
272.0 76.679236635832
280.0 76.97034036496433
290.0 77.37939775590047
300.0 77.7659590657661
307.0 77.95697380464351
315.0 78.03110212201832
325.0 77.70787709443482
335.0 77.13057533425612
345.0 77.1297199833865
355.0 77.4349699879059
365.0 77.53744754189162
375.0 77.2865815009508
387.0 77.23680967410372
400.0 77.49267710086944
412.0 77.80132316420926
425.0 78.2845939616617
437.0 78.30876435128685
450.0 78.33745701301784
462.0 78.45645988706454
475.0 78.47372578830749
487.0 78.42267925391084
500.0 78.35270559791516
515.0 78.32983092356312
530.0 78.41251265945918
545.0 78.09879919577277
560.0 77.70923537843429
580.0 77.60860511795482
600.0 78.18366035004988
615.0 77.98289363074875
630.0 77.06582039152208
650.0 76.10174144496241
670.0 76.1199309836413
690.0 76.55222149426804
710.0 76.89360259905308
730.0 76.72459816462904
750.0 76.22085219732023
775.0 75.99355120254093
800.0 75.50532918404058
825.0 75.7837949954441
850.0 75.791277811089
875.0 75.41656276839606
900.0 75.17151277580494
925.0 74.55255699809766
950.0 73.91360438609873
975.0 73.42522106096034
1000.0 73.54364725046909
1030.0 73.53483947216738
1060.0 74.02680568175349
1090.0 74.33544959773508
1120.0 73.96464759360866
1150.0 74.10179480768844
1180.0 74.06879873870288
1220.0 73.32833745459536
1250.0 72.14396195634087
1280.0 72.4389814596221
1320.0 72.92100590007465
1360.0 72.41167297484566
1400.0 72.40620041129844
1450.0 72.24044193387772
1500.0 71.97844863206859
1550.0 71.57448663510166
1600.0 71.93592754391013
1650.0 72.61409453426819
1700.0 73.12411126745957
1750.0 73.60626853039494
1800.0 73.93293047054547
1850.0 73.93915069770917
1900.0 74.09134916923148
1950.0 74.47282425247971
2000.0 74.76654592954033
2060.0 74.96353446480066
2120.0 74.8827835975572
2180.0 75.16374731116451
2240.0 75.49844152403841
2300.0 76.04901792528352
2360.0 76.13548570558467
2400.0 75.882040048939
2500.0 75.66278673010096
2580.0 75.11477178347823
2650.0 75.0621036781782
2720.0 75.21037141602761
2800.0 75.44862015113219
2900.0 75.07324952511628
3000.0 75.28407429947899
3070.0 75.20935528874296
3150.0 75.23920505135554
3250.0 75.09286599878997
3350.0 75.36831752856469
3450.0 74.72053676819951
3550.0 74.62323601162751
3650.0 75.18283919121404
3750.0 75.21459515312678
3870.0 74.70246102596974
4000.0 75.97654796508131
4120.0 75.17462715290895
4250.0 76.0211434598076
4370.0 76.50426018842754
4500.0 76.72733302488774
4620.0 76.96916183055822
4750.0 76.80098612033112
4870.0 76.58008011698142
5000.0 76.52662354497771
5150.0 76.44538967366606
5300.0 76.0710257109601
5450.0 74.79423251215135
5600.0 74.42158215396886
5800.0 74.84736888857425
6000.0 75.45227072799327
6150.0 75.80721535505936
6300.0 76.24580120602756
6500.0 76.741684810392
6700.0 76.94234506199376
6900.0 77.16567843413277
7100.0 76.85284481297697
7300.0 76.58723793001377
7500.0 76.46586030992331
7750.0 77.15722515070959
8000.0 77.75197894056492
8250.0 77.75747840015941
8500.0 77.22147774000346
8750.0 76.54823909891496
9000.0 76.58216031329074
9250.0 77.06951854811032
9500.0 77.50427054104391
9750.0 77.4334591407015
10000.0 77.92855853846473
10300.0 78.40955875877717
10600.0 78.2235651280674
10900.0 78.01248103582904
11200.0 78.28489410239553
11500.0 78.87588961197913
11800.0 80.6437917499057
12200.0 79.29280475630964
12500.0 78.25041515589399
12800.0 79.33620008759596
13200.0 80.60261354447356
13600.0 80.56688924076366
14000.0 78.38737954076396
14500.0 78.49828176400976
15000.0 79.44807120911005
15500.0 78.74188535678995
16000.0 78.33115547055903
16500.0 74.5301671529127
17000.0 76.98040253107979
17500.0 78.35437662336743
18000.0 72.37799297906054
18500.0 68.753075954164
19000.0 67.6002837156777
19500.0 64.97957024116084
