Freq "Floor Bounce"
20.5078 71.08949233490377
21.9727 71.04545202642359
23.4375 71.91105270680744
24.9023 73.5736164686265
26.3672 74.71395235311127
27.832 75.99754651135416
29.2969 76.75564332174436
30.7617 77.3544564236176
32.2266 78.27976419144626
33.6914 78.98854369876692
35.1562 79.63859960411537
36.6211 80.14899864477562
38.0859 80.69030236319449
39.5508 81.33667170661099
41.0156 81.78437896937677
42.4805 82.31408716249697
43.9453 82.78067790570972
45.4102 83.1237208732113
46.875 83.79135604407438
48.3398 84.28256917255267
51.2695 84.90358732938367
52.7344 85.21134227297347
54.1992 85.54843354924884
55.6641 85.88966716893947
58.5938 86.65803384325271
60.0586 86.90973465461346
62.9883 87.46123425004251
64.4531 87.6882016601828
67.3828 88.17090630027647
68.8477 88.40744461282642
71.7773 88.81723984696625
74.707 89.18890801381778
77.6367 89.49677202586967
79.1016 89.61905617324622
82.0312 89.82287629342463
84.9609 89.89945534248453
87.8906 90.09884883603465
90.8203 90.1780603642643
95.2148 90.22601252430437
98.1445 90.13259077880944
101.074 89.96275514900546
105.469 90.05675938287538
108.398 90.2825669237415
112.793 90.30736788724414
117.188 90.26004076016531
120.117 90.24894863562108
124.512 90.53285900080681
128.906 90.32016947835703
133.301 90.01144648810607
139.16 89.65378534045163
143.555 89.47669072115693
147.949 89.33648193958355
153.809 89.09452990359704
159.668 89.21579471956414
165.527 89.11883387499344
171.387 88.84928415332338
177.246 88.59228555791486
183.105 88.27077580311446
188.965 88.10528860662745
196.289 88.71575840109355
203.613 88.53905697635304
210.938 88.37966679880009
218.262 88.24408024499299
225.586 88.12193012557785
232.91 88.10379697435515
241.699 88.00413500280467
250.488 87.99787988105712
259.277 88.15740608898408
268.066 87.39690388403793
276.855 86.91988883315808
287.109 86.59069074872583
297.363 86.46511362707511
307.617 87.27007160647238
319.336 86.58101753755167
329.59 86.72929564765433
341.309 87.06281631290786
353.027 87.21074157813982
366.211 86.28297403682737
379.395 86.09111595018996
392.578 85.57224052939253
405.762 86.00294478248192
420.41 86.90563404534245
435.059 87.10457108366137
451.172 86.2000565137078
465.82 87.63155763244048
483.398 86.30493663183415
499.512 86.11185640016082
517.09 85.49545952402387
536.133 86.01871377656485
555.176 85.50797579669711
574.219 84.15625898865355
594.727 83.37850719901161
615.234 84.3251558004995
637.207 83.28345944269378
659.18 82.92719676835004
682.617 82.6475938087789
707.52 80.84260996874443
732.422 80.96842257080453
757.324 80.92775559429488
785.156 79.28543001618279
811.523 79.3745718178166
840.82 79.50708232230278
870.117 80.43275183893563
900.879 82.03036491572368
933.105 83.05744668051096
965.332 81.72267320541411
1000.49 82.9589075349817
1035.64 81.6178433026443
1072.27 82.97118435549237
1108.89 82.09493696113813
1148.44 82.28984886887324
1189.45 82.32259063496622
1230.47 82.2217329116807
1274.41 82.1670774810576
1319.82 81.11193152138912
1366.7 80.61503140756007
1413.57 81.22615836064861
1463.38 80.60890029778145
1516.11 81.61687541259921
1568.85 81.51800916163374
1624.51 82.84206706640751
1681.64 84.12306648333347
1741.7 84.71798714765876
1803.22 85.35414129496701
1866.21 86.48472746139994
1932.13 87.61377165693398
1999.51 87.40595862765886
2069.82 87.86271480281137
2143.07 88.19295230924723
2219.24 88.30198901417525
2296.88 87.71717887357602
2378.91 88.11708953586621
2462.4 88.01032443647304
2548.83 87.99290578719712
2639.65 88.2135151674315
2731.93 88.81040634774689
2828.61 88.44306557109189
2928.22 88.23001635710372
3030.76 88.51654561431117
3137.7 88.1046303518172
3249.02 87.68861175238467
3363.28 87.45831916598901
3481.93 87.3936773786149
3604.98 87.31587529713917
3732.42 87.07801941773067
3864.26 86.88606892264173
4000.49 86.72512506063734
4141.11 86.67143480315761
4287.6 86.50142898740458
4438.48 86.83013552084232
4595.21 86.90295123008619
4756.35 87.08733265455642
4924.8 86.84404134245453
5097.66 86.6894624949719
5277.83 85.67079264959365
5463.87 85.67545498587482
5657.23 85.69888740979071
5856.45 86.24497494133826
6062.99 86.1883412316562
6276.86 86.60313733817961
6498.05 87.11110259833768
6726.56 87.07014636534231
6963.87 86.99172883986733
7209.96 86.87869601978579
7464.84 86.71360209023524
7727.05 86.80187210878387
7999.51 86.66085937817347
8282.23 86.52203021573176
8573.73 86.66519206435203
8876.95 86.61341455353778
9188.96 86.26651105638234
9514.16 86.43773380600989
9849.61 86.46200742829629
10196.8 86.56452636481565
10555.7 86.79407691363582
10927.7 87.24053263088362
11313.0 87.72825783039785
11712.9 87.84349193871917
12126.0 88.34600514257136
12553.7 88.70180947651097
12996.1 88.76191566162682
13454.6 88.71739550977512
13929.2 89.14713580215596
14419.9 89.79756985613295
14928.2 90.0073302342364
15455.6 89.6617482528637
16000.5 89.22151723064196
16564.5 88.52238042263954
17148.9 87.60496089354511
17752.4 86.21679410558431
18379.4 84.4327453411045
19026.9 82.4692565578309
19697.8 80.18618975539576
19999.5 79.13169113307453
