Freq "Front Wall Bounce"
22.4 62.160151458190036
23.0 61.04720821632953
23.6 59.518878318510396
24.0 56.95006468158889
25.0 55.41778589682466
25.8 56.09097269225686
26.5 56.75371747628572
27.2 57.42908043666515
28.0 58.14172088715957
29.0 58.84012181084275
30.0 59.476476490440966
30.7 60.184833416155236
31.5 60.92787836482655
32.5 61.7613769641948
33.5 62.59978665708906
34.5 63.55100485170177
35.5 64.60742941717368
36.5 65.96567875003652
37.5 64.66791665710741
38.7 63.27147073209441
40.0 62.734477919428535
41.2 62.42187372041112
42.5 62.2613488089873
43.7 62.13520920589989
45.0 62.06963115622451
46.2 61.99543575406572
47.5 61.93627425040116
48.7 61.895882360005
50.0 61.77710882962773
51.5 61.59331742433047
53.0 61.414403030037015
54.5 61.25971865573862
56.0 61.144734163996
58.0 61.03955982935231
60.0 60.922270111454615
61.5 60.85775556306468
63.0 60.887317324612816
65.0 60.99626056355908
67.0 61.04858315632267
69.0 61.114191446440806
71.0 61.137207820602846
73.0 61.21094537051028
75.0 61.23253907876269
77.5 61.285999537314545
80.0 61.34128300708347
82.5 61.35613474902552
85.0 61.41575099912183
87.5 61.477311985133234
90.0 61.53368922115512
92.5 61.63523120999664
95.0 61.70416308541285
97.5 61.792276531363235
100.0 61.830890442768016
103.0 61.792276531363235
106.0 61.690524460918176
109.0 61.66592581211456
112.0 61.62935469162962
115.0 61.70303268267164
118.0 61.740678493584305
122.0 61.843001410471196
125.0 61.75331010404211
128.0 61.58297526012735
132.0 61.519758425384175
136.0 61.449670988801465
140.0 61.401755187703834
145.0 61.34128300708347
150.0 61.312759648502386
155.0 61.25710955208498
160.0 61.22997337139652
165.0 61.22997337139652
170.0 61.22997337139652
175.0 61.174515246900775
180.0 61.14253844286626
185.0 61.04578142111007
190.0 61.117713377956186
195.0 61.203290060254865
200.0 61.25710955208498
206.0 61.25710955208498
212.0 61.28470339560341
218.0 61.27027811385883
224.0 61.29974955399138
230.0 61.243931419921275
236.0 61.186670186453235
240.0 61.17127237753629
250.0 61.27225144686583
258.0 61.36823519328973
265.0 61.30509703400906
272.0 61.3023933357314
280.0 61.27225144686583
290.0 61.18599953731455
300.0 61.1719150201015
307.0 61.11570567907754
315.0 61.1719150201015
325.0 61.14557828483253
335.0 61.11836973069439
345.0 61.09161481041864
355.0 61.09161481041864
365.0 61.14359279208828
375.0 61.11573565971418
387.0 61.06406498462011
400.0 61.079542205836454
412.0 61.1732452589273
425.0 61.20137539178362
437.0 61.22997337139652
450.0 61.235254621989206
462.0 61.235254621989206
475.0 61.263631101630374
487.0 61.20137539178362
500.0 61.08701328168991
515.0 61.0607682239283
530.0 61.11573565971418
545.0 61.14557828483253
560.0 61.08833890467006
580.0 61.073842717989216
600.0 61.01129450026915
615.0 60.927640416890604
630.0 60.794399937387176
650.0 60.87824739227802
670.0 60.87395126279123
690.0 60.81779840759136
710.0 60.90173281421621
730.0 60.955011558805815
750.0 60.79283111211445
775.0 60.83335637117856
800.0 60.86240427068321
825.0 60.916334628884734
850.0 60.941167553734225
875.0 60.914023355601266
900.0 60.849027641952084
925.0 60.874247301390575
950.0 60.92967962174367
975.0 60.99902702008084
1000.0 60.98697590181825
1030.0 60.84930562008436
1060.0 60.820835076278065
1090.0 60.68485860745016
1120.0 60.66493179619237
1150.0 60.609333240258756
1180.0 60.563058851227915
1220.0 60.50118759629324
1250.0 60.48621572529628
1280.0 60.49038236478781
1320.0 60.46282469489959
1360.0 60.54538806097201
1400.0 60.49038236478781
1450.0 60.54688851828346
1500.0 60.568872939600915
1550.0 60.551093041471894
1600.0 60.52328413096604
1650.0 60.46850683115034
1700.0 60.44702226057591
1750.0 60.44702226057591
1800.0 60.33713688264039
1850.0 60.24062771443506
1900.0 60.13877034911882
1950.0 60.31598997819197
2000.0 60.34384548454839
2060.0 60.34945800446568
2120.0 60.37710035208047
2180.0 60.254817281504366
2240.0 60.310868251910144
2300.0 60.34945800446568
2360.0 60.31598997819197
2400.0 60.33713688264039
2500.0 60.31598997819197
2580.0 60.31598997819197
2650.0 60.47305624307305
2720.0 60.66191510308857
2800.0 60.70405204522353
2900.0 60.93825689397247
3000.0 60.82508509934339
3070.0 60.65185775100887
3150.0 60.551093041471894
3250.0 60.50608903367384
3350.0 60.634007912891356
3450.0 60.68429878875995
3550.0 60.68660698027838
3650.0 60.703103328017654
3750.0 60.47936655804798
3870.0 60.42952193712454
4000.0 60.325923552789256
4120.0 60.20153841576779
4250.0 60.21569793675021
4370.0 60.01858503953137
4500.0 60.005219539811414
4620.0 60.69247614124817
4750.0 60.96447433065581
4870.0 60.99331552785828
5000.0 61.170836527628616
5150.0 61.052427013285104
5300.0 61.16136101481988
5450.0 61.3947181107169
5600.0 61.54130841660932
5800.0 61.16759305880249
6000.0 60.87753092843126
6150.0 60.872127670996356
6300.0 60.70478073312277
6500.0 60.506602799878785
6700.0 60.603556159895895
6900.0 60.62904048400208
7100.0 60.69767384936714
7300.0 60.97083652762863
7500.0 61.28696010076191
7750.0 61.311961074079896
8000.0 61.23196657770628
8250.0 61.08593853255292
8500.0 60.93741188860938
8750.0 60.76240427068321
9000.0 60.79331552785829
9250.0 60.70904648837914
9500.0 60.685157771987626
9750.0 60.611808910051884
10000.0 60.53610337810944
10300.0 60.48374649464018
10600.0 60.48374649464018
10900.0 60.47667272021061
11200.0 60.33417692382225
11500.0 60.329040484002086
11800.0 60.15087324550091
12200.0 59.94321213560273
12500.0 59.82969197014177
12800.0 59.61746491888919
13200.0 59.46227733814744
13600.0 59.353267811095755
14000.0 59.303206218055884
14500.0 59.39984484223448
15000.0 59.55418818905219
15500.0 59.46168518817668
16000.0 59.538611916099406
16500.0 59.71910810471994
17000.0 59.8949916467568
17500.0 59.851884803701914
18000.0 59.654748988612376
18500.0 59.23634836411538
19000.0 58.76874122625748
19500.0 58.666866367108845
