Freq "Rear Wall Bounce"
22.4 60.250698071800905
23.0 59.81592235615367
23.6 59.333273859249566
24.0 58.80752566062149
25.0 59.21557857521177
25.8 60.172839958782696
26.5 61.01277390864556
27.2 61.822056047604754
28.0 62.58424475643161
29.0 63.370039458160015
30.0 64.09076492567115
30.7 64.863442438247
31.5 65.61136772051208
32.5 66.46155074321288
33.5 67.33369899485226
34.5 68.30017105110394
35.5 69.39727775828513
36.5 70.74095560939762
37.5 68.88927463141047
38.7 66.77064358588234
40.0 65.75946436673584
41.2 65.11480836564579
42.5 64.70225992980329
43.7 64.40667672229105
45.0 64.17245203847884
46.2 64.01501933001725
47.5 63.858550361198574
48.7 63.733792251372726
50.0 63.561530614167445
51.5 63.377450481011145
53.0 63.17671693798183
54.5 63.03872760274239
56.0 62.88943576455319
58.0 62.76448816659528
60.0 62.645628325119
61.5 62.534642373822386
63.0 62.312494591163365
65.0 62.11046603400889
67.0 61.92793641141858
69.0 61.764037795253564
71.0 61.620819054382345
73.0 61.46545852458447
75.0 61.40477906975628
77.5 61.33463149058941
80.0 61.254249274934445
82.5 61.18520312971223
85.0 61.12280976731592
87.5 61.045138073687845
90.0 60.995289890442685
92.5 60.93280739358995
95.0 60.86393776473694
97.5 60.815165544775944
100.0 60.75270513867
103.0 60.74966852292193
106.0 60.711630195211534
109.0 60.649596736732356
112.0 60.605478351827664
115.0 60.566190113672356
118.0 60.53337773664081
122.0 60.48572722739197
125.0 60.51580111334966
128.0 60.498040973851495
132.0 60.546700960483854
136.0 60.56058872502164
140.0 60.57157063564916
145.0 60.61499263825633
150.0 60.583493176659495
155.0 60.53236456780474
160.0 60.48082609611239
165.0 60.37486816037133
170.0 60.259014921865635
175.0 60.16426410850979
180.0 60.221248681259716
185.0 60.258226255233716
190.0 60.30048861639796
195.0 60.32171315089605
200.0 60.32529404109007
206.0 60.33487194685588
212.0 60.265980281544735
218.0 60.165463725771325
224.0 60.002040762303004
230.0 59.83877633332592
236.0 59.770730255672426
240.0 59.73982143082413
250.0 59.628363321883235
258.0 59.480826050647615
265.0 59.453647934007485
272.0 59.38509253013891
280.0 59.264397318943374
290.0 59.102299512008734
300.0 58.98279089353452
307.0 58.905061882206915
315.0 58.8375968245955
325.0 58.71579154903345
335.0 58.41858075080817
345.0 58.10361023775919
355.0 58.083441339458666
365.0 58.23643934082259
375.0 58.42691283922475
387.0 58.308943143857995
400.0 57.74929049623368
412.0 57.04078508057466
425.0 56.72904429794607
437.0 56.72264971201282
450.0 56.24054993198536
462.0 55.36280593335824
475.0 54.72212480881688
487.0 54.27861068512308
500.0 53.61698944978871
515.0 53.46334837454801
530.0 53.47179095779081
545.0 53.20821519934605
560.0 53.25083034374641
580.0 53.45568390658608
600.0 52.90168772300397
615.0 51.9954976318674
630.0 51.63463623491838
650.0 51.12188940970234
670.0 51.035296764669745
690.0 51.2550372550454
710.0 51.982569878743696
730.0 52.83238842767401
750.0 53.04518893942237
775.0 52.976776863061325
800.0 52.88059877646959
825.0 53.013442266704125
850.0 53.148201313437376
875.0 53.18441055369053
900.0 52.42363862833671
925.0 51.598863121394665
950.0 51.06213939389648
975.0 49.59719456506934
1000.0 49.09935522789332
1030.0 49.35231394716684
1060.0 49.33182280369622
1090.0 49.50275972635776
1120.0 48.75204884519656
1150.0 48.793517861445146
1180.0 48.917361585017666
1220.0 48.680336124410026
1250.0 47.976208902312926
1280.0 47.23807957581872
1320.0 46.90575873993293
1360.0 46.674484313668934
1400.0 46.197777434065806
1450.0 46.395202893261946
1500.0 46.57819808404641
1550.0 47.17116761572161
1600.0 46.773679606795305
1650.0 46.41811618462919
1700.0 46.182949657072506
1750.0 46.39268140632853
1800.0 46.299753178366835
1850.0 46.26225550562925
1900.0 45.58820047304504
1950.0 44.937290215594665
2000.0 44.29128116998259
2060.0 44.946566173788035
2120.0 44.95006300764678
2180.0 45.08745727447748
2240.0 44.54665138977085
2300.0 44.223979521773565
2360.0 43.65452473112877
2400.0 44.52867303871822
2500.0 44.41989095844449
2580.0 43.59842620616755
2650.0 43.17241763638415
2720.0 43.13857506385967
2800.0 43.292091282487014
2900.0 43.41665044800856
3000.0 43.58686022973195
3070.0 43.25717025349551
3150.0 42.87954629934891
3250.0 42.49517898973503
3350.0 42.66087987603837
3450.0 42.62421466514797
3550.0 42.34855253743772
3650.0 42.43432768403688
3750.0 41.85979855276265
3870.0 42.34792582472782
4000.0 42.57185598558775
4120.0 42.186274243201645
4250.0 41.52164541408484
4370.0 41.689721020011596
4500.0 42.31041197334407
4620.0 42.24878405526656
4750.0 41.91545707158128
4870.0 42.150148567104345
5000.0 42.25310218462614
5150.0 41.63244782971143
5300.0 41.867671828544196
5450.0 42.09217131938754
5600.0 42.165389702367
5800.0 41.00707269962508
6000.0 40.790938859991066
6150.0 40.812860987342255
6300.0 40.09921835532361
6500.0 39.799778478605496
6700.0 40.224819816661714
6900.0 39.8815386420601
7100.0 39.8929724682127
7300.0 39.66005679298616
7500.0 40.56884562117717
7750.0 40.54097059885765
8000.0 39.99930850975844
8250.0 39.84023709537821
8500.0 39.698149326681225
8750.0 38.948202820352414
9000.0 39.141155734955056
9250.0 38.81169987481184
9500.0 38.46301508461165
9750.0 38.18691001033995
10000.0 37.89787572609405
10300.0 37.64839723028633
10600.0 37.44273418811586
10900.0 37.47484267090065
11200.0 37.195399353798
11500.0 36.7854636738172
11800.0 36.580985001707894
12200.0 36.14841345091839
12500.0 35.65644174437862
12800.0 34.55435381647761
13200.0 34.27473989327047
13600.0 33.977748208194704
14000.0 33.71787663299785
14500.0 33.842403225272086
15000.0 33.787015023608525
15500.0 33.60576680261202
16000.0 33.88812525843267
16500.0 33.83331635778118
17000.0 34.283447036532785
17500.0 34.637070714675396
18000.0 34.47200960146822
18500.0 33.92452970542269
19000.0 33.02419870460509
19500.0 32.87378709281814
