Freq,On Axis,Listening Window,Sound Power,Early Reflections,Early Reflections DI,Sound Power DI,DI offset
20.5078,56.578199999999995,56.5634516545026,56.321040357082396,56.41318756924072,40.15026408526188,40.242411297420205,40
21.9727,58.4695,58.44686100954412,57.976937424544545,58.194875058403355,40.25198595114077,40.46992358499958,40
23.4375,60.0731,60.06700260558053,60.08619820950834,60.055105416155314,40.01189718942521,39.98080439607219,40
24.9023,61.77999999999999,61.75694753863483,61.290769096991525,61.50254623149705,40.25440130713778,40.46617844164331,40
26.3672,62.89149999999999,62.86373312203004,62.31080109957689,62.56311231810729,40.300620803922754,40.55293202245315,40
27.832,64.67570000000002,64.65174213646158,64.17270296527626,64.39372538642597,40.25801675003561,40.47903917118532,40
29.2969,66.42359999999998,66.39675761475577,65.83565673390903,66.1020786982313,40.294678916524475,40.56110088084674,40
30.7617,67.1313,67.11120590791045,66.70433120572854,66.88921541938278,40.221990488527666,40.40687470218191,40
32.2266,68.242,68.22475184847715,67.88878678088656,68.03782841338685,40.18692343509031,40.33596506759059,40
33.6914,69.3325,69.31185392341743,68.902143959289,69.09197257140106,40.21988135201637,40.409709964128425,40
35.1562,70.4109,70.38559131530137,69.891272959628,70.12378010740413,40.26181120789724,40.49431835567337,40
36.6211,71.4307,71.40078013282358,70.76911687467634,71.07502646122751,40.325753671596075,40.63166325814724,40
38.0859,71.1858,71.17576130590268,71.01310075628933,71.07109395761032,40.10466734829237,40.16266054961335,40
39.5508,72.7184,72.69892846178895,72.33467969656067,72.49715261019956,40.20177585158939,40.36424876522828,40
41.0156,73.5207,73.50022786587185,73.11529134806896,73.2893938894235,40.210833976448356,40.384936517802885,40
42.4805,74.3502,74.32889790656793,73.92599105792829,74.10955359094513,40.219344315622806,40.402906848639645,40
43.9453,75.026,75.00461560049841,74.6065125819036,74.78798999159883,40.21662560889958,40.39810301859481,40
45.4102,75.9213,75.89902589084123,75.4698374857293,75.66695384527502,40.23207204556621,40.42918840511193,40
46.875,76.4797,76.46031810610667,76.08218087186029,76.25343057806245,40.20688752804422,40.37813723424638,40
48.3398,77.0221,77.00552392596406,76.71300943255763,76.84155017028095,40.1639737556831,40.29251449340643,40
51.2695,78.6033,78.57200413758763,78.02556477307267,78.27670666439676,40.29529747319087,40.54643936451495,40
52.7344,79.22249999999998,79.19068138130343,78.56877076449882,78.86487381666063,40.3258075646428,40.62191061680461,40
54.1992,79.6598,79.63246991435783,79.07893348183688,79.34263226871597,40.28983764564185,40.55353643252094,40
55.6641,79.9085,79.89055535501433,79.55098896316026,79.70302937986928,40.18752597514505,40.33956639185406,40
58.5938,81.197,81.16965365910897,80.65285433194819,80.8948301588205,40.27482350028848,40.51679932716078,40
60.0586,81.4278,81.4058132475309,80.99184696057203,81.18072334180881,40.225089905722086,40.41396628695887,40
62.9883,82.2566,82.23608968551612,81.89337616621519,82.04335820549254,40.19273148002358,40.34271351930093,40
64.4531,82.7685,82.74578803704019,82.37568834047944,82.53922088522313,40.206567151817055,40.37009969656074,40
67.3828,83.5784,83.55158146090955,83.0599145697605,83.29021491187117,40.26136654903837,40.49166689114905,40
68.8477,83.9126,83.88854287965135,83.45306325234988,83.65307027898086,40.23547260067049,40.435479627301476,40
71.7773,84.5007,84.47779341952418,84.0941348420972,84.26558629115063,40.21220712837355,40.38365857742697,40
74.707,85.06670000000001,85.04281076876188,84.65263888685325,84.8266650469834,40.21614572177849,40.39017188190863,40
77.6367,85.5527,85.52854886869888,85.14712432198272,85.31589839099556,40.21265047770332,40.38142454671616,40
79.1016,85.7578,85.73296708504392,85.34645399176934,85.51713653480344,40.21583055024048,40.38651309327459,40
82.0312,86.157,86.13065968623323,85.71828353486792,85.900903023084,40.22975666314923,40.41237615136531,40
84.9609,86.5127,86.48575918666322,86.072858463232,86.2554523083271,40.23030687833612,40.41290072343122,40
87.8906,86.7596,86.73195524270731,86.33855769592834,86.51030606345773,40.22164917924958,40.39339754677897,40
90.8203,87.02469999999998,86.99609274548708,86.6009525656669,86.77333333178622,40.22275941370086,40.395140179820174,40
95.2148,87.3347,87.30307080863025,86.85590638741293,87.0531882156666,40.24988259296366,40.44716442121732,40
98.1445,87.4874,87.45468207053028,86.99730665067767,87.19890798505108,40.2557740854792,40.45737541985261,40
101.074,87.6262,87.59184092245081,87.11514441129147,87.32564449686674,40.26619642558407,40.476696511159346,40
105.469,87.9144,87.8771577962466,87.34059212540689,87.582678007848,40.294479788398604,40.53656567083972,40
108.398,88.03609999999999,87.99931938272044,87.4764925225703,87.71214166255382,40.287177720166625,40.52282686015015,40
112.793,88.1159,88.07923131522631,87.59964772955293,87.80930709205263,40.269924223173675,40.47958358567338,40
117.188,88.211,88.168961894915,87.62510267506222,87.86166846859433,40.30729342632067,40.54385921985278,40
120.117,88.4501,88.40741212575207,87.8273012602068,88.08673212196982,40.32068000378226,40.58011086554528,40
124.512,88.5842,88.54196556116148,88.01211580420598,88.2448160773989,40.29714948376258,40.5298497569555,40
128.906,88.6816,88.63512824452017,88.05540379401597,88.30968902892677,40.325439215593406,40.5797244505042,40
133.301,88.82030000000002,88.77049494994796,88.06715704444927,88.38755503386511,40.38293991608285,40.703337905498685,40
139.16,88.7188,88.67428686188458,88.05934728832607,88.33679906733292,40.33748779455166,40.614939573558516,40
143.555,88.5931,88.54213780374553,87.93169673716947,88.19492675500162,40.347211048743915,40.61044106657606,40
147.949,88.8362,88.77632613794876,88.0334885304279,88.36624695984894,40.41007917809982,40.742837607520855,40
153.809,88.7284,88.67503844555226,87.95764289317395,88.28215068942069,40.39288775613157,40.717395552378306,40
159.668,88.4491,88.39061811914843,87.66292205564658,87.99010176695339,40.40051635219504,40.72769606350185,40
165.527,88.4267,88.3543953813278,87.54070284257571,87.89665743560366,40.45773794572415,40.81369253875209,40
171.387,88.815,88.74676449605356,87.77369209355986,88.22383975026277,40.52292474579079,40.9730724024937,40
177.246,88.6783,88.61129216611448,87.78415950292633,88.15142305482412,40.45986911129036,40.82713266318815,40
183.105,88.7562,88.68703050202134,87.8058289087532,88.20402026664927,40.48301023537208,40.881201593268145,40
188.965,88.6628,88.58766287753194,87.68771278717263,88.09176837067751,40.49589450685443,40.89995009035931,40
196.289,88.6529,88.57301449434381,87.65314929032577,88.06767818535167,40.50533630899214,40.91986520401804,40
203.613,88.46080000000002,88.36898310283414,87.31406516988739,87.78690657811411,40.58207652472002,41.05491793294675,40
210.938,88.75940000000001,88.66388572422456,87.35243892315387,87.98186309355928,40.68202263066527,41.31144680107069,40
218.262,88.70989999999999,88.63018392241621,87.46650999718423,88.02493002474522,40.60525389767099,41.163673925231976,40
225.586,88.3986,88.30978622416912,87.28718760286385,87.74878482360012,40.561001400569,41.022598621305264,40
232.91,88.3812,88.27384447120848,86.9865603314074,87.57667092015274,40.69717355105574,41.28728413980107,40
241.699,88.6219,88.51482366039302,87.08712840161044,87.77200909691095,40.74281456348207,41.42769525878258,40
250.488,88.3453,88.22910973273834,86.66190094285376,87.4087284448118,40.82038128792654,41.567208789884575,40
259.277,88.766,88.64686431178428,86.91934657321478,87.76631162902346,40.88055268276082,41.7275177385695,40
268.066,88.8833,88.78276608908656,87.38780577811636,88.06880643532018,40.71395965376638,41.394960310970205,40
276.855,88.3758,88.25222080979023,86.7265295669874,87.45416787803252,40.79805293175771,41.525691242802836,40
287.109,88.407,88.29777786216758,86.70836725313232,87.4743410406373,40.82343682153028,41.589410609035255,40
297.363,88.8269,88.69410897744945,86.90549005522718,87.76938898636973,40.92471999107971,41.78861892222227,40
307.617,88.15069999999999,88.00478703302053,87.00593724421533,87.36543877246895,40.639348260551586,40.9988497888052,40
319.336,88.27720000000001,88.09515449147084,85.99946359750264,86.98934936439787,41.10580512707297,42.0956908939682,40
329.59,88.2965,88.1203210645695,85.9177182128995,86.97324708393954,41.147073980629955,42.202602851669994,40
341.309,88.5511,88.38799750164154,86.00363139580408,87.15993907017753,41.22805843146401,42.38436610583746,40
353.027,88.544,88.33394232662955,85.60744093586244,86.85608968360917,41.477852643020384,42.72650139076711,40
366.211,88.5868,88.4440192127627,86.10740734088839,87.26225529785947,41.18176391490323,42.33661187187431,40
379.395,88.9492,88.73274081983153,85.83168665318065,87.34575020309171,41.38699061673982,42.90105416665088,40
392.578,88.8462,88.63293850985775,85.92078659009292,87.41353475711111,41.21940375274664,42.712151919764835,40
405.762,89.5177,89.32582099869632,86.33192438822591,88.0528123709761,41.273008627720216,42.9938966104704,40
420.41,89.07770000000001,88.94931662267933,86.24081362738497,87.72706605054825,41.22225057213109,42.70850299529437,40
435.059,88.8935,88.78001762090311,86.14640190008106,87.58841428642674,41.19160333447637,42.63361572082205,40
451.172,88.54,88.4311144396711,85.83063681532369,87.21939053086489,41.21172390880622,42.60047762434742,40
465.82,88.798,88.63877318433332,85.91907508005283,87.35714683014311,41.28162635419021,42.71969810428048,40
483.398,89.029,88.89915702445994,86.04087589262933,87.54641707655985,41.35273994790009,42.85828113183061,40
499.512,89.0923,88.99249301832566,86.2216613490185,87.74390348470207,41.24858953362359,42.77083166930716,40
517.09,89.0478,88.91354228287693,86.08469714016012,87.56462402195143,41.3489182609255,42.828845142716816,40
536.133,88.9162,88.79226759231511,86.08746028988423,87.53181880619798,41.26044878611714,42.70480730243088,40
555.176,89.0393,88.92639735980048,86.22646757712114,87.67840675212187,41.2479906076786,42.699929782679334,40
574.219,89.372,89.22104193439293,86.14868208943133,87.68753952642845,41.53350240796448,43.072359844961596,40
594.727,89.1962,89.20892952416412,86.67124134236029,88.04106938314995,41.167860141014174,42.53768818180383,40
615.234,88.86150000000002,88.73552621960884,86.26276128219712,87.48399572758687,41.25153049202197,42.472764937411725,40
637.207,89.4319,89.30054787217516,86.64528240750846,88.04946555816566,41.251082314009494,42.6552654646667,40
659.18,89.0436,88.87495764127833,86.63028452614984,87.76640177365681,41.10855586762152,42.24467311512849,40
682.617,89.75079999999998,89.34329911608516,86.20600172757416,87.73794269162546,41.6053564244597,43.137297388511,40
707.52,90.7133,90.40435766578138,86.46171876647749,88.50512976608606,41.89922789969532,43.94263889930389,40
732.422,90.01449999999998,89.68508712559971,86.25082681738573,87.99676965602076,41.68831746957895,43.43426030821398,40
757.324,90.4927,90.07615320621564,86.39968833783553,88.23529997930594,41.8408532269097,43.67646486838011,40
785.156,90.8064,90.46637174331504,86.3050685944409,88.49248607253337,41.97388567078167,44.16130314887414,40
811.523,90.2793,89.85169475237227,85.92585778442418,87.81595030542651,42.035744446945756,43.92583696794809,40
840.82,91.0202,90.51967876819602,86.05220688765817,88.23369962720867,42.28597914098735,44.46747188053784,40
870.117,91.1134,90.65885222906154,85.71359903146198,88.12594521649784,42.5329070125637,44.945253197599556,40
900.879,92.0701,91.65915530085618,86.7923882929742,89.21208791537569,42.447067385480494,44.86676700788199,40
933.105,92.5551,92.1361610966237,86.79857869342983,89.40025368202424,42.73590741459945,45.33758240319386,40
965.332,92.2437,91.84024138283019,86.58889915965746,89.13707298828169,42.7031683945485,45.25134222317273,40
1000.49,91.4079,91.09615651005444,85.98627132880553,88.45904447142719,42.63711203862725,45.10988518124891,40
1035.64,91.78770000000002,91.35512261500644,85.85552071096158,88.61672498427328,42.73839763073316,45.49960190404485,40
1072.27,91.7399,91.41606059750107,85.82116594648593,88.57507898431561,42.84098161318546,45.59489465101514,40
1108.89,91.7535,91.27917335962316,85.47723750182647,88.28036160456224,42.99881175506091,45.80193585779669,40
1148.44,91.355,91.08568551899364,85.52487010881498,88.34174861748853,42.74393690150511,45.56081541017866,40
1189.45,91.4444,90.98120724002543,85.0947000247256,88.05274977079556,42.92845746922987,45.88650721529983,40
1230.47,90.7413,90.30175626276642,84.54620436254774,87.36636920380317,42.935387058963244,45.75555190021868,40
1274.41,90.62429999999999,90.02317764552369,83.90122023277483,86.92375964016865,43.099418005355034,46.121957412748856,40
1319.82,90.1562,89.59615503915734,83.38883059851868,86.43583119771408,43.16032384144326,46.20732444063866,40
1366.7,90.2553,89.6937955486595,82.9593268334516,86.23007093158306,43.46372461707644,46.734468715207896,40
1413.57,90.20209999999999,89.46467334724463,82.74286618510769,85.89001101043534,43.57466233680928,46.72180716213694,40
1463.38,89.2918,88.7609892109724,82.25296242790309,85.19357562475284,43.56741358621956,46.50802678306931,40
1516.11,88.9448,88.56355910827367,82.0670521694829,84.87910896060589,43.684450147667775,46.49650693879076,40
1568.85,89.5816,89.0614658861134,82.26410259362564,85.12395030081659,43.93751558529681,46.79736329248776,40
1624.51,89.8732,89.27210814387064,82.56119719803225,85.32556798035715,43.94654016351349,46.71091094583839,40
1681.64,89.8139,89.24863905449902,82.6740114892699,85.20301922717212,44.0456198273269,46.57462756522912,40
1741.7,89.3399,88.90464401233668,82.37450213359936,85.0101989918945,43.89444502044218,46.53014187873731,40
1803.22,89.5098,88.92671337715757,82.48495783471456,85.04509426383161,43.881619113325954,46.441755542443005,40
1866.21,90.4215,89.60327250250673,83.13124511685683,85.6004702368203,44.00280226568643,46.472027385649895,40
1932.13,90.4729,89.65963340133388,83.1291924190165,85.52819763639623,44.13143576493765,46.53044098231737,40
1999.51,89.8458,89.12243330059438,82.93265173421297,85.29573613219956,43.826697168394816,46.18978156638141,40
2069.82,90.1537,89.41047968962418,83.22427323577446,85.34618898890233,44.064290700721855,46.18620645384972,40
2143.07,90.77320000000002,89.96508860533747,83.74451124867325,85.79358052733821,44.17150807799926,46.22057735666422,40
2219.24,89.7249,89.41225073009535,83.63691368645932,85.59227671000197,43.81997402009338,45.77533704363603,40
2296.88,89.3357,88.97798717669002,83.48888352943315,85.2917589574785,43.686228219211515,45.48910364725687,40
2378.91,90.0012,89.808603322683,84.13629583433264,85.7599212998061,44.0486820228769,45.672307488350356,40
2462.4,89.7925,89.57278897504354,84.06334414496004,85.54309276133469,44.029696213708846,45.509444830083496,40
2548.83,89.2983,89.2013314317337,83.91110165343281,85.31119266397138,43.89013876776232,45.2902297783009,40
2639.65,89.79379999999999,89.77907878626728,84.32854276946195,85.93117002626663,43.84790876000065,45.45053601680533,40
2731.93,89.88109999999999,89.83337399433331,84.2407343783148,86.1007492219481,43.73262477238521,45.592639616018516,40
2828.61,89.9225,89.76060866166958,84.34515746174374,86.27485297893385,43.48575568273573,45.41545119992584,40
2928.22,89.9486,89.8504062580631,84.32607071584033,86.52014324936499,43.33026300869811,45.52433554222277,40
3030.76,90.2391,90.31766196551182,84.61356157180505,86.95453817304703,43.36312379246479,45.70410039370677,40
3137.7,89.7698,89.9038974935571,84.42849663415214,86.57883385577374,43.32506363778336,45.47540085940496,40
3249.02,89.9362,90.07083149246837,84.47217373891051,86.72461526737472,43.346216225093656,45.59865775355786,40
3363.28,89.3275,89.56032103027177,84.27496086579691,86.46922872310908,43.09109230716268,45.28536016447485,40
3481.93,90.1302,90.1205109998238,84.40035285851259,86.97807529691674,43.14243570290705,45.7201581413112,40
3604.98,89.15309999999998,89.57523962889066,84.18031503969978,86.7123034484322,42.86293618045846,45.39492458919088,40
3732.42,90.0594,90.21870225036832,84.4403389815656,87.14267240509683,43.07602984527149,45.77836326880272,40
3864.26,89.3879,89.80789680269999,84.36225464683812,87.07383169994101,42.734065102758976,45.44564215586186,40
4000.49,89.862,89.98679309734376,84.6043585434876,87.14489892721689,42.84189417012688,45.38243455385616,40
4141.11,89.1847,89.6637871624185,84.45927156563255,87.0271052214619,42.636681940956606,45.20451559678595,40
4287.6,89.40500000000002,89.61768165972305,84.27296276450937,87.12160452927397,42.49607713044908,45.344718895213674,40
4438.48,90.011,89.55310435478286,84.04200748951591,87.10422226332493,42.44888209145793,45.51109686526695,40
4595.21,90.24220000000001,89.56780692069975,83.84420192622602,87.0823358824757,42.48547103822405,45.72360499447373,40
4756.35,90.275,89.64645348793839,83.82862108347217,87.07576738893212,42.57068609900627,45.817832404466216,40
4924.8,90.1364,89.35207808292913,83.66499889986326,86.92688242027343,42.425195662655696,45.68707918306586,40
5097.66,90.21639999999998,89.52433545674292,83.8542292984545,87.03879431618104,42.48554114056188,45.67010615828842,40
5277.83,89.90820000000001,89.38470750956783,83.61045677520164,86.86855071994574,42.51615678962209,45.77425073436619,40
5463.87,90.3175,89.43021357723173,83.2752969843198,86.74129254079253,42.6889210364392,46.15491659291193,40
5657.23,90.2588,89.32192317303345,82.88392217625591,86.53955108379638,42.78237208923707,46.43800099677755,40
5856.45,90.6291,89.3367931208604,82.91903988865161,86.59178695720466,42.745006163655745,46.417753232208796,40
6062.99,91.1066,89.58599059816355,82.92378917654207,86.79173181783787,42.79425878032568,46.662201421621475,40
6276.86,91.579,89.95588465587302,83.10903113365241,86.95556556122969,43.00031909464333,46.84685352222061,40
6498.05,92.2461,90.55998942492455,83.75817339415602,87.46437272943899,43.09561669548556,46.801816030768535,40
6726.56,92.307,90.93307553435699,84.21543298452829,87.86810921664626,43.06496631771073,46.717642549828696,40
6963.87,91.6197,90.66641408655161,84.02815978720507,87.65102935016398,43.01538473638763,46.63825429934654,40
7209.96,91.5259,90.73625090682822,84.01599969316206,87.69863111162213,43.03761979520608,46.72025121366616,40
7464.84,91.45280000000001,90.80714161085102,83.99216991138643,87.8092863553683,42.99785525548272,46.81497169946459,40
7727.05,91.5383,90.80149324972221,83.73986317974496,87.71536660751117,43.08612664221104,47.061630069977255,40
7999.51,90.9355,90.46074683613006,83.42324450830779,87.44894777246499,43.011799063665066,47.03750232782227,40
8282.23,90.7897,90.17178111003906,83.13007793428345,87.09122034188087,43.08056076815819,47.041703175755615,40
8573.73,90.575,90.0444411974205,82.93796078000061,86.86864894360569,43.175792253814805,47.10648041741989,40
8876.95,90.836,90.24205545648917,82.85939545461675,86.75666557622544,43.485389880263725,47.38266000187242,40
9188.96,90.9307,90.31860672071082,82.70964719137791,86.64213963562644,43.67646708508438,47.60895952933291,40
9514.16,91.0661,90.22747879841289,82.50927255573454,86.5405047281043,43.686974070308594,47.71820624267835,40
9849.61,90.9571,90.13138619379615,82.35475212192657,86.44832265393684,43.683063539859305,47.77663407186958,40
10196.8,90.5836,90.02908859266047,82.16123412241072,86.24448045196972,43.78460814069075,47.86785447024975,40
10555.7,90.757,89.94788431887795,81.87835352313017,86.12799051762931,43.81989380124864,48.06953079574778,40
10927.7,90.8155,89.91226230719295,81.61433350717562,86.0307156785669,43.88154662862604,48.29792880001733,40
11313.0,90.853,90.0390313824193,81.45996619708814,85.93468167664078,44.10434970577852,48.57906518533116,40
11712.9,91.1794,90.28874272503914,81.34699500525024,85.92601815132873,44.36272457371041,48.94174771978891,40
12126.0,91.4009,90.45583513659832,81.2184464099288,85.87460268670948,44.581232449888844,49.23738872666952,40
12553.7,91.5547,90.57185716578776,81.03451597076184,85.7804733531582,44.79138381262956,49.53734119502592,40
