Freq "Listening Window"
20.5078 47.65123259048195
21.9727 54.00126908258423
23.4375 58.47279226049852
24.9023 62.43892198551325
26.3672 65.9753278789344
27.832 69.12873344557934
29.2969 72.0352213659209
30.7617 74.47338868708343
32.2266 76.5968372163737
33.6914 78.24480825641842
35.1563 79.43820640975682
36.6211 80.2220974972045
38.0859 80.94468373915217
39.5508 81.36882963558865
41.0156 81.74315342485289
42.4805 82.17853744312671
43.9453 82.53535885035544
45.4102 82.87357415508015
46.875 83.23632859856421
48.3398 83.5411236625863
51.2695 84.26441374426429
52.7344 84.69446913349103
54.1992 85.09549933698477
55.6641 85.32681474897299
58.5938 85.96236006126878
60.0586 86.29979664818873
62.9883 86.98622280872763
64.4531 87.3100364325048
67.3828 87.8610325818234
68.8477 88.10338411348556
71.7773 88.73360452611325
74.707 89.31062671395637
77.6367 89.62328085264411
79.1016 89.72596995931686
82.0313 90.0311564708168
84.9609 90.327145013679
87.8906 90.33242314934311
90.8203 90.3243364191843
95.2148 90.36863226265136
98.1445 90.2361664786402
101.074 90.16110412805065
105.469 90.039657692306
108.398 90.0608797648388
112.793 90.09045919234501
117.188 90.04538580335375
120.117 90.02216178430402
124.512 89.85986869836755
128.906 89.7982475335228
133.301 89.6982039779832
139.16 89.53358064515697
143.555 89.40440952925431
147.949 89.34065291261317
153.809 89.3839540384936
159.668 89.4616811961613
165.527 89.66710039086227
171.387 89.60762572966469
177.246 89.42951738952871
183.105 89.20829486166835
188.965 89.42379249026824
196.289 89.39102067633058
203.613 89.35164910613474
210.938 89.35883089669085
218.262 89.17838406362526
225.586 89.3466907877251
232.91 89.75446466217515
241.699 89.41555275887698
250.488 89.19913905452344
259.277 90.00690249495705
268.066 89.1457429097876
276.855 89.52373148883868
287.109 89.57057221925045
297.363 89.77784805562828
307.617 89.89028666365064
319.336 88.9452987133957
329.59 89.04304149628946
341.309 88.60582028512074
353.027 88.53733541145519
366.211 89.27463977159252
379.395 90.07704700855501
392.578 88.9346693325515
405.762 88.49194632556258
420.41 89.1753355040091
435.059 88.84372535977954
451.172 89.9337616207061
465.82 89.7126104696942
483.398 87.91666274903267
499.512 86.58126753506313
517.09 88.35145019563876
536.133 89.89338670915357
555.176 91.03346469884626
574.219 91.44049732031046
594.727 92.05140351790104
615.234 91.25513283580369
637.207 91.42254676119197
659.18 91.02145130258639
682.617 90.06717692064072
707.52 90.2008410213113
732.422 90.1164525667802
757.324 90.71164221852044
785.156 90.85601160440473
811.523 89.74157327264263
840.82 89.95133610974409
870.117 89.77064435240887
900.879 89.40201197668151
933.105 88.91334101580509
965.332 88.30253619298742
1000.49 88.14775982882755
1035.64 87.43949341598848
1072.27 88.2843366748316
1108.89 88.05623979251882
1148.44 88.29425833148204
1189.45 88.96336100126004
1230.47 89.14917859824128
1274.41 88.8581926717174
1319.82 88.57447451705501
1366.7 87.6726616666625
1413.57 88.04589178925565
1463.38 88.18850680050772
1516.11 88.4973608994556
1568.85 88.33325737805421
1624.51 87.95591526295311
1681.64 87.87601247038292
1741.7 88.20705045434732
1803.22 88.79807439569309
1866.21 88.44546344322848
1932.13 88.8432514520326
1999.51 88.88048327944944
2069.82 88.44495273990778
2143.07 88.44833996045341
2219.24 88.75493162072486
2296.88 88.70131001123538
2378.91 88.77989971720322
2462.4 88.95185953520101
2548.83 88.01956683438631
2639.65 88.4056861111854
2731.93 88.3963752788682
2828.61 87.85912508866195
2928.22 88.29691866333059
3030.76 87.94624166392025
3137.7 87.95935675066912
3249.02 88.38051169763389
3363.28 88.79015417974831
3481.93 89.5856858153904
3604.98 90.16253056508693
3732.42 89.49852612931365
3864.26 89.30683332782385
4000.49 88.19688666727203
4141.11 88.18629978368045
4287.6 88.12325866762653
4438.48 88.29446369808176
4595.21 88.36836318297641
4756.35 88.6782974479965
4924.8 88.50641745467155
5097.66 88.86550932507612
5277.83 88.92492992375792
5463.87 88.76537231090491
5657.23 88.86485244570585
5856.45 88.95304086994511
6062.99 88.91903230933015
6276.86 88.97270525688296
6498.05 89.06290620110018
6726.56 89.04964094424892
6963.87 88.86640932158268
7209.96 88.96241973959414
7464.84 88.8531864140642
7727.05 88.75093796990014
7999.51 88.95763437056357
8282.23 88.97910583228874
8573.73 89.13704130399825
8876.95 89.26463702453223
9188.96 89.3698414763465
9514.16 89.22457379119825
9849.61 89.10703338599839
10196.8 88.94947495734354
10555.7 88.76718219236476
10927.7 88.56934122149423
11313.0 88.32975080882935
11712.9 88.26396190745751
12126.0 88.44817671463139
12553.7 88.49744313377695
12996.1 88.33974282670346
13454.6 88.12577158456656
13929.2 87.80742569309842
14419.9 87.53423976684329
14928.2 87.51995021274173
15455.6 87.5639783175653
16000.5 87.37165597923718
16564.5 86.97584383317133
17148.9 86.49255493095235
17752.4 86.17271606560368
18379.4 85.96872411187267
19026.9 85.67431903152766
19697.8 85.09187331977088
19999.5 84.77046129414872
