Freq "Sound Power"
20.5078 48.104487745037744
21.9727 54.12531746462176
23.4375 58.3408869662596
24.9023 62.13185939998883
26.3672 65.57347742303293
27.832 68.65540414469142
29.2969 71.51268732007293
30.7617 73.92071489903206
32.2266 76.0017475253674
33.6914 77.61605227229376
35.1563 78.78662481639763
36.6211 79.54477597587712
38.0859 80.27394329976602
39.5508 80.68109675441076
41.0156 81.0411194782875
42.4805 81.4504585126088
43.9453 81.80686931928292
45.4102 82.11040131952282
46.875 82.43100663052306
48.3398 82.77141382452493
51.2695 83.48006041901556
52.7344 83.89490651078451
54.1992 84.2426065912145
55.6641 84.50811283158428
58.5938 85.15587729558175
60.0586 85.48295125582536
62.9883 86.15532638892196
64.4531 86.47292640125306
67.3828 87.00704048344771
68.8477 87.23227605205668
71.7773 87.8292923115812
74.707 88.38723124633859
77.6367 88.70984624586991
79.1016 88.80739822051662
82.0313 89.08912243487188
84.9609 89.36266790468295
87.8906 89.31796560642123
90.8203 89.30438050333629
95.2148 89.29690459552162
98.1445 89.12392248273069
101.074 88.98779414188832
105.469 88.78284183249303
108.398 88.73230381749951
112.793 88.71699698764596
117.188 88.670955052479
120.117 88.6404347146125
124.512 88.48170140979755
128.906 88.34313346643536
133.301 88.20553260346048
139.16 87.99080828360815
143.555 87.77934629722404
147.949 87.56835488832442
153.809 87.38019727806913
159.668 87.45306826451373
165.527 87.63763452545642
171.387 87.55824001538187
177.246 87.32630169954692
183.105 86.94986743902192
188.965 86.88256860337219
196.289 86.93127066833432
203.613 86.72885247836798
210.938 86.65287022805427
218.262 86.47622188180127
225.586 86.52955379014563
232.91 86.63589851720336
241.699 86.51753577494087
250.488 86.05248375082111
259.277 86.57317858586026
268.066 86.06321080026174
276.855 85.93810329235421
287.109 86.09052514151769
297.363 86.2633082919083
307.617 86.52954201306358
319.336 85.85900673717929
329.59 85.68079832127034
341.309 85.66733989762602
353.027 84.8724145626626
366.211 85.29654822930367
379.395 85.88205187049898
392.578 85.57249591422229
405.762 85.06005500362993
420.41 85.11695509462967
435.059 85.27993068204191
451.172 84.9319492937242
465.82 84.70136973060686
483.398 83.69409677692528
499.512 82.59044848499738
517.09 84.00538172859014
536.133 84.34632081425221
555.176 84.80608078408477
574.219 85.38544878134283
594.727 85.77183897318615
615.234 84.91508966686439
637.207 85.41217730883321
659.18 85.11207048267667
682.617 84.28466660903419
707.52 84.2248343978637
732.422 84.4740074045448
757.324 84.84183770509455
785.156 84.83270610205804
811.523 84.02599969377368
840.82 84.25956700211022
870.117 83.85407017802811
900.879 83.5473352716382
933.105 82.8731826380543
965.332 82.60132560327037
1000.49 82.24423458117178
1035.64 82.35822663788046
1072.27 82.75935744704896
1108.89 83.15990008887154
1148.44 83.44965299352455
1189.45 83.81775771486335
1230.47 83.87412041199966
1274.41 83.49528410566415
1319.82 83.07632672746266
1366.7 82.90895885753685
1413.57 82.83355021907192
1463.38 82.51462503517939
1516.11 82.75063873978553
1568.85 82.6845161417987
1624.51 82.24535388235103
1681.64 82.33051959716096
1741.7 82.44779156814378
1803.22 82.7999491879278
1866.21 82.71443615138679
1932.13 82.74371290611319
1999.51 82.88038952145575
2069.82 82.61751031363346
2143.07 82.71443634057516
2219.24 82.8378247115199
2296.88 82.19749212022289
2378.91 82.09091093805658
2462.4 82.05967780411494
2548.83 81.42190551590355
2639.65 81.52275430693831
2731.93 81.31943014073053
2828.61 80.52985488935168
2928.22 80.85645114562818
3030.76 80.45021614953447
3137.7 80.15225068145415
3249.02 80.08285941532206
3363.28 80.06681117419926
3481.93 80.8319519578176
3604.98 81.88385780789004
3732.42 81.86570369745061
3864.26 82.14134423992562
4000.49 81.57382501155875
4141.11 81.5795515240984
4287.6 81.34311007980975
4438.48 81.54670733306322
4595.21 81.51952410676803
4756.35 81.6009871781934
4924.8 81.45503555637266
5097.66 81.6458718355328
5277.83 81.49643835585185
5463.87 81.31486448227287
5657.23 81.32481445039768
5856.45 81.21888904345437
6062.99 81.1067375843148
6276.86 81.04671673520394
6498.05 80.94175246258344
6726.56 80.74020030764775
6963.87 80.4216651460506
7209.96 80.3425788305511
7464.84 80.29509488027996
7727.05 80.10886694381763
7999.51 80.05722939946614
8282.23 79.81970496607119
8573.73 79.72886349542298
8876.95 79.72720295530435
9188.96 79.5851824877092
9514.16 79.3334349752406
9849.61 79.0925058191604
10196.8 78.80300977512908
10555.7 78.51812534908817
10927.7 78.27483834914143
11313.0 78.16232211522679
11712.9 78.29738508540339
12126.0 78.4304238102032
12553.7 78.45989666318977
12996.1 78.27634731506718
13454.6 78.06347993991683
13929.2 77.79750668292488
14419.9 77.56987112812425
14928.2 77.49130711712564
15455.6 77.46131645741299
16000.5 77.1868449286058
16564.5 76.66422686714907
17148.9 75.96085541608895
17752.4 75.43991368756862
18379.4 75.01430269526584
19026.9 74.46021285310371
19697.8 73.61410884309038
19999.5 73.15470320675462
