Freq "Rear Wall Bounce"
20.0 61.0930460597973
20.2909 61.71483161854354
20.586 62.35114694806026
20.8855 63.004046059797275
21.1893 63.64872686412008
21.4975 64.27425030280824
21.8102 64.88519733327166
22.1274 65.52025030280828
22.4492 66.20114694806026
22.7758 66.98435169866167
23.1071 67.87083161854355
23.4432 68.7447268641201
23.7841 69.52204605979728
24.1301 70.24114694806025
24.4811 70.94025030280827
24.8372 71.66550847246745
25.1984 72.45494383628464
25.5649 73.27794383628466
25.9368 74.09194383628464
26.3141 74.90625030280826
26.6968 75.73225030280825
27.0851 76.55114694806025
27.4791 77.35050847246745
27.8788 78.15014694806025
28.2843 78.95394383628465
28.6957 79.73694383628465
29.1131 80.48350847246746
29.5365 81.20694383628465
29.9661 81.90983161854354
30.402 82.58894383628464
30.8442 83.23604605979729
31.2929 83.84850847246747
31.748 84.42314694806024
32.2098 84.95294383628465
32.6783 85.41825030280825
33.1536 85.82172686412011
33.6359 86.15514694806025
34.1251 86.42735169866171
34.6215 86.64994383628465
35.125 86.83394383628465
35.6359 86.98599422385254
36.1543 87.11336936757826
36.6802 87.21506151985305
37.2137 87.30201114466664
37.755 87.3907156195506
38.3041 87.47860923365539
38.8613 87.55868556303679
39.4265 87.63186123970996
40.0 87.69856596924446
40.5818 87.75605753032221
41.1721 87.80866167208526
41.771 87.86084441231854
42.3785 87.90987018665494
42.9949 87.96206984575198
43.6203 88.01336267653141
44.2548 88.05977932699197
44.8985 88.10023330433567
45.5515 88.13907276481248
46.2141 88.18107343057211
46.8863 88.23060556724579
47.5683 88.27602671230035
48.2602 88.31408807057096
48.9621 88.3492014049889
49.6743 88.38638138331002
50.3968 88.42323897630311
51.1299 88.4543198305155
51.8736 88.47502702699474
52.6281 88.48612138759601
53.3936 88.49067791950404
54.1702 88.49214132003539
54.9581 88.48876674571775
55.7575 88.48193782818531
56.5685 88.47540980033332
57.3914 88.47078064496168
58.2261 88.46354175741045
59.073 88.45481782409952
59.9323 88.4482649584243
60.804 88.4449220730176
61.6884 88.44307132117186
62.5857 88.44174060141778
63.496 88.4405305202803
64.4196 88.44501313590501
65.3566 88.45280547369936
66.3073 88.4630926202378
67.2717 88.47347792859021
68.2502 88.48187726112076
69.2429 88.48764921366633
70.2501 88.49140706678843
71.2719 88.48215810125012
72.3086 88.46179120834486
73.3603 88.42565264211362
74.4274 88.37444607625112
75.5099 88.30186130582888
76.6083 88.20004576321823
77.7226 88.08318466360811
78.8531 87.98787111933068
80.0 87.94276728450332
81.1636 87.9392081479844
82.3442 87.95583435096586
83.5419 87.97733980369274
84.757 88.00112852065374
85.9899 88.0252154094889
87.2406 88.04871114942307
88.5096 88.07122432017286
89.797 88.09540252826405
91.1031 88.12889175573008
92.4282 88.17604072853248
93.7726 88.22155482484172
95.1366 88.2542782691292
96.5204 88.28581617031632
97.9243 88.32355662548139
99.3486 88.36148094767134
100.794 88.39404618370818
102.26 88.39323867444824
103.747 88.32022281263258
105.256 88.18403121526819
106.787 88.04918318339196
108.34 87.97394799274053
109.916 87.95892406848994
111.515 87.9609918274109
113.137 87.95449324394
114.783 87.94011819668492
116.452 87.93742335169824
118.146 87.95359578774122
119.865 87.97779170391651
121.608 88.0107234858913
123.377 88.05469339087324
125.171 88.10812010370357
126.992 88.15153469351019
128.839 88.1666449284578
130.713 88.12029170552333
132.615 87.98373697993145
134.543 87.80322661138428
136.5 87.69298937883693
138.486 87.67426400116591
140.5 87.67415175515956
142.544 87.66120845089682
144.617 87.67580533087707
146.721 87.72241745981931
148.855 87.76662655400065
151.02 87.79863266563956
153.217 87.82234818207755
155.445 87.84492157485133
157.706 87.8434790429589
160.0 87.79382489815521
162.327 87.73393619396248
164.688 87.74404095519373
167.084 87.82950448709893
169.514 87.91771469043904
171.98 87.92554547630881
174.481 87.82958463514771
177.019 87.71760200414069
179.594 87.67023616500808
182.206 87.64382119222883
184.856 87.59478897916547
187.545 87.57140221703015
190.273 87.5847627571846
193.041 87.61503320746962
195.849 87.6511452837664
198.697 87.69423770163978
201.587 87.76205202823422
204.52 87.81498759210793
207.494 87.73446185578878
210.512 87.5566031659324
213.574 87.45754760309231
216.681 87.48413467830635
219.833 87.52674064920073
223.03 87.47320875678122
226.274 87.33454265986113
229.565 87.20299372539147
232.905 87.07389624744121
236.292 86.95808483688597
239.729 86.8864228548274
243.216 86.77499422022049
246.754 86.59054189063917
250.343 86.46558526810044
253.984 86.46585100690776
257.678 86.49581232806665
261.426 86.45158597596443
265.229 86.31436782520838
269.087 86.16761412714439
273.001 86.07215377485129
276.972 86.06326899745466
281.0 86.13446565896497
285.088 86.16138353311649
289.234 86.09741914557577
293.441 86.0227066885425
297.709 85.9160408708224
302.04 85.70576034785381
306.433 85.40816856287829
310.89 85.15367620278911
315.412 85.07136415249585
320.0 85.10170559462712
324.655 85.12616630072293
329.377 85.14644438382524
334.168 85.18860226791215
339.028 85.18863342915668
343.959 85.10542229556509
348.962 84.9906780256631
354.038 84.89097316575554
359.188 84.8114799033537
364.412 84.70074997969016
369.713 84.50163479790064
375.09 84.29570245546742
380.546 84.1825031215142
386.081 84.14795910522106
391.697 84.17733818909963
397.394 84.29131518533899
403.175 84.26971592380133
409.039 84.25202773048913
414.989 84.19979199326309
421.025 84.1338396542796
427.149 84.07775812622948
433.362 84.01154335596753
439.665 83.94960824618114
446.06 83.92532488299457
452.548 83.93203849725191
459.131 83.92215525112508
465.809 83.89819537625291
472.584 83.8834634633439
479.458 83.8670523508251
486.432 83.84417221440927
493.507 83.82021648287764
500.686 83.79446782259768
507.968 83.77002635839426
515.357 83.73865833020915
522.853 83.7037233673735
530.458 83.66925273083379
538.174 83.63207691057113
546.002 83.58777939962091
553.943 83.53741379964637
562.001 83.47856893061878
570.175 83.4126349222872
578.469 83.34195600866242
586.883 83.26545628066398
595.419 83.1836170537162
604.08 83.09622076368913
612.866 83.00377012151026
621.78 82.90576147751305
630.824 82.80291401498604
640.0 82.69603035490752
649.309 82.58508653608413
658.753 82.4710244844564
668.335 82.35393271121154
678.056 82.23545150632853
687.919 82.11621971976808
697.925 81.99716762693947
708.077 81.87918657575604
718.376 81.76370385212701
728.825 81.65177480659155
739.426 81.54413436491662
750.181 81.44140078984685
761.093 81.34389918707768
772.163 81.25281003480127
783.394 81.16741780196057
794.789 81.08831637157851
806.349 81.01488141824751
818.078 80.94532246057716
829.977 80.88004888865262
842.05 80.817839803333
854.298 80.7575473972195
866.724 80.69775223301056
879.33 80.63791458096593
892.12 80.57648860554143
905.097 80.51346190072199
918.262 80.44717935996177
931.618 80.3784338256767
945.169 80.30614966702512
958.917 80.23075998949268
972.864 80.14996625915347
987.015 80.04765893757616
1001.37 79.94295589904874
1015.94 79.83690841443833
1030.71 79.73277947238113
1045.71 79.66724826043982
1060.92 79.60113945453402
1076.35 79.53412202505557
1092.0 79.47019587215617
1107.89 79.44017404136882
1124.0 79.40485342805388
1140.35 79.36415989817236
1156.94 79.32718320906852
1173.77 79.26697164715259
1190.84 79.19864109654625
1208.16 79.12611997510001
1225.73 79.04993435034362
1243.56 78.97754192450864
1261.65 78.90296307430438
1280.0 78.82406392819766
1298.62 78.7444850522935
1317.51 78.64705827465752
1336.67 78.5445337002945
1356.11 78.43472498721854
1375.84 78.32221463706462
1395.85 78.21048160096288
1416.15 78.10072448473116
1436.75 77.98891155454464
1457.65 77.87925418800346
1478.85 77.78414068718463
1500.36 77.70290105723981
1522.19 77.62444343346522
1544.33 77.5540614221355
1566.79 77.49530412383795
1589.58 77.4370335831468
1612.7 77.38589456663004
1636.16 77.34307022458006
1659.95 77.31185045132402
1684.1 77.28523273221154
1708.6 77.27066098941792
1733.45 77.27584990149671
1758.66 77.29376876300678
1784.24 77.30948919349403
1810.19 77.3239663588369
1836.52 77.32684010759614
1863.24 77.30404559064309
1890.34 77.27032856190314
1917.83 77.21907180750688
1945.73 77.16083328236408
1974.03 77.09528230812761
2002.74 77.03170803228912
2031.87 76.98316887373969
2061.43 76.95187230201518
2091.41 76.93256229099524
2121.83 76.91768004221097
2152.69 76.89951913887991
2184.01 76.87436913683399
2215.77 76.83671586453045
2248.0 76.78194693337551
2280.7 76.70594630226765
2313.87 76.61268311014899
2347.53 76.49812154831092
2381.68 76.35664613780045
2416.32 76.18783409257684
2451.46 75.99111551014713
2487.12 75.78479698428178
2523.3 75.59427817151875
2560.0 75.44534048255589
2597.24 75.35089726497716
2635.01 75.30863425903462
2673.34 75.29790774670789
2712.23 75.28822755198088
2751.68 75.25112488144103
2791.7 75.18567090734805
2832.31 75.12035191640155
2873.5 75.0891446748166
2915.3 75.11354757366023
2957.7 75.1685269181671
3000.72 75.19900097984471
3044.37 75.16358150863391
3088.65 75.0705666367848
3133.58 74.9763559298505
3179.16 74.97638620282406
3225.4 75.05862006913215
3272.31 75.16011486428378
3319.91 75.19327482242889
3368.2 75.1248971107144
3417.19 75.00418697452017
3466.89 74.90376247777746
3517.32 74.85448154829773
3568.48 74.81709902278995
3620.39 74.72522102086377
3673.05 74.55848229802328
3726.47 74.39278606806336
3780.67 74.37006950201427
3835.67 74.52478663246004
3891.46 74.72442394553742
3948.06 74.79417931338227
4005.49 74.70020129405654
4063.75 74.60395219052822
4122.86 74.63155086762251
4182.82 74.67156498823401
4243.66 74.55051614581815
4305.39 74.33464725699238
4368.01 74.27053435129991
4431.55 74.39407727920906
4496.01 74.49750291564919
4561.4 74.44914644503126
4627.75 74.32041781361025
4695.06 74.16714154718734
4763.35 73.95163607363821
4832.64 73.71547783787372
4902.93 73.59813591953171
4974.24 73.57900527146549
5046.6 73.52662692674042
5120.0 73.46867226183026
5194.47 73.46547597894845
5270.03 73.45202326911021
5346.68 73.38369781383093
5424.45 73.31519190186472
5503.35 73.2265121008869
5583.4 73.05707779219067
5664.61 72.80807889963431
5747.01 72.59343253332798
5830.6 72.56551088762293
5915.41 72.60103439446256
6001.45 72.50491946684008
6088.74 72.50947269375574
6177.3 72.62816707477344
6267.15 72.43796081395404
6358.31 72.00486291408875
6450.8 71.60696853903613
6544.62 71.06412131810134
6639.82 70.60436159125976
6736.4 70.41960271858468
6834.38 70.0877625081927
6933.79 69.93483742237233
7034.64 70.14621772898623
7136.96 70.24430978864406
7240.77 70.23379024377218
7346.09 70.15254683191074
7452.94 69.95147185709078
7561.35 69.59324476848342
7671.33 69.23296389788749
7782.91 69.05082061576574
7896.12 68.78402169788038
8010.97 68.6507994213775
8127.49 68.41826738949567
8245.71 68.15438288642144
8365.65 68.00535540480188
8487.33 67.8326663625371
8610.78 67.70564194533786
8736.03 67.54618590281157
8863.09 67.11286549538391
8992.01 66.53851721109638
9122.8 66.19437975849692
9255.5 66.01781958261407
9390.12 66.21176535138679
9526.7 66.16159212246498
9665.27 66.15299700019719
9805.86 65.97212873349767
9948.49 65.76951921881636
10093.2 65.43691559128311
10240.0 64.67298253991959
10388.9 64.24395364117282
10540.1 63.87620924199038
10693.4 63.899208596402474
10848.9 63.80870602743127
11006.7 63.98994471817622
11166.8 63.799247626229686
11329.2 63.58507475704991
11494.0 62.98581154501386
11661.2 62.8947501204793
11830.8 63.125283806315394
12002.9 63.549155358344734
12177.5 63.651487589748285
12354.6 63.71710541202157
12534.3 63.60908011042437
12716.6 63.262075443668664
12901.6 62.83674681506429
13089.2 62.833958148782926
13279.6 63.34686703415744
13472.8 63.567761829677806
13668.8 63.44883065480391
13867.6 63.07010060182736
14069.3 62.61030684875641
14273.9 62.47941325059065
14481.5 62.87538527813993
14692.2 63.44348287317629
14905.9 63.57644346545362
15122.7 63.397165046089356
15342.7 63.16482817697653
15565.8 62.97251997567605
15792.2 63.411204913567104
16021.9 63.75303085665041
16255.0 63.2061222840245
16491.4 62.66024756424062
16731.3 62.43329225097756
16974.7 62.522088536135016
17221.6 62.78082267307724
17472.1 62.481981776801234
17726.2 61.310553773258704
17984.0 60.66366753586286
18245.6 60.424172209673344
18511.0 59.81656927847155
18780.2 58.76258299251529
19053.4 56.89274524684504
19330.5 55.40030190548845
19611.7 54.38374629898669
19897.0 52.62982233992838
