Freq "Rear Wall Bounce"
22.4 63.80574226140844
23.0 61.9646361328422
23.6 59.198367167793094
24.0 59.407107358345
25.0 60.291183817494556
25.8 61.04443249987261
26.5 61.58513562911054
27.2 60.95983914242598
28.0 59.80409636854225
29.0 58.130754653681464
30.0 56.17479345028255
30.7 55.6089531363333
31.5 55.077569526952914
32.5 54.44774855927196
33.5 53.40952993002867
34.5 51.87530900332371
35.5 50.061539257992536
36.5 51.72438889500296
37.5 53.44384553399826
38.7 55.71049546718629
40.0 59.028295639090686
41.2 61.02089764157466
42.5 62.782946668530386
43.7 64.23031069400288
45.0 65.96847247408355
46.2 68.35469025704855
47.5 70.15469025704854
48.7 72.33240506549288
50.0 73.96552450243436
51.5 75.65623536857544
53.0 76.95246266871855
54.5 77.60376893113843
56.0 78.00278399752331
58.0 77.7813993430211
60.0 77.59044323305697
61.5 77.62205671504421
63.0 77.53501042615504
65.0 77.24019246377941
67.0 76.94955465306201
69.0 76.75315470627217
71.0 76.83255318402348
73.0 77.05081612360385
75.0 77.31723264061479
77.5 77.58641229746138
80.0 77.73064797065001
82.5 77.78359294323752
85.0 77.56673405957471
87.5 77.2330019997947
90.0 77.06584257608782
92.5 76.93262335964165
95.0 76.64792034117478
97.5 76.84120234265664
100.0 76.85837960886792
103.0 76.53671859194128
106.0 76.18849265470973
109.0 76.18571088542795
112.0 75.74775025877832
115.0 75.39935514544516
118.0 75.15556934720138
122.0 74.73645326046245
125.0 74.51047133975457
128.0 74.6946038235131
132.0 74.82116906161758
136.0 75.13119291302253
140.0 75.36828659522115
145.0 74.91828298393735
150.0 73.9137959507364
155.0 73.6183130941145
160.0 74.01034838334283
165.0 74.72076072156756
170.0 76.34683771674105
175.0 77.21124999751015
180.0 77.32760643622694
185.0 77.33610496541641
190.0 76.55681470199906
195.0 76.28839898592277
200.0 75.90842636087586
206.0 75.13418264202829
212.0 71.99216244578459
218.0 68.2402866310964
224.0 70.64553159012686
230.0 72.04451793138682
236.0 72.89968843699276
240.0 71.25163682532148
250.0 68.56901413485699
258.0 68.42778848262708
265.0 67.0848699262495
272.0 64.18504773960922
280.0 62.66199404694626
290.0 61.8535106450401
300.0 65.17108994971595
307.0 67.65231589122095
315.0 66.17779919492536
325.0 64.54924016859422
335.0 65.89850677010341
345.0 66.19444057199757
355.0 65.01200093443231
365.0 66.97186122801081
375.0 65.62649637233457
387.0 66.91983111791495
400.0 67.42301509632655
412.0 66.0704017014028
425.0 65.16555823749604
437.0 65.65447722757087
450.0 66.92717159572004
462.0 67.85145204846161
475.0 68.65625532490895
487.0 69.09528409452018
500.0 69.11712535698457
515.0 69.74339632622949
530.0 68.78688556193923
545.0 66.85082195316787
560.0 67.32661541262623
580.0 67.26932388983207
600.0 64.97548569476155
615.0 62.016989893892685
630.0 61.822093034432584
650.0 59.261457308760015
670.0 59.08885280236743
690.0 57.4207235998455
710.0 56.21595137632153
730.0 57.649118227381194
750.0 56.03684833813307
775.0 57.212045346731884
800.0 59.80361243985996
825.0 61.91240581360273
850.0 62.97870680406102
875.0 58.07053117791267
900.0 56.87393974920545
925.0 55.00999578815876
950.0 53.116242842155174
975.0 53.12587323764828
1000.0 51.59420369610851
1030.0 51.000838011920024
1060.0 51.36481928448842
1090.0 51.449097261367285
1120.0 51.33895132526149
1150.0 52.73164696988874
1180.0 51.411338136647174
1220.0 51.30474458761151
1250.0 50.1212559658986
1280.0 48.22253450026503
1320.0 48.80012009964793
1360.0 48.20568669222169
1400.0 47.83955944684067
1450.0 48.44157611506802
1500.0 49.676994566450304
1550.0 49.73807389844981
1600.0 48.9880436828922
1650.0 47.23474479840837
1700.0 47.566640373804006
1750.0 46.83647316339116
1800.0 47.2712801771265
1850.0 48.28828060391413
1900.0 47.24285546454769
1950.0 48.496510032495934
2000.0 47.58186891296555
2060.0 48.33267222976309
2120.0 48.05333562113043
2180.0 47.73947072605179
2240.0 48.41892687264411
2300.0 47.57419198714996
2360.0 48.8630788089763
2400.0 49.879945622205156
2500.0 48.67130398663491
2580.0 46.98389827381138
2650.0 46.67387483173073
2720.0 45.693502868734896
2800.0 45.82274690845915
2900.0 46.10256388676453
3000.0 46.04738001497236
3070.0 47.48953990711769
3150.0 49.174743807675725
3250.0 49.85763233089989
3350.0 50.87281188935549
3450.0 51.475281207617314
3550.0 51.04389352600214
3650.0 49.989406950365975
3750.0 48.85388772547856
3870.0 47.71058176905123
4000.0 47.23746641869465
4120.0 45.79522817156868
4250.0 45.45130239551983
4370.0 45.159053950464994
4500.0 46.26363282333034
4620.0 46.08201464684899
4750.0 47.0376233317574
4870.0 45.756464014377514
5000.0 45.10372829167551
5150.0 43.943326707453
5300.0 45.143877644238046
5450.0 44.67086211082125
5600.0 43.65800134522743
5800.0 44.257902272713324
6000.0 44.246798444642195
6150.0 44.2367153849774
6300.0 45.191177513080675
6500.0 45.573251491811874
6700.0 45.012121031576214
6900.0 44.282543733376
7100.0 43.81880082506112
7300.0 43.96664108770565
7500.0 44.62503262342756
7750.0 44.21341255578244
8000.0 43.5708703583077
8250.0 42.97179461140209
8500.0 42.79569959935222
8750.0 43.08168168408895
9000.0 45.99671797325581
9250.0 45.673338165556714
9500.0 45.156273046968295
9750.0 46.76037684845787
10000.0 45.216674652315476
10300.0 45.80364077534037
10600.0 46.0755628180186
10900.0 41.015438824273616
11200.0 42.55694819374091
11500.0 42.35895056873608
11800.0 40.74815221063986
12200.0 41.975542700718506
12500.0 43.87840066706855
12800.0 40.69311261652223
13200.0 36.668113749097614
13600.0 39.30080455450141
14000.0 40.36722979529759
14500.0 35.25698006165328
15000.0 38.68097473198594
15500.0 42.640268672785766
16000.0 40.365927124250504
16500.0 38.39055544295857
17000.0 38.67482323226602
17500.0 31.724075008824883
18000.0 26.1776781452011
18500.0 31.922301622661337
19000.0 31.698766743747882
19500.0 27.236704590124077
