Freq "On Axis"
20.5078 75.21003939393941
21.9727 78.94833939393939
23.4375 80.79333939393939
24.9023 82.70053939393941
26.3672 84.5256393939394
27.832 85.9717393939394
29.2969 87.6002393939394
30.7617 88.9998393939394
32.2266 90.3416393939394
33.6914 91.6650393939394
35.1562 92.90643939393941
36.6211 93.9898393939394
38.0859 95.0260393939394
39.5508 95.67763939393942
41.0156 96.1088393939394
42.4805 96.32603939393941
43.9453 96.3655393939394
45.4102 96.36673939393941
46.875 96.26953939393943
48.3398 96.17413939393941
51.2695 96.0085393939394
52.7344 95.9889393939394
54.1992 95.98993939393941
55.6641 96.0014393939394
58.5938 96.0274393939394
60.0586 96.0621393939394
62.9883 96.19223939393939
64.4531 96.27043939393943
67.3828 96.3879393939394
68.8477 96.3955393939394
71.7773 96.3660393939394
74.707 96.49123939393941
77.6367 96.45833939393941
79.1016 96.48353939393942
82.0312 96.4730393939394
84.9609 96.47753939393941
87.8906 96.5641393939394
90.8203 96.5900393939394
95.2148 96.49443939393939
98.1445 96.4393393939394
101.074 96.5050393939394
105.469 96.4469393939394
108.398 96.22323939393941
112.793 95.8301393939394
117.188 96.0455393939394
120.117 96.07763939393939
124.512 96.02203939393941
128.906 95.92003939393939
133.301 96.08493939393941
139.16 95.93693939393941
143.555 95.90793939393939
147.949 95.8381393939394
153.809 95.4432393939394
159.668 95.4028393939394
165.527 95.7286393939394
171.387 96.2885393939394
177.246 96.62203939393939
183.105 96.7135393939394
188.965 96.73053939393941
196.289 96.5727393939394
203.613 96.4460393939394
210.938 96.4280393939394
218.262 96.55583939393941
225.586 96.3734393939394
232.91 96.52023939393942
241.699 96.45443939393942
250.488 96.4939393939394
259.277 96.9520393939394
268.066 96.79523939393941
276.855 96.48903939393941
287.109 96.24503939393941
297.363 96.47373939393941
307.617 96.38083939393941
319.336 96.1348393939394
329.59 96.5386393939394
341.309 96.53623939393941
353.027 97.1670393939394
366.211 96.70363939393941
379.395 96.57043939393941
392.578 96.62523939393941
405.762 96.9521393939394
420.41 96.66553939393941
435.059 96.5762393939394
451.172 96.3463393939394
465.82 96.64603939393942
483.398 96.8631393939394
499.512 96.35743939393939
517.09 97.1327393939394
536.133 97.03533939393941
555.176 96.7907393939394
574.219 97.2509393939394
594.727 95.7809393939394
615.234 96.8116393939394
637.207 96.3948393939394
659.18 96.61233939393941
682.617 96.6162393939394
707.52 96.6571393939394
732.422 96.6750393939394
757.324 97.1092393939394
785.156 96.87303939393942
811.523 97.2937393939394
840.82 96.9092393939394
870.117 97.3783393939394
900.879 97.15613939393941
933.105 97.2980393939394
965.332 97.17003939393939
1000.49 97.5664393939394
1035.64 97.2718393939394
1072.27 97.41593939393941
1108.89 97.43523939393941
1148.44 97.25103939393941
1189.45 96.8965393939394
1230.47 97.0684393939394
1274.41 97.4007393939394
1319.82 97.3961393939394
1366.7 97.52293939393941
1413.57 96.93983939393941
1463.38 96.70873939393942
1516.11 96.7461393939394
1568.85 97.3257393939394
1624.51 97.07853939393942
1681.64 96.5458393939394
1741.7 96.13513939393941
1803.22 97.09523939393941
1866.21 97.1678393939394
1932.13 96.8056393939394
1999.51 97.2980393939394
2069.82 97.6325393939394
2143.07 97.4135393939394
2219.24 97.4949393939394
2296.88 97.1169393939394
2378.91 96.38293939393941
2462.4 96.62993939393942
2548.83 96.96763939393941
2639.65 96.55843939393941
2731.93 96.3788393939394
2828.61 96.9122393939394
2928.22 96.52413939393941
3030.76 96.2910393939394
3137.7 96.5312393939394
3249.02 96.1482393939394
3363.28 96.57003939393941
3481.93 96.2940393939394
3604.98 96.49213939393941
3732.42 96.0609393939394
3864.26 96.2422393939394
4000.49 96.0395393939394
4141.11 96.93423939393941
4287.6 96.8751393939394
4438.48 96.9798393939394
4595.21 97.0778393939394
4756.35 96.73993939393941
4924.8 97.02423939393941
5097.66 97.06963939393941
5277.83 96.96263939393941
5463.87 97.1871393939394
5657.23 97.3493393939394
5856.45 97.5754393939394
6062.99 97.6957393939394
6276.86 97.8785393939394
6498.05 97.7803393939394
6726.56 97.82983939393941
6963.87 97.6452393939394
7209.96 97.4657393939394
7464.84 97.25233939393941
7727.05 97.09963939393941
7999.51 96.8708393939394
8282.23 96.80373939393941
8573.73 96.7029393939394
8876.95 97.1177393939394
9188.96 96.96883939393942
9514.16 96.7041393939394
9849.61 96.98563939393941
10196.8 97.26493939393939
10555.7 97.47363939393941
10927.7 97.58673939393941
11313.0 97.4093393939394
11712.9 97.3824393939394
12126.0 97.37463939393939
12553.7 97.3115393939394
12996.1 97.39663939393941
13454.6 97.54353939393941
13929.2 97.4648393939394
14419.9 97.3355393939394
14928.2 97.28873939393941
15455.6 97.27113939393941
16000.5 97.11763939393938
16564.5 97.0857393939394
17148.9 96.33863939393939
17752.4 95.4915393939394
18379.4 95.18823939393941
19026.9 95.37523939393941
19697.8 95.4075393939394
19999.5 95.0565393939394
