Freq "Sound Power"
20.5078 76.28287192844826
21.9727 80.10400567906461
23.4375 81.94594785292836
24.9023 83.97341726855856
26.3672 85.76697630079681
27.832 87.15932352430164
29.2969 88.7703498992965
30.7617 90.16700305003303
32.2266 91.50697674378094
33.6914 92.80707665751028
35.1562 94.06390205526039
36.6211 95.21203403231303
38.0859 96.23813158940845
39.5508 96.80779663283649
41.0156 97.24276618857446
42.4805 97.42769047430468
43.9453 97.46320407207038
45.4102 97.45615418931988
46.875 97.37929656639938
48.3398 97.29954301926921
51.2695 97.14228898215818
52.7344 97.10561289761
54.1992 97.09922736126117
55.6641 97.11010562970964
58.5938 97.12641945866415
60.0586 97.15446960238343
62.9883 97.26182874738552
64.4531 97.3146835703243
67.3828 97.41055961035923
68.8477 97.43107648103152
71.7773 97.45923170836593
74.707 97.5239675574663
77.6367 97.53597847981973
79.1016 97.56748041098467
82.0312 97.5796911905005
84.9609 97.59855408697996
87.8906 97.62463793239961
90.8203 97.64162578570986
95.2148 97.49257629665091
98.1445 97.4043628593316
101.074 97.37113989998738
105.469 97.23058589904885
108.398 97.06217032815749
112.793 96.90470603522111
117.188 96.69637399599954
120.117 96.72116312503842
124.512 96.42038044960739
128.906 96.31783922006005
133.301 96.34613787564948
139.16 96.22165933281674
143.555 96.02412332710745
147.949 95.69020519518712
153.809 95.26754168285171
159.668 95.2031187634296
165.527 95.22201778782005
171.387 95.61935065329084
177.246 96.02360125290603
183.105 95.89574394713725
188.965 95.67449416193237
196.289 95.40661773530435
203.613 95.06006181634514
210.938 94.88271901268456
218.262 95.08616616400502
225.586 94.92810867522323
232.91 94.78303938477043
241.699 94.64732383589966
250.488 94.4652842957698
259.277 94.66211269684536
268.066 95.03089195108828
276.855 94.46624199038033
287.109 94.30989889524577
297.363 94.4142845677917
307.617 94.83214921932282
319.336 94.44567069937972
329.59 94.54323404923167
341.309 94.59416875681131
353.027 94.56662233101117
366.211 94.49772109550219
379.395 94.61838073672556
392.578 94.50652104737239
405.762 94.65418970267503
420.41 94.29897449615277
435.059 93.75340207880588
451.172 93.40748729814246
465.82 93.72342569895496
483.398 93.58340645601888
499.512 93.44671826710001
517.09 93.60966327692256
536.133 93.15664512644653
555.176 92.9893858444025
574.219 92.99942341997725
594.727 92.61173231688304
615.234 92.77415965010245
637.207 92.41453061240067
659.18 92.79376863133652
682.617 92.53188904528935
707.52 92.53708772357419
732.422 92.79816371372861
757.324 92.97003922052099
785.156 92.65491007097327
811.523 92.66038976651649
840.82 92.53936093149144
870.117 92.46584778554273
900.879 92.41994412337584
933.105 92.28632411484209
965.332 92.13630926179366
1000.49 92.01812088318911
1035.64 91.97714450011073
1072.27 92.24747589661132
1108.89 92.16703315910637
1148.44 92.056237158175
1189.45 91.6925542417336
1230.47 91.5384585096985
1274.41 91.26208339640758
1319.82 91.2871966924578
1366.7 90.98272425915867
1413.57 90.85871354926401
1463.38 90.7546684706847
1516.11 90.36859241252886
1568.85 90.4128250867325
1624.51 90.19584177548725
1681.64 89.65559634726115
1741.7 89.34281844039972
1803.22 89.8886011145396
1866.21 89.8740172620657
1932.13 89.3590284065005
1999.51 89.68024676596204
2069.82 90.29373445990484
2143.07 90.28562174363334
2219.24 90.61419954706471
2296.88 90.88033705009484
2378.91 90.46354128357396
2462.4 90.26357423598564
2548.83 90.49084195408257
2639.65 90.266505951071
2731.93 90.13212847789683
2828.61 90.24908933939135
2928.22 90.17240457993142
3030.76 89.92658855900875
3137.7 90.17906102328382
3249.02 90.52891431263338
3363.28 90.84951952034993
3481.93 90.897769451666
3604.98 90.45550527351611
3732.42 89.97311605951913
3864.26 89.70077947735338
4000.49 89.40944850431208
4141.11 89.40363148527706
4287.6 89.31006085060181
4438.48 89.54975225913466
4595.21 89.36519629638045
4756.35 89.26067704128405
4924.8 88.88714303865726
5097.66 89.03547579621602
5277.83 88.84856999224488
5463.87 88.79391752534207
5657.23 88.80233534445661
5856.45 88.72670480023734
6062.99 88.76592579448244
6276.86 88.7605129650478
6498.05 88.88778717257438
6726.56 89.06438810317329
6963.87 89.0948649814543
7209.96 89.06194678220498
7464.84 89.12046149426376
7727.05 89.05425011928872
7999.51 89.06128730608725
8282.23 89.1227034079466
8573.73 89.0921161330528
8876.95 89.13704285236324
9188.96 88.94217751516035
9514.16 88.70931276828341
9849.61 88.59720216675287
10196.8 88.4111750124096
10555.7 88.1123484326864
10927.7 87.78487201069345
11313.0 87.62556086285633
11712.9 87.46726607850023
12126.0 87.39547222881495
12553.7 87.19995781525441
12996.1 86.92990995945964
13454.6 86.79567417380815
13929.2 86.54548819714213
14419.9 86.36158631032836
14928.2 86.20594609655332
15455.6 86.20871120055914
16000.5 86.0785710912812
16564.5 85.34054585779776
17148.9 83.98562061416459
17752.4 83.75827988173066
18379.4 83.93488453146367
19026.9 83.85982898540581
19697.8 84.02166276519486
19999.5 84.16463099770479
