Freq,Floor Bounce,Ceiling Bounce,Front Wall Bounce,Side Wall Bounce,Rear Wall Bounce,Total Early Reflection
20.5078,51.07298072153003,50.71552133683534,50.905404131735935,50.93233455246195,50.91810027842456,50.91035907286755
21.9727,63.67306442081261,62.44208742786776,63.023100242060906,63.288496233323485,63.86202352874682,63.28624439501894
23.4375,65.71126794155555,64.31768222522564,65.15043623455915,65.05136794648456,64.82191380771326,65.03419867926553
24.9023,68.79436999689105,67.57464954948271,68.31448422617953,68.21100960752068,67.95688668915228,68.18901537165796
26.3672,72.33438804755423,71.30828607799917,71.91664890494101,71.8683761239554,71.71110160873197,71.84039347687535
27.832,74.82691158385887,73.75983647189275,74.41651876456555,74.27836043178209,73.91343789788394,74.25556123306418
29.2969,77.97125086471308,76.88550705038111,77.52943140198848,77.46708620415897,77.38291649352846,77.46102396737304
30.7617,80.53393067102749,79.50212908631126,80.12946348440386,80.04046662919109,79.82280996580853,80.01919558497985
32.2266,82.93171066485996,81.8211669826924,82.52545026320078,82.35082487818778,81.89669102891042,82.32472235015994
33.6914,85.2533890681593,84.53469308061506,85.00724547436802,84.84428757193285,84.3781273395208,84.81503176983009
35.1562,86.29050183129114,85.20139736969236,85.84363192777809,85.8037153988674,85.72931486022317,85.78749180387356
36.6211,88.16113001557169,87.1195001436173,87.7521171973137,87.67059654790486,87.48993700903843,87.65197314376852
38.0859,89.76048280771774,88.78010780143451,89.40274441049803,89.2697607448905,88.9178224125583,89.24035077065952
39.5508,90.67722945646578,89.8536032640425,90.37208536558974,90.24782125374837,89.92724929263306,90.22607322330519
41.0156,91.13171218567354,90.2969957743009,90.80493050367949,90.7253231627836,90.55730349704878,90.71203437309845
42.4805,91.65602264542161,90.75728755605837,91.3222174668309,91.20392883496147,90.93392324423445,91.18592195983491
43.9453,91.89755941959928,91.04597920430973,91.5849340203123,91.4602262977051,91.17468106969551,91.44322539365328
45.4102,92.12942372187294,91.26593617384442,91.81920062089236,91.67794326815836,91.33806775209085,91.65777212973043
46.875,92.26209439554967,91.42419251042372,91.96552433156685,91.81814472471812,91.4644929373624,91.79831846010136
48.3398,92.3308923908812,91.46165291162347,92.0330657224763,91.86738350668762,91.47701248601689,91.84680177745118
51.2695,92.13928931948396,91.36503261557478,91.89132104557322,91.68873072153373,91.17482155708922,91.66578074925562
52.7344,92.12552568843194,91.36039145380578,91.8657852990182,91.70659610538706,91.31794368914629,91.68602926581177
54.1992,92.30447810901424,91.54194550882843,92.0540811894889,91.87318702138425,91.42519992895637,91.85184813868804
55.6641,92.23744379763008,91.48135427746676,91.98288772526112,91.82373071060829,91.44450238014058,91.80444744084004
58.5938,92.36710971736183,91.61377300623732,92.11924037129349,91.9464492241683,91.53665732672725,91.9277441632465
60.0586,92.41335923254206,91.67020157916691,92.1705739598855,91.99374805084057,91.57828668613367,91.97631916449316
62.9883,92.4708642786218,91.7240081835815,92.23242285145452,92.04351455477534,91.60917560471322,92.02764499461429
64.4531,92.51348266485857,91.77234994328079,92.2886977023124,92.07126788420884,91.54264320131941,92.0516025068026
67.3828,92.64410373307223,91.90593625427998,92.42506702623577,92.19877082511984,91.62600342442605,92.1750012942905
68.8477,92.73985610046812,92.01808747399434,92.52821267852076,92.29983313717453,91.70228287352853,92.2730532940697
71.7773,92.56048741637369,91.87955463345929,92.34764172558754,92.1586051422788,91.65859200724694,92.13286853846154
74.707,92.43457506603386,91.7469252745759,92.20774681098017,92.05372165185037,91.66108832042762,92.03030309474184
77.6367,92.28116822171647,91.61411257185168,92.05203894104163,91.92612069764101,91.62188886533518,91.90664536231675
79.1016,92.22468265213057,91.5327735492887,91.98633236903399,91.85348778517482,91.5401846766477,91.83564908542274
82.0312,92.23928045333042,91.48012730284466,91.98189677477922,91.83964565023828,91.50846526231271,91.81945837565166
84.9609,92.22525827104346,91.45840668854963,91.97844440569693,91.81129717610267,91.45262277817106,91.79557694909622
87.8906,92.25243842284789,91.54628636512636,92.03985353038182,91.84314683932524,91.41066456109446,91.82949345524861
90.8203,92.28483908907789,91.6208063019827,92.08976690306709,91.88606253761168,91.43035088933391,91.87329984426682
95.2148,92.30766574316729,91.64313835566134,92.10480671031685,91.91788018938851,91.48116401895265,91.90127086873322
98.1445,91.89733745967122,91.23173747122675,91.6850113190286,91.5262592053671,91.16088369771188,91.50900439233472
101.074,91.86794212805272,91.16319509389496,91.63714801090121,91.48479664652425,91.17837336476865,91.4747378549651
105.469,92.2094139735975,91.55407642872137,92.00367885425362,91.84125426774172,91.51447344415845,91.83265313727256
108.398,91.88279728298988,91.22143791128153,91.68081434751853,91.50812962245791,91.18045681112534,91.50301009443812
112.793,91.936489384012,91.27218682917037,91.74511254338199,91.52846898346138,91.10945331189797,91.52879621860095
117.188,91.98805056538487,91.35222135528707,91.80380838789355,91.59009361158614,91.165601442066,91.59008138079511
120.117,91.838174978615,91.13276658014398,91.62263203733416,91.42048793883507,91.00802657348797,91.41518001745942
124.512,91.97816129689284,91.2462662364475,91.75013982679307,91.56208892113955,91.26101266536992,91.5687532033233
128.906,91.95678515140291,91.23288630959001,91.75299128743288,91.51049274770249,91.0981348076007,91.52190164827783
133.301,91.83104342838517,91.10145935520879,91.63076852510767,91.37494620815781,90.88986045325692,91.37902134536222
139.16,91.73284739305561,91.01727511203686,91.53271857895983,91.28553470124514,90.80096661693207,91.28690619644524
143.555,91.64699911010055,90.89596183842018,91.43212067122155,91.19029671113216,90.75321597885082,91.19626756541662
147.949,91.53558253780653,90.73087091802391,91.30356311634614,91.04149490470044,90.62042223124462,91.05992518259482
153.809,91.32444213242167,90.49482706435114,91.1081388955777,90.81220141463983,90.25774069415954,90.81686790708201
159.668,90.95172074328073,90.06863808169683,90.6951793910116,90.40746215350069,89.75630716265027,90.39678085258866
165.527,90.50799606320011,89.55680026635424,90.20541520763628,89.92791180900173,89.50211502251793,89.95699088932363
171.387,90.54754542370884,89.14658713732737,90.11277861291067,89.79859544673047,89.27112564356105,89.80681010084686
177.246,90.39107080948644,89.17157669664735,90.05300140271768,89.74060272366343,89.2521456401486,89.74665863518615
183.105,89.97098065205141,88.64060106706958,89.60584387510201,89.28183366632354,88.73541135598731,89.2765611255379
188.965,89.90386985616733,88.51270507049995,89.53200520929751,89.17417656587693,88.63477830330592,89.18351719131496
196.289,89.90068085204878,88.40848789174383,89.53076891098175,89.07528247727048,88.41091882048943,89.10619343813634
203.613,89.43673730136004,88.06841756380416,89.107985871767,88.70252141899286,87.89462899623649,88.68202111764705
210.938,88.82136384397701,87.69375727346934,88.55254121670423,88.19589108122584,87.5661829310753,88.19270640001488
218.262,88.92795666502967,87.70626331329414,88.65108887440854,88.21253403627205,87.53361901755966,88.2390130555815
225.586,88.90066580757387,87.78256510295928,88.67368598589184,88.22527487895508,87.47382641836239,88.24367456711695
232.91,88.62636888912508,87.70231951089646,88.4823965474975,88.01839508896771,87.39682928131057,88.06975018149828
241.699,88.37572741621887,87.63578865307608,88.3183721672062,87.81370173438964,87.10644899437422,87.87490640553618
250.488,88.17880476777935,87.64112796987897,88.24347938341067,87.65400263202935,86.6974237263203,87.71709603611238
259.277,88.26922716423559,88.00541021789466,88.42788880516044,87.8084150884374,86.75041919446005,87.89053934569792
268.066,88.48154294015336,88.24539034985462,88.62175659636539,88.09394409863656,87.16520303233996,88.15049699641014
276.855,88.13050249359924,88.09851626591666,88.35850603476207,87.78818226055412,86.94882356008362,87.89175731155954
287.109,87.97669287367266,87.89201094214508,88.15971701367833,87.56137704020114,86.70876286997918,87.68883741324633
297.363,88.24225511353332,88.09985717001179,88.50438812026458,87.83545476005912,86.67975022959229,87.91621289018244
307.617,88.31717833117307,87.84021114947322,88.37514827292122,87.77386855932504,86.74906831874927,87.84874669397752
319.336,87.39730546176199,87.64103905427783,87.66667905292286,86.98990247990399,85.96425050883738,87.17556230990883
329.59,87.32888244815013,87.86441370884076,87.82581332948178,87.11507477436338,86.0957846256689,87.29158284828979
341.309,87.45795190793018,88.02254386048872,87.96810002327459,87.2453248276577,86.0269991776527,87.40111046024221
353.027,87.34563123520535,88.12342575984977,88.00344408926318,87.1059557882163,85.73670917946092,87.3424961325783
366.211,87.84096999280905,88.34843598727824,88.36537626921356,87.66057912219003,86.28860268248728,87.76302727175766
379.395,87.80632782081699,88.49482903524842,88.47032017196963,87.61795448858676,86.12003788783109,87.78260353860186
392.578,87.60909850754524,88.28896337921667,88.18412070722614,87.3845039733585,85.91863906262262,87.55508663820885
405.762,87.69036083549267,88.42099680087202,88.30770055435096,87.46087242840122,86.168845306195,87.68074283876045
420.41,87.47535940261305,88.23883608563156,88.1394308073727,87.24127922064217,85.7899334235786,87.46082736094468
435.059,87.60434863195024,88.48267401864419,88.37563376934118,87.45069027146441,85.9209258882341,87.65820592546774
451.172,87.50011914864469,88.30798851528166,88.31021569595264,87.39372741032614,85.83069575347945,87.55721446980841
465.82,87.81774128240922,88.61163309736237,88.60625741836483,87.56820219574469,85.5000512280312,87.75675294394227
483.398,87.87358124711884,88.47156385310284,88.56266170811261,87.34358762029945,85.74132530962116,87.71139242179336
499.512,88.44385968825057,88.18630051083977,88.78943177855683,87.65997913037849,85.88643336156161,87.90351851645605
517.09,88.3342341248175,87.69099976655168,88.66175743234041,87.29187732459559,85.30228189667878,87.60259550375407
536.133,88.32926640617505,88.43721790901986,88.93823850396822,87.69334495177556,85.22442449341038,87.89931986037237
555.176,88.3001342193694,88.28357135795036,88.97204982960571,87.78579993278963,85.0480731182046,87.86638851923041
574.219,88.39719252244312,88.67556766795997,89.22489885803742,87.913089916599,84.9493634499546,88.05650341678967
594.727,88.66615728858743,88.57438400671909,89.10939818699565,88.4067612753411,85.43830359894021,88.21256721077764
615.234,88.39339872079677,88.63142084980956,88.96685340783189,87.97320292185623,85.17843465612009,88.01449298645946
637.207,88.58046770503793,88.91020841989481,89.24938947592756,88.20339378211133,84.83936328555308,88.20397296476082
659.18,88.48872380108645,88.6527664696878,88.8976196052747,88.05635197874042,85.24044374908024,88.04636870711778
682.617,88.196824260482,88.29800939678795,88.85842079891272,87.81715848601473,84.92292449310648,87.81100856253008
707.52,88.73532211941341,88.8429893752834,89.42748106564291,88.07720615256997,84.2040579952875,88.18954899584736
732.422,88.97780311211216,88.45165943248138,89.69412169767395,88.42769673407645,84.73108454945229,88.34532368269973
757.324,89.17169758662182,88.94628824655001,89.77035494670264,88.34153632697844,84.55350813166105,88.48476582889593
785.156,89.65760368862752,88.94344018449902,90.32311102036272,88.17187281491651,84.34939716437758,88.70887772474778
811.523,89.84723900276136,88.49161250066678,90.54244114859144,88.34236056737748,84.64220097369089,88.7840490654356
840.82,91.25934564414123,88.37145745127711,91.49821105810108,88.35815323899257,83.7600114650733,89.40370081492516
870.117,91.97049956638062,88.52602043150463,91.8876263804853,87.66498148065762,82.73904686271382,89.64050149329131
900.879,90.16853066696673,89.11096076128902,90.00145015132662,87.98374293022717,80.4739279348602,88.56718869857465
933.105,88.99959728839339,88.07976007893477,90.32916354093136,89.76258543125883,82.3364166661192,88.61379153363089
965.332,90.82210701316261,86.91445004180504,90.0591020589701,90.09391615038173,83.92110542996755,89.01135624394554
1000.49,87.90379364060253,85.33926274183793,85.2770026771681,89.91245719116486,86.86196113373194,87.4220049803688
1035.64,85.3412922214664,90.1523244317884,90.13785942876427,91.13299789680421,88.98286138486057,89.54175411656189
1072.27,89.85048351567305,90.4703937067637,93.4868199938839,91.77876118672411,89.60678042526104,91.2918084705698
1108.89,91.61182621262728,90.04077926529126,93.31505351369391,91.19222387210276,88.84234894817774,91.26203514767464
1148.44,91.98985407863147,88.9865310346521,93.11739154724744,90.34426370867392,87.78685812558535,90.86803098448081
1189.45,93.07767856596162,88.26025764557481,92.3773237005219,88.95199133318368,86.45267076491237,90.53645641845267
1230.47,91.97241582169872,89.92285584820134,91.04314908251308,88.40787447124985,85.21044527688383,89.87108574039037
1274.41,91.81767017807508,89.96714458445874,91.3864774710791,88.12806673599118,84.79329553933886,89.8584465859332
1319.82,91.84784016536614,89.67829230309272,91.46202949604235,88.59763934054574,84.96562818713767,89.90955318099475
1366.7,92.53193034964933,90.47148058853386,91.24337008303924,88.51655795310307,82.54556242418869,90.10970989058279
1413.57,91.19594280076403,91.3806800031216,89.5466747847656,88.66173890919056,84.0787125467557,89.62156617490184
1463.38,92.20078090643096,90.00433173855535,91.59377963932342,88.70992501152874,87.08787210125587,90.30088769163217
1516.11,94.00498667954696,88.68764852084908,92.96111146529677,89.40628229254624,85.58450856533693,91.11629594799452
1568.85,93.96474750297126,87.78275825484256,92.44354034128321,90.90376512080519,84.1145040912746,91.02865571931798
1624.51,93.92355702745047,85.99083493947798,92.07096584536767,90.56175210053765,84.98925443831445,90.74074755996307
1681.64,93.44601006208427,82.43917679584568,91.65336944083788,88.92014325578992,85.28652183953038,89.97157319591176
1741.7,93.12862098106936,88.31577679642933,91.61084021552493,87.21729529322998,84.8026679793213,90.01033770942843
1803.22,93.42762283819113,88.5475623315103,92.29420261441405,87.65020948939232,84.05811356193084,90.37438009025163
1866.21,93.6303640977142,89.17489073538034,92.30309915321384,87.93599087069924,83.43523121350839,90.55045562608316
1932.13,93.85753535537782,90.30786713501979,92.07780964961292,87.80635193414929,83.08026879040935,90.7368320797438
1999.51,93.83224089257797,91.61229741998919,91.41359199368179,87.60498214741952,83.90069238220423,90.84402354884645
2069.82,93.94992564622586,90.97445771220183,92.16692684556104,88.81094439230355,84.16527308566698,91.07417141293969
2143.07,93.94965917338509,88.5471002193989,91.76988230923212,88.24095802123803,83.56287653848472,90.48891840599272
2219.24,94.11266917972195,88.97377633941079,91.99780241003816,87.72059762147344,82.8463951697685,90.59622362575092
2296.88,94.39375075383576,89.69697720986136,91.76122229803985,88.11977905076274,82.15227587115781,90.78871825442434
2378.91,94.0749770047534,89.43657036526164,89.95737585342349,87.73284037484885,82.55237116982538,90.1682357430015
2462.4,93.1006236305878,88.62015113717774,89.31268631180319,86.70739655138551,82.18084405824773,89.3015659546017
2548.83,92.26593432096904,89.61236851777106,90.18950848699012,87.43160075798528,82.20912866564885,89.40919791429535
2639.65,91.58343701512857,88.33837399803916,90.29057921139736,87.59117659510859,82.53627557161803,88.9705608355902
2731.93,91.62458924615454,89.15655246890486,92.09773956192753,87.42755495884884,82.46544486601512,89.66381542583487
2828.61,92.27295842695864,88.83173688873772,92.36833241829528,88.08794668896368,81.96873912221906,89.98105506912495
2928.22,92.26978746284894,88.01136010510261,92.50356368579006,88.6377288936786,82.16697839246632,89.99502716334148
3030.76,92.08074916740784,88.31508189295519,92.89646824887126,89.12615453227164,82.18574375597227,90.190736299723
3137.7,92.86929754085027,87.86162033722277,92.99047775092563,89.97266128401745,81.30170212147848,90.54371336640665
3249.02,92.5593548566325,88.53135456183182,92.24927610773798,90.16383844841063,81.9872030066378,90.32684694919094
3363.28,91.88148651252601,89.78688228497109,91.76124192405834,90.1212731797222,81.70441033143793,90.14590528007086
3481.93,91.71601646193076,90.70687467743151,92.15881600226253,90.15865831399967,81.78782534035528,90.40870901071179
3604.98,91.90063452724254,89.49551445777604,92.81374959964472,90.41315413460266,81.83959284561428,90.49483427690532
3732.42,91.20811200010861,89.60656198822923,92.46597411053878,89.87319244571589,81.26820284963482,90.08910759629354
3864.26,90.6397821600395,88.83110294089168,93.60310427164042,90.89983667670296,81.40672475614252,90.47954373186519
4000.49,90.66803972344783,89.08978075656918,93.12988043545131,90.95585860553231,81.1887649840141,90.3428480401206
4141.11,90.03334846244556,89.05089402327414,93.26676088140127,91.20403656882586,81.16905633246915,90.32089360803008
4287.6,89.86079120846524,90.13480483099043,92.67344099103153,90.40145783169507,80.88707683771669,90.06057061911503
4438.48,89.34187745562637,89.43206364607218,92.65666776575428,89.63521379456768,80.04336480216782,89.6386733147737
4595.21,88.393214359059,89.52317939031781,91.88456166668193,89.07482985190126,79.34202903031273,89.05705964934299
4756.35,88.68906748212679,88.97071950738808,91.47173569556837,88.73839820019887,79.1131429217097,88.76360439297768
4924.8,88.45768964074753,88.59667507773614,90.9345812662694,87.80649749799451,78.52994188915407,88.24752268984122
5097.66,87.88459092747884,88.86269369173274,91.04467487020362,87.95250059398663,77.52284026340779,88.24332325239826
5277.83,89.180720083039,88.15697138825988,91.31145479786503,87.79145173162135,77.2788800696546,88.4380591795277
5463.87,89.38262053235722,87.52678651242095,91.48787665610621,87.53633203845214,76.7791595148717,88.39679738678787
5657.23,89.38871840269192,87.11177471170006,91.06161985003908,86.66767563241461,75.54004689122819,88.00710143644149
5856.45,89.6086418804295,87.23901983203159,90.99352916188795,86.80406749661552,75.5759941556937,88.08293182168137
6062.99,89.67167794972838,87.02955075936967,90.95708172976343,86.82680698203171,74.44658359138296,88.04517735552773
6276.86,89.59480322017681,86.05656424532489,91.7508820793426,86.02141043794593,73.29828288955784,88.10532491466437
6498.05,90.12843075031431,85.23142139562302,92.1704228335179,85.84048920567905,72.6184946904989,88.34280465025454
6726.56,89.9470073989826,84.42795181130612,92.19521187569113,85.11693462748659,74.08006931651454,88.1601259448505
6963.87,89.5807244190284,81.79724253434993,91.24344895048478,85.96990249417107,77.94759882067191,87.5563710116206
7209.96,88.17521357474105,83.35011201347176,89.00511212718223,88.96835743803575,80.36850476787481,87.10268366887752
7464.84,87.80050255298347,84.90829430852651,87.98267799851845,89.65448553724977,80.61768279881642,87.12566194447642
7727.05,88.2567876992872,85.36536526344504,88.59788366203806,89.50579771385421,79.4737877600004,87.35356983256024
7999.51,88.80812867682053,86.94643272223843,89.20280333263638,89.01426145833382,78.13477114694905,87.70759012003873
8282.23,88.91553106069583,87.3162982901135,89.80009075240082,88.14714661664226,77.16005220471288,87.74924555633784
8573.73,89.27034268439455,86.8609693927051,90.12461868630814,87.66615873597287,76.75022288975029,87.7691075323053
8876.95,89.96260264386751,86.32523997682091,90.29787489987481,87.47883260863864,75.99246231215793,87.91105924011792
9188.96,90.1436575682028,85.03548894273575,90.68186399268957,87.38323914636435,75.2335146463974,87.92846645653351
9514.16,90.10196021214928,83.78964794066759,91.28556344056652,87.35213852091594,74.76788296279275,88.0360025014218
