Freq "Front Wall Bounce"
20.5078 51.77131322264502
21.9727 63.88900933296999
23.4375 66.01634532546824
24.9023 69.18039331708862
26.3672 72.7825579958501
27.832 75.28242785547464
29.2969 78.39534049289756
30.7617 80.99537257531294
32.2266 83.39135935410987
33.6914 85.8731545652771
35.1562 86.70954101868718
36.6211 88.61802628822278
38.0859 90.26865350140712
39.5508 91.23799445649883
41.0156 91.67083959458857
42.4805 92.18812655773999
43.9453 92.45084311122139
45.4102 92.68510971180145
46.875 92.83143342247594
48.3398 92.89897481338538
51.2695 92.7572301364823
52.7344 92.73169438992728
54.1992 92.91999028039798
55.6641 92.8487968161702
58.5938 92.98514946220257
60.0586 93.03648305079459
62.9883 93.0983319423636
64.4531 93.15460679322149
67.3828 93.29097611714485
68.8477 93.39412176942984
71.7773 93.21355081649662
74.707 93.07365590188925
77.6367 92.91794803195071
79.1016 92.85224145994307
82.0312 92.8478058656883
84.9609 92.84435349660602
87.8906 92.9057626212909
90.8203 92.95567599397617
95.2148 92.97071580122594
98.1445 92.55092040993769
101.074 92.5030571018103
105.469 92.8695879451627
108.398 92.54672343842762
112.793 92.61102163429108
117.188 92.66971747880264
120.117 92.48854112824324
124.512 92.61604891770216
128.906 92.61890037834196
133.301 92.49667761601675
139.16 92.39862766986892
143.555 92.29802976213064
147.949 92.16947220725523
153.809 91.97404798648678
159.668 91.56108848192069
165.527 91.07132429854536
171.387 90.97868770381976
177.246 90.91891049362677
183.105 90.4717529660111
188.965 90.3979143002066
196.289 90.39667800189083
203.613 89.97389496267608
210.938 89.41845030761331
218.262 89.51699796531763
225.586 89.53959507680092
232.91 89.34830563840659
241.699 89.18428125811529
250.488 89.10938847431976
259.277 89.29379789606952
268.066 89.48766568727447
276.855 89.22441512567116
287.109 89.02562610458742
297.363 89.37029721117366
307.617 89.24105736383031
319.336 88.53258814383194
329.59 88.69172242039086
341.309 88.83400911418367
353.027 88.86935318017227
366.211 89.23128536012264
379.395 89.33622926287872
392.578 89.05002979813523
405.762 89.17360964526004
420.41 89.00533989828179
435.059 89.24154286025026
451.172 89.17612478686172
465.82 89.47216650927392
483.398 89.4285707990217
499.512 89.65534086946592
517.09 89.5276665232495
536.133 89.8041475948773
555.176 89.8379589205148
574.219 90.0908079489465
594.727 89.97530727790473
615.234 89.83276249874098
637.207 90.11529856683664
659.18 89.76352869618378
682.617 89.7243298898218
707.52 90.293390156552
732.422 90.56003078858303
757.324 90.63626403761172
785.156 91.1890201112718
811.523 91.40835023950052
840.82 92.36412014901016
870.117 92.75353547139439
900.879 90.86735924223571
933.105 91.19507263184045
965.332 90.92501114987918
1000.49 86.14291176807718
1035.64 91.00376851967336
1072.27 94.35272908479298
1108.89 94.180962604603
1148.44 93.98330063815652
1189.45 93.24323279143098
1230.47 91.90905817342217
1274.41 92.25238656198819
1319.82 92.32793858695143
1366.7 92.10927917394832
1413.57 90.41258387567468
1463.38 92.4596887302325
1516.11 93.82702055620585
1568.85 93.3094494321923
1624.51 92.93687493627675
1681.64 92.51927853174696
1741.7 92.47674930643402
1803.22 93.16011170532313
1866.21 93.16900824412292
1932.13 92.943718740522
1999.51 92.27950108459088
2069.82 93.03283593647012
2143.07 92.6357914001412
2219.24 92.86371150094725
2296.88 92.62713138894894
2378.91 90.82328494433257
2462.4 90.17859540271228
2548.83 91.0554175778992
2639.65 91.15648830230644
2731.93 92.96364865283661
2828.61 93.23424150920437
2928.22 93.36947277669914
3030.76 93.76237733978034
3137.7 93.85638684183472
3249.02 93.11518519864707
3363.28 92.62715101496742
3481.93 93.02472509317161
3604.98 93.67965869055381
3732.42 93.33188320144787
3864.26 94.4690133625495
4000.49 93.9957895263604
4141.11 94.13266997231035
4287.6 93.53935008194061
4438.48 93.52257685666336
4595.21 92.75047075759102
4756.35 92.33764478647745
4924.8 91.80049035717849
5097.66 91.9105839611127
5277.83 92.17736388877411
5463.87 92.3537857470153
5657.23 91.92752894094816
5856.45 91.85943825279703
6062.99 91.82299082067252
6276.86 92.61679117025169
6498.05 93.03633192442699
6726.56 93.06112096660021
6963.87 92.10935804139386
7209.96 89.87102121809131
7464.84 88.84858708942754
7727.05 89.46379275294714
7999.51 90.06871242354546
8282.23 90.6659998433099
8573.73 90.99052777721722
8876.95 91.1637839907839
9188.96 91.54777308359866
9514.16 92.1514725314756
9849.61 92.6436692408135
10196.8 93.10051372974253
10555.7 93.1040547773221
10927.7 92.52126945435352
11313.0 91.70425432466267
11712.9 90.98837070318066
12126.0 91.15501238153686
12553.7 91.69162955473853
12996.1 91.87589700066427
13454.6 92.23760196106441
13929.2 92.85781214358582
14419.9 93.44685203171369
14928.2 93.94153938308564
15455.6 94.37107089172648
16000.5 94.9229128010643
16564.5 95.58564284096947
17148.9 96.20818278272591
17752.4 96.99978988865048
18379.4 97.06012261873398
19026.9 94.91330736773541
19697.8 97.26137257902771
19999.5 97.13394872425464
