Freq "Front Wall Bounce"
22.4 14.899737334456503
23.0 17.97288618289609
23.6 21.84478311942776
24.0 23.29794059540133
25.0 24.741651348752143
25.8 26.715539929288312
26.5 28.482767375302714
27.2 30.160080020926173
28.0 31.38720412545736
29.0 32.365080105133856
30.0 33.22453813519503
30.7 35.5541937124609
31.5 37.74587343410296
32.5 39.63036571218656
33.5 40.850467826356564
34.5 42.095177910908646
35.5 43.37689794218791
36.5 45.145606338282434
37.5 47.00777055783048
38.7 48.81608174351878
40.0 50.0604385053842
41.2 51.27500314737735
42.5 52.617634593613204
43.7 54.315146623103146
45.0 56.81998423401444
46.2 58.69434024519468
47.5 59.920654504373374
48.7 61.10065786069427
50.0 62.501988600920185
51.5 63.8716627539189
53.0 65.10065786069426
54.5 66.37166275391891
56.0 67.70065786069425
58.0 69.0
60.0 69.98651449586096
61.5 70.78585448910238
63.0 71.31508314243884
65.0 71.9447981209877
67.0 72.50229476693691
69.0 72.87525122642457
71.0 73.20362500576275
73.0 73.44675150375353
75.0 73.54675150375355
77.5 73.57525122642457
80.0 73.74675150375354
82.5 73.84675150375354
85.0 74.03175513861906
87.5 74.18748929892041
90.0 74.28748929892042
92.5 74.51508314243883
95.0 74.8437907541973
97.5 75.07297191737702
100.0 75.18748929892041
103.0 75.27525122642457
106.0 75.3652871599955
109.0 75.43924275721992
112.0 75.65000634017072
115.0 75.86035311823196
118.0 76.11508314243885
122.0 76.18748929892041
125.0 76.0652871599955
128.0 75.98336396340044
132.0 75.9549176038529
136.0 75.92940676691627
140.0 75.91363940606881
145.0 75.78847217927516
150.0 75.68847217927517
155.0 75.77848478147017
160.0 75.74574459001023
165.0 75.64574459001024
170.0 75.4048949937362
175.0 75.0600593685791
180.0 74.8512148231135
185.0 74.90433100962667
190.0 75.0136394060688
195.0 74.96005936857911
200.0 74.8268345531296
206.0 74.69121584965016
212.0 74.75086213388187
218.0 74.92683455312961
224.0 75.1351604799582
230.0 75.3136394060688
236.0 75.39817545090705
240.0 75.31941403242199
250.0 75.21941403242197
258.0 75.21941403242197
265.0 75.31941403242199
272.0 75.33516047995819
280.0 75.22683455312959
290.0 75.15086213388186
300.0 75.15086213388186
307.0 75.05378373474548
315.0 75.27640057047572
325.0 75.45378373474549
335.0 75.63698126844557
345.0 75.53156734312869
355.0 75.51063265137013
365.0 75.68969515549682
375.0 75.53900047053698
387.0 75.22528439454827
400.0 74.7079475511976
412.0 74.38844499392837
425.0 74.13416418708971
437.0 74.16930138192059
450.0 74.56218600819972
462.0 74.6324485116835
475.0 74.54733305442547
487.0 74.63472476250838
500.0 74.99037588475265
515.0 75.4218185286489
530.0 75.7143083659093
545.0 75.51670307312227
560.0 75.53898903275916
580.0 75.41586907480072
600.0 74.91586907480071
615.0 73.94574433650618
630.0 73.21705450960317
650.0 73.4828783704033
670.0 73.96996000027609
690.0 74.2231538004633
710.0 74.44008515580522
730.0 75.50389636293623
750.0 76.34540219268524
775.0 75.79803929333285
800.0 75.48420286618348
825.0 76.0408387732568
850.0 76.36148283099041
875.0 76.31912395882262
900.0 76.80321617288773
925.0 76.98963068701588
950.0 77.01011751047582
975.0 76.91527723513973
1000.0 76.78243787280962
1030.0 76.42146896585426
1060.0 76.1527675334497
1090.0 75.7781133253388
1120.0 75.64620440270669
1150.0 75.38521912659944
1180.0 75.04948190577919
1220.0 75.15587378183616
1250.0 75.66538613056566
1280.0 76.19205156587775
1320.0 77.3229609628476
1360.0 78.34252094513828
1400.0 78.36212175296141
1450.0 78.1026041809904
1500.0 77.5635279539777
1550.0 77.19916045598912
1600.0 76.67185692605989
1650.0 77.31131005478133
1700.0 77.82336060842722
1750.0 78.59128315218385
1800.0 78.12298936767911
1850.0 77.19417427893735
1900.0 77.24901654619406
1950.0 78.32099835778678
2000.0 78.35766613506323
2060.0 78.39921749581697
2120.0 78.01516373844676
2180.0 78.14872712976715
2240.0 78.33404383616285
2300.0 78.57827631565144
2360.0 78.87710142937743
2400.0 79.06348233692478
2500.0 78.83900047053699
2580.0 78.63439926267995
2650.0 78.77376997210324
2720.0 78.80069272915763
2800.0 78.54684190795567
2900.0 78.72712927664732
3000.0 78.87667585021349
3070.0 79.23029693351917
3150.0 80.12236363150308
3250.0 80.60285819308045
3350.0 81.05316191436528
3450.0 80.75191540252153
3550.0 80.09807594421369
3650.0 79.34586277528994
3750.0 79.40895816320187
3870.0 79.73703352818906
4000.0 80.46023864554114
4120.0 81.15382791501574
4250.0 80.48794086816964
4370.0 79.66960792951043
4500.0 80.34590589703407
4620.0 81.62249989921668
4750.0 81.99857064104931
4870.0 81.33013210503088
5000.0 80.86193476529532
5150.0 81.30263938297908
5300.0 81.18600223546969
5450.0 81.4389587198766
5600.0 81.54396236156913
5800.0 80.8489737125232
6000.0 80.00926080524286
6150.0 79.65029905462528
6300.0 79.35408964174103
6500.0 79.4313412898495
6700.0 78.7282005714333
6900.0 80.00998367955319
7100.0 79.73883725916309
7300.0 79.26741540062899
7500.0 79.83072860030555
7750.0 79.21916685122062
8000.0 78.38558464283436
8250.0 77.95876437648003
8500.0 77.69237400983288
8750.0 77.39986314012175
9000.0 77.61566210142301
9250.0 77.45641149684194
9500.0 77.17097516201714
9750.0 77.68525409244043
10000.0 75.9275613814421
10300.0 75.03574882174414
10600.0 76.874498223
10900.0 78.36227885783174
11200.0 79.54636574348037
11500.0 78.72184743447681
11800.0 79.32039947798133
12200.0 79.75799069432686
12500.0 76.45063974576804
12800.0 72.68864482015188
13200.0 76.28965123934476
13600.0 74.36552333215693
14000.0 73.27514381283102
14500.0 74.94726896525812
15000.0 72.94376273366373
15500.0 70.32812519407548
16000.0 75.87110575658276
16500.0 75.24471373708403
17000.0 70.29296284861678
17500.0 63.71277338857426
18000.0 67.15169708287452
18500.0 64.45554661807695
19000.0 62.642094598982624
19500.0 56.79867786838811
