Freq,On Axis,Listening Window,Sound Power,Early Reflections,Early Reflections DI,Sound Power DI,DI offset
20.507813,44.75494100000002,44.7404062542938,44.99113235769288,44.589732027016666,40.150674227277136,39.749273896600926,40
21.972656,47.48939800000001,47.50969316286846,48.411291943980004,47.69866362133844,39.81102954153002,39.098401218888455,40
23.4375,49.155086999999995,49.182716039723445,50.302930969633806,49.48476334441621,39.69795269530724,38.87978507008964,40
24.902344,52.50022299999999,52.512795575675725,53.15481574303105,52.60801411580222,39.904781459873504,39.35797983264467,40
26.367188,55.27828800000002,55.27986833539295,55.65757334454672,55.26167453935848,40.01819379603447,39.62229499084623,40
27.832031,57.214400999999995,57.21595512060948,57.560001637503845,57.20342885126094,40.01252626934854,39.655953483105634,40
29.296875,58.884091,58.88618019850212,59.202016744876644,58.87431878795333,40.01186141054879,39.68416345362547,40
30.761719,60.60471299999999,60.60336428828974,60.827022551638606,60.55994722251877,40.04341706577097,39.77634173665113,40
32.226563,62.151304999999994,62.14936368665654,62.340863344382896,62.102542079137194,40.04682160751935,39.808500342273646,40
33.691406,63.644075,63.63786507020326,63.723708487159456,63.55211092173202,40.08575414847124,39.914156583043805,40
35.15625,64.809725,64.8000738640968,64.7858547526492,64.67126795007214,40.12880591402467,40.0142191114476,40
36.621094,65.932683,65.92220963215787,65.8653289807218,65.77824419575397,40.1439654364039,40.056880651436074,40
38.085938,66.959188,66.94810653036144,66.86659070545008,66.79671640584759,40.15139012451385,40.081515824911364,40
39.550781,67.908943,67.89679465637828,67.78549317605925,67.73563780904114,40.16115684733714,40.11130148031903,40
41.015625,68.72028099999999,68.70691432373003,68.5637669092341,68.53429004790841,40.17262427582162,40.14314741449593,40
42.480469,69.414305,69.39965443721164,69.22193234232142,69.21427234212845,40.185382095083185,40.177722094890214,40
43.945313,70.023757,70.00811992725107,69.80518569992924,69.81389896356622,40.194220963684856,40.20293422732183,40
45.410156,70.56550599999998,70.54896186901192,70.32182947166234,70.34613804370754,40.20282382530438,40.22713239734958,40
46.875,71.05366,71.03648432791468,70.79153962049844,70.82755824767604,40.20892608023864,40.24494470741624,40
48.339844,71.522693,71.50502095836688,71.24637626761356,71.29167128774995,40.213349670616935,40.25864469075333,40
51.269531,72.39960600000002,72.38080202233405,72.09275656398236,72.15696358300727,40.223838439326784,40.28804545835169,40
52.734375,72.810948,72.79170413690005,72.49207783514397,72.56374776262687,40.22795637427318,40.29962630175608,40
54.199219,73.187999,73.16840664370561,72.85921505112695,72.93711901193062,40.23128763177499,40.30919159257866,40
55.664063,73.47667700000001,73.45515325719607,73.10563754618418,73.20725458735612,40.247898669839955,40.34951571101189,40
58.59375,74.114632,74.09291848324092,73.73491654481734,73.84293100352498,40.24998747971594,40.358001938423584,40
60.058594,74.466344,74.44416631804988,74.07607776000158,74.19027528192943,40.25389103612045,40.3680885580483,40
62.988281,75.097203,75.07369414684358,74.67162628404883,74.80521893409637,40.268475212747205,40.40206786279475,40
64.453125,75.392397,75.36884930871629,74.96357261939299,75.09966859233647,40.26918071637982,40.4052766893233,40
67.382813,75.931593,75.90806646660803,75.50464401069036,75.64164849792874,40.26641796867929,40.40342245591768,40
68.847656,76.172073,76.14851144398779,75.74822917111419,75.88414818832194,40.26436325566584,40.400282272873596,40
71.777344,76.741233,76.7172488729383,76.31582765569846,76.45323007497021,40.26401879796809,40.40142121723984,40
74.707031,77.265039,77.24027371285918,76.82524433421547,76.97097822644237,40.26929548641681,40.41502937864371,40
77.636719,77.61248100000002,77.58768585495763,77.1777599843012,77.32188045207955,40.26580540287807,40.40992587065642,40
79.101563,77.81319600000002,77.78788014593768,77.37099437327838,77.5190408222359,40.26883932370178,40.4168857726593,40
82.03125,78.323227,78.29696244338889,77.86578767042863,78.02177594621328,40.27518649717561,40.43117477296026,40
84.960938,78.734981,78.70818995996926,78.27173217746504,78.43072462789425,40.27746533207501,40.43645778250422,40
87.890625,78.972698,78.94528107719806,78.5025266074516,78.66503161691027,40.28024946028779,40.44275446974646,40
90.820313,79.31195700000002,79.28334486021392,78.8185805201978,78.99320722107701,40.2901376391369,40.46476434001612,40
95.214844,79.744577,79.71541511713959,79.2495066166427,79.42501082665731,40.29040429048227,40.46590850049688,40
98.144531,79.914438,79.88467994669865,79.41799018938973,79.59390619403815,40.2907737526605,40.46668975730893,40
101.07422,80.152657,80.12197325710422,79.6447808217866,79.82654565471884,40.295427602385374,40.47719243531762,40
105.46875,80.435356,80.40342098591323,79.91332313717355,80.10190010371214,40.30152088220109,40.49009784873968,40
108.39844,80.555149,80.52197066361303,80.01811077423194,80.21385095786302,40.308119705750016,40.50385988938109,40
112.79297,80.831858,80.79617382665332,80.23752904505034,80.46323416381279,40.33293966284053,40.55864478160298,40
117.1875,80.94068,80.90619819175363,80.39554247786002,80.59498830034119,40.311209891412446,40.51065571389361,40
120.11719,81.035319,80.99786285861593,80.44319588796903,80.66493682035552,40.33292603826041,40.554666970646906,40
124.51172,81.096513,81.0578594788369,80.48036966056172,80.7137680336047,40.34409144523221,40.57748981827518,40
128.90625,81.135221,81.0948422203041,80.49596831325287,80.73980560785546,40.35503661244864,40.59887390705123,40
133.30078,81.193233,81.15123699010634,80.51809568763316,80.77965633030873,40.371580659797615,40.63314130247318,40
139.16016,81.21081,81.16843140773027,80.53401200945827,80.7967737128916,40.37165769483866,40.634419398272,40
143.55469,81.132336,81.08948905459948,80.4718040468855,80.72542075488683,40.364068299712656,40.61768500771399,40
147.94922,81.05648000000001,81.0117554368015,80.38112338037821,80.63990608084437,40.371849355957124,40.63063205642328,40
153.80859,80.98385,80.93607934068025,80.26924699890516,80.54447658578691,40.39160275489334,40.66683234177509,40
159.66797,80.962232,80.91213577486586,80.21809427915389,80.50736048262668,40.40477529223918,40.69404149571197,40
165.52734,80.890457,80.83686592219986,80.09475641342199,80.40717490139183,40.429691020808036,40.74210950877787,40
171.38672,80.884408,80.82975112675562,80.05400081116635,80.38599751331712,40.4437536134385,40.77575031558928,40
177.24609,80.736875,80.68238212335329,79.9511919806007,80.2584620833963,40.423920039957,40.731190142752595,40
183.10547,80.560988,80.50265249557884,79.75161159508133,80.06631879946912,40.43633369610973,40.751040900497514,40
188.96484,80.487469,80.42297320763858,79.57174685398004,79.93922740290627,40.48374580473231,40.85122635365853,40
196.28906,80.526268,80.46075572385163,79.57722397837027,79.96367018314488,40.49708554070675,40.88353174548136,40
203.61328,80.338215,80.27105474109554,79.39895651655242,79.77729300001204,40.4937617410835,40.87209822454312,40
210.9375,80.10566,80.03472689590532,79.13668412106307,79.52561105923317,40.50911583667215,40.89804277484225,40
218.26172,79.942073,79.8655052853715,78.9035121562785,79.32399704150458,40.541508243866915,40.961993129093,40
225.58594,79.854606,79.76831857054079,78.65686111896152,79.15322688989234,40.61509168064845,41.11145745157927,40
232.91016,80.037796,79.95212282214622,78.70966728074107,79.28543265404683,40.66669016809939,41.24245554140515,40
241.69922,79.762984,79.67765710889844,78.5396778277851,79.0528405185176,40.624816590380846,41.137979281113346,40
250.48828,79.702534,79.6107564532879,78.39201255936423,78.94133227180403,40.669424181483876,41.21874389392367,40
259.27734,79.70641099999999,79.6113171534048,78.32891041574058,78.91046277022922,40.70085438317558,41.28240673766422,40
268.06641,79.689796,79.59169147948433,78.28952264348419,78.88035465818889,40.71133682129543,41.302168836000135,40
276.85547,79.509453,79.40374836857595,78.06722791355001,78.67073455560424,40.733013812971706,41.33652045502593,40
287.10938,79.546388,79.43008948872351,77.84463404422901,78.58881548312746,40.84127400559605,41.5854554444945,40
297.36328,79.689294,79.57304055432658,77.85552117390708,78.68600508709392,40.887035467232664,41.7175193804195,40
307.61719,79.541497,79.4242103251076,77.6868781349728,78.52209364446483,40.90211668064276,41.737332190134794,40
319.33594,79.69256599999999,79.5748751103698,77.80553461336766,78.65850651391783,40.916368596451974,41.76934049700215,40
329.58984,79.619228,79.4928491234384,77.6440218719784,78.54325023240798,40.94959889103042,41.84882725146001,40
341.30859,79.683688,79.55870745561336,77.67662136547688,78.6018059338269,40.95690152178646,41.88208609013648,40
353.02734,79.443765,79.31167174818967,77.41022791331709,78.33909877461943,40.97257297357024,41.90144383487258,40
366.21094,79.421363,79.2810941100293,77.1842707328695,78.22126201940998,41.059832090619324,42.096823377159794,40
379.39453,79.497109,79.35777932097966,77.08985598391735,78.23140668951257,41.12637263146709,42.267923337062314,40
392.57813,79.619769,79.46767888399268,76.97534517320399,78.25182466348573,41.21585422050694,42.492333710788685,40
405.76172,79.84694899999998,79.7030342655346,77.17200923667532,78.47985427486746,41.223179990667134,42.531025028859275,40
420.41016,79.338171,79.19625668724082,76.82125354662027,78.02960787064964,41.16664881659118,42.37500314062055,40
435.05859,79.58692900000001,79.43782211989405,76.68513836736214,78.12755445032607,41.31026766956798,42.75268375253191,40
451.17188,79.51713,79.37046356908215,76.71999704391861,78.09446969388999,41.27599387519216,42.65046652516354,40
465.82031,79.87914399999998,79.71741320530596,76.71647744795729,78.30205127867495,41.41536192663101,43.00093575734867,40
483.39844,80.095985,79.95218695676051,76.98826245322128,78.57089718935289,41.38128976740762,42.96392450353923,40
499.51172,80.77106200000001,80.6266478716607,77.41945318981037,79.16909595012028,41.457551921540414,43.207194681850325,40
517.08984,81.06716300000001,80.94432122588834,78.01521443439846,79.60177634200818,41.342544883880166,42.929106791489886,40
536.13281,80.78862200000002,80.6474141700606,77.82766341688237,79.33296509982414,41.31444907023646,42.819750753178226,40
555.17578,80.894943,80.76094996708322,77.69021288326246,79.34135608721357,41.41959387986965,43.07073708382076,40
574.21875,80.963627,80.81278204443613,77.60531369128343,79.31684944005127,41.49593260438486,43.207468353152706,40
594.72656,81.021811,80.88247012672444,77.59968435849615,79.35812959710563,41.52434052961881,43.282785768228294,40
615.23438,80.705573,80.58566560549887,77.3529191443257,79.1219770541342,41.46368855136467,43.23274646117318,40
637.20703,80.695992,80.56040897659686,77.23194245398058,79.03605506434255,41.52435391225431,43.32846652261628,40
659.17969,80.24815,80.12801599934883,77.05178928840296,78.72815705404605,41.39985894530278,43.076226710945875,40
682.61719,79.98129300000001,79.83579848071965,76.66758132474584,78.36796183958157,41.46783664113808,43.16821715597381,40
707.51953,79.872047,79.74954463059257,76.50189417604281,78.27956085040003,41.469983780192536,43.247650454549756,40
732.42188,79.510191,79.38322795622172,76.26778526499966,78.00755286680089,41.375675089420824,43.11544269122206,40
757.32422,79.13221,78.9922787131468,76.10833772653496,77.69111716707685,41.30116154606995,42.88394098661185,40
785.15625,79.179897,78.98156394538726,75.7503649029708,77.55998245533756,41.421581490049704,43.23119904241646,40
811.52344,78.756394,78.54253956847694,75.51043568397563,77.15936637112733,41.383173197349606,43.03210388450131,40
840.82031,79.136708,78.85702451330998,75.64574893695631,77.39465654214011,41.46236797116987,43.21127557635367,40
870.11719,79.275886,78.87953806806713,75.01163380261903,76.9734329953752,41.90610507269193,43.867904265448104,40
900.87891,79.380655,78.96466684603048,74.78105247372973,76.82282414672338,42.141842699307105,44.18361437230075,40
933.10547,80.135648,79.70939765736723,75.0688882905057,77.32122969924087,42.38816795812636,44.64050936686154,40
965.33203,80.552595,80.15407006201431,75.37578398939303,77.7727107048618,42.38135935715252,44.778286072621285,40
1000.4883,80.63933199999998,80.24608837612153,75.49887146533918,77.80719078616967,42.438897589951864,44.747216910782356,40
1035.6445,80.621673,80.21295245713783,75.39657704259618,77.71887892076208,42.49407353637575,44.81637541454165,40
1072.2656,80.24385600000001,79.84371136324098,74.91290471564128,77.26530708247789,42.578404280763095,44.93080664759971,40
1108.8867,80.157624,79.72190196525975,74.73821726679505,77.10937878072876,42.612523184530986,44.9836846984647,40
1148.4375,80.355867,79.96063356409861,74.88363529049401,77.2725349242262,42.68809863987241,45.0769982736046,40
1189.4531,81.183051,80.76599954625509,75.41510581297311,77.84618244015087,42.91981710610422,45.35089373328198,40
1230.4688,81.80802200000001,81.38214981398906,75.83566918005289,78.36328478197099,43.01886503201807,45.54648063393617,40
1274.4141,81.847214,81.42344214037693,75.84788417991096,78.29333488341531,43.13010725696162,45.57555796046597,40
1319.8242,81.641705,81.2382505498034,75.61545697306387,78.15513710397524,43.08311344582816,45.622793576739525,40
1366.6992,81.23047099999998,80.88544329567833,75.39141857248599,77.83197254247469,43.05347075320364,45.49402472319234,40
1413.5742,81.345926,80.9024955855012,75.16557890873494,77.71360106275446,43.188894522746736,45.736916676766256,40
1463.3789,80.908762,80.54084763694975,75.02513222093464,77.5887712628886,42.95207637406115,45.51571541601511,40
1516.1133,81.145571,80.72717077730631,75.1080690655671,77.75358918100328,42.973581596303035,45.61910171173922,40
1568.8477,80.969216,80.51881130659,74.98909930153349,77.59386702121195,42.92494428537805,45.52971200505651,40
1624.5117,80.92105500000001,80.51421613534714,74.99571801194044,77.60620225506665,42.90801388028049,45.5184981234067,40
1681.6406,80.89927000000002,80.49188608527083,74.943894604081,77.49420007175297,42.997686013517864,45.54799148118984,40
1741.6992,81.20188,80.75264552581366,75.10321007063602,77.65619112639214,43.09645439942152,45.64943545517764,40
1803.2227,81.463026,80.88612471530531,75.02686140574201,77.75214885985689,43.133975855448426,45.8592633095633,40
1866.2109,80.428096,79.89584986449613,74.34984668354197,76.92067989850182,42.97516996599431,45.54600318095416,40
1932.1289,79.841356,79.24681389843002,73.77672801795397,76.20139820086439,43.04541569756563,45.47008588047605,40
1999.5117,80.516664,79.90911719179914,73.95071918230104,76.53713462313756,43.37198256866158,45.9583980094981,40
2069.8242,80.819,80.20414110863608,74.03414686329131,76.61992714135928,43.584213967276796,46.16999424534477,40
2143.0664,80.130738,79.51624455736284,73.29323201138423,75.76062273087898,43.75562182648386,46.223012545978605,40
2219.2383,79.586851,78.87660358200962,72.59310878305308,74.9111591274439,43.96544445456573,46.28349479895654,40
2296.875,80.155671,79.30650606102478,72.67787327524539,75.02595677698474,44.280549284040035,46.62863278577939,40
2378.9063,80.139688,79.28237355982691,72.67511708808829,75.03718139032883,44.24519216949808,46.60725647173862,40
2462.4023,79.902661,79.15850817803027,72.78753578811128,74.87084546628213,44.28766271174814,46.37097238991899,40
2548.8281,79.831882,79.12835019300151,72.86238099357001,75.04054204777147,44.08780814523004,46.265969199431495,40
2639.6484,79.55298,78.81314369414613,72.77299154323494,74.86607875560759,43.947064938538546,46.0401521509112,40
2731.9336,79.329829,78.61248847451235,72.82871020173756,74.67316131070926,43.939327163803085,45.78377827277478,40
2828.6133,80.54567300000001,79.73509492913045,73.3696718855449,75.53881947838764,44.19627545074282,46.36542304358555,40
2928.2227,79.88532,79.21165007252348,73.03490113945189,75.34043115511177,43.87121891741171,46.17674893307159,40
3030.7617,79.375537,78.74510524366707,72.87129962080375,75.15522123080935,43.58988401285772,45.873805622863316,40
3137.6953,79.942107,79.34874442127621,73.2381605860292,75.67830790424134,43.67043651703487,46.11058383524701,40
3249.0234,80.164206,79.65020720811889,73.58752516116648,75.99870631922725,43.65150088889163,46.0626820469524,40
3363.2813,80.30100500000002,79.65233368779025,73.76834194809204,76.03754625101169,43.614787436778556,45.8839917396982,40
3481.9336,79.809795,79.50410253174267,74.12424236098312,76.37608320822771,43.12801932351496,45.37986017075956,40
3604.9805,79.779443,79.56726693229542,74.24142662875319,76.56704471321386,43.000222219081564,45.325840303542236,40
3732.4219,79.789572,79.59973677082104,74.43540067925365,76.77615618301424,42.8235805878068,45.16433609156739,40
3864.2578,78.680877,78.88091191907198,74.04543725049304,76.52986004228931,42.35105187678266,44.83547466857894,40
4000.4883,79.697916,79.80763420422518,74.50173978550552,77.22536482300129,42.582269381223895,45.30589441871966,40
4141.1133,78.750418,79.07472310807175,74.08555181161645,76.81187937270269,42.26284373536906,44.9891712964553,40
4287.5977,79.22622399999999,79.54641734126436,74.06296734545012,77.00164393923636,42.544773402028,45.48344999581424,40
4438.4766,78.958218,79.15628282630614,73.72286826703049,76.63437453277221,42.521908293533926,45.43341455927565,40
4595.2148,79.067907,79.19543050083834,73.42630448723192,76.42409339974756,42.77133710109078,45.769126013606424,40
4756.3477,78.527044,78.62192699582205,72.90137488644031,75.95866681170925,42.6632601841128,45.72055210938174,40
4924.8047,78.696388,78.63038260370202,72.7913377576174,75.86372746232281,42.7666551413792,45.83904484608462,40
5097.6563,78.80367,78.5345166202741,72.44905422684354,75.64598360130175,42.88853301897235,46.08546239343056,40
5277.832,78.895842,78.45491051934461,72.33419274180059,75.60342230019411,42.8514882191505,46.120717777544016,40
5463.8672,79.17214700000001,78.52487591752268,72.20015588229487,75.56430582341841,42.96057009410427,46.32472003522781,40
5657.2266,79.908036,78.93860024796314,72.16502897074456,75.63911807601443,43.29948217194871,46.77357127721858,40
5856.4453,79.539864,78.48405003783212,71.81174970834907,75.27881267678175,43.205237361050365,46.67230032948305,40
6062.9883,79.926666,78.825266830182,72.04798212495655,75.40006715989813,43.425199670283874,46.777284705225455,40
6276.8555,79.55793900000002,78.57804997328027,72.02056144402934,75.26618357890958,43.311866394370696,46.55748852925093,40
6498.0469,79.186638,78.3986716565898,72.09848722174543,75.15537469231383,43.24329696427597,46.30018443484437,40
6726.5625,78.051952,77.74586416406713,71.37234694620498,74.66286179123665,43.08300237283048,46.373517217862144,40
6963.8672,78.943667,77.97229464790628,70.93086889511399,74.65609160810929,43.31620303979699,47.04142575279229,40
7209.9609,80.266218,78.62877390879405,71.1149991386965,74.99152020000147,43.63725370879257,47.51377477009754,40
7464.8438,79.783689,78.27025817531545,70.80038501703304,74.75891438173876,43.511343793576685,47.46987315828241,40
7727.0508,78.877914,77.90391167176851,70.53503774835917,74.37307324273067,43.53083842903784,47.36887392340934,40
7999.5117,78.332212,77.785832203283,70.42233926421595,74.08048831653058,43.705343886752416,47.363492939067044,40
8282.2266,77.83825800000001,77.83027856506588,70.45327218473398,74.14081420089524,43.68946436417065,47.377006380331906,40
8573.7305,78.399627,78.1267188077605,70.51075310648956,74.3884173518486,43.738301455911895,47.61596570127094,40
8876.9531,78.80838,78.30437042571732,70.370207326327,74.49199749240819,43.812372933309135,47.93416309939032,40
9188.9648,78.876854,78.39820203022515,70.31261333854054,74.54124735032674,43.85695467989841,48.085588691684606,40
9514.1602,78.679986,78.44988752158933,70.31071990906558,74.53829508740027,43.91159243418906,48.13916761252375,40
9849.6094,79.08143600000001,78.56767557948457,70.31246021076434,74.65073828089588,43.91693729858869,48.25521536872023,40
