Freq,Floor Bounce,Ceiling Bounce,Front Wall Bounce,Side Wall Bounce,Rear Wall Bounce,Total Early Reflection
22.4,33.106905010354566,33.08888547155,33.064518847277114,32.73529471025198,32.280785014709906,32.86665693411946
23.0,35.70690501035462,35.76194867563767,35.69259541848926,35.41062321498872,34.98380097782764,35.5206881090938
23.6,38.0760917544922,38.17641629732152,38.089861986948094,37.81458058956103,37.44156433973639,37.927817178570606
24.0,39.776091754492214,39.84391724861639,39.78880175312956,39.498478865131275,39.06593099172396,39.604136643508284
25.0,41.33663575667187,41.043148261094345,41.27366119232239,40.74744964714033,39.853888708724426,40.88307167766389
25.8,42.90542400732663,42.2210416629875,42.757243848973005,42.01007679048432,40.65538638259555,42.179147024073174
26.5,44.47609175449223,43.54415774934854,44.3005479850862,43.39849717947881,41.6374695466594,43.57986414568383
27.2,46.25260953202219,45.07928732607435,46.046024134644355,45.015798493447775,42.896210929110495,45.20757816818464
28.0,47.894857058831704,46.61483523633477,47.67919484617245,46.540050454614644,44.115752910366055,46.75657853105547
29.0,49.32926676879423,47.916279400836416,49.0962638150602,47.915990250527116,45.16551224176665,48.109468016555226
30.0,51.48219967332305,50.70231994589774,51.24093301978651,50.253212139596556,47.05800870674925,50.39888960660575
30.7,54.0069050103546,53.73435140868504,53.82194221288303,53.01913237037776,49.496961717426515,53.08965892260146
31.5,57.17001488257476,57.07001488257477,56.99107308490203,56.243748526342486,52.591238857004456,56.300983179011766
32.5,59.802319945897764,59.87001488257478,59.6320669886061,58.93998688501178,55.20138640219021,58.9866486487734
33.5,61.57001488257477,61.737467715513176,61.403273861734576,60.73998688501176,56.94827739721974,60.78446864346866
34.5,63.40306957104251,63.335130591779844,63.533069473915006,62.792987463776214,58.742547555370905,62.67240406997722
35.5,64.78656646311246,64.3007674944556,65.47529694487399,64.62330650085092,60.14321738299246,64.20408683535219
36.5,66.50464502318535,65.67001488257476,67.51740811823346,66.56383588202856,61.85707146181248,65.99314496636579
37.5,68.65016923070222,67.6069050103546,69.8328038638815,68.85880359453661,63.98680725131267,68.18329810718315
38.7,71.06283617001536,69.81227178315619,72.38950685697314,71.37348071717754,66.35220665594277,70.62378439536478
40.0,72.55177437534739,70.69188145404554,74.60230990919568,73.24755438126492,67.5840045961201,72.32665760351013
41.2,73.99220047151572,71.46023655467066,76.70195831410923,75.06984523104312,68.70967563539848,73.99431887993411
42.5,75.52180052683974,72.40167684604727,78.6739424030403,76.87383320910143,70.03152377420055,75.69347467526683
43.7,77.15959385611933,73.52964549005982,80.61671462166476,78.68916092936475,71.46343453400452,77.44678709622455
45.0,79.08888863538651,75.76480122583662,82.37526611643595,80.41937980274284,73.43644193284497,79.2817122762314
46.2,80.9590626365751,77.92429736591518,83.93371491468453,81.93162407608881,75.30413160877832,80.96236191930916
47.5,82.50330383828928,79.70962074754836,85.34770564348939,83.33748126419232,76.90821359420958,82.44921209897221
48.7,84.2377673428554,81.64090753602632,86.93434557076813,84.91771864058286,78.7966431248398,84.11954765202115
50.0,86.292378988098,84.00982855556757,88.5619757524389,86.65268208794835,81.42828997487437,86.01477100577169
51.5,88.2094224842602,86.0672655885961,90.27525122642457,88.41269748083842,83.61081951485568,87.86097362342957
53.0,90.13546263134681,88.0672655885961,92.07525122642456,90.24453989401225,85.66020992809487,89.74157191884056
54.5,92.09506458035828,90.06726558859611,93.97525122642458,92.198472854617,88.02429324044434,91.7182529553238
56.0,94.2950645803583,92.2672655885961,96.13338849099713,94.38204584418487,90.5303622372113,93.92766160951531
58.0,95.7950645803583,93.7672655885961,97.59009840257406,95.90231432448421,92.23738444078961,95.43724199741989
60.0,96.5950645803583,94.59237898809802,98.37525122642457,96.70231432448419,93.15559639627473,96.24726487556866
61.5,97.02179738688896,95.06726558859611,98.77525122642456,97.1322914288421,93.69504067281996,96.68382951450889
63.0,97.12179738688896,95.192378988098,98.86102474302639,97.17213176031355,93.87399521655377,96.77745700305138
65.0,96.92179738688895,95.0252645392885,98.5610247430264,96.93229142884209,93.56119352957485,96.52973603987628
67.0,96.62179738688894,94.82526453928848,98.18879404668057,96.5878126010297,93.16790100933402,96.20205716779996
69.0,96.38219812790055,94.65062128010364,97.86102474302639,96.30510429509253,92.77386077619619,95.91973374630976
71.0,96.20963256681621,94.57641629732153,97.63209707414593,96.09265566829582,92.37939621862763,95.71474590867378
73.0,96.23752777300028,94.63546263134683,97.53209707414594,96.00992812841827,92.07821441017559,95.65412251862605
75.0,96.19897445130925,94.6950645803583,97.43209707414594,95.8719151215024,91.75227216512933,95.56643364035547
77.5,96.29897445130925,94.82179738688895,97.4186888245243,95.86172151975212,91.52675783702486,95.58627514694251
80.0,96.29897445130925,94.92179738688894,97.43338849099713,95.81554748092087,91.32524215826025,95.58247829114454
82.5,96.37082970284298,94.86194867563766,97.41998423401444,95.70545589720142,91.0366087405913,95.54116708906905
85.0,96.27082970284299,94.73546263134682,97.36461619409997,95.50225551705792,90.69881121787049,95.41280017037057
87.5,95.97082970284298,94.40942248426019,97.10684500366413,95.1606786154576,90.25506786167593,95.10365144714079
90.0,95.9096325668162,94.25062128010366,97.03730724319608,94.99797324284619,90.06232849782323,94.99427648904712
92.5,95.94314826109434,94.22526453928849,97.08074803729255,94.94192680599713,90.03809601964622,94.99959780395729
95.0,96.02179738688893,94.22526453928849,97.22422039671774,95.01286022611855,90.186644394603,95.08925735014778
97.5,96.08219812790055,94.22526453928849,97.29366590096782,95.07294134614548,90.33699411684877,95.14860194812421
100.0,95.98219812790056,94.16726558859611,97.26528715999551,95.01261597310335,90.42086008989348,95.09903898394293
103.0,95.88219812790057,94.02526453928847,97.19366590096783,94.97133075188664,90.5370097306146,95.02825631843807
106.0,96.08219812790055,94.22526453928849,97.33502122931327,95.19772752574556,90.93618166076165,95.22879384866856
109.0,96.42179738688895,94.62526453928848,97.70684500366416,95.57780454086362,91.33815505720457,95.60118180014464
112.0,96.88219812790055,95.0252645392885,98.11998423401444,96.04953717556378,91.7865322936453,96.03802731322915
115.0,97.38219812790054,95.55062128010364,98.61998423401444,96.63114134988085,92.36322120968175,96.56430843861366
118.0,97.78219812790056,95.892378988098,98.99366590096783,96.97582038994396,92.73395501802365,96.93322923397191
122.0,97.88219812790055,95.9672655885961,99.052284481936,96.96446305312897,92.72004354321045,96.98502869901948
125.0,97.82179738688896,95.86726558859611,98.9392427572199,96.81133262324924,92.49778482738918,96.87105381924395
128.0,98.05521969308377,96.0672655885961,99.15491760385288,96.88297433303701,92.58088994190871,97.05103913319833
132.0,98.25521969308379,96.24258273663015,99.34476011103507,96.93498993351794,92.65704341867162,97.20687893552785
136.0,98.2687803399679,96.14258273663015,99.39019962129804,96.77341425545355,92.46987318523942,97.16661415725783
140.0,98.2094224842602,96.02875610128315,99.35121482311348,96.56806827028583,92.18108964897239,97.06392131617149
145.0,97.88382334167595,95.58161208533421,99.08242230727826,96.08119800962375,91.5317859991751,96.69001639897638
150.0,97.5252645392885,95.1491520399883,98.77455785944566,95.58303790943701,90.91565728797934,96.29853777070308
155.0,97.35866027600834,94.90330383828929,98.61487193905668,95.27704451404247,90.49513280413886,96.08452094482972
160.0,97.25866027600833,94.72643297742508,98.56272615755047,95.04015817462603,90.11215105431492,95.952521525432
165.0,97.20034112939828,94.60473949550548,98.52114138920054,94.8529453241302,89.72736742816838,95.85366403136123
170.0,97.30034112939828,94.60473949550548,98.53688158634569,94.77065959594412,89.3906405789379,95.85831961189018
175.0,97.35866027600834,94.6834346102955,98.55086213388186,94.70769385149622,89.1686017850308,95.87225697699127
180.0,97.45866027600835,94.8509882350122,98.6094360892063,94.65001835992305,89.04151937435493,95.9340282375191
185.0,97.58382334167594,94.98343461029552,98.58354613603333,94.58193736654607,88.86579225153955,95.9643054848971
190.0,97.54293979360189,95.00473949550548,98.5304176767855,94.40539058747248,88.60334326786675,95.90103172024378
195.0,97.54293979360189,95.0809849055068,98.44441901451354,94.22548889683529,88.34820199778856,95.84781116075219
200.0,97.26878033996792,94.93610707977349,98.13041767678551,93.84267800009768,87.95811587084198,95.56237173210958
206.0,97.0094224842602,94.70330383828927,97.83511768096734,93.4794549100765,87.68593690892938,95.28037605698688
212.0,97.03546263134683,94.78161208533422,97.79343859806335,93.3833372026937,87.7900269289247,95.27815885161867
218.0,96.76878033996789,94.58161208533421,97.51080457045653,93.11512093556406,87.73271803988548,95.02521081438161
224.0,96.20942248426019,94.03776734285542,96.97450651208858,92.45130717530978,87.24480764063102,94.46624608760918
230.0,95.58382334167594,93.38161208533421,96.37978647233375,91.69062069540573,86.46158770714526,93.82354121731224
236.0,95.28382334167596,92.92602452356691,96.16196999637383,91.31902904822029,85.92557038842405,93.50867440318619
240.0,95.70034112939827,93.14852015458806,96.59987599894596,91.49307870332522,85.94184613779704,93.85755377296768
250.0,96.44258273663014,93.67245249207645,97.40065478136502,91.97806770348458,86.108327537892,94.53895528669777
258.0,97.09448868932289,94.12990957385144,98.07622320763305,92.30552184041258,85.91396495901365,95.11141396270729
265.0,97.18161208533421,94.00432912249856,98.17638154735855,91.93240469610595,84.87670213578073,95.09986678886004
272.0,96.9361070797735,93.53308937677077,98.11046905497399,91.29163531227148,83.56753641683027,94.84026201548534
280.0,96.65906263657509,93.04449659419707,97.93754492343776,90.52186517882478,82.3272453712692,94.52318313833977
290.0,95.42990957385145,91.54552333168527,96.78884455230495,88.71699355884604,80.21360245061676,93.23954353029389
300.0,94.05648313414828,89.89689984743687,95.67619966133422,86.78102698877017,78.1679621641929,91.90806807343286
307.0,93.93308937677078,89.49689984743688,95.65938598597275,86.23678671598188,77.47296943952038,91.77315284033729
315.0,93.41323574403134,88.79689984743688,95.47030090941884,85.70893164516399,76.52043559081751,91.39476554018717
325.0,93.02457993687896,89.3137899675559,94.99646406388374,86.70558036071927,76.26581098650054,91.15996110139552
335.0,92.57100612011483,90.07625435142637,94.54245885286272,87.72915158149786,75.15418446990743,91.00160464627169
345.0,91.32457993687896,88.19533257014983,93.69270907327883,85.6114366890336,69.05927943063863,89.7579817099301
355.0,90.71378996755591,86.79547355060122,93.20743161397955,83.77666257941942,67.74087717876615,89.02457822819984
365.0,90.6948466445546,86.62320753866267,93.22140718694165,83.52036451595126,70.04808689632218,88.99568526707266
375.0,90.63308937677078,86.84132986207625,93.18551437198836,84.17681914924106,71.11835148518863,89.02768964013947
387.0,91.59430744544666,88.94123053036839,94.01514870939685,86.57118846327779,74.38215620859076,90.19478265731678
400.0,92.41904449785342,90.20807851055697,94.74823070500331,87.20340766346085,75.86034637939987,91.03287268344056
412.0,91.64812097851897,86.94850588118669,94.61698563629166,82.09326762486914,72.44940569660942,90.02741659772666
425.0,91.7132079932454,83.53079337118231,95.08830039347141,76.59815411036234,69.36926258612318,89.99186864578537
437.0,91.99318999039386,82.34556025894031,95.60665693374995,75.65627729972609,67.97953781126579,90.36104602719237
450.0,91.75194546668297,79.59053598352406,95.64540108237911,73.3344105862728,67.75650584908168,90.24022361391143
462.0,91.57997841898909,77.69439566852685,95.67941136630175,77.79146570315129,72.65245518136705,90.23164869534891
475.0,91.94064997369775,82.63056287944758,96.08733688948834,82.12230541166191,75.81455935983037,90.79885769484956
487.0,92.86482377209413,86.05427931284738,96.73913220374332,84.91717140467996,77.62100368458205,91.71726070655394
500.0,93.02093293934182,85.71496244492467,96.76663259963841,86.02298397458237,77.92153603619128,91.81247387396918
515.0,92.52519075000123,83.53586161480321,96.37604732094569,85.94315598006321,77.2326876236931,91.33622532168799
530.0,91.82519075000123,80.59562977548792,95.85380800114132,85.82246283743572,76.64204980313869,90.72960649605088
545.0,91.7025820173835,78.51721049921987,95.80583120313818,86.37906155151613,76.68778376169244,90.67377717364222
560.0,91.72134204678878,83.60141428554171,96.34908380011582,87.50619556284579,77.52041907944651,91.23817684036028
580.0,91.27003118205884,84.50500021603696,96.79716573658433,88.06139802586397,78.25769278482584,91.53016938008754
600.0,90.57866708702599,81.49697467805863,96.58615867900039,87.7271690479139,77.85639126235114,91.13515711427158
615.0,89.55104712042687,78.88436225521609,95.83247855885115,86.97444621429132,76.81061906661442,90.29853878259165
630.0,88.29839783000382,79.7840783937255,95.13304463386875,85.9538099473939,75.81803348497887,89.50725783116845
650.0,87.12967678248776,81.25800804769342,94.52925333830292,84.72494694580905,74.75355189963157,88.82422829325766
670.0,87.38321128626605,79.73214299286737,94.69804327790321,83.32035305835565,73.1020168465857,88.83836994082442
690.0,88.70424701850413,76.88099554556163,95.41941490109032,82.99823571060561,71.12940186603534,89.52900750850412
710.0,89.74599525879286,80.22672208916904,96.17363847997504,83.9555231724876,71.46512218600078,90.3779753941315
730.0,90.27407022043725,82.00669030042278,96.55713232124135,84.52244324079946,72.87734154327997,90.82968829735496
750.0,90.44218595591757,82.7120654382288,96.65613794558372,84.36396330309744,73.83787813671101,90.94932277666017
775.0,90.4494287595053,83.01146471868876,96.56615694416287,84.08583817561161,74.46137146532298,90.88392734804074
800.0,90.63316872174292,83.72519075000122,96.46916749023036,83.9976574622252,74.88731958348033,90.870601783909
825.0,91.09430017477816,84.9212983273772,96.53613366034834,84.02779144755237,75.22590940827034,91.06352516088239
850.0,91.72332853367799,86.04564034873641,96.84127779980182,84.22141241139002,75.44846877397084,91.47415796776656
875.0,92.20137735040872,86.74321230049514,96.85142524870533,84.17932310539847,75.26693780353177,91.62638682260582
900.0,92.0412305303684,86.81851550199947,96.38355998508369,83.32163289685649,74.2143982743914,91.25195261285144
925.0,91.17263021037121,86.07610694060922,95.18554356650186,81.95017206514545,72.21845121740229,90.16094851394233
950.0,89.93921128322948,84.95801296552777,93.67656397275256,80.62196837564888,70.03813693268681,88.7579998564536
975.0,89.53921128322949,84.54773581244514,93.04155080045642,79.90247135374743,68.93711730662208,88.20114639541823
1000.0,90.0755267619936,84.70274274418537,93.50579096270765,79.99530206307472,68.67363444919799,88.64726814985549
1030.0,90.82963782068198,85.31496244492466,94.83845607605346,80.85534172284092,69.10530029531732,89.75636628421672
1060.0,91.29739559511016,85.4231203439938,95.89282782938714,81.69390263360383,69.75926847111712,90.5978583209718
1090.0,90.72312489912068,84.62618710391504,96.25343804120314,82.07130316239075,70.07044931015078,90.6914238956458
1120.0,89.94215691248662,83.60982855556756,96.32897526577959,82.25913589776134,70.16983505217213,90.56093323500754
1150.0,89.37737589849775,82.69749950966175,96.19498294469892,82.26591804246229,70.37147897731698,90.33086680952043
1180.0,88.14350684363811,81.55518710397395,95.72405458165868,81.87960425900847,70.36475705744347,89.72779814861708
1220.0,87.41398368587387,81.29393259456332,95.39627073783804,81.75844007462871,70.71440879592335,89.35720446202907
1250.0,87.7531574813214,81.38523216659156,95.40359857640524,82.04644849384717,71.03005996592681,89.42184529295304
1280.0,88.3057789274532,81.59898600207457,95.36868513488092,82.45928761005113,70.81668568437583,89.49603488399889
1320.0,88.8035476736301,81.91146471868875,95.28496963751252,82.5293070847357,70.47700160014149,89.52445293316686
1360.0,88.96448660112323,81.79078318005504,94.7410310434336,81.86097558507855,69.66112416891981,89.11782087764713
1400.0,89.22924048470067,82.00174244284321,94.50771500246383,81.38911417143022,69.28121133525913,88.9932765671675
1450.0,90.11112494659285,82.922382851606,95.26925432154707,81.85978765690554,69.44718173589199,89.7760532688699
1500.0,91.01892667728225,83.68474744093064,95.64845043459304,81.9623328679428,69.27942411325755,90.28174954958736
1550.0,91.42998817302502,84.0424948872007,95.71483742720169,81.95508922335695,68.75121252532195,90.44228785619703
1600.0,91.4993965677986,84.14291865911433,95.84700499680558,82.14351705581798,68.43290359562421,90.55835728752201
1650.0,91.0274672308597,83.69764592971741,95.90567893582818,82.20870266381783,68.55788842317257,90.46902087018077
1700.0,90.30358349449713,82.99770208558459,96.02979215165323,82.3493590181367,68.68548263782655,90.38179181309596
1750.0,89.49020835495618,81.79894103952499,95.91479291824446,82.75977118143207,68.72225575102887,90.12037814345571
1800.0,88.92603621628803,80.99665252780811,96.06437177508069,83.46983780427509,69.1363884171494,90.15170980072286
1850.0,88.14742862603721,80.0471635747372,95.81382644912777,83.5502433032852,69.47030235262672,89.8255903244993
1900.0,87.63206998292186,79.3079926521559,95.73785407824319,83.59310952832611,69.4039431179592,89.68510437616582
1950.0,87.43980418704676,78.97387961222817,95.87901019283102,83.36369451818605,68.81256742265812,89.75874041406523
2000.0,86.72765977405793,78.51627940083641,95.68243642767314,82.62669095455055,67.9610288751786,89.47579405943323
2060.0,87.1981371963244,79.25803522150262,96.08890805709278,82.49184749382506,67.97493607770492,89.87313766306536
2120.0,88.07076698821612,80.40721172860908,96.73916946840161,82.90411957218242,68.48360679850255,90.54850656979022
2180.0,88.38366865039733,81.3467871964985,97.21718163410937,83.01657214854472,68.6239642780166,91.00511387075977
2240.0,88.13679608781511,81.40654363985348,97.11145682558951,82.41808541075285,67.6704151434373,90.87206895720493
2300.0,88.21655979241947,81.49473218864021,97.04891010012099,82.34013376732983,66.48955081095421,90.82698649421889
2360.0,88.74968606379171,81.90028818383799,97.30044072551622,82.25504317985711,65.71779342212513,91.10414677153125
2400.0,89.4506267739353,82.15764708973197,97.35044818389312,82.08680955532053,65.92479297252659,91.23472039869544
2500.0,90.01499726707317,82.15898516336178,97.35397642759467,81.87024067594601,66.0852854787553,91.31183613722881
2580.0,90.28048132426447,81.86433688182939,97.20471359239717,81.69646895380087,65.87739347900659,91.22265952390055
2650.0,89.7646544214929,80.85410086606007,96.45207648356639,81.08838256125871,64.92351959944521,90.5064183435333
2720.0,89.12310337940994,79.96215231524032,95.679513713594,80.53226640223608,64.04744974577527,89.75867646208435
2800.0,88.72757489983256,79.5972202192354,95.29004588895688,80.11182423844305,63.47347160188097,89.36784312151846
2900.0,88.49058450836695,79.48512284029164,95.2473348506155,79.78519682202854,63.32797808517661,89.28412080512061
3000.0,88.51660197791345,79.85078859213112,95.66173769264053,80.10753262185548,63.60674096869768,89.63300789550378
3070.0,88.24598386899062,80.07332303610623,95.8117867917018,80.23587152345925,63.25395521247039,89.72142821460086
3150.0,87.67708487322611,80.32997394682727,95.61048603644274,80.04397175679887,62.488102562851694,89.48020317880086
3250.0,87.56111737049078,80.47138480885904,95.71767575095673,79.93659032905548,61.99896077058871,89.55439087051552
3350.0,87.09758033768286,79.98918406427573,95.38208813759832,78.72755561230608,60.98613852940737,89.18164806563426
