Freq "Side Wall Bounce"
22.4 32.73529471025198
23.0 35.41062321498872
23.6 37.81458058956103
24.0 39.498478865131275
25.0 40.74744964714033
25.8 42.01007679048432
26.5 43.39849717947881
27.2 45.015798493447775
28.0 46.540050454614644
29.0 47.915990250527116
30.0 50.253212139596556
30.7 53.01913237037776
31.5 56.243748526342486
32.5 58.93998688501178
33.5 60.73998688501176
34.5 62.792987463776214
35.5 64.62330650085092
36.5 66.56383588202856
37.5 68.85880359453661
38.7 71.37348071717754
40.0 73.24755438126492
41.2 75.06984523104312
42.5 76.87383320910143
43.7 78.68916092936475
45.0 80.41937980274284
46.2 81.93162407608881
47.5 83.33748126419232
48.7 84.91771864058286
50.0 86.65268208794835
51.5 88.41269748083842
53.0 90.24453989401225
54.5 92.198472854617
56.0 94.38204584418487
58.0 95.90231432448421
60.0 96.70231432448419
61.5 97.1322914288421
63.0 97.17213176031355
65.0 96.93229142884209
67.0 96.5878126010297
69.0 96.30510429509253
71.0 96.09265566829582
73.0 96.00992812841827
75.0 95.8719151215024
77.5 95.86172151975212
80.0 95.81554748092087
82.5 95.70545589720142
85.0 95.50225551705792
87.5 95.1606786154576
90.0 94.99797324284619
92.5 94.94192680599713
95.0 95.01286022611855
97.5 95.07294134614548
100.0 95.01261597310335
103.0 94.97133075188664
106.0 95.19772752574556
109.0 95.57780454086362
112.0 96.04953717556378
115.0 96.63114134988085
118.0 96.97582038994396
122.0 96.96446305312897
125.0 96.81133262324924
128.0 96.88297433303701
132.0 96.93498993351794
136.0 96.77341425545355
140.0 96.56806827028583
145.0 96.08119800962375
150.0 95.58303790943701
155.0 95.27704451404247
160.0 95.04015817462603
165.0 94.8529453241302
170.0 94.77065959594412
175.0 94.70769385149622
180.0 94.65001835992305
185.0 94.58193736654607
190.0 94.40539058747248
195.0 94.22548889683529
200.0 93.84267800009768
206.0 93.4794549100765
212.0 93.3833372026937
218.0 93.11512093556406
224.0 92.45130717530978
230.0 91.69062069540573
236.0 91.31902904822029
240.0 91.49307870332522
250.0 91.97806770348458
258.0 92.30552184041258
265.0 91.93240469610595
272.0 91.29163531227148
280.0 90.52186517882478
290.0 88.71699355884604
300.0 86.78102698877017
307.0 86.23678671598188
315.0 85.70893164516399
325.0 86.70558036071927
335.0 87.72915158149786
345.0 85.6114366890336
355.0 83.77666257941942
365.0 83.52036451595126
375.0 84.17681914924106
387.0 86.57118846327779
400.0 87.20340766346085
412.0 82.09326762486914
425.0 76.59815411036234
437.0 75.65627729972609
450.0 73.3344105862728
462.0 77.79146570315129
475.0 82.12230541166191
487.0 84.91717140467996
500.0 86.02298397458237
515.0 85.94315598006321
530.0 85.82246283743572
545.0 86.37906155151613
560.0 87.50619556284579
580.0 88.06139802586397
600.0 87.7271690479139
615.0 86.97444621429132
630.0 85.9538099473939
650.0 84.72494694580905
670.0 83.32035305835565
690.0 82.99823571060561
710.0 83.9555231724876
730.0 84.52244324079946
750.0 84.36396330309744
775.0 84.08583817561161
800.0 83.9976574622252
825.0 84.02779144755237
850.0 84.22141241139002
875.0 84.17932310539847
900.0 83.32163289685649
925.0 81.95017206514545
950.0 80.62196837564888
975.0 79.90247135374743
1000.0 79.99530206307472
1030.0 80.85534172284092
1060.0 81.69390263360383
1090.0 82.07130316239075
1120.0 82.25913589776134
1150.0 82.26591804246229
1180.0 81.87960425900847
1220.0 81.75844007462871
1250.0 82.04644849384717
1280.0 82.45928761005113
1320.0 82.5293070847357
1360.0 81.86097558507855
1400.0 81.38911417143022
1450.0 81.85978765690554
1500.0 81.9623328679428
1550.0 81.95508922335695
1600.0 82.14351705581798
1650.0 82.20870266381783
1700.0 82.3493590181367
1750.0 82.75977118143207
1800.0 83.46983780427509
1850.0 83.5502433032852
1900.0 83.59310952832611
1950.0 83.36369451818605
2000.0 82.62669095455055
2060.0 82.49184749382506
2120.0 82.90411957218242
2180.0 83.01657214854472
2240.0 82.41808541075285
2300.0 82.34013376732983
2360.0 82.25504317985711
2400.0 82.08680955532053
2500.0 81.87024067594601
2580.0 81.69646895380087
2650.0 81.08838256125871
2720.0 80.53226640223608
2800.0 80.11182423844305
2900.0 79.78519682202854
3000.0 80.10753262185548
3070.0 80.23587152345925
3150.0 80.04397175679887
3250.0 79.93659032905548
3350.0 78.72755561230608
3450.0 77.70659603440755
3550.0 77.4089308705018
3650.0 77.08426291847512
3750.0 77.2655214276811
3870.0 77.4854391447513
4000.0 77.05729037076692
4120.0 76.55716399730795
4250.0 76.10499311678866
4370.0 75.6434738102934
4500.0 75.09269952365476
4620.0 75.0096231368829
4750.0 75.03322961326661
4870.0 75.28797020374749
5000.0 75.99619419414718
5150.0 76.85739903105573
5300.0 77.6851202221124
5450.0 78.38883877720012
5600.0 79.08421140763268
5800.0 79.412774915204
6000.0 79.10316658927503
6150.0 78.67608886048089
6300.0 77.5842681932901
6500.0 76.91077702006528
6700.0 76.87655333672804
6900.0 76.64523549196015
7100.0 76.37434603309937
7300.0 75.86935673681148
7500.0 75.57392829390623
7750.0 75.16768380544859
8000.0 74.47844070612545
8250.0 73.38414682271626
8500.0 72.377248190917
8750.0 71.83472024308192
9000.0 71.71001251301062
9250.0 71.884997121431
9500.0 71.6705606907954
9750.0 71.65616403686313
10000.0 71.44725584559096
10300.0 71.19560370084442
10600.0 71.53620496458676
10900.0 71.66497602707351
11200.0 71.7955531749076
11500.0 71.3777115568332
11800.0 70.90322437744
12200.0 70.4719444788313
12500.0 70.38570189103207
12800.0 71.12347091977803
13200.0 72.02056481982713
13600.0 72.90231020428966
14000.0 73.61406336517233
14500.0 73.28993200961897
15000.0 71.52099868245021
15500.0 69.29238940112818
16000.0 67.21032064756052
16500.0 67.05401621237009
17000.0 67.39033224043696
17500.0 67.85559279532306
18000.0 67.71976760764385
18500.0 66.13873742129651
19000.0 64.86642333714595
19500.0 62.46394001329104
