Freq "Side Wall Bounce"
22.4 32.735294710251964
23.0 35.4106232149887
23.6 37.81458058956102
24.0 39.49847886513132
25.0 40.747449647140314
25.8 42.010076790484305
26.5 43.398497179478824
27.2 45.01579849344779
28.0 46.54005045461463
29.0 47.9159902505271
30.0 50.25321213959654
30.7 53.01913237037775
31.5 56.24374852634247
32.5 58.93998688501176
33.5 60.739986885011774
34.5 62.7929874637762
35.5 64.62330650085093
36.5 66.56383588202854
37.5 68.8588035945366
38.7 71.37348071717756
40.0 73.2475543812649
41.2 75.06984523104313
42.5 76.87383320910143
43.7 78.68916092936473
45.0 80.41937980274282
46.2 81.9316240760888
47.5 83.33748126419232
48.7 84.91771864058285
50.0 86.65268208794834
51.5 88.41269748083842
53.0 90.24453989401226
54.5 92.198472854617
56.0 94.38204584418486
58.0 95.9023143244842
60.0 96.7023143244842
61.5 97.13229142884208
63.0 97.17213176031355
65.0 96.93229142884209
67.0 96.5878126010297
69.0 96.30510429509255
71.0 96.09265566829583
73.0 96.00992812841828
75.0 95.8719151215024
77.5 95.86172151975214
80.0 95.81554748092086
82.5 95.70545589720143
85.0 95.5022555170579
87.5 95.1606786154576
90.0 94.99797324284619
92.5 94.94192680599713
95.0 95.01286022611855
97.5 95.0729413461455
100.0 95.01261597310335
103.0 94.97133075188663
106.0 95.19772752574556
109.0 95.57780454086364
112.0 96.0495371755638
115.0 96.63114134988083
118.0 96.97582038994396
122.0 96.96446305312898
125.0 96.81133262324926
128.0 96.88297433303701
132.0 96.93498993351794
136.0 96.77341425545355
140.0 96.56806827028583
145.0 96.08119800962375
150.0 95.58303790943701
155.0 95.27704451404247
160.0 95.04015817462601
165.0 94.8529453241302
170.0 94.77065959594412
175.0 94.7076938514962
180.0 94.65001835992307
185.0 94.58193736654607
190.0 94.40539058747247
195.0 94.22548889683529
200.0 93.84267800009766
206.0 93.4794549100765
212.0 93.3833372026937
218.0 93.11512093556406
224.0 92.45130717530978
230.0 91.69062069540573
236.0 91.31902904822027
240.0 91.49307870332524
250.0 91.97806770348458
258.0 92.30552184041257
265.0 91.93240469610596
272.0 91.29163531227147
280.0 90.5218651788248
290.0 88.71699355884604
300.0 86.78102698877017
307.0 86.23678671598188
315.0 85.708931645164
325.0 86.70558036071927
335.0 87.72915158149785
345.0 85.61143668903361
355.0 83.77666257941942
365.0 83.52036451595124
375.0 84.17681914924106
387.0 86.5711884632778
400.0 87.20340766346087
412.0 82.09326762486916
425.0 76.59815411036233
437.0 75.65627729972609
450.0 73.33441058627281
462.0 77.7914657031513
475.0 82.12230541166191
487.0 84.91717140467995
500.0 86.02298397458237
515.0 85.94315598006321
530.0 85.82246283743571
545.0 86.37906155151612
560.0 87.50619556284579
580.0 88.06139802586398
600.0 87.7271690479139
615.0 86.97444621429133
630.0 85.95380994739392
650.0 84.72494694580907
670.0 83.32035305835565
690.0 82.99823571060561
710.0 83.95552317248762
730.0 84.52244324079948
750.0 84.36396330309744
775.0 84.08583817561161
800.0 83.99765746222522
825.0 84.02779144755237
850.0 84.22141241139002
875.0 84.17932310539848
900.0 83.32163289685649
925.0 81.95017206514547
950.0 80.62196837564889
975.0 79.90247135374743
1000.0 79.99530206307472
1030.0 80.8553417228409
1060.0 81.69390263360381
1090.0 82.07130316239073
1120.0 82.25913589776135
1150.0 82.26591804246229
1180.0 81.87960425900846
1220.0 81.7584400746287
1250.0 82.04644849384717
1280.0 82.45928761005113
1320.0 82.52930708473569
1360.0 81.86097558507856
1400.0 81.38911417143024
1450.0 81.85978765690555
1500.0 81.96233286794279
1550.0 81.95508922335695
1600.0 82.14351705581797
1650.0 82.20870266381783
1700.0 82.34935901813668
1750.0 82.75977118143209
1800.0 83.46983780427507
1850.0 83.55024330328519
1900.0 83.59310952832611
1950.0 83.36369451818604
2000.0 82.62669095455055
2060.0 82.49184749382506
2120.0 82.90411957218242
2180.0 83.01657214854471
2240.0 82.41808541075284
2300.0 82.34013376732983
2360.0 82.25504317985713
2400.0 82.08680955532054
2500.0 81.87024067594601
2580.0 81.69646895380087
2650.0 81.08838256125873
2720.0 80.53226640223608
2800.0 80.11182423844306
2900.0 79.78519682202855
3000.0 80.10753262185548
3070.0 80.23587152345925
3150.0 80.04397175679888
3250.0 79.93659032905546
3350.0 78.72755561230609
3450.0 77.70659603440754
3550.0 77.40893087050179
3650.0 77.08426291847513
3750.0 77.2655214276811
3870.0 77.4854391447513
4000.0 77.0572903707669
4120.0 76.55716399730797
4250.0 76.10499311678865
4370.0 75.6434738102934
4500.0 75.09269952365477
4620.0 75.00962313688291
4750.0 75.0332296132666
4870.0 75.28797020374748
5000.0 75.9961941941472
5150.0 76.85739903105573
5300.0 77.68512022211239
5450.0 78.38883877720012
5600.0 79.08421140763267
5800.0 79.41277491520401
6000.0 79.10316658927503
6150.0 78.67608886048087
6300.0 77.58426819329011
6500.0 76.9107770200653
6700.0 76.87655333672805
6900.0 76.64523549196015
7100.0 76.37434603309937
7300.0 75.86935673681148
7500.0 75.57392829390622
7750.0 75.1676838054486
8000.0 74.47844070612544
8250.0 73.38414682271627
8500.0 72.37724819091699
8750.0 71.83472024308193
9000.0 71.71001251301061
9250.0 71.88499712143098
9500.0 71.67056069079538
9750.0 71.65616403686312
10000.0 71.44725584559095
10300.0 71.19560370084443
10600.0 71.53620496458674
10900.0 71.66497602707352
11200.0 71.79555317490761
11500.0 71.37771155683322
11800.0 70.90322437744001
12200.0 70.47194447883129
12500.0 70.38570189103206
12800.0 71.12347091977804
13200.0 72.02056481982711
13600.0 72.90231020428965
14000.0 73.61406336517231
14500.0 73.28993200961898
15000.0 71.5209986824502
15500.0 69.29238940112819
16000.0 67.21032064756054
16500.0 67.0540162123701
17000.0 67.39033224043695
17500.0 67.85559279532308
18000.0 67.71976760764383
18500.0 66.13873742129653
19000.0 64.86642333714593
19500.0 62.46394001329102
