Freq "Early Reflections"
20.0 60.71030036831917
20.2909 61.183666424261645
20.586 61.692395243097366
20.8855 62.20981311553095
21.1893 62.75413254043232
21.4975 63.310355038588455
21.8102 63.871775960033744
22.1274 64.43384699413392
22.4492 64.99371785591845
22.7758 65.55081088805007
23.1071 66.10510133494206
23.4432 66.6585336150508
23.7841 67.27167351445422
24.1301 67.88329755512726
24.4811 68.4926873076456
24.8372 69.0994721419228
25.1984 69.70367825059995
25.5649 70.30495691840457
25.9368 70.90323323774757
26.3141 71.49812363952813
26.6968 72.11136580523943
27.0851 72.72363629358712
27.4791 73.33132621045738
27.8788 73.9328993231461
28.2843 74.5281758581996
28.6957 75.11627218521811
29.1131 75.69667720906462
29.5365 76.27118791274614
29.9661 76.83793678074241
30.402 77.39401083162856
30.8442 77.93627466826857
31.2929 78.46542952206539
31.748 78.98043303589589
32.2098 79.48032953692524
32.6783 79.95805679904552
33.1536 80.41810140239791
33.6359 80.86049392004617
34.1251 81.28302068788159
34.6215 81.68546658892885
35.125 82.06922132726451
35.6359 82.42233483710842
36.1543 82.75521694987356
36.6802 83.0684559123785
37.2137 83.36188113364618
37.755 83.63810602874364
38.3041 83.89137554223794
38.8613 84.12226939043029
39.4265 84.33728442509874
40.0 84.53887526247505
40.5818 84.72730503096557
41.1721 84.90115242339809
41.771 85.05682995667173
42.3785 85.20267691352964
42.9949 85.34078427253002
43.6203 85.47224142804457
44.2548 85.59269383747116
44.8985 85.70345030948079
45.5515 85.81004321229392
46.2141 85.91349918249777
46.8863 86.01423568910458
47.5683 86.106104265075
48.2602 86.19569399424418
48.9621 86.28369598192526
49.6743 86.37081027942453
50.3968 86.4539340944272
51.1299 86.53660985979042
51.8736 86.61926934592942
52.6281 86.6952177908222
53.3936 86.78168485911351
54.1702 86.8615202772572
54.9581 86.94269783099828
55.7575 87.02510091878253
56.5685 87.10763360665632
57.3914 87.19027988077423
58.2261 87.2734430583119
59.073 87.35674831322196
59.9323 87.44057964622124
60.804 87.52603699593001
61.6884 87.61282247332662
62.5857 87.700307786582
63.496 87.78857295272334
64.4196 87.87746858146286
65.3566 87.96554414123857
66.3073 88.05447340196021
67.2717 88.14424659447317
68.2502 88.23373159293364
69.2429 88.32422888127749
70.2501 88.4157967056201
71.2719 88.50567623137233
72.3086 88.59600788282339
73.3603 88.68666953755654
74.4274 88.77490202723914
75.5099 88.86354462599907
76.6083 88.951438895525
77.7226 89.03783565473225
78.8531 89.12538110530647
80.0 89.21053721558688
81.1636 89.29537014514098
82.3442 89.37999976675636
83.5419 89.46331584928717
84.757 89.54693815915346
85.9899 89.62900970849711
87.2406 89.71076244914249
88.5096 89.79180134881413
89.797 89.87209983733274
91.1031 89.95256718585553
92.4282 90.03145805255956
93.7726 90.11012001277521
95.1366 90.18689026084745
96.5204 90.26360980928237
97.9243 90.33766557165987
99.3486 90.41140725234652
100.794 90.47962702681008
102.26 90.54608698702087
103.747 90.61497059003497
105.256 90.68476442637916
106.787 90.75351924480327
108.34 90.82173566402564
109.916 90.8892568058981
111.515 90.95612493351834
113.137 91.02099076532541
114.783 91.08513532120998
116.452 91.14800915001331
118.146 91.20786719897032
119.865 91.26693390698622
121.608 91.32198963679987
123.377 91.37468699227745
125.171 91.42167744444772
126.992 91.46532477712066
128.839 91.5054636756548
130.713 91.53813464235976
132.615 91.56678535021416
134.543 91.58990235439613
136.5 91.60658795100646
138.486 91.62787912972252
140.5 91.63926487093042
142.544 91.63966843087906
144.617 91.64602062524628
146.721 91.65038238666673
148.855 91.64499192139462
151.02 91.63831104269799
153.217 91.63117317746614
155.445 91.62323975117816
157.706 91.61411124982746
160.0 91.6040407545361
162.327 91.59265727341432
164.688 91.59008429941888
167.084 91.5812652172348
169.514 91.56654012052878
171.98 91.55090535693472
174.481 91.54081313471366
177.019 91.52846905611773
179.594 91.5055444039155
182.206 91.47142519402263
184.856 91.43154019488773
187.545 91.38957206762358
190.273 91.3306798876397
193.041 91.2614402803722
195.849 91.18347176839308
198.697 91.09353852449007
201.587 91.00307773507734
204.52 90.91782855528461
207.494 90.84260569204551
210.512 90.77507210306447
213.574 90.72085745385482
216.681 90.68157622515236
219.833 90.64339750520138
223.03 90.60297850132437
226.274 90.56101812770626
229.565 90.51950459430384
232.905 90.47949215488609
236.292 90.44259764767413
239.729 90.40967479127512
243.216 90.3822579866565
246.754 90.3623022389747
250.343 90.34457311465745
253.984 90.33135621426871
257.678 90.32201148478026
261.426 90.316035057656
265.229 90.31761017296282
269.087 90.32590802150396
273.001 90.34333749062408
276.972 90.3661210685035
281.0 90.39327149598958
285.088 90.41920759196867
289.234 90.43671469023694
293.441 90.43028046015029
297.709 90.37554500881855
302.04 90.2953697492176
306.433 90.27125056246473
310.89 90.29362990811731
315.412 90.34436126941036
320.0 90.39531591843217
324.655 90.42556618010255
329.377 90.4172330058922
334.168 90.36840809842057
339.028 90.28316949810649
343.959 90.18104458014318
348.962 90.0782541335278
354.038 89.98900225425574
359.188 89.9235291966379
364.412 89.88543286135682
369.713 89.8748898209748
375.09 89.88275726098752
380.546 89.89372721912498
386.081 89.89721088394657
391.697 89.8922293515287
397.394 89.88618302089006
403.175 89.88396681015142
409.039 89.88135932887104
414.989 89.8756973922153
421.025 89.87171943847859
427.149 89.87115610721443
433.362 89.86903948436765
439.665 89.85482937228323
446.06 89.8301803133929
452.548 89.80606261817883
459.131 89.7976356121531
465.809 89.82070088631878
472.584 89.88818533660447
479.458 90.00109751651979
486.432 90.14887363400155
493.507 90.30819428397253
500.686 90.45144112452337
507.968 90.56997838315085
515.357 90.60335018126115
522.853 90.63204303275057
530.458 90.644795906112
538.174 90.64901811179945
546.002 90.64186513488718
553.943 90.61180066943507
562.001 90.54863132965049
570.175 90.4542669550583
578.469 90.34153166466804
586.883 90.22705135074698
595.419 90.11131666641884
604.08 89.99591940063752
612.866 89.89357563350794
621.78 89.8117055609795
630.824 89.73851443177725
640.0 89.67518844632512
649.309 89.62828360914973
658.753 89.60092163325467
668.335 89.6000111402125
678.056 89.6391780383264
687.919 89.73651430874759
697.925 89.893778592916
708.077 90.08512268430347
718.376 90.2142111458598
728.825 90.30707283864712
739.426 90.36050599284111
750.181 90.40292392509092
761.093 90.43472551913067
772.163 90.41508099448436
783.394 90.30241664364443
794.789 90.09111955487418
806.349 89.80960739747371
818.078 89.49577054074909
829.977 89.1712016852274
842.05 88.85396758118571
854.298 88.57789614634385
866.724 88.3817666285436
879.33 88.30108558277198
892.12 88.3354899609886
905.097 88.46486711684003
918.262 88.69075805308094
931.618 88.973367115739
945.169 89.29743831972326
958.917 89.60304988402642
972.864 89.86889785556183
987.015 90.10730138587637
1001.37 90.31732050034354
1015.94 90.46548740869024
1030.71 90.53165658975894
1045.71 90.54444208803962
1060.92 90.54309262593816
1076.35 90.53997576767671
1092.0 90.53802319091733
1107.89 90.5365017929024
1124.0 90.4999215505501
1140.35 90.45812715463106
1156.94 90.48775255447752
1173.77 90.60881228784761
1190.84 90.79007151820382
1208.16 90.99102703320042
1225.73 91.2081233314028
1243.56 91.41773638345077
1261.65 91.59628403780034
1280.0 91.7896070631129
1298.62 91.98895107824794
1317.51 92.08609218947448
1336.67 92.01755570424748
1356.11 91.80015695323502
1375.84 91.5893197521616
1395.85 91.45240995204125
1416.15 91.31089085395647
1436.75 91.11942557432516
1457.65 90.90932813304701
1478.85 90.78163906217765
1500.36 90.7612477198562
1522.19 90.73359455758657
1544.33 90.67075605447494
1566.79 90.62246078022316
1589.58 90.61369529353702
1612.7 90.55872854377759
1636.16 90.45609899965774
1659.95 90.42185905780326
1684.1 90.47027293692695
1708.6 90.52979471905658
1733.45 90.57978067223138
1758.66 90.57194495462488
1784.24 90.43434053132583
1810.19 90.12752946095769
1836.52 89.70368508803585
1863.24 89.26044093248314
1890.34 88.81888650167294
1917.83 88.51135039322295
1945.73 88.50149307585511
1974.03 88.64284729527529
2002.74 88.81226732880658
2031.87 88.92273267380592
2061.43 88.85202369581692
2091.41 88.46172399109767
2121.83 87.75487375080093
2152.69 86.94831217061282
2184.01 86.21418639066539
2215.77 85.7423432985317
2248.0 85.61047898609453
2280.7 85.82252111131014
2313.87 86.2166355917853
2347.53 86.57051352294033
2381.68 86.92369791282826
2416.32 87.35655044415057
2451.46 87.77929524539243
2487.12 88.09976558508927
2523.3 88.2749051430558
2560.0 88.42826452864368
2597.24 88.64319545971716
2635.01 88.87765492994463
2673.34 89.07131998689204
2712.23 89.07253088203095
2751.68 88.95768557045989
2791.7 88.85325516201665
2832.31 88.77539539485933
2873.5 88.68856332776488
2915.3 88.54802444698967
2957.7 88.417957851666
3000.72 88.30568321654606
3044.37 88.11545207972121
3088.65 87.82007309799799
3133.58 87.45191805330859
3179.16 87.09263869268125
3225.4 86.70881670356296
3272.31 86.2508692994824
3319.91 85.78397400998313
3368.2 85.44031573018619
3417.19 85.28981177590724
3466.89 85.23652444016865
3517.32 85.354825068159
3568.48 85.56167188999143
3620.39 85.69979911396464
3673.05 85.83209931819957
3726.47 85.92473139169566
3780.67 85.95384286824256
3835.67 85.92779224707103
3891.46 85.924089308055
3948.06 85.9927952122718
4005.49 86.17019932108289
4063.75 86.37338462364403
4122.86 86.4923448741427
4182.82 86.60047307291345
4243.66 86.76793626187991
4305.39 86.98169510114307
4368.01 87.18581215843685
4431.55 87.27731507534004
4496.01 87.29796462051968
4561.4 87.4227118222036
4627.75 87.7731015567631
4695.06 88.3071027673687
4763.35 88.77542356429335
4832.64 88.81217826674938
4902.93 88.53052590960606
4974.24 88.2427492798341
5046.6 88.03135749387576
5120.0 87.8142704440812
5194.47 87.71130537023969
5270.03 87.77176387181245
5346.68 87.8385829179357
5424.45 87.86022265030839
5503.35 87.91712576584129
5583.4 87.93998433223427
5664.61 87.82445928914518
5747.01 87.67876816807765
5830.6 87.62290420581647
5915.41 87.67317038024375
6001.45 87.76904061643756
6088.74 87.89024398703675
6177.3 88.04576684269753
6267.15 88.14946864383936
6358.31 88.0954507147222
6450.8 87.83610109328212
6544.62 87.59430503239699
6639.82 87.72481173120931
6736.4 88.00564929389975
6834.38 88.2787558296371
6933.79 88.56738579590997
7034.64 88.59983405334273
7136.96 88.33017987232634
7240.77 87.95626559321568
7346.09 87.59987367428343
7452.94 87.06723969917613
7561.35 86.50689894429472
7671.33 86.38922290009447
7782.91 86.24790955269424
7896.12 85.96201945652165
8010.97 85.5629013428025
8127.49 85.17199493844733
8245.71 84.91436038527218
8365.65 84.58993703523373
8487.33 84.04915265179105
8610.78 83.76559419952055
8736.03 84.13392714676283
8863.09 84.90379726654781
8992.01 85.72798312860482
9122.8 86.41542144257721
9255.5 86.8998179020304
9390.12 87.23734169096713
9526.7 87.46156141787958
9665.27 87.61502391145486
9805.86 87.78258601381276
9948.49 87.83500084624072
10093.2 87.86391242955682
10240.0 88.32109755192401
10388.9 89.01024865966045
10540.1 89.54863642102448
10693.4 89.7073824049367
10848.9 89.27141203459458
11006.7 88.384473237767
11166.8 87.41120998389636
11329.2 86.38338436198575
11494.0 84.85494424363233
11661.2 82.53683048505214
11830.8 80.15746363004325
12002.9 79.2153438324266
12177.5 78.70179888747472
12354.6 78.0623692798053
12534.3 77.85185009662048
12716.6 78.63945288681403
12901.6 79.2534829363439
13089.2 79.57691746779905
13279.6 80.28783689146226
13472.8 81.17576864273354
13668.8 81.47037060080166
13867.6 82.26204535153646
14069.3 83.934268776672
14273.9 84.94358495523241
14481.5 83.89260701877936
14692.2 81.73621371753671
14905.9 80.61574159996556
15122.7 80.6808764154829
15342.7 80.80071389749645
15565.8 80.08337113090542
15792.2 78.68448964432378
16021.9 77.52645229908262
16255.0 76.4853811141987
16491.4 74.88618953701534
16731.3 74.47868338139617
16974.7 75.2031183614445
17221.6 75.20351630531646
17472.1 74.3730109920424
17726.2 72.62733462322122
17984.0 70.69682909238482
18245.6 69.48078250148603
18511.0 68.46938190605375
18780.2 67.31378828556788
19053.4 65.60020496061566
19330.5 64.50594258143819
19611.7 63.59946526650711
19897.0 63.589403264054766
