Freq "Early Reflections DI"
20.0 38.35309654169836
20.2909 38.361354567796724
20.586 38.369588386502215
20.8855 38.378377863393524
21.1893 38.3885837392757
21.4975 38.398231787611536
21.8102 38.40912852065284
22.1274 38.419834012150176
22.4492 38.43161762812555
22.7758 38.443767396145745
23.1071 38.45661092625913
23.4432 38.46947439734927
23.7841 38.48109545733561
24.1301 38.49276508415505
24.4811 38.50519623450553
24.8372 38.51768304395243
25.1984 38.5304825931664
25.5649 38.54368071240461
25.9368 38.55711899463819
26.3141 38.57115721606756
26.6968 38.58391172312896
27.0851 38.5968771273274
27.4791 38.61006327787658
27.8788 38.623700974318226
28.2843 38.63697094176088
28.6957 38.650806257740015
29.1131 38.664995416989
29.5365 38.67829200625738
29.9661 38.69185692221281
30.402 38.7050312013603
30.8442 38.718515505692636
31.2929 38.73204855474664
31.748 38.74572330669437
32.2098 38.75956306505188
32.6783 38.77245423980477
33.1536 38.78568271743096
33.6359 38.79899369921918
34.1251 38.81215223029051
34.6215 38.82584893228871
35.125 38.83934612812094
35.6359 38.85180392998791
36.1543 38.86430194352141
36.6802 38.8772300469803
37.2137 38.89006230589976
37.755 38.902817141536715
38.3041 38.915094877637046
38.8613 38.92621787422512
39.4265 38.937610627115774
40.0 38.9494100846529
40.5818 38.960783341011364
41.1721 38.97151400891815
41.771 38.98070834358806
42.3785 38.99033086948714
42.9949 38.99997209188514
43.6203 39.009337603606966
44.2548 39.01756914113459
44.8985 39.024696092469085
45.5515 39.03157620838519
46.2141 39.03828608165638
46.8863 39.045530549445985
47.5683 39.04993464361655
48.2602 39.05418290986232
48.9621 39.05847741304069
49.6743 39.063119233411555
50.3968 39.06598792873298
51.1299 39.068424740302035
51.8736 39.070759100090825
52.6281 39.07303587412122
53.3936 39.07479258536448
54.1702 39.07628653385669
54.9581 39.07733274976333
55.7575 39.07870872498255
56.5685 39.08027379272207
57.3914 39.08196240116588
58.2261 39.083356856742455
59.073 39.08504800510913
59.9323 39.08743789122909
60.804 39.089427583246746
61.6884 39.09188315672901
62.5857 39.0955088462663
63.496 39.098364789664984
64.4196 39.10204066742321
65.3566 39.105629910876914
66.3073 39.10970197212528
67.2717 39.113374690591044
68.2502 39.11732803034904
69.2429 39.120930470325405
70.2501 39.12501300811569
71.2719 39.12766180963379
72.3086 39.13052971557951
73.3603 39.133068836725656
74.4274 39.1345932119803
75.5099 39.13602368882067
76.6083 39.13677671022798
77.7226 39.136244325624176
78.8531 39.136232719596364
80.0 39.13450079262931
81.1636 39.132420706852244
82.3442 39.130094171599524
83.5419 39.12631518575327
84.757 39.12255993992321
85.9899 39.11767989476968
87.2406 39.11256311391932
88.5096 39.106508062854246
89.797 39.0991897786798
91.1031 39.09183019107998
92.4282 39.08304532725185
93.7726 39.07395623049966
95.1366 39.06342336489293
96.5204 39.05284198182852
97.9243 39.03895244475703
99.3486 39.02481279457112
100.794 39.00832028993091
102.26 38.99192885789056
103.747 38.97556307456102
105.256 38.95862344282885
106.787 38.94239391922724
108.34 38.926035790434014
109.916 38.91034751711946
111.515 38.89487024587237
113.137 38.88014614192848
114.783 38.86555709797206
116.452 38.85142096131017
118.146 38.83760605691491
119.865 38.824004166573644
121.608 38.81059332456023
123.377 38.79576025331008
125.171 38.78041024320426
126.992 38.76296042852327
128.839 38.744265625377
130.713 38.72216975237458
132.615 38.69867739734063
134.543 38.67317014810703
136.5 38.64567748117821
138.486 38.617371945344246
140.5 38.58798620413633
142.544 38.55805402756852
144.617 38.528533117585184
146.721 38.49858425426953
148.855 38.4698795550389
151.02 38.44095529565787
153.217 38.41230478256048
155.445 38.38428504441562
157.706 38.35649775429137
160.0 38.32867484796522
162.327 38.30118230820692
164.688 38.27321823996158
167.084 38.244183277669464
169.514 38.21336343086962
171.98 38.17984163769668
174.481 38.14350104007926
177.019 38.10316327951293
179.594 38.060172737579634
182.206 38.013539789931656
184.856 37.963827952389906
187.545 37.91063231612938
190.273 37.853834975633006
193.041 37.791330458251366
195.849 37.721874910112035
198.697 37.645270741880836
201.587 37.56074133563828
204.52 37.469905035906976
207.494 37.37430653560506
210.512 37.27679044673931
213.574 37.18017247183559
216.681 37.08643185879336
219.833 36.99585113292335
223.03 36.908033480401144
226.274 36.82004138563859
229.565 36.72933553058465
232.905 36.63282674831103
236.292 36.52587861712293
239.729 36.405783361759845
243.216 36.26856490852282
246.754 36.11233153445805
250.343 35.94249924538222
253.984 35.76573220177305
257.678 35.59016961532258
261.426 35.424114519794244
265.229 35.27354859315555
269.087 35.137479209717
273.001 35.015198691839316
276.972 34.90068018203428
281.0 34.7832737171488
285.088 34.652674907073845
289.234 34.503162090637815
293.441 34.325466598606056
297.709 34.09870888420717
302.04 33.85176012761289
306.433 33.68094337444276
310.89 33.595744341331695
315.412 33.53245308082336
320.0 33.49060977165651
324.655 33.46716642314833
329.377 33.4548582693337
334.168 33.43187182218813
339.028 33.35508272186719
343.959 33.17999171892063
348.962 32.86877822788041
354.038 32.381229143571616
359.188 31.71441437854044
364.412 30.90312336410115
369.713 30.03716633891939
375.09 29.28343628755107
380.546 28.83968712137552
386.081 28.75731787018006
391.697 28.909412036020512
397.394 29.09111894755017
403.175 29.158745941599264
409.039 29.085607647196838
414.989 28.923594738258572
421.025 28.757468484685234
427.149 28.689426675884363
433.362 28.812954300716328
439.665 29.160891824832618
446.06 29.666643089034693
452.548 30.189166151472776
459.131 30.596970281831247
465.809 30.82482571600653
472.584 30.884761444878222
479.458 30.875018596551655
486.432 30.908203548493844
493.507 31.0744280366185
500.686 31.364484268539883
507.968 31.75205845869577
515.357 31.95651785180044
522.853 32.14880560164431
530.458 32.30292961022212
538.174 32.485873446932345
546.002 32.73231637778338
553.943 33.01966324544988
562.001 33.28762829854962
570.175 33.50014552241285
578.469 33.67706438031183
586.883 33.86923321197523
595.419 34.10013085405987
604.08 34.37717566560528
612.866 34.67471658837255
621.78 34.9390847296018
630.824 35.12280465009043
640.0 35.24608786851918
649.309 35.338201334833
658.753 35.401150517692415
668.335 35.42958278691037
678.056 35.445105161170034
687.919 35.48471448984567
697.925 35.53222185681199
708.077 35.474912253715445
718.376 35.292597882532675
728.825 34.98556567289644
739.426 34.71139176905368
750.181 34.60809986299196
761.093 34.65646473388212
772.163 34.687543657004966
783.394 34.57790159228371
794.789 34.345847885951116
806.349 34.08604339390271
818.078 33.85839556011241
829.977 33.67322641932796
842.05 33.5457865855991
854.298 33.5009322837404
866.724 33.570706788359914
879.33 33.791091959276656
892.12 34.14634904749629
905.097 34.56936363196043
918.262 35.07180413755262
931.618 35.53823335710774
945.169 35.99853264547512
958.917 36.39372690051027
972.864 36.77117125490081
987.015 37.14814403676259
1001.37 37.4249084391157
1015.94 37.48741983370637
1030.71 37.37184702934604
1045.71 37.25887965941051
1060.92 37.193305101206036
1076.35 36.888950438712286
1092.0 36.1415308054339
1107.89 35.05865265229693
1124.0 33.707826322624655
1140.35 32.245141739496475
1156.94 31.067155752533367
1173.77 30.545876439420226
1190.84 30.85360770131929
1208.16 31.751667342551144
1225.73 32.75320220956061
1243.56 33.57240370052773
1261.65 34.17417245051125
1280.0 34.829035006675696
1298.62 35.58320420532387
1317.51 36.03358742222797
1336.67 35.98260230540252
1356.11 35.738889174137825
1375.84 35.50794826184722
1395.85 35.18552313542405
1416.15 34.628887479601374
1436.75 33.871689395649355
1457.65 32.99512026785757
1478.85 32.03102588701729
1500.36 31.273459198774873
1522.19 30.990595329448084
1544.33 31.14915047785881
1566.79 31.59194685766154
1589.58 32.3765789414898
1612.7 32.88611781406851
1636.16 32.441621958553355
1659.95 31.75074146842877
1684.1 31.416300378043644
1708.6 30.79057898602018
1733.45 30.21864863774259
1758.66 30.6431541230844
1784.24 32.340062599808846
1810.19 34.28555278492247
1836.52 35.813693305385996
1863.24 36.99862478939764
1890.34 37.763648784492275
1917.83 38.11539969511368
1945.73 37.85744581820741
1974.03 37.097783129807084
2002.74 36.2597535412031
2031.87 35.750089783132026
2061.43 35.44110043400521
2091.41 35.45976520726549
2121.83 35.84295365898129
2152.69 36.0734475655142
2184.01 36.2555366417818
2215.77 36.171655862809956
2248.0 35.56291223766159
2280.7 34.59352214634309
2313.87 33.59663692764521
2347.53 32.89076044757496
2381.68 32.714120006622224
2416.32 32.85642810507514
2451.46 33.3978697891006
2487.12 34.04939943662981
2523.3 34.54706151064717
2560.0 34.7320098070108
2597.24 34.59929574070617
2635.01 34.62549619606111
2673.34 34.84992902224597
2712.23 34.847565402152995
2751.68 34.76365393785285
2791.7 34.70461714141136
2832.31 34.781369322599076
2873.5 34.96472376702468
2915.3 35.081195729105914
2957.7 35.059177941574745
3000.72 34.9445928534424
3044.37 35.0816394819889
3088.65 35.53757391737156
3133.58 35.92527083896057
3179.16 35.90018544751089
3225.4 35.807292124937604
3272.31 36.01113103424319
3319.91 35.94413405264599
3368.2 35.43928794490148
3417.19 35.00347352256392
3466.89 34.54555690739923
3517.32 34.118577352698196
3568.48 34.06779789023879
3620.39 34.10148962668441
3673.05 34.0723104089318
3726.47 33.54838733703019
3780.67 33.026826075331286
3835.67 32.95271802416852
3891.46 33.11650672556145
3948.06 33.37864007581666
4005.49 33.49849329139208
4063.75 33.516903542177275
4122.86 33.47902359461189
4182.82 33.57727694830635
4243.66 33.48928749421428
4305.39 33.35704026809363
4368.01 33.44756738689577
4431.55 33.54188415297817
4496.01 33.605134823343704
4561.4 33.592152093722746
4627.75 33.61059585460913
4695.06 33.78266592534156
4763.35 34.19211993814169
4832.64 34.72681870240301
4902.93 35.279262173350205
4974.24 35.576742182695284
5046.6 35.52286614360281
5120.0 35.29332706156616
5194.47 35.31173261494871
5270.03 35.77280114854767
5346.68 36.62088737569444
5424.45 37.24507039684784
5503.35 37.13684321619655
5583.4 36.49477232918214
5664.61 35.95956990489606
5747.01 35.676874979380884
5830.6 35.458729718503136
5915.41 35.4285846843773
6001.45 35.516805328426614
6088.74 35.55023432546358
6177.3 35.60712771575699
6267.15 35.65741968499924
6358.31 35.59358425515947
6450.8 35.69714819680446
6544.62 36.087506644527735
6639.82 36.26903828805544
6736.4 36.10979205745885
6834.38 35.79690490533588
6933.79 35.69161064355667
7034.64 35.98290890857801
7136.96 36.46958252664085
7240.77 36.958732632829665
7346.09 37.38004282842962
7452.94 37.65333306468983
7561.35 37.55064565702587
7671.33 36.764944387749296
7782.91 36.02448552806962
7896.12 35.6821363165641
8010.97 35.4786856169044
8127.49 35.483102451284324
8245.71 35.67548264246183
8365.65 36.04281518634748
8487.33 36.64840173860166
8610.78 36.92578932246654
8736.03 36.54564621669746
8863.09 35.80104165330313
8992.01 35.554792730382204
9122.8 35.9610485335167
9255.5 35.62545922405391
9390.12 33.980757954684094
9526.7 32.462399239454115
9665.27 31.424385694836673
9805.86 31.20350773082302
9948.49 32.72339548818944
10093.2 34.88444427718032
10240.0 36.3325380449254
10388.9 36.769607379970736
10540.1 36.05980641210685
10693.4 34.35716384061331
10848.9 32.6612797311077
11006.7 32.3613349332915
11166.8 33.46526557160172
11329.2 34.20240060290553
11494.0 34.58882955820917
11661.2 36.0071967229771
11830.8 37.58858402393061
12002.9 36.962643034788215
12177.5 35.38729635024799
12354.6 33.727098202738475
12534.3 33.214087716624746
12716.6 34.83567197447947
12901.6 36.84326735796117
13089.2 37.634815362773665
13279.6 38.12800146514385
13472.8 38.077979725441665
13668.8 38.865088436925916
13867.6 39.87597881407042
14069.3 39.23554317726277
14273.9 36.095231511468626
14481.5 31.07732014243868
14692.2 29.483160760035815
14905.9 31.448383677127964
15122.7 33.28444706117246
15342.7 32.878251556828445
15565.8 32.42656867432257
15792.2 33.45466283681361
16021.9 33.828468381924296
16255.0 32.46896334605253
16491.4 32.284574651845645
16731.3 33.45579143108495
16974.7 33.480451473958766
17221.6 34.279999253158536
17472.1 35.89512119793339
17726.2 37.84153025302281
17984.0 39.34169034468276
18245.6 39.743556871431934
18511.0 39.80501713178255
18780.2 40.0689598942713
19053.4 39.13058416394789
19330.5 36.30175511332634
19611.7 34.5504204759786
19897.0 34.22706400926211
