Freq "On Axis"
20.0 61.49103773584906
20.2909 61.96703773584906
20.586 62.47903773584906
20.8855 62.99803773584907
21.1893 63.54403773584906
21.4975 64.10103773584908
21.8102 64.66403773584906
22.1274 65.22703773584905
22.4492 65.78703773584905
22.7758 66.34503773584906
23.1071 66.89903773584906
23.4432 67.45203773584906
23.7841 68.06803773584906
24.1301 68.68203773584906
24.4811 69.29403773584906
24.8372 69.90203773584906
25.1984 70.50803773584906
25.5649 71.11103773584907
25.9368 71.71103773584906
26.3141 72.30703773584906
26.6968 72.92403773584905
27.0851 73.54103773584906
27.4791 74.15303773584905
27.8788 74.75903773584906
28.2843 75.35803773584907
28.6957 75.95103773584906
29.1131 76.53503773584906
29.5365 77.11603773584906
29.9661 77.69103773584906
30.402 78.25503773584904
30.8442 78.80503773584906
31.2929 79.34203773584906
31.748 79.86503773584906
32.2098 80.37303773584907
32.6783 80.86303773584906
33.1536 81.33503773584906
33.6359 81.79003773584905
34.1251 82.22503773584906
34.6215 82.63903773584906
35.125 83.03503773584907
35.6359 83.40303773584907
36.1543 83.75203773584906
36.6802 84.08103773584907
37.2137 84.39003773584906
37.755 84.68203773584906
38.3041 84.95203773584906
38.8613 85.20003773584907
39.4265 85.43303773584906
40.0 85.65203773584906
40.5818 85.85803773584905
41.1721 86.05003773584906
41.771 86.22303773584906
42.3785 86.38703773584908
42.9949 86.54303773584905
43.6203 86.69203773584906
44.2548 86.82903773584906
44.8985 86.95603773584907
45.5515 87.07903773584906
46.2141 87.19803773584906
46.8863 87.31503773584906
47.5683 87.42003773584906
48.2602 87.52303773584904
48.9621 87.62403773584907
49.6743 87.72403773584907
50.3968 87.81803773584906
51.1299 87.91003773584906
51.8736 88.00303773584906
52.6281 88.08903773584906
53.3936 88.18303773584906
54.1702 88.27103773584906
54.9581 88.35903773584906
55.7575 88.44903773584906
56.5685 88.53803773584906
57.3914 88.62703773584906
58.2261 88.71603773584906
59.073 88.80503773584906
59.9323 88.89503773584906
60.804 88.98603773584907
61.6884 89.07903773584906
62.5857 89.17303773584906
63.496 89.26703773584906
64.4196 89.36203773584907
65.3566 89.45703773584906
66.3073 89.55203773584904
67.2717 89.64903773584908
68.2502 89.74403773584906
69.2429 89.84103773584906
70.2501 89.93803773584906
71.2719 90.03303773584906
72.3086 90.12803773584906
73.3603 90.22303773584906
74.4274 90.31303773584906
75.5099 90.40403773584904
76.6083 90.49203773584907
77.7226 90.57703773584906
78.8531 90.66303773584906
80.0 90.74403773584906
81.1636 90.82303773584906
82.3442 90.90003773584905
83.5419 90.97203773584906
84.757 91.04503773584906
85.9899 91.11203773584906
87.2406 91.17803773584906
88.5096 91.24103773584906
89.797 91.30203773584905
91.1031 91.36203773584906
92.4282 91.41903773584906
93.7726 91.47503773584906
95.1366 91.52903773584906
96.5204 91.58403773584908
97.9243 91.63703773584905
99.3486 91.69103773584908
100.794 91.74403773584905
102.26 91.79603773584905
103.747 91.85203773584907
105.256 91.90903773584907
106.787 91.96703773584906
108.34 92.02503773584905
109.916 92.08503773584906
111.515 92.14303773584906
113.137 92.20003773584907
114.783 92.25603773584908
116.452 92.30903773584905
118.146 92.35803773584907
119.865 92.40403773584906
121.608 92.44403773584907
123.377 92.48003773584907
125.171 92.50803773584906
126.992 92.53103773584905
128.839 92.54903773584905
130.713 92.55703773584906
132.615 92.56003773584908
134.543 92.55703773584906
136.5 92.54603773584905
138.486 92.53903773584906
140.5 92.52103773584906
142.544 92.49103773584906
144.617 92.46603773584906
146.721 92.43903773584906
148.855 92.40303773584904
151.02 92.36503773584906
153.217 92.32703773584906
155.445 92.28903773584906
157.706 92.25003773584906
160.0 92.21003773584906
162.327 92.16903773584906
164.688 92.13703773584906
167.084 92.09703773584906
169.514 92.05003773584906
171.98 92.00003773584906
174.481 91.95203773584907
177.019 91.89903773584906
179.594 91.83203773584907
182.206 91.74803773584907
184.856 91.65503773584906
187.545 91.55503773584906
190.273 91.43503773584906
193.041 91.30203773584905
195.849 91.15803773584906
198.697 90.99803773584907
201.587 90.83203773584904
204.52 90.66403773584906
207.494 90.49903773584906
210.512 90.33503773584906
213.574 90.17903773584906
216.681 90.03703773584905
219.833 89.89703773584907
223.03 89.75803773584906
226.274 89.61803773584906
229.565 89.47603773584906
232.905 89.32703773584906
236.292 89.16803773584905
239.729 88.99603773584906
243.216 88.81003773584908
246.754 88.61203773584906
250.343 88.40503773584905
253.984 88.19503773584904
257.678 87.98803773584908
261.426 87.79003773584905
265.229 87.61203773584906
269.087 87.45603773584907
273.001 87.33003773584906
276.972 87.23203773584905
281.0 87.15203773584906
285.088 87.07503773584907
289.234 86.97703773584907
293.441 86.82003773584906
297.709 86.54903773584905
302.04 86.21203773584907
306.433 85.98803773584906
310.89 85.89503773584906
315.412 85.84203773584906
320.0 85.81203773584906
324.655 85.79103773584906
329.377 85.77103773584906
334.168 85.73503773584906
339.028 85.65003773584905
343.959 85.48203773584906
348.962 85.20203773584906
354.038 84.78303773584906
359.188 84.21903773584906
364.412 83.52103773584906
369.713 82.72303773584906
375.09 81.91803773584905
380.546 81.28303773584906
386.081 80.98303773584907
391.697 81.03803773584906
397.394 81.29903773584905
403.175 81.56803773584906
409.039 81.71803773584907
414.989 81.74703773584906
421.025 81.73603773584907
427.149 81.79903773584905
433.362 82.02703773584906
439.665 82.43603773584906
446.06 82.95003773584907
452.548 83.45003773584907
459.131 83.84303773584907
465.809 84.10103773584908
472.584 84.26003773584905
479.458 84.41503773584904
486.432 84.66103773584906
493.507 85.04203773584906
500.686 85.50403773584905
507.968 86.00003773584906
515.357 86.20903773584905
522.853 86.37103773584906
530.458 86.45103773584907
538.174 86.53603773584906
546.002 86.68803773584906
553.943 86.90503773584908
562.001 87.12803773584906
570.175 87.29703773584906
578.469 87.40203773584906
586.883 87.47703773584907
595.419 87.53903773584906
604.08 87.61703773584907
612.866 87.73303773584905
621.78 87.86303773584906
630.824 87.95103773584904
640.0 88.01903773584905
649.309 88.10803773584908
658.753 88.23103773584906
668.335 88.36703773584907
678.056 88.48803773584906
687.919 88.59203773584906
697.925 88.66603773584905
708.077 88.63903773584906
718.376 88.53503773584906
728.825 88.34103773584906
739.426 88.18303773584906
750.181 88.15803773584906
761.093 88.21703773584906
772.163 88.18203773584906
783.394 87.91803773584905
794.789 87.44303773584906
806.349 86.89603773584906
818.078 86.40903773584905
829.977 86.01503773584906
842.05 85.71603773584906
854.298 85.59303773584907
866.724 85.75103773584905
879.33 86.19503773584906
892.12 86.79703773584906
905.097 87.43503773584906
918.262 88.12603773584907
931.618 88.79103773584906
945.169 89.50203773584906
958.917 90.18103773584906
972.864 90.84403773584906
987.015 91.50103773584907
1001.37 92.01103773584906
1015.94 92.18803773584906
1030.71 92.08903773584908
1045.71 92.00103773584905
1060.92 91.94603773584906
1076.35 91.52203773584905
1092.0 90.59503773584908
1107.89 89.41703773584906
1124.0 87.95403773584906
1140.35 86.32403773584906
1156.94 84.90403773584906
1173.77 83.69303773584906
1190.84 82.77203773584905
1208.16 82.87903773584905
1225.73 84.02003773584906
1243.56 85.31403773584904
1261.65 86.29303773584905
1280.0 87.52103773584906
1298.62 88.99403773584908
1317.51 89.69403773584907
1336.67 89.46803773584907
1356.11 88.79203773584906
1375.84 88.09803773584906
1395.85 87.48903773584905
1416.15 86.77703773584906
1436.75 85.84403773584906
1457.65 84.81803773584906
1478.85 83.70403773584906
1500.36 82.95003773584907
1522.19 83.27203773584904
1544.33 83.68703773584906
1566.79 83.63503773584905
1589.58 84.13803773584905
1612.7 85.10103773584906
1636.16 84.54603773584907
1659.95 82.89503773584906
1684.1 82.32003773584907
1708.6 82.93703773584906
1733.45 83.65003773584905
1758.66 84.58503773584906
1784.24 85.95403773584906
1810.19 87.31503773584906
1836.52 88.27303773584906
1863.24 88.48303773584907
1890.34 88.16803773584905
1917.83 87.70903773584907
1945.73 86.58003773584906
1974.03 84.65703773584906
2002.74 83.24203773584907
2031.87 83.28203773584906
2061.43 83.59003773584907
2091.41 83.80303773584905
2121.83 84.56303773584906
2152.69 85.01803773584906
2184.01 85.11903773584906
2215.77 85.36003773584906
2248.0 85.51003773584905
2280.7 85.61703773584907
2313.87 85.94703773584907
2347.53 86.15703773584906
2381.68 86.02703773584906
2416.32 85.73803773584905
2451.46 85.43603773584906
2487.12 85.37103773584906
2523.3 85.29003773584905
2560.0 84.65603773584905
2597.24 83.76003773584904
2635.01 83.19103773584905
2673.34 82.49503773584907
2712.23 81.73303773584907
2751.68 81.56803773584906
2791.7 81.76303773584905
2832.31 82.46903773584906
2873.5 83.45903773584908
2915.3 84.25703773584905
2957.7 84.49303773584906
3000.72 84.46003773584906
3044.37 84.52603773584906
3088.65 84.88803773584905
3133.58 85.38103773584908
3179.16 85.35203773584907
3225.4 85.05903773584906
3272.31 84.80703773584906
3319.91 84.23303773584907
3368.2 83.32603773584907
3417.19 82.39603773584906
3466.89 81.89603773584906
3517.32 82.25503773584906
3568.48 82.75703773584905
3620.39 82.89703773584905
3673.05 82.39003773584906
3726.47 80.97003773584906
3780.67 79.43103773584906
3835.67 79.14203773584906
3891.46 79.86703773584907
3948.06 80.80903773584907
4005.49 81.33303773584905
4063.75 81.37103773584906
4122.86 81.45603773584907
4182.82 81.75103773584908
4243.66 82.52803773584905
4305.39 83.67403773584905
4368.01 84.56203773584906
4431.55 84.78203773584906
4496.01 84.46103773584906
4561.4 83.70403773584906
4627.75 83.29903773584905
4695.06 83.51903773584905
4763.35 83.88203773584905
4832.64 84.20103773584904
4902.93 84.68103773584906
4974.24 85.03003773584908
5046.6 85.26003773584905
5120.0 85.68403773584906
5194.47 86.02103773584906
5270.03 86.25003773584908
5346.68 86.62203773584906
5424.45 87.19603773584907
5503.35 87.71803773584907
5583.4 87.79703773584905
5664.61 87.61203773584906
5747.01 87.53503773584906
5830.6 87.49603773584906
5915.41 87.45703773584907
6001.45 87.86103773584907
6088.74 88.55203773584905
6177.3 88.84903773584907
6267.15 88.75403773584907
6358.31 88.58803773584906
6450.8 88.52803773584905
6544.62 88.82203773584907
6639.82 89.41903773584906
6736.4 89.81203773584906
6834.38 89.88203773584905
6933.79 90.13803773584905
7034.64 90.77803773584905
7136.96 91.40403773584907
7240.77 91.53003773584905
7346.09 91.39203773584906
7452.94 91.06703773584906
7561.35 89.72003773584906
7671.33 87.69703773584908
7782.91 85.94503773584906
7896.12 84.34703773584906
8010.97 82.89003773584906
8127.49 82.27103773584906
8245.71 82.60703773584908
8365.65 83.32203773584908
8487.33 83.60403773584906
8610.78 83.14003773584906
8736.03 82.27303773584907
8863.09 82.50903773584906
8992.01 84.29603773584905
9122.8 85.58703773584907
9255.5 84.86103773584907
9390.12 82.20403773584906
9526.7 80.05503773584906
9665.27 79.07903773584906
9805.86 77.16603773584907
9948.49 76.37903773584905
10093.2 79.21203773584907
10240.0 82.55603773584906
10388.9 83.55403773584906
10540.1 83.43603773584906
10693.4 83.43303773584907
10848.9 83.01403773584906
11006.7 83.42903773584908
11166.8 84.51003773584905
11329.2 84.04203773584906
11494.0 82.77103773584906
11661.2 81.64303773584906
11830.8 79.85703773584906
12002.9 76.21703773584906
12177.5 73.08703773584907
12354.6 72.99003773584906
12534.3 74.76803773584906
12716.6 78.23203773584908
12901.6 81.88803773584905
13089.2 84.72103773584907
13279.6 86.78403773584905
13472.8 87.03503773584904
13668.8 86.66903773584906
13867.6 87.40603773584905
14069.3 88.50303773584906
14273.9 86.78703773584905
14481.5 81.49903773584906
14692.2 76.65303773584905
14905.9 75.19703773584908
15122.7 75.71303773584906
15342.7 75.93003773584906
15565.8 75.24403773584908
15792.2 74.08203773584906
16021.9 72.12703773584906
16255.0 68.57603773584904
16491.4 65.85503773584907
16731.3 67.07103773584906
16974.7 69.99403773584906
17221.6 72.30003773584906
17472.1 74.16803773584905
17726.2 75.18803773584906
17984.0 74.83403773584907
18245.6 73.73503773584906
18511.0 73.15303773584905
18780.2 72.35603773584904
19053.4 70.20203773584906
19330.5 67.82503773584907
19611.7 65.67903773584905
19897.0 62.988037735849076
