Freq "Sound Power"
20.0 61.86441160368781
20.2909 62.330173714876736
20.586 62.83117259031954
20.8855 63.341171876941814
21.1893 63.87827597229003
21.4975 64.42733026728024
21.8102 64.98127985024655
22.1274 65.5359756924235
22.4492 66.08845704367891
22.7758 66.63805739782073
23.1071 67.18502239957616
23.4432 67.73097374657989
23.7841 68.33563720268204
24.1301 68.9388633662674
24.4811 69.53987550700694
24.8372 70.13828061995332
25.1984 70.73409055210037
25.5649 71.32698593349967
25.9368 71.91689071413839
26.3141 72.50333792827652
26.6968 73.10805971405307
27.0851 73.71209647484578
27.4791 74.31118140663936
27.8788 74.90426849526645
28.2843 75.4910354271652
28.6957 76.0707695343665
29.1131 76.6426477607175
29.5365 77.20872251547073
29.9661 77.76722221864333
30.402 78.31484374540808
30.8442 78.84893084943951
31.2929 79.36964680806048
31.748 79.87635791434965
32.2098 80.36788825426457
32.6783 80.83758433169739
33.1536 81.28940745882088
33.6359 81.72376049352164
34.1251 82.1380093549339
34.6215 82.53228471435915
35.125 82.90783497354047
35.6359 83.25301492918635
36.1543 83.57808958961046
36.6802 83.88354504823508
37.2137 84.16911079297536
37.755 84.4373938654623
38.3041 84.68306590550698
38.8613 84.90675403322886
39.4265 85.11466900161696
40.0 85.30902888419837
40.5818 85.49022135834069
41.1721 85.65712031399786
41.771 85.80666520733405
42.3785 85.94642570527833
42.9949 86.07834836362646
43.6203 86.20370822062216
44.2548 86.31883673486729
44.8985 86.4248888555404
45.5515 86.52682825418782
46.2141 86.62567366845795
46.8863 86.7218284873562
47.5683 86.81072838328592
48.2602 86.89734727796437
48.9621 86.98251448688876
49.6743 87.06660605665358
50.3968 87.14824549679858
51.1299 87.22959372201966
51.8736 87.31090465188657
52.6281 87.38556098894091
53.3936 87.47174790012218
54.1702 87.55159985411045
54.9581 87.63265187656306
55.7575 87.71515284870787
56.5685 87.79796089000381
57.3914 87.88127767212805
58.2261 87.96494096329029
59.073 88.0487050204047
59.9323 88.13313040010868
60.804 88.21913615442314
61.6884 88.3064295232494
62.5857 88.39421689863565
63.496 88.48284014032085
64.4196 88.57194116823592
65.3566 88.66025656577304
66.3073 88.74928360615793
67.2717 88.83910930955724
68.2502 88.9286022396983
69.2429 89.0192941306171
70.2501 89.11081864819376
71.2719 89.20103101197392
72.3086 89.29178680918889
73.3603 89.38272935725925
74.4274 89.47184912191668
75.5099 89.5613739372429
76.6083 89.65024214375205
77.7226 89.73811298730624
78.8531 89.82694561929
80.0 89.9138268902919
81.1636 90.00046853582523
82.3442 90.08706910390265
83.5419 90.1724799020452
84.757 90.25830814425586
85.9899 90.34295482395797
87.2406 90.42732757410425
88.5096 90.5113902867252
89.797 90.59529054464633
91.1031 90.6794916609116
92.4282 90.76305948881954
93.7726 90.84656466533792
95.1366 90.92947750432515
96.5204 91.01268102896557
97.9243 91.09475132781884
99.3486 91.17682852821767
100.794 91.25475841037935
102.26 91.33114284192932
103.747 91.41049513040062
105.256 91.49089772423736
106.787 91.57045563306885
108.34 91.64977262480718
109.916 91.72822261990527
111.515 91.80598088202815
113.137 91.88174950596955
114.783 91.95687007326194
116.452 92.03067508566308
118.146 92.10171447337518
119.865 92.1721815878453
121.608 92.23945811500586
123.377 92.30476794826842
125.171 92.36549109641032
126.992 92.4236550257522
128.839 92.47900719563378
130.713 92.52843519095696
132.615 92.57435862113697
134.543 92.6153312577363
136.5 92.65015722258681
138.486 92.68972231098697
140.5 92.71937000644424
142.544 92.73755324822632
144.617 92.76166537368036
146.721 92.78347839207785
148.855 92.79565163087196
151.02 92.8063466866722
153.217 92.81677542756132
155.445 92.82677388434547
157.706 92.83561286290089
160.0 92.843774534105
162.327 92.85086309518296
164.688 92.866884385026
167.084 92.87696351793082
169.514 92.88162105393876
171.98 92.88662095667155
174.481 92.89782286217645
177.019 92.9082254261821
179.594 92.90943060883097
182.206 92.90090868582962
184.856 92.88836089982699
187.545 92.8753974091976
190.273 92.84759453131971
193.041 92.8115328985102
195.849 92.76836967902895
198.697 92.71537960662744
201.587 92.66349268895299
204.52 92.61815467485633
207.494 92.58392038993748
210.512 92.55774147497769
213.574 92.54567489799487
216.681 92.54843694454692
219.833 92.55236209763571
223.03 92.55450135187512
226.274 92.55562895464305
229.565 92.55771845958141
232.905 92.56120511406363
236.292 92.5677410653512
239.729 92.57742575536238
243.216 92.5917153618295
246.754 92.61249859775285
250.343 92.63446350916297
253.984 92.6602366985895
257.678 92.68822525721478
261.426 92.71717269826406
265.229 92.75024442693129
269.087 92.78696764713489
273.001 92.82993983425386
276.972 92.87803412319155
281.0 92.93220694155566
285.088 92.99146036890033
289.234 93.05175390541552
293.441 93.10183835275284
297.709 93.121376343562
302.04 93.12574134993164
306.433 93.17365204177568
310.89 93.23810848987975
315.412 93.32262963685295
320.0 93.39807377585412
324.655 93.4529454848805
329.377 93.48472324739006
334.168 93.5000664145283
339.028 93.50717644984132
343.959 93.5153490126936
348.962 93.5288185888362
354.038 93.55088079529513
359.188 93.58342298662888
364.412 93.62533086188242
369.713 93.67551067246217
375.09 93.72700174159957
380.546 93.77205012636429
386.081 93.80783894432976
391.697 93.8343381754749
397.394 93.85375903324524
403.175 93.86750004179993
409.039 93.87182421795237
414.989 93.86656307455145
421.025 93.85529476641292
427.149 93.83657257992435
433.362 93.80508826140338
439.665 93.7531070329552
446.06 93.69061362424216
452.548 93.63879317380767
459.131 93.62097637541888
465.809 93.64880229213739
472.584 93.71720778269977
479.458 93.80575679397344
486.432 93.8928202360451
493.507 93.96024838488346
500.686 93.99647198992832
507.968 93.98962018788947
515.357 93.94481066889819
522.853 93.87862855227955
530.458 93.79592874024918
538.174 93.70259392951985
546.002 93.59735964923806
553.943 93.47354324954149
562.001 93.32769949728412
570.175 93.162423759825
578.469 92.98199141152213
586.883 92.78682315122093
595.419 92.56391297357051
604.08 92.31762489704747
612.866 92.07093533536758
621.78 91.83975402152315
630.824 91.61819218578745
640.0 91.41319381574681
649.309 91.2363515057148
658.753 91.09554956977111
668.335 90.9957097117643
678.056 90.9431557005407
687.919 90.94703828429839
697.925 91.00984026167924
708.077 91.1113224448142
718.376 91.19734901440754
728.825 91.26265805612535
739.426 91.30370604280066
750.181 91.33709335591175
761.093 91.36088636384349
772.163 91.34174935291406
783.394 91.24499162864518
794.789 91.06237109408457
806.349 90.81331527282302
818.078 90.52430750786505
829.977 90.20527562973663
842.05 89.86430098102646
854.298 89.53000888158695
866.724 89.24486413986853
879.33 89.05446912057887
892.12 88.97655784456826
905.097 89.00678039955498
918.262 89.1474112896223
931.618 89.37058247656581
945.169 89.65906239588644
958.917 89.96860270522316
972.864 90.26363809715913
987.015 90.52664064654772
1001.37 90.7595808958983
1015.94 90.96930778368205
1030.71 91.13969226075596
1045.71 91.23788689214834
1060.92 91.25971029007457
1076.35 91.25525742135206
1092.0 91.27124299685927
1107.89 91.30324869674355
1124.0 91.30206363829691
1140.35 91.26918368629981
1156.94 91.25770950579667
1173.77 91.2886198812169
1190.84 91.33626235632306
1208.16 91.3781021788736
1225.73 91.43107032195033
1243.56 91.50319888600228
1261.65 91.55977887094441
1280.0 91.60700450739924
1298.62 91.68772369299924
1317.51 91.74750661430599
1336.67 91.6902581225323
1356.11 91.49280249626005
1375.84 91.31536663508064
1395.85 91.22523304039942
1416.15 91.10257477868657
1436.75 90.89396544580998
1457.65 90.65555936011785
1478.85 90.4565980117915
1500.36 90.33474447070643
1522.19 90.23387835099395
1544.33 90.13164624640591
1566.79 90.03576363762302
1589.58 90.01963366264889
1612.7 90.02133627037347
1636.16 89.99399382802557
1659.95 90.05781748667235
1684.1 90.22161040465892
1708.6 90.3670142006324
1733.45 90.46077046699014
1758.66 90.47093659735499
1784.24 90.34502447633902
1810.19 90.01491166175352
1836.52 89.4917734621967
1863.24 88.8935473089332
1890.34 88.31216382300477
1917.83 87.92604155197014
1945.73 87.91423182511394
1974.03 88.15832336352634
2002.74 88.50590135601507
2031.87 88.77652362361997
2061.43 88.83357161837732
2091.41 88.56569524989357
2121.83 87.99841935249806
2152.69 87.31036436632468
2184.01 86.62269758491537
2215.77 86.14722514484782
2248.0 86.0394064475589
2280.7 86.38165141468886
2313.87 87.0384950706528
2347.53 87.76665995104221
2381.68 88.4889816988572
2416.32 89.20563547267997
2451.46 89.82681797541721
2487.12 90.23866461784115
2523.3 90.3719812156314
2560.0 90.3372962716254
2597.24 90.28842161756444
2635.01 90.27974778811911
2673.34 90.29989232338073
2712.23 90.2522181192445
2751.68 90.08110111393108
2791.7 89.8366004911812
2832.31 89.55966214807604
2873.5 89.29572094399907
2915.3 89.07502805831152
2957.7 88.90588571230468
3000.72 88.72887937439779
3044.37 88.40474315790526
3088.65 87.94048053536233
3133.58 87.44458099812435
3179.16 87.05163590194178
3225.4 86.72251888770148
3272.31 86.39475085741286
3319.91 86.1331470175371
3368.2 85.99287167533717
3417.19 85.90105953333132
3466.89 85.77791577996771
3517.32 85.7929587730852
3568.48 85.97257788412567
3620.39 86.17393805356761
3673.05 86.3706290239199
3726.47 86.5415927891001
3780.67 86.64986301978354
3835.67 86.66352670254416
3891.46 86.65687054830656
3948.06 86.71925018507768
4005.49 86.93028675778433
4063.75 87.1836341934566
4122.86 87.33993355855593
4182.82 87.44018617041581
4243.66 87.5409881224056
4305.39 87.67510780146256
4368.01 87.86919392934976
4431.55 87.99918944951577
4496.01 88.01162547584615
4561.4 88.01832531377424
4627.75 88.17659753728282
4695.06 88.5521546989536
4763.35 88.9350643513177
4832.64 88.92444200417619
4902.93 88.62346540382713
4974.24 88.37034419147737
5046.6 88.23794140337068
5120.0 88.12889175301535
5194.47 88.13058186825573
5270.03 88.23661500556906
5346.68 88.25936005180306
5424.45 88.19879170586015
5503.35 88.23664039679264
5583.4 88.291996016754
5664.61 88.17936522502985
5747.01 88.02709348813184
5830.6 87.99382215053879
5915.41 88.06419162926007
6001.45 88.15295337194098
6088.74 88.27089269090567
6177.3 88.45333704550134
6267.15 88.59076636392754
6358.31 88.56629768781052
6450.8 88.34375909527101
6544.62 88.11984070581155
6639.82 88.16547765766984
6736.4 88.26812980793083
6834.38 88.57990437286168
6933.79 88.98041237240301
7034.64 89.04777604802564
7136.96 88.71749142652322
7240.77 88.17145907812329
7346.09 87.63391627717652
7452.94 87.09505221761266
7561.35 86.66582282870296
7671.33 86.67631643155994
7782.91 86.6706261238349
7896.12 86.5157026246421
8010.97 86.24080237773634
8127.49 85.87466211349867
8245.71 85.53313916231947
8365.65 85.05377559764568
8487.33 84.29127878545052
8610.78 83.8574486879128
8736.03 84.33596559053805
8863.09 85.23729084202392
8992.01 85.94737848782182
9122.8 86.44142601200751
9255.5 87.02034435405155
9390.12 87.6120216281149
9526.7 87.97077613183039
9665.27 88.20039694708899
9805.86 88.42016524603821
9948.49 88.41490083173301
10093.2 88.29881424519287
10240.0 88.51861467531643
10388.9 89.00442228056416
10540.1 89.59533507683352
10693.4 89.85845777938894
10848.9 89.4937589775196
11006.7 88.77554523934701
11166.8 88.08081842639055
11329.2 87.31543724254664
11494.0 86.07099829203261
11661.2 83.9453918007195
11830.8 81.0243483548048
12002.9 78.78270162999218
12177.5 77.43506302125951
12354.6 76.74811843112676
12534.3 77.42538144218932
12716.6 79.0059562849909
12901.6 79.89899607658516
13089.2 80.2019658631925
13279.6 80.6061522223541
13472.8 81.1733376331857
13668.8 81.45221255348507
13867.6 82.13275648712956
14069.3 83.86019585019437
14273.9 85.20750801481452
14481.5 84.39398174361546
14692.2 82.38508506880572
14905.9 81.47085387056246
15122.7 81.66825045528336
15342.7 81.71794866507045
15565.8 80.92510764013895
15792.2 79.55529566630008
16021.9 78.44621509581364
16255.0 77.05986419377457
16491.4 74.92994796415189
16731.3 74.17521721760541
16974.7 75.05288864686116
17221.6 75.05603476479735
17472.1 74.12638170849492
17726.2 72.01715308290177
17984.0 69.78001314716072
18245.6 68.82786214015533
18511.0 68.30910841521833
18780.2 67.95450892631702
19053.4 66.95351938052056
19330.5 65.60711481427626
19611.7 64.02906075979845
19897.0 63.68899153124141
