Freq "On Axis"
22.4 56.216455696202544
23.0 57.216455696202544
23.6 58.11645569620255
24.0 59.216455696202544
25.0 60.216455696202544
25.8 61.41645569620255
26.5 62.516455696202556
27.2 63.716455696202544
28.0 64.91645569620255
29.0 66.11645569620255
30.0 67.31645569620255
30.7 68.61645569620255
31.5 69.81645569620255
32.5 71.01645569620256
33.5 72.31645569620255
34.5 73.51645569620256
35.5 74.71645569620254
36.5 75.91645569620255
37.5 77.01645569620256
38.7 78.11645569620255
40.0 79.21645569620254
41.2 80.31645569620255
42.5 81.41645569620255
43.7 82.41645569620255
45.0 83.31645569620254
46.2 84.21645569620254
47.5 85.11645569620255
48.7 85.91645569620255
50.0 86.71645569620254
51.5 87.31645569620255
53.0 87.91645569620256
54.5 88.51645569620256
56.0 88.91645569620255
58.0 89.31645569620257
60.0 89.61645569620255
61.5 89.81645569620255
63.0 90.01645569620256
65.0 90.11645569620255
67.0 90.11645569620255
69.0 90.11645569620255
71.0 90.01645569620256
73.0 89.91645569620255
75.0 89.91645569620255
77.5 89.81645569620255
80.0 89.81645569620255
82.5 89.81645569620255
85.0 89.81645569620255
87.5 89.81645569620255
90.0 89.81645569620255
92.5 89.81645569620255
95.0 89.71645569620254
97.5 89.81645569620255
100.0 89.71645569620254
103.0 89.81645569620255
106.0 89.71645569620254
109.0 89.71645569620254
112.0 89.71645569620254
115.0 89.61645569620255
118.0 89.41645569620253
122.0 89.11645569620255
125.0 88.91645569620255
128.0 88.61645569620255
132.0 88.41645569620255
136.0 88.21645569620254
140.0 88.01645569620256
145.0 87.61645569620255
150.0 87.41645569620255
155.0 87.31645569620255
160.0 87.21645569620254
165.0 87.11645569620255
170.0 87.01645569620256
175.0 86.81645569620257
180.0 86.71645569620254
185.0 86.51645569620256
190.0 86.41645569620255
195.0 86.41645569620255
200.0 86.51645569620256
206.0 86.61645569620255
212.0 86.51645569620256
218.0 86.21645569620254
224.0 85.91645569620255
230.0 85.61645569620255
236.0 85.41645569620256
240.0 85.41645569620256
250.0 85.41645569620256
258.0 85.11645569620255
265.0 84.81645569620255
272.0 85.01645569620256
280.0 85.51645569620256
290.0 85.71645569620254
300.0 85.31645569620255
307.0 84.71645569620254
315.0 84.41645569620253
325.0 84.01645569620256
335.0 83.31645569620254
345.0 82.61645569620255
355.0 82.11645569620255
365.0 81.51645569620256
375.0 81.21645569620254
387.0 81.41645569620255
400.0 81.51645569620256
412.0 81.51645569620256
425.0 81.41645569620255
437.0 81.81645569620257
450.0 82.31645569620255
462.0 82.31645569620255
475.0 82.91645569620256
487.0 83.81645569620255
500.0 84.21645569620254
515.0 84.11645569620255
530.0 83.71645569620254
545.0 83.51645569620256
560.0 83.61645569620255
580.0 83.81645569620255
600.0 84.31645569620257
615.0 84.71645569620254
630.0 84.71645569620254
650.0 84.31645569620257
670.0 83.61645569620255
690.0 83.21645569620254
710.0 83.31645569620254
730.0 83.71645569620254
750.0 82.71645569620254
775.0 81.71645569620254
800.0 80.91645569620255
825.0 80.71645569620254
850.0 81.41645569620255
875.0 79.81645569620255
900.0 79.11645569620255
925.0 79.81645569620255
950.0 82.71645569620254
975.0 85.81645569620254
1000.0 86.21645569620254
1030.0 84.61645569620255
1060.0 84.31645569620257
1090.0 85.51645569620256
1120.0 86.01645569620256
1150.0 87.21645569620254
1180.0 88.21645569620254
1220.0 88.31645569620254
1250.0 88.41645569620255
1280.0 88.71645569620254
1320.0 88.71645569620254
1360.0 86.31645569620255
1400.0 84.11645569620255
1450.0 84.41645569620253
1500.0 85.41645569620256
1550.0 84.71645569620254
1600.0 85.51645569620256
1650.0 84.41645569620253
1700.0 80.11645569620255
1750.0 71.21645569620254
1800.0 79.81645569620255
1850.0 84.21645569620254
1900.0 82.21645569620254
1950.0 84.01645569620256
2000.0 86.91645569620253
2060.0 87.11645569620255
2120.0 86.41645569620255
2180.0 80.31645569620255
2240.0 77.81645569620255
2300.0 84.21645569620254
2360.0 84.31645569620257
2400.0 85.41645569620256
2500.0 85.11645569620255
2580.0 85.31645569620255
2650.0 83.81645569620255
2720.0 87.01645569620256
2800.0 88.51645569620256
2900.0 87.71645569620254
3000.0 85.51645569620256
3070.0 85.11645569620255
3150.0 84.11645569620255
3250.0 82.21645569620254
3350.0 85.81645569620254
3450.0 85.51645569620256
3550.0 82.51645569620256
3650.0 83.81645569620255
3750.0 85.61645569620255
3870.0 87.41645569620255
4000.0 87.01645569620256
4120.0 85.21645569620254
4250.0 85.51645569620256
4370.0 87.01645569620256
4500.0 85.31645569620255
4620.0 84.21645569620254
4750.0 87.41645569620255
4870.0 87.61645569620255
5000.0 84.71645569620254
5150.0 87.51645569620256
5300.0 88.91645569620255
5450.0 72.51645569620256
5600.0 87.71645569620254
5800.0 88.01645569620256
6000.0 83.81645569620255
6150.0 84.91645569620255
6300.0 84.51645569620256
6500.0 81.11645569620255
6700.0 91.51645569620256
6900.0 90.31645569620255
7100.0 55.61645569620255
7300.0 87.71645569620254
7500.0 87.21645569620254
7750.0 83.31645569620254
8000.0 86.11645569620255
8250.0 90.51645569620256
8500.0 87.01645569620256
8750.0 79.81645569620255
9000.0 78.41645569620255
9250.0 87.31645569620255
9500.0 86.51645569620256
9750.0 80.01645569620256
10000.0 80.91645569620255
10300.0 87.01645569620256
10600.0 90.01645569620256
10900.0 88.81645569620255
11200.0 91.51645569620256
11500.0 87.51645569620256
11800.0 84.51645569620256
12200.0 82.21645569620254
12500.0 80.91645569620255
12800.0 84.51645569620256
13200.0 72.31645569620255
13600.0 89.51645569620256
14000.0 86.31645569620255
14500.0 84.01645569620256
15000.0 91.31645569620255
15500.0 84.11645569620255
16000.0 88.11645569620255
16500.0 88.01645569620256
17000.0 85.21645569620254
17500.0 87.61645569620255
18000.0 83.31645569620254
18500.0 79.51645569620256
19000.0 70.31645569620255
19500.0 64.51645569620256
