Freq "Side Wall Bounce"
20.5078 63.22161369785721
21.9727 66.57607783033936
23.4375 68.46753898853454
24.9023 72.05483587754689
26.3672 75.36570576831005
27.832 78.29948561494489
29.2969 80.94407380746354
30.7617 82.88046000333969
32.2266 84.07372601975135
33.6914 84.55865711877057
35.1562 84.7874576823698
36.6211 84.79832401458532
38.0859 84.77721354049383
39.5508 84.86953504736854
41.0156 84.93070794804191
42.4805 84.77146694535541
43.9453 84.93192019409832
45.4102 85.09099999394952
46.875 85.32750575752472
48.3398 85.53289294277495
51.2695 85.94849331805354
52.7344 86.19902196926043
54.1992 86.40571885631662
55.6641 86.42601271104235
58.5938 87.13453520392187
60.0586 87.44392050564763
62.9883 87.8038153046308
64.4531 87.97928962302782
67.3828 88.32621238040912
68.8477 88.56204271194406
71.7773 88.82022970300619
74.707 89.06167360420218
77.6367 89.19774115355351
79.1016 89.25447124611526
82.0312 89.38023561991054
84.9609 89.54153341995146
87.8906 89.4215417293312
90.8203 89.51608133085941
95.2148 89.47326406398322
98.1445 89.32964790457129
101.074 89.08494559370494
105.469 89.42854473134548
108.398 89.53302598690236
112.793 89.30046428427032
117.188 89.17441570514711
120.117 89.07930618698055
124.512 89.17259603430686
128.906 89.08298106871567
133.301 89.04319188280664
139.16 88.77325320700479
143.555 88.46618432296646
147.949 88.31829491312595
153.809 88.04194471657289
159.668 87.91530038352428
165.527 87.6534698242866
171.387 87.78909383604277
177.246 87.39736539847517
183.105 87.0470606910579
188.965 87.0484245960811
196.289 87.27790128393924
203.613 87.0384910084008
210.938 86.75902497519388
218.262 86.3506616657326
225.586 86.60024706896618
232.91 86.02970189109504
241.699 85.84525137959906
250.488 85.1744398763533
259.277 85.7522551471239
268.066 84.95868761753758
276.855 84.61467644917931
287.109 84.22542211615382
297.363 84.21866921746526
307.617 83.78814034074195
319.336 82.85504384349153
329.59 82.80534973847995
341.309 82.88471595210942
353.027 82.61332142504017
366.211 81.5363090587904
379.395 81.39803004324747
392.578 80.65597137857631
405.762 81.12269826436741
420.41 82.04306577183635
435.059 81.56157296423088
451.172 80.42222212875954
465.82 80.48826673990669
483.398 81.60894227270397
499.512 81.10316061146524
517.09 80.73664156024685
536.133 80.86323403812469
555.176 83.13890300527297
574.219 83.2461328092514
594.727 81.29247695275214
615.234 83.0158968528209
637.207 83.02366346889173
659.18 83.8241053551163
682.617 83.01729379819943
707.52 84.63253185184124
732.422 84.88018895009412
757.324 84.79236212823385
785.156 85.74346587954649
811.523 85.78215671190895
840.82 85.58116094443366
870.117 86.2155016957051
900.879 85.3281470925227
933.105 87.09882649946374
965.332 86.13820957238282
1000.49 86.7429441176277
1035.64 86.10217245069424
1072.27 86.01533862317545
1108.89 86.14434529714188
1148.44 85.99510844239839
1189.45 85.95194263289972
1230.47 86.01555363267927
1274.41 85.93651753853302
1319.82 85.3294692491022
1366.7 86.27927648816714
1413.57 86.37462025794973
1463.38 86.23095179048987
1516.11 87.05412576478736
1568.85 87.25803017714416
1624.51 87.00206095491504
1681.64 87.0927051071475
1741.7 86.79921396627543
1803.22 86.01951968237367
1866.21 85.49436015592917
1932.13 85.8821044052324
1999.51 87.024614408004
2069.82 86.86611865968116
2143.07 87.29458926707811
2219.24 86.39591281253676
2296.88 86.63520361516112
2378.91 86.37462661555361
2462.4 85.63996632308945
2548.83 84.54386307793408
2639.65 84.70728078791005
2731.93 84.31534543972468
2828.61 84.38013871057669
2928.22 84.49225204016122
3030.76 84.50388282800482
3137.7 84.00765780791525
3249.02 84.11330042907369
3363.28 84.02203201071373
3481.93 84.17686975015035
3604.98 84.11698341116951
3732.42 83.77187583277266
3864.26 83.98405714250555
4000.49 83.71219230942711
4141.11 83.33821816792985
4287.6 83.35615131763966
4438.48 83.13292105825022
4595.21 82.26667440643836
4756.35 81.8809535426944
4924.8 80.72494027073344
5097.66 79.93797930681124
5277.83 79.8067517087041
5463.87 79.83141379926559
5657.23 80.31437817642198
5856.45 80.5298551176262
6062.99 80.54964124670823
6276.86 81.2444151429294
6498.05 81.63228438051743
6726.56 81.91649198641946
6963.87 82.33180833137958
7209.96 82.47162413740435
7464.84 82.07194677123191
7727.05 81.59036835998945
7999.51 81.33736818830471
8282.23 80.42937077999667
8573.73 80.38315225999793
8876.95 79.87845401542879
9188.96 78.90592462832493
9514.16 78.64807921502847
9849.61 79.42631853287244
10196.8 79.35241346594233
10555.7 79.33569493232358
10927.7 79.40858596987103
11313.0 78.94814279708697
11712.9 78.87969834002791
12126.0 78.59055137992219
12553.7 78.23630873621234
12996.1 77.17078592200919
13454.6 77.1157946875552
13929.2 77.90841221048169
14419.9 77.71963544295848
14928.2 77.4086032067394
15455.6 76.990555456562
16000.5 76.58829803056813
16564.5 75.86112354737607
17148.9 75.84460747865376
17752.4 75.79607565250218
18379.4 75.71673555743726
19026.9 75.31370929631379
19697.8 74.59463741768933
19999.5 74.17445545627538
