Freq "Estimated In-Room Response"
22.4 9.12656893079469
23.0 10.458736876533237
23.6 11.88472785668256
24.0 13.855444444411972
25.0 15.643471308304584
25.8 17.191305996757677
26.5 18.62299479040945
27.2 20.309903101893696
28.0 21.68357357113777
29.0 22.744296475153305
30.0 24.14224249124831
30.7 27.15717271863187
31.5 30.039717078477082
32.5 32.89109155038577
33.5 34.39589985698535
34.5 35.665272576300396
35.5 36.58171459553071
36.5 37.241000262611436
37.5 38.25803896702399
38.7 39.67492532183118
40.0 42.176289307325334
41.2 44.53499720846264
42.5 46.544098933811284
43.7 48.10184238884321
45.0 49.429816076284226
46.2 50.339732883910585
47.5 51.3781513134432
48.7 53.16493666546839
50.0 54.79218542168792
51.5 55.88078073689951
53.0 57.09527113733262
54.5 58.4604658302583
56.0 59.893175938855194
58.0 61.52241318630969
60.0 63.012693497459026
61.5 64.44841139981446
63.0 65.8395185637842
65.0 67.17817474185465
67.0 68.58850667928927
69.0 69.93537904316186
71.0 71.26301935305062
73.0 72.64762287280527
75.0 73.94498929358404
77.5 75.12789629636706
80.0 76.21967085601595
82.5 77.3597276165978
85.0 78.40987140579517
87.5 79.28168510044006
90.0 80.08139885889915
92.5 80.86620602528345
95.0 81.62522273648648
97.5 82.27724795893099
100.0 82.82626432517971
103.0 83.29674867499058
106.0 83.65798888308655
109.0 83.92201608009756
112.0 84.0989817813937
115.0 84.20860821364752
118.0 84.23407667554129
122.0 84.15846765555492
125.0 84.00778264261264
128.0 83.7798992958418
132.0 83.47863769823559
136.0 83.1592187131157
140.0 82.76441005577986
145.0 82.572799563627
150.0 82.31381008101158
155.0 81.97812731144312
160.0 81.72619247513663
165.0 81.55348457371036
170.0 81.32431915072324
175.0 81.13904531260415
180.0 81.04016016802589
185.0 81.03471307830061
190.0 81.05737089860845
195.0 81.14977187248797
200.0 81.1131180557501
206.0 81.04252482559974
212.0 80.93927707126603
218.0 80.7753297858396
224.0 80.6936762354012
230.0 80.50991713897699
236.0 80.23768493199341
240.0 79.91319704930129
250.0 79.70629595481628
258.0 79.61487062666183
265.0 79.6287056192817
272.0 79.67876192438361
280.0 79.81663015022195
290.0 79.96451316288797
300.0 80.03226180360792
307.0 79.97290220059676
315.0 79.83020579306154
325.0 79.71376763143597
335.0 79.62796521642835
345.0 79.59087117740273
355.0 79.61484770888833
365.0 79.78863048269429
375.0 79.90576950271523
387.0 79.84340248280952
400.0 79.74441585973415
412.0 79.72312679731948
425.0 79.72078215775787
437.0 79.80326010211057
450.0 79.8261543319636
462.0 79.79708792079578
475.0 79.91615878283253
487.0 80.1522573858437
500.0 80.29980345859316
515.0 80.25115469626195
530.0 79.79527376557104
545.0 79.15932586479384
560.0 78.44679856930212
580.0 78.00042262663521
600.0 77.96951622356349
615.0 77.8138255977841
630.0 78.20483112501373
650.0 78.7753172415874
670.0 79.091379873687
690.0 79.06153772724127
710.0 79.25479784938311
730.0 79.35749252372864
750.0 79.12116360540757
775.0 78.6362696337591
800.0 78.77308792224395
825.0 78.63600127198255
850.0 77.8672276363076
875.0 77.88650922028825
900.0 78.30773491621244
925.0 78.12932527148988
950.0 77.63150328526017
975.0 77.64373234405608
1000.0 77.53431515562859
1030.0 77.64422161091699
1060.0 77.79257198571767
1090.0 77.32848121846678
1120.0 77.42590300866095
1150.0 77.34234169496742
1180.0 77.24564356418202
1220.0 77.43883678712675
1250.0 77.75208000951523
1280.0 78.24433588573983
1320.0 77.92796178570299
1360.0 77.27297768559072
1400.0 76.42138901109135
1450.0 76.53169746085314
1500.0 76.03414585281814
1550.0 76.7768721484122
1600.0 77.10621664145704
1650.0 77.70910365084703
1700.0 78.16710588250015
1750.0 77.80899744092204
1800.0 77.45527854875795
1850.0 77.08194376208895
1900.0 77.49495300910701
1950.0 78.63492935449304
2000.0 79.82069111494617
2060.0 79.98640966177852
2120.0 80.72400400611016
2180.0 81.64124653908019
2240.0 82.10346729655717
2300.0 81.32561985598099
2360.0 80.43692233856166
2400.0 79.19993034605704
2500.0 78.95513027413726
2580.0 79.31033778292316
2650.0 79.68615994942348
2720.0 79.82662117198045
2800.0 79.60699425331775
2900.0 79.52341409587545
3000.0 79.05169708626639
3070.0 78.48823007137442
3150.0 78.76131377730076
3250.0 79.29926801541563
3350.0 80.27382473026762
3450.0 80.72347370137243
3550.0 81.18854646314293
3650.0 80.50983830737738
3750.0 79.37805941900069
3870.0 78.25332229655541
4000.0 77.00779498428396
4120.0 77.3165050925918
4250.0 78.61551877186562
4370.0 79.5435467555649
4500.0 78.9684690996829
4620.0 77.86160328529364
4750.0 78.0341905791862
4870.0 77.8376701370786
5000.0 77.73111901538385
5150.0 78.07378254080709
5300.0 77.58479332453203
5450.0 76.7899164613876
5600.0 76.84872094851949
5800.0 77.8254299557014
6000.0 78.47310058656795
6150.0 78.86808408163978
6300.0 79.54381407344681
6500.0 78.1520966352285
6700.0 76.55371830242123
6900.0 78.37910513566378
7100.0 80.40191628151445
7300.0 80.67088687663635
7500.0 80.08370037630601
7750.0 78.51737215373754
8000.0 77.68117172090491
8250.0 79.94002158272622
8500.0 81.89935049605413
8750.0 81.17881933057113
9000.0 79.61719397984626
9250.0 78.4159400225697
9500.0 78.02091695550862
9750.0 78.09947714221126
10000.0 78.08866529832508
10300.0 77.45324172027264
10600.0 77.79157781659043
10900.0 77.63396862202296
11200.0 77.80524506219419
11500.0 79.79861162737654
11800.0 81.54837759291794
12200.0 78.94472793818757
12500.0 76.86155549343938
12800.0 79.63540395795341
13200.0 81.49077849292917
13600.0 77.9148926158503
14000.0 73.4631010512235
14500.0 74.6055165332121
15000.0 76.30967862384813
15500.0 77.01321639592697
16000.0 74.21377280593268
16500.0 75.55057623543449
17000.0 73.45216398516263
17500.0 71.03911033006911
18000.0 73.68187952908971
18500.0 66.72922851526585
19000.0 70.42422458391877
19500.0 71.39583285510952
