Freq "Estimated In-Room Response"
22.4 44.827904656201625
23.0 45.53134914060054
23.6 46.264557500125264
24.0 46.99100313986695
25.0 47.48752035751055
25.8 47.735315700088236
26.5 47.917070531834625
27.2 48.08799526166668
28.0 48.50750256256545
29.0 49.03711313692254
30.0 49.49255144037248
30.7 50.049713653606645
31.5 50.773530305052944
32.5 51.61674843562683
33.5 52.493129334650106
34.5 53.40276823909359
35.5 54.3674126980692
36.5 55.382514693572816
37.5 56.43511444886717
38.7 57.535704259895525
40.0 58.76020880899496
41.2 60.09937186593446
42.5 61.24069669371697
43.7 62.489284346468835
45.0 63.628163904845096
46.2 64.73272186193758
47.5 65.9501489417135
48.7 67.1094394850227
50.0 68.18023314897482
51.5 69.12066406996256
53.0 69.99977979590248
54.5 70.85487551425085
56.0 71.69281970062329
58.0 72.65918283256288
60.0 73.63365410322687
61.5 74.5369230707838
63.0 75.46723630329215
65.0 76.60883139388459
67.0 77.71012140391794
69.0 78.77590645240561
71.0 79.79347055135845
73.0 80.57371150693133
75.0 81.21434406273518
77.5 82.14024782330573
80.0 83.01098417028976
82.5 83.6774763314194
85.0 84.02811119736796
87.5 84.16371899018215
90.0 84.6431163837086
92.5 85.32153727343918
95.0 86.0220175126254
97.5 86.60317249863093
100.0 87.29542554696305
103.0 87.85183176029152
106.0 88.21732832207586
109.0 88.4122634442647
112.0 88.62310656253977
115.0 88.72769718194964
118.0 88.75350269061423
122.0 88.80108640085932
125.0 88.85914751167728
128.0 88.76711689917862
132.0 88.65147006211218
136.0 88.46878324574335
140.0 88.23447098661784
145.0 88.01602993471576
150.0 87.87267586505044
155.0 87.79722664139763
160.0 87.59068229387708
165.0 87.40195021263597
170.0 87.3794534344356
175.0 87.29986707579987
180.0 87.32931822362478
185.0 87.35244093443264
190.0 87.38761115863744
195.0 87.34728671248739
200.0 87.33274710547198
206.0 87.21654535555481
212.0 86.9793945316986
218.0 86.6991922678549
224.0 86.4943344823461
230.0 86.28987551511473
236.0 86.13514040835211
240.0 85.99805713827602
250.0 85.86486270830201
258.0 85.75028803277598
265.0 85.65216070380933
272.0 85.57580736686356
280.0 85.44018765055958
290.0 85.2337216826938
300.0 85.02163059383241
307.0 84.86958751375396
315.0 84.77736051129264
325.0 84.74553035450589
335.0 84.65492969672029
345.0 84.3656417499794
355.0 83.98719657701099
365.0 83.73598507075091
375.0 83.63568001554995
387.0 83.35918210499813
400.0 82.95120850619446
412.0 82.58176258638669
425.0 82.44213761264776
437.0 82.49562216167193
450.0 82.52115073927064
462.0 82.66437138096161
475.0 82.84231967602972
487.0 83.11494167737989
500.0 83.52106994209805
515.0 83.84297346739224
530.0 84.01978515394735
545.0 84.0887849388961
560.0 84.06027986504434
580.0 83.80048185589929
600.0 83.39830268556024
615.0 83.14950751752754
630.0 83.12614373106327
650.0 83.31191330405197
670.0 83.58805615174604
690.0 83.79260528368116
710.0 83.75541554780617
730.0 83.42455183100019
750.0 82.90319394015818
775.0 82.34351283324516
800.0 81.94537596928886
825.0 81.84945136009911
850.0 82.09575125066992
875.0 82.31415406652852
900.0 82.47358053425947
925.0 82.50408151847118
950.0 82.43355988478143
975.0 82.52145202507445
1000.0 82.95675862174889
1030.0 83.42333712169938
1060.0 83.73027084481701
1090.0 83.7936257976852
1120.0 83.54669539137593
1150.0 83.07005650224819
1180.0 82.47638090670081
1220.0 82.03275322073306
1250.0 81.75004589942924
1280.0 81.6518910553361
1320.0 81.80598534201299
1360.0 82.24840044206239
1400.0 82.72111121307276
1450.0 83.03545453060019
1500.0 83.01014912533346
1550.0 82.5977507156656
1600.0 81.8593815785875
1650.0 81.0429408255023
1700.0 80.6693224639274
1750.0 80.87979849146738
1800.0 81.64147314512462
1850.0 82.49510423308016
1900.0 82.83559557411637
1950.0 82.52500488591592
2000.0 81.79487384435453
2060.0 81.42587249313357
2120.0 81.66464512321517
2180.0 82.23791883458831
2240.0 82.54831357778933
2300.0 82.33558943768159
2360.0 81.66987411648383
2400.0 81.01395087367983
2500.0 81.01452097148405
2580.0 81.47906378498641
2650.0 81.8008959110014
2720.0 81.77385083541203
2800.0 81.51971949016291
2900.0 81.57565450459218
3000.0 81.74451514709318
3070.0 81.32679669168026
3150.0 80.63290944325051
3250.0 80.48160444480553
3350.0 80.44497377645351
3450.0 80.36948274444478
3550.0 80.47653560016536
3650.0 80.5687610796195
3750.0 80.50224754833575
3870.0 81.05860956787339
4000.0 81.20393014310444
4120.0 81.07986769308702
4250.0 80.69851293439685
4370.0 80.34423725903885
4500.0 79.97616580063222
4620.0 79.46883071103223
4750.0 79.17184349983405
4870.0 79.08431672854068
5000.0 78.86465844589367
5150.0 78.86269375629631
5300.0 78.87998254603971
5450.0 78.85922078645393
5600.0 79.03750854169486
5800.0 79.06082829181457
6000.0 78.79807866654453
6150.0 78.44856717719027
6300.0 78.0257180788618
6500.0 77.64127730135671
6700.0 77.92659053783008
6900.0 77.86013461420126
7100.0 77.32718447198911
7300.0 76.7835297212619
7500.0 76.57717580233408
7750.0 76.29902851579382
8000.0 76.38570810399771
8250.0 76.20166128614129
8500.0 75.8119964782003
8750.0 75.55576556831643
9000.0 75.5592529411031
9250.0 75.54190463528381
9500.0 75.33081668488931
9750.0 74.85681016638695
10000.0 74.41698114715562
10300.0 72.21063256545429
10600.0 71.12720482374557
10900.0 71.58231534663618
11200.0 72.59034973506019
11500.0 73.70803672362584
11800.0 73.94398094414653
12200.0 73.71833319133064
12500.0 73.04995549026764
12800.0 73.17516197344541
13200.0 73.1085505380256
13600.0 72.60488314126998
14000.0 72.10306113404884
14500.0 70.46302857570502
15000.0 68.92427001539924
15500.0 69.00274444353782
16000.0 68.37281691366158
16500.0 67.94188698114898
17000.0 66.96665958835187
17500.0 66.25690870899547
18000.0 64.91232975672058
18500.0 63.81351302171238
19000.0 62.27564601775772
19500.0 59.544424903920415
