Freq,Floor Bounce,Ceiling Bounce,Front Wall Bounce,Side Wall Bounce,Rear Wall Bounce,Total Early Reflection
20.0,72.155,72.155,72.155,72.155,72.155,72.155
20.2909,72.446,72.446,72.446,72.446,72.446,72.446
20.586,72.75,72.75,72.75,72.75,72.75,72.75
20.8855,73.056,73.056,73.056,73.056,73.056,73.056
21.1893,73.358,73.358,73.358,73.358,73.358,73.358
21.4975,73.65500000000002,73.65500000000002,73.65500000000002,73.65500000000002,73.65500000000002,73.65500000000002
21.8102,73.953,73.953,73.953,73.953,73.953,73.953
22.1274,74.248,74.248,74.248,74.248,74.248,74.248
22.4492,74.54,74.54,74.54,74.54,74.54,74.54
22.7758,74.825,74.825,74.825,74.825,74.825,74.825
23.1071,75.105,75.105,75.105,75.105,75.105,75.105
23.4432,75.383,75.383,75.383,75.383,75.383,75.383
23.7841,75.659,75.659,75.659,75.659,75.659,75.659
24.1301,75.933,75.933,75.933,75.933,75.933,75.933
24.4811,76.203,76.203,76.203,76.203,76.203,76.203
24.8372,76.471,76.471,76.471,76.471,76.471,76.471
25.1984,76.748,76.748,76.748,76.748,76.748,76.748
25.5649,77.031,77.031,77.031,77.031,77.031,77.031
25.9368,77.316,77.316,77.316,77.316,77.316,77.316
26.3141,77.60200000000002,77.60200000000002,77.60200000000002,77.60200000000002,77.60200000000002,77.60200000000002
26.6968,77.895,77.895,77.895,77.895,77.895,77.895
27.0851,78.198,78.198,78.198,78.198,78.198,78.198
27.4791,78.503,78.503,78.503,78.503,78.503,78.503
27.8788,78.79799999999999,78.79799999999999,78.79799999999999,78.79799999999999,78.79799999999999,78.79799999999999
28.2843,79.074,79.074,79.074,79.074,79.074,79.074
28.6957,79.345,79.345,79.345,79.345,79.345,79.345
29.1131,79.61800000000001,79.61800000000001,79.61800000000001,79.61800000000001,79.61800000000001,79.61800000000001
29.5365,79.897,79.897,79.897,79.897,79.897,79.897
29.9661,80.169,80.169,80.169,80.169,80.169,80.169
30.402,80.449,80.449,80.449,80.449,80.449,80.449
30.8442,80.741,80.741,80.741,80.741,80.741,80.741
31.2929,81.034,81.034,81.034,81.034,81.034,81.034
31.748,81.32799999999999,81.32799999999999,81.32799999999999,81.32799999999999,81.32799999999999,81.32799999999999
32.2098,81.622,81.622,81.622,81.622,81.622,81.622
32.6783,81.912,81.912,81.912,81.912,81.912,81.912
33.1536,82.193,82.193,82.193,82.193,82.193,82.193
33.6359,82.467,82.467,82.467,82.467,82.467,82.467
34.1251,82.731,82.731,82.731,82.731,82.731,82.731
34.6215,82.981,82.981,82.981,82.981,82.981,82.981
35.125,83.223,83.223,83.223,83.223,83.223,83.223
35.6359,83.47100000000002,83.47100000000002,83.47100000000002,83.47100000000002,83.47100000000002,83.47100000000002
36.1543,83.73,83.73,83.73,83.73,83.73,83.73
36.6802,83.998,83.998,83.998,83.998,83.998,83.998
37.2137,84.279,84.279,84.279,84.279,84.279,84.279
37.755,84.573,84.573,84.573,84.573,84.573,84.573
38.3041,84.872,84.872,84.872,84.872,84.872,84.872
38.8613,85.174,85.174,85.174,85.174,85.174,85.174
39.4265,85.475,85.475,85.475,85.475,85.475,85.475
40.0,85.781,85.781,85.781,85.781,85.781,85.781
40.5818,86.08799999999998,86.08799999999998,86.08799999999998,86.08799999999998,86.08799999999998,86.08799999999998
41.1721,86.389,86.3866666922503,86.38799999999999,86.3876000276306,86.38631581434997,86.38751661288988
41.771,86.68133335891825,86.67533335891827,86.67899999999999,86.6774000736789,86.67521054545169,86.677656083833
42.3785,86.96300007675283,86.95233335891827,86.958,86.95600023025851,86.95163165421549,86.95619502938588
42.9949,87.24166684575006,87.22566684575007,87.23471430920928,87.23120052497752,87.22457908451602,87.23157002886856
43.6203,87.52400030701133,87.50100030701134,87.51371430920928,87.50860094857977,87.49910560126189,87.5092937124128
44.2548,87.81200069077549,87.78100069077551,87.79857145676606,87.79180181435969,87.77810601343297,87.79231356645747
44.8985,88.1080012280453,88.0680012280453,88.09057145676604,88.08140283658976,88.06363285436434,88.08235146993847
45.5515,88.40600191882069,88.35500191882069,88.38400006578814,88.3726044941973,88.35021250937784,88.37361145641735
46.2141,88.68733612180785,88.62500276310166,88.66057145676602,88.64660675051319,88.61842423303833,88.64765992733952
46.8863,88.90633711951777,88.83133765724098,88.87414296992006,88.85721037882983,88.823110160508,88.85853193604545
47.5683,89.04933827072136,88.96033888533277,89.01114296992006,88.99101445780695,88.95027033488,88.99256844904626
48.2602,89.1533410336094,89.04934180205017,89.10857158834015,89.08561959593764,89.03706329814203,89.08698985697376
48.9621,89.31234264529367,89.19301105240142,89.2608573543096,89.23462557985681,89.17822491907667,89.23608052910878
49.6743,89.52534632914232,89.38868173694779,89.46685735430961,89.436234501484,89.37112497506747,89.43800337049326
50.3968,89.78301619297774,89.62868634246222,89.71742896143803,89.68264357734309,89.60834249609535,89.68447799425165
51.1299,90.06835300611401,89.8950248678834,89.99442896143803,89.95605492153089,89.87135054448355,89.95761858187066
51.8736,90.36969163307477,90.17636559628676,90.28771480259981,90.24467022673073,90.149098175681,90.246229642795
52.6281,90.67002923942361,90.45537219725696,90.57900062494947,90.53128457731565,90.42484728779249,90.53299773382298
53.3936,90.96203553240814,90.7257146663223,90.86228649430367,90.8095041019015,90.69091623226747,90.81117904493973
54.1702,91.24704243933714,90.98805810838319,91.1377151314864,91.07992369202697,90.94867092384958,91.0815960580296
54.9581,91.52638339205643,91.2440690772781,91.40800101963286,91.34494959505568,91.20027018543476,91.34630426210231
55.7575,91.80339152624528,91.49675028210197,91.67457280529845,91.60617916011356,91.44787636834887,91.60761481613922
56.5685,92.07806929164695,91.74576617099105,91.93928741517094,91.8648060447488,91.69180173651993,91.86614243381541
57.3914,92.35207880672611,91.99378344148968,92.20314464734118,92.12264643672559,91.9340443464238,92.12370915386556
58.2261,92.62408893566992,92.23847197875386,92.46385929479018,92.37728425023312,92.17298013199967,92.37832524379917
59.073,92.88876920599441,92.4754922419332,92.71771654575919,92.62472630812539,92.40355299744941,92.62550476403042
59.9323,93.14278071568363,92.70118428160539,92.96043123078343,92.8605766598237,92.62265692033934,92.86148917588723
60.804,93.3974627236672,92.92654489527668,93.20300322314884,93.09723490678059,92.84092423963376,93.09756333630204
61.6884,93.64048228931829,93.13957835991796,93.43428928986518,93.3214911334005,93.04688903456754,93.32169469450051
62.5857,93.87116641804802,93.33894301927243,93.65257527188453,93.53295495755971,93.23890995824782,93.53274665963154
63.496,94.1011809957587,93.53798109030642,93.87114737698862,93.74382772932215,93.4299377109152,93.74339007801977
64.4196,94.33953331325988,93.74369348957991,94.09657619269085,93.96170699876001,93.6273520353523,93.96116566634328
65.3566,94.57855369764025,93.95073677793803,94.32314836355052,94.18098556513021,93.8254569840546,94.18003184581387
66.3073,94.79857901470518,94.13678252213876,94.53014836355052,94.38028090406931,94.00278226150154,94.3789273413944
67.2717,94.97059665988866,94.27484315585902,94.68972059077453,94.53177149060906,94.1316455201814,94.52995005432426
68.2502,95.08462427836476,94.3542343812437,94.79029287436104,94.62408259726337,94.20120836104327,94.6222230547926
69.2429,95.15531515030158,94.38929525111286,94.84700785988422,94.67298931037404,94.22609948152514,94.67066632734267
70.2501,95.22700699201467,94.42569266672974,94.90586521430815,94.72351237219152,94.25210247375205,94.72061412160095
71.2719,95.36369980338563,94.52644183156018,95.02915267125535,94.8382407313485,94.34187102278885,94.83500262071992
72.3086,95.56339358429577,94.68884615880575,95.21486777880929,95.01538744533998,94.49332815668554,95.01173505645279
73.3603,95.76742718109975,94.85560375787001,95.40544030658269,95.19673266104543,94.64865020314203,95.19287277406596
74.4274,95.94112308055679,94.99203272477223,95.56558408487192,95.34789175560229,94.77277681397099,95.34360296420799
75.5099,96.08248624365949,95.09479960025539,95.69229928631265,95.46585468631896,94.8630366885887,95.46115411101316
76.6083,96.20018405817886,95.17389475718738,95.79629928631265,95.56042415926564,94.9299417730516,95.55542116882359
77.7226,96.29755621118812,95.23267049477573,95.87987195497178,95.63481417266767,94.97534254020097,95.62924214192084
78.8531,96.37325616664496,95.2687948048016,95.94144467997864,95.68662229013431,94.99781239795875,95.68082183684879
80.0,96.42595709084007,95.28192463781842,95.98001746133137,95.71562332854039,94.99709809131183,95.7094898076008
81.1636,96.45165898365208,95.26739327114612,95.99101936830466,95.71724239618483,94.96830651973838,95.71073869583451
82.3442,96.43136184495926,95.20653413858103,95.95659227172624,95.6730703806342,94.8930667775131,95.66610048007787
83.5419,96.38773183425603,95.12268052780907,95.89887862912686,95.6051222486999,94.79332300347103,95.59800122603768
84.757,96.35743660949346,95.05116573358107,95.85445161704618,95.55098326235637,94.70686276741246,95.54322207404805
85.9899,96.35914235293193,95.01166987362653,95.84145378683445,95.52765558633078,94.65112949856184,95.5199652148668
87.2406,96.39484906444844,95.0055137872772,95.8630268968047,95.53872960361267,94.62884156388314,95.53079578490761
88.5096,96.45855674391969,95.02836417836134,95.91331335743543,95.57881851677521,94.63478459145108,95.57029259073487
89.797,96.54659001922171,95.07422104572275,95.98660006310787,95.64172497577927,94.6632471267479,95.63309629456542
91.1031,96.63029943176275,95.11643312907998,96.05688898444372,95.70126869659505,94.68783262595925,95.69234376272261
92.4282,96.68733408550959,95.13133534401737,96.09946230093426,95.73358774030889,94.68451652749617,95.72437127117438
93.7726,96.7120452308233,95.11356297738674,96.11046230093427,95.73373194612108,94.64838109680946,95.72422922619357
95.1366,96.71741523015334,95.07679812069178,96.10203567375075,95.71410036355184,94.59255013059028,95.70474662508735
96.5204,96.71510965625943,95.03237405236534,96.08603836918917,95.68768808051018,94.52870452004503,95.67784271420233
97.9243,96.70382314085207,94.97862419449731,96.06146950077634,95.65127989939276,94.454995045557,95.64175283882057
99.3486,96.6781950676551,94.9105671734109,96.02218541518262,95.60169775913396,94.36674732050727,95.59155396113752
100.794,96.6422335434115,94.83251876069991,95.97275902265734,95.5411109274253,94.26727395403547,95.53095885135846
102.26,96.59027263215307,94.73847895452636,95.90776204665504,95.46456310204712,94.15201965834349,95.45460739645299
103.747,96.52896939662261,94.63480155991259,95.83333577613315,95.37881825448261,94.02641076546713,95.36883090771957
105.256,96.4760006693995,94.53977953374921,95.76762248032566,95.30189356667448,93.90906308346423,95.2917227772519
106.787,96.44136399138921,94.46312111361252,95.7201962942532,95.24256250778943,93.8096533325171,95.23284568809628
108.34,96.42306182160027,94.40311686073427,95.68905730243173,95.20048288570072,93.72607386416719,95.19056684579543
109.916,96.40243755215607,94.34081065482316,95.65577351679183,95.15580579670845,93.63955272443712,95.14597603811623
111.515,96.36811514764398,94.26487106697924,95.60934750900964,95.0975512358827,93.53938766506445,95.08796613512528
113.137,96.31515744302754,94.17089431805168,95.54420881771681,95.02090006275901,93.42017267363141,95.01150356356355
114.783,96.24451308800532,94.058975503659,95.46163789368643,94.92687332275302,93.28290389569672,94.91749306062653
116.452,96.18419098591559,93.95840099819223,95.3902120360054,94.84326173300543,93.15598430791462,94.8342934044381
118.146,96.15321259068614,93.88681160793375,95.34749934312462,94.78869406721083,93.05746562185466,94.7801597846202
119.865,96.16256868882493,93.85592522755134,95.34579004659734,94.77570805911726,92.99981125468521,94.76700688424864
121.608,96.18324681328787,93.83704987005216,95.355647852992,94.77316918498373,92.95280801570287,94.76519123383852
123.377,96.20692498800764,93.82151880035863,95.36822219236633,94.77379916894493,92.9084613754714,94.766467204069
125.171,96.21560321298016,93.79066546829425,95.36651317718464,94.76010235733831,92.84893551865557,94.75308026455589
126.992,96.18028148820125,93.71718574952855,95.32080434002152,94.70219516894075,92.74532789788135,94.69597319296518
128.839,96.11261597876678,93.61135509450271,95.24280434002152,94.6125008582211,92.60912463297048,94.60672415724504
130.713,96.04829432900749,93.50956588659126,95.16880861156083,94.52663826193402,92.47609102381573,94.52127001306921
132.615,96.03295052059133,93.45812248267607,95.14467035782236,94.49021666544033,92.3926370157163,94.48549255671638
134.543,96.06860676412062,93.45702467051112,95.17067035782237,94.50418238040882,92.3590396037379,94.50025703627858
136.5,96.11427605453248,93.46657320407787,95.20753272695312,94.52876058949201,92.33584124960588,94.5256097043673
138.486,96.14859770564517,93.46549934996362,95.23253679737614,94.54238531719209,92.30083838836033,94.53974163813308
140.5,96.16225407953429,93.44410453297584,95.23725376088693,94.5348238999046,92.24481139780185,94.53331252221689
142.544,96.17191050535568,93.42042334052768,95.23925849141368,94.5244471071119,92.1854206860743,94.52387283617945
144.617,96.19054531594061,93.40601835283952,95.24983347776754,94.52272298036566,92.13443350379897,94.52333563034107
146.721,96.15918048625196,93.34199370930055,95.21055059092186,94.47159187033863,92.03370830009439,94.47314537878013
148.855,96.0584940107877,93.20964812361643,95.10269581451185,94.3510924699145,91.86347021483262,94.354038973632
151.02,95.94346468684998,93.06335206389457,94.98013019985598,94.21702730789828,91.67892537757857,94.22082566567903
153.217,95.8771008630193,92.96673646962988,94.90670540175726,94.13155949212818,91.54284335113046,94.136612990702
155.445,95.86939465294142,92.9297623189846,94.89242270192464,94.10529288777417,91.46575026881435,94.11157035700447
157.706,95.87701154871094,92.9094275578123,94.89371059107096,94.09444054415005,91.40397076514772,94.10222743921267
160.0,95.90630680451595,92.91085081581234,94.9167153818299,94.10522127639942,91.3636439377032,94.11464977140037
162.327,95.93392546943087,92.91191345161684,94.93829077113507,94.11481535597768,91.32163841741159,94.12584999547467
164.688,95.88654510722216,92.83869649803087,94.88472575463769,94.05003005023873,91.20475814904482,94.06235886365796
167.084,95.80815924990175,92.73478430575521,94.80073087293198,93.95322086637763,91.05635788687188,93.96788777283821
169.514,95.73043966526308,92.63388435116484,94.71773652008845,93.8580634201604,90.90930119399937,93.87487756629879
171.98,95.65670976061668,92.53699662820323,94.63845381493367,93.7673244408179,90.7658116853879,93.78592842042492
174.481,95.61365235898363,92.47212113076529,94.59017195173388,93.70719812350808,90.65364185294314,93.72807666035975
177.019,95.60992104096736,92.4478794781806,94.58145959246191,93.68688485649365,90.58043019287467,93.7099567167507
179.594,95.61019223181566,92.42802772861698,94.5768952480711,93.67019252851328,90.5111333710059,93.69593775040208
182.206,95.60212614998017,92.40152137680502,94.56447678459278,93.64583469127312,90.43397623417468,93.67421859690097
184.856,95.60240269144023,92.38398046868527,94.55961885289126,93.62937490248788,90.36440659384331,93.66067000481179
187.545,95.62366797496475,92.38916463529749,94.57605491890823,93.63488648630641,90.31690723338603,93.66882559070498
190.273,95.68927576781495,92.43897929863063,94.63691514588253,93.6838066888273,90.31296611366977,93.72121281644661
193.041,95.77620052040491,92.511471657368,94.71892117983349,93.75457438513816,90.33073056449241,93.79530142825439
195.849,95.8114758169674,92.53430803062793,94.74992734495369,93.77406481157188,90.29701098073295,93.81836849136837
198.697,95.76008424229327,92.47105499048223,94.69378779521752,93.70639568087098,90.17665327296973,93.75472184662549
201.587,95.68869645805464,92.38891178679017,94.6172179723518,93.61893763544843,90.03626897234217,93.67125392929573
204.52,95.66330607127988,92.35344625045552,94.5866547649964,93.57722845452103,89.94158686122532,93.6338915172785
207.494,95.6962582227662,92.37822076680834,94.61423392216545,93.59383776243638,89.9054162473711,93.65519281669492
210.512,95.76721695942659,92.44238964663522,94.67995249071053,93.64848862844786,89.90778544001104,93.71487001242082
213.574,95.84717685362911,92.51618157588287,94.75482028131351,93.71242187532103,89.91920274966749,93.78381375695322
216.681,95.93614546933527,92.60036901709655,94.83711196244124,93.78409449777743,89.93864965675874,93.86132354217983
219.833,96.02645615316268,92.68673676118732,94.9212614833577,93.85722118227571,89.96003111270588,93.94057670116577
223.03,96.05443968101669,92.71183207672833,94.94213013160334,93.86767419866544,89.91892103181351,93.95741646618808
226.274,96.00710292916865,92.66365652019226,94.88771066669179,93.80337834868915,89.80312111875412,93.8994886468378
229.565,95.88210754753752,92.5377669968041,94.75457261170173,93.66003079770499,89.60906087689334,93.76338345443628
232.905,95.72612453792802,92.38277224436537,94.59058467827751,93.48605768835209,89.3843859722402,93.5967839399856
236.292,95.61948205069314,92.27817301207887,94.47487781440748,93.36023309109649,89.20854365871433,93.4792233373888
239.729,95.56452461338701,92.22658009880773,94.4107562379279,93.28626579899776,89.08509094349697,93.41368579669728
243.216,95.47258345865004,92.13921124692837,94.30862361551698,93.17458299247674,88.92487766603759,93.31104038658006
246.754,95.3056531717413,91.97751382776269,94.13120658245283,92.98770611044323,88.68905203050303,93.13342446491674
250.343,95.16007268109671,91.8377621279992,93.9739328113646,92.82092011062844,88.4750655511826,92.97681569839975
253.984,95.06384466914407,91.74934795878606,93.86480252668633,92.7027575184799,88.30991308150757,92.86946307409394
257.678,95.05096941430294,91.74327060598635,93.83853794646932,92.66718240518607,88.22723801976443,92.84505712865462
261.426,95.10043493356662,91.80147093733116,93.87312931209124,92.69280469136284,88.20580236372042,92.88270873503606
265.229,95.18992951171748,91.90028102306788,93.94729047013523,92.75810964947675,88.22532366591268,92.96044888862384
269.087,95.3694411618678,92.0898201321646,94.1100281982805,92.91252178805952,88.33503370037752,93.12788181654325
273.001,95.61563215962303,92.34790834009131,94.3393344228346,93.1333177130677,88.51310415970737,93.36240487632543
276.972,95.77751891797769,92.52299836835364,94.48321913712623,93.26943079233543,88.60868530539894,93.51268655730574
281.0,95.82074448911474,92.57996851732823,94.50781526546889,93.28620201502021,88.58621907342757,93.54423665662607
285.088,95.83002884657994,92.60421206576983,94.49784605542915,93.26877107226862,88.53160750236567,93.54203956701618
289.234,95.88328519876649,92.67306166403857,94.53030983511042,93.29423928585383,88.52137690815648,93.58344883025369
293.441,95.99624548909873,92.80257851446272,94.62163372595028,93.37880992878009,88.57172993921931,93.68454482257941
297.709,96.12622431346374,92.94903403924552,94.72910073491734,93.47910437461816,88.6391605877101,93.80228779557599
302.04,96.22588334462031,93.06576187006185,94.80557236092949,93.54859644242671,88.67602130248729,93.88963528548685
306.433,96.26055250674345,93.11715662977171,94.81576523196154,93.55198973382134,88.64712823834365,93.91146910432953
310.89,96.25057715485282,93.12288453093308,94.77996361049847,93.50870787198907,88.57065446587697,93.8877143835533
315.412,96.20562841608384,93.09427937039466,94.70958636238146,93.43043907816387,88.45845129204521,93.82925600014588
320.0,96.14001058026948,93.04427937039468,94.61693472698717,93.33015752666752,88.32398127044272,93.74938969733279
324.655,96.09539866922631,93.01527937039467,94.54515133783657,93.2499934479681,88.2091850600291,93.69037591121972
329.377,96.07915252906147,93.01494631424127,94.50194234705144,93.19825354887597,88.12227602647705,93.65993467431218
334.168,96.0602332634347,93.00994631424126,94.45502388549173,93.14198698071806,88.03078222802954,93.6259073946152
339.028,96.03934206112906,93.00494631424128,94.40698447310258,93.08456451731965,87.93763783254313,93.5907445267837
