Freq "Ceiling Bounce"
20.0 72.96377987421386
20.2909 73.25477987421385
20.586 73.55877987421385
20.8855 73.86477987421385
21.1893 74.16677987421386
21.4975 74.46377987421386
21.8102 74.76177987421386
22.1274 75.05677987421386
22.4492 75.34877987421386
22.7758 75.63377987421386
23.1071 75.91377987421386
23.4432 76.19177987421385
23.7841 76.46777987421386
24.1301 76.74177987421386
24.4811 77.01177987421384
24.8372 77.27977987421387
25.1984 77.55677987421386
25.5649 77.83977987421386
25.9368 78.12477987421384
26.3141 78.41077987421386
26.6968 78.70377987421385
27.0851 79.00677987421385
27.4791 79.31177987421385
27.8788 79.60677987421386
28.2843 79.88277987421385
28.6957 80.15377987421384
29.1131 80.42677987421385
29.5365 80.70577987421386
29.9661 80.97777987421385
30.402 81.25777987421385
30.8442 81.54977987421385
31.2929 81.84277987421386
31.748 82.13677987421386
32.2098 82.43077987421385
32.6783 82.72077987421387
33.1536 83.00177987421385
33.6359 83.27577987421385
34.1251 83.53977987421383
34.6215 83.78977987421385
35.125 84.03177987421385
35.6359 84.27977987421386
36.1543 84.53877987421386
36.6802 84.80677987421386
37.2137 85.08777987421387
37.755 85.38177987421385
38.3041 85.68077987421385
38.8613 85.98277987421388
39.4265 86.28377987421383
40.0 86.58977987421386
40.5818 86.89677987421385
41.1721 87.19544656646414
41.771 87.48411323313212
42.3785 87.76111323313211
42.9949 88.03444671996392
43.6203 88.30978018122521
44.2548 88.58978056498935
44.8985 88.87678110225914
45.5515 89.16378179303456
46.2141 89.43378263731553
46.8863 89.64011753145483
47.5683 89.76911875954664
48.2602 89.858121676264
48.9621 90.00179092661526
49.6743 90.19746161116164
50.3968 90.43746621667609
51.1299 90.70380474209726
51.8736 90.98514547050063
52.6281 91.26415207147083
53.3936 91.53449454053614
54.1702 91.79683798259703
54.9581 92.05284895149198
55.7575 92.30553015631581
56.5685 92.55454604520489
57.3914 92.80256331570352
58.2261 93.0472518529677
59.073 93.28427211614704
59.9323 93.50996415581925
60.804 93.73532476949052
61.6884 93.94835823413183
62.5857 94.14772289348628
63.496 94.34676096452029
64.4196 94.55247336379377
65.3566 94.75951665215187
66.3073 94.94556239635263
67.2717 95.08362303007289
68.2502 95.16301425545757
69.2429 95.19807512532671
70.2501 95.23447254094359
71.2719 95.33522170577403
72.3086 95.49762603301961
73.3603 95.66438363208387
74.4274 95.80081259898607
75.5099 95.90357947446924
76.6083 95.98267463140124
77.7226 96.04145036898957
78.8531 96.07757467901546
80.0 96.09070451203227
81.1636 96.07617314535996
82.3442 96.01531401279489
83.5419 95.93146040202294
84.757 95.85994560779491
85.9899 95.8204497478404
87.2406 95.81429366149105
88.5096 95.83714405257518
89.797 95.8830009199366
91.1031 95.92521300329385
92.4282 95.94011521823121
93.7726 95.92234285160059
95.1366 95.88557799490563
96.5204 95.8411539265792
97.9243 95.78740406871115
99.3486 95.71934704762477
100.794 95.64129863491375
102.26 95.54725882874023
103.747 95.44358143412646
105.256 95.34855940796305
106.787 95.27190098782636
108.34 95.21189673494811
109.916 95.14959052903701
111.515 95.07365094119308
113.137 94.97967419226553
114.783 94.86775537787285
116.452 94.76718087240609
118.146 94.6955914821476
119.865 94.6647051017652
121.608 94.64582974426601
123.377 94.6302986745725
125.171 94.5994453425081
126.992 94.52596562374241
128.839 94.42013496871657
130.713 94.31834576080512
132.615 94.26690235688993
134.543 94.26580454472496
136.5 94.27535307829173
138.486 94.27427922417749
140.5 94.25288440718971
142.544 94.22920321474153
144.617 94.21479822705336
146.721 94.1507735835144
148.855 94.01842799783027
151.02 93.87213193810842
153.217 93.77551634384375
155.445 93.73854219319846
157.706 93.71820743202613
160.0 93.7196306900262
162.327 93.72069332583068
164.688 93.64747637224474
167.084 93.54356417996907
169.514 93.4426642253787
171.98 93.34577650241708
174.481 93.28090100497916
177.019 93.25665935239444
179.594 93.23680760283084
182.206 93.21030125101889
184.856 93.19276034289913
187.545 93.19794450951134
190.273 93.2477591728445
193.041 93.32025153158186
195.849 93.34308790484178
198.697 93.27983486469607
201.587 93.19769166100404
204.52 93.16222612466937
207.494 93.18700064102221
210.512 93.25116952084906
213.574 93.32496145009671
216.681 93.40914889131042
219.833 93.49551663540119
223.03 93.52061195094217
226.274 93.47243639440613
229.565 93.34654687101795
232.905 93.19155211857924
236.292 93.08695288629272
239.729 93.03535997302157
243.216 92.94799112114221
246.754 92.78629370197656
250.343 92.64654200221305
253.984 92.55812783299992
257.678 92.55205048020021
261.426 92.610250811545
265.229 92.70906089728172
269.087 92.89860000637846
273.001 93.15668821430516
276.972 93.33177824256751
281.0 93.38874839154208
285.088 93.41299193998367
289.234 93.48184153825243
293.441 93.61135838867658
297.709 93.75781391345939
302.04 93.8745417442757
306.433 93.92593650398557
310.89 93.93166440514695
315.412 93.90305924460853
320.0 93.85305924460852
324.655 93.82405924460853
329.377 93.82372618845513
334.168 93.81872618845513
339.028 93.81372618845512
343.959 93.8052704239981
348.962 93.79514781466843
354.038 93.78175307416642
359.188 93.76157005494524
364.412 93.73732586849904
369.713 93.7098710321444
375.09 93.67890051921341
380.546 93.64532502320678
386.081 93.60875014209033
391.697 93.56917587604933
397.394 93.52648203392866
403.175 93.48018300723531
409.039 93.43121770372905
414.989 93.3789205952003
421.025 93.3229571539646
427.149 93.2646619649755
433.362 93.20276045373502
439.665 93.13746708549394
446.06 93.06929205906977
452.548 92.99784227101577
459.131 92.92284527455223
465.809 92.84478830366183
472.584 92.76324138480794
479.458 92.67741965514028
486.432 92.58817087492511
493.507 92.4953132468869
500.686 92.39875992530736
507.968 92.2977293631425
515.357 92.19322069275101
522.853 92.0843777641938
530.458 91.9712679973701
538.174 91.85318128572153
546.002 91.73093957247686
553.943 91.60383257671582
562.001 91.4716378326077
570.175 91.33613611945198
578.469 91.19479508115215
586.883 91.04934371483381
595.419 90.90011579084242
604.08 90.74835878637609
612.866 90.59317990647818
621.78 90.43583473698929
630.824 90.27737707178413
640.0 90.11998110896621
649.309 89.96431034955951
658.753 89.8133339132133
668.335 89.66868968748948
678.056 89.53279743708686
687.919 89.40870984640993
697.925 89.29787655845392
708.077 89.20433925504194
718.376 89.1290964592208
728.825 89.07473695667727
739.426 89.04217442439395
750.181 89.03135486114138
761.093 89.04352530826407
772.163 89.07681777716591
783.394 89.12626442326214
794.789 89.18942697359246
806.349 89.26323857443997
818.078 89.34355794163893
829.977 89.42548951632575
842.05 89.50564603957393
854.298 89.57898898983606
866.724 89.64072081138023
879.33 89.68935177753352
892.12 89.71716034445093
905.097 89.72772877114892
918.262 89.71310118161072
931.618 89.67432230614715
945.169 89.6104555173371
958.917 89.52035016816032
972.864 89.40367042684763
987.015 89.26141606764953
1001.37 89.09496934154284
1015.94 88.90773500709581
1030.71 88.70072270380192
1045.71 88.47936681560034
1060.92 88.24702840414314
1076.35 88.00579547217065
1092.0 87.7610160195312
1107.89 87.51499785095423
1124.0 87.26947456969248
1140.35 87.02527623195014
1156.94 86.78205543504225
1173.77 86.54192000814675
1190.84 86.30734387835298
1208.16 86.08052011236745
1225.73 85.87507330024664
1243.56 85.69505891423555
1261.65 85.5698581849334
1280.0 85.50855272056651
1298.62 85.57744143330798
1317.51 85.65962115739926
1336.67 85.87382058937332
1356.11 86.15086196930828
1375.84 86.46600381728405
1395.85 86.78706240864229
1416.15 87.06871133863656
1436.75 87.31405962580699
1457.65 87.46436114544771
1478.85 87.52582542022289
1500.36 87.47565584827557
1522.19 87.2808280007527
1544.33 86.95052918257153
1566.79 86.48067474876329
1589.58 85.87106458409195
1612.7 85.12730628789517
1636.16 84.26672311529083
1659.95 83.32213143066987
1684.1 82.34973092592094
1708.6 81.42785423852465
1733.45 80.65055352357827
1758.66 80.09786417010176
1784.24 79.8069260177311
1810.19 79.76703595188742
1836.52 79.93630535832702
1863.24 80.26374059030238
1890.34 80.69673094443733
1917.83 81.1798528384218
1945.73 81.66015411299333
1974.03 82.09583966230696
2002.74 82.4702467558633
2031.87 82.81483259367663
2061.43 83.16591688952207
2091.41 83.57777112153337
2121.83 84.08488779252336
2152.69 84.68313228985872
2184.01 85.31403756183954
2215.77 85.90747584990032
2248.0 86.4408645132598
2280.7 86.85281171410067
2313.87 87.1531161445108
2347.53 87.36565239080562
2381.68 87.52718690513255
2416.32 87.68618258112092
2451.46 87.87695425748613
2487.12 88.11513630391175
2523.3 88.42092520463174
2560.0 88.79179806617395
2597.24 89.23312051208914
2635.01 89.7386824634122
2673.34 90.29289293272689
2712.23 90.85424942367538
2751.68 91.3762092878222
2791.7 91.82492371627309
2832.31 92.16952946710953
2873.5 92.41732528106998
2915.3 92.55788214863833
2957.7 92.5832337194823
3000.72 92.48259462649786
3044.37 92.23590347431288
3088.65 91.87936018266646
3133.58 91.47640057588596
3179.16 91.08394230936567
3225.4 90.73733439575614
3272.31 90.43413657032455
3319.91 90.15618890834725
3368.2 89.9052008046945
3417.19 89.70882726141625
3466.89 89.57156943605669
3517.32 89.43955899886497
3568.48 89.24672587707319
3620.39 89.03479842760869
3673.05 88.96845458545522
3726.47 89.15111208933097
3780.67 89.4143353424747
3835.67 89.5647581317182
3891.46 89.43133820180809
3948.06 89.19955915689334
4005.49 89.3204447536008
4063.75 89.81731133610633
4122.86 90.35604845490785
4182.82 90.66752146030744
4243.66 90.81114187497548
4305.39 90.96673037467183
4368.01 91.08299776455497
4431.55 90.93331691528647
4496.01 90.52555079615784
4561.4 90.11067728203464
4627.75 89.8750006952306
4695.06 89.62517533273613
4763.35 89.18704364787416
4832.64 88.87332128650256
4902.93 89.26314047391962
4974.24 89.87175499512952
5046.6 90.27018531613629
5120.0 90.64943155008555
5194.47 91.20718715530161
5270.03 91.72045917503569
5346.68 91.98612914889189
5424.45 92.09301510691371
5503.35 92.11630770385806
5583.4 91.89907920404671
5664.61 91.49622429177532
5747.01 91.14812815366768
5830.6 90.81894252558867
5915.41 90.39974755521659
6001.45 89.95012635809708
6088.74 89.61400980594972
6177.3 89.24031452939785
6267.15 89.11986561778095
6358.31 89.49737178406708
6450.8 90.01271393210597
6544.62 90.35416903443637
6639.82 90.44004272652472
6736.4 90.33191667213879
6834.38 90.1086382228112
6933.79 89.93085553256483
7034.64 89.87765672083331
7136.96 89.71776316391306
7240.77 89.42515948933313
7346.09 89.17838077773234
7452.94 88.96330547207683
7561.35 89.07282689032783
7671.33 89.43657313171508
7782.91 89.86959499234534
7896.12 90.31841417879322
8010.97 90.32035054952426
8127.49 90.07254683579073
8245.71 89.91565756877922
8365.65 89.53765929619195
8487.33 89.28923955759139
8610.78 88.96238810784729
8736.03 88.77291880427741
8863.09 88.64868639789539
8992.01 88.78631120432267
9122.8 89.04746397044283
9255.5 89.00953317559191
9390.12 88.6798528037891
9526.7 88.02164261812983
9665.27 87.47609311557325
9805.86 87.27656520997458
9948.49 87.48521784798616
10093.2 87.66441801079607
10240.0 87.61017392533368
10388.9 87.44105888668932
10540.1 87.45138420019823
10693.4 87.4795812734901
10848.9 87.31423351379281
11006.7 86.9434508479876
11166.8 86.69358144294918
11329.2 86.6215250313428
11494.0 86.53934958226397
11661.2 86.44640381080204
11830.8 86.42922537813023
12002.9 86.35764039544421
12177.5 85.74755617101255
12354.6 84.76692510790149
12534.3 84.13799763865407
12716.6 84.1474551403585
12901.6 84.17387799343744
13089.2 84.06806332388105
13279.6 83.71876949359994
13472.8 83.1072629862971
13668.8 82.34378631021845
13867.6 81.70191864641438
14069.3 81.40748671651268
14273.9 81.27684671374978
14481.5 81.02356049724256
14692.2 80.5673198352918
14905.9 79.81149406685593
15122.7 79.05565704494431
15342.7 78.5047830502436
15565.8 78.14767041578102
15792.2 77.79370626228804
16021.9 77.28315827509148
16255.0 76.4414179506059
16491.4 75.10069767240792
16731.3 74.14616644288621
16974.7 73.89991235369743
17221.6 73.31761834954959
17472.1 72.6915369375474
17726.2 72.93342988150897
17984.0 73.79662421137766
18245.6 74.96118538603503
18511.0 75.56749591759505
18780.2 75.30083607492672
19053.4 75.16326134222544
19330.5 75.78174704803835
19611.7 76.62626684111409
19897.0 76.87848336344767
