Freq "Front Wall Bounce"
20.0 72.155
20.2909 72.446
20.586 72.75
20.8855 73.056
21.1893 73.358
21.4975 73.655
21.8102 73.953
22.1274 74.248
22.4492 74.54
22.7758 74.825
23.1071 75.105
23.4432 75.383
23.7841 75.659
24.1301 75.933
24.4811 76.20299999999999
24.8372 76.47100000000002
25.1984 76.748
25.5649 77.031
25.9368 77.31599999999999
26.3141 77.602
26.6968 77.895
27.0851 78.198
27.4791 78.503
27.8788 78.798
28.2843 79.074
28.6957 79.34499999999998
29.1131 79.618
29.5365 79.897
29.9661 80.169
30.402 80.449
30.8442 80.741
31.2929 81.034
31.748 81.328
32.2098 81.622
32.6783 81.91200000000002
33.1536 82.193
33.6359 82.467
34.1251 82.73099999999998
34.6215 82.981
35.125 83.223
35.6359 83.471
36.1543 83.73
36.6802 83.998
37.2137 84.27900000000001
37.755 84.573
38.3041 84.872
38.8613 85.17400000000002
39.4265 85.47499999999998
40.0 85.781
40.5818 86.088
41.1721 86.388
41.771 86.679
42.3785 86.958
42.9949 87.23471430920928
43.6203 87.51371430920928
44.2548 87.79857145676604
44.8985 88.09057145676603
45.5515 88.38400006578816
46.2141 88.66057145676604
46.8863 88.87414296992007
47.5683 89.01114296992007
48.2602 89.10857158834017
48.9621 89.2608573543096
49.6743 89.4668573543096
50.3968 89.71742896143803
51.1299 89.99442896143803
51.8736 90.2877148025998
52.6281 90.57900062494949
53.3936 90.86228649430369
54.1702 91.13771513148639
54.9581 91.40800101963288
55.7575 91.67457280529847
56.5685 91.93928741517095
57.3914 92.20314464734119
58.2261 92.46385929479017
59.073 92.71771654575917
59.9323 92.96043123078343
60.804 93.20300322314883
61.6884 93.43428928986516
62.5857 93.65257527188452
63.496 93.87114737698863
64.4196 94.09657619269085
65.3566 94.3231483635505
66.3073 94.53014836355051
67.2717 94.68972059077454
68.2502 94.79029287436104
69.2429 94.8470078598842
70.2501 94.90586521430815
71.2719 95.02915267125533
72.3086 95.2148677788093
73.3603 95.40544030658269
74.4274 95.5655840848719
75.5099 95.69229928631263
76.6083 95.79629928631265
77.7226 95.87987195497176
78.8531 95.94144467997866
80.0 95.98001746133139
81.1636 95.99101936830466
82.3442 95.95659227172622
83.5419 95.89887862912686
84.757 95.85445161704617
85.9899 95.84145378683444
87.2406 95.8630268968047
88.5096 95.91331335743543
89.797 95.98660006310787
91.1031 96.05688898444373
92.4282 96.09946230093426
93.7726 96.11046230093426
95.1366 96.10203567375076
96.5204 96.08603836918918
97.9243 96.06146950077634
99.3486 96.02218541518263
100.794 95.97275902265734
102.26 95.90776204665504
103.747 95.83333577613315
105.256 95.76762248032564
106.787 95.7201962942532
108.34 95.68905730243175
109.916 95.65577351679183
111.515 95.60934750900965
113.137 95.5442088177168
114.783 95.46163789368643
116.452 95.3902120360054
118.146 95.34749934312461
119.865 95.34579004659734
121.608 95.35564785299199
123.377 95.36822219236633
125.171 95.36651317718464
126.992 95.32080434002152
128.839 95.24280434002152
130.713 95.16880861156083
132.615 95.14467035782235
134.543 95.17067035782236
136.5 95.20753272695312
138.486 95.23253679737616
140.5 95.23725376088693
142.544 95.23925849141368
144.617 95.24983347776752
146.721 95.21055059092186
148.855 95.10269581451186
151.02 94.98013019985596
153.217 94.90670540175725
155.445 94.89242270192464
157.706 94.89371059107096
160.0 94.91671538182989
162.327 94.93829077113506
164.688 94.88472575463769
167.084 94.800730872932
169.514 94.71773652008847
171.98 94.63845381493367
174.481 94.59017195173386
177.019 94.58145959246191
179.594 94.57689524807111
182.206 94.56447678459278
184.856 94.55961885289126
187.545 94.57605491890821
190.273 94.63691514588251
193.041 94.71892117983347
195.849 94.74992734495369
198.697 94.6937877952175
201.587 94.6172179723518
204.52 94.58665476499641
207.494 94.61423392216547
210.512 94.67995249071053
213.574 94.75482028131351
216.681 94.83711196244124
219.833 94.9212614833577
223.03 94.94213013160335
226.274 94.88771066669177
229.565 94.75457261170176
232.905 94.5905846782775
236.292 94.47487781440749
239.729 94.41075623792791
243.216 94.30862361551698
246.754 94.13120658245285
250.343 93.9739328113646
253.984 93.86480252668632
257.678 93.83853794646933
261.426 93.87312931209125
265.229 93.94729047013524
269.087 94.1100281982805
273.001 94.3393344228346
276.972 94.48321913712621
281.0 94.50781526546888
285.088 94.49784605542915
289.234 94.5303098351104
293.441 94.62163372595026
297.709 94.72910073491734
302.04 94.80557236092947
306.433 94.81576523196155
310.89 94.77996361049846
315.412 94.70958636238146
320.0 94.61693472698717
324.655 94.54515133783657
329.377 94.50194234705144
334.168 94.45502388549174
339.028 94.40698447310258
343.959 94.35679869249752
348.962 94.30605578846992
354.038 94.25317140919648
359.188 94.19545756465952
364.412 94.13516363286307
369.713 94.07473501880828
375.09 94.01374568147003
380.546 93.95307847809029
386.081 93.89283038078257
391.697 93.83429282000931
397.394 93.77693410107334
403.175 93.72173194690355
409.039 93.669379614777
414.989 93.61989573213582
421.025 93.57370541286444
427.149 93.53152265562412
433.362 93.49378126136496
439.665 93.46046417288812
446.06 93.43129069043614
452.548 93.40656034454543
459.131 93.38725119676486
465.809 93.37223535979611
472.584 93.36149054396695
479.458 93.3546016271936
486.432 93.35101866523401
493.507 93.35142886887779
500.686 93.35421916930416
507.968 93.35890228576774
515.357 93.36602928829467
522.853 93.37327157915874
530.458 93.38193059811458
538.174 93.39029188224774
546.002 93.39865703486073
553.943 93.4065735751459
562.001 93.41401133510334
570.175 93.42104308340309
578.469 93.42788348469927
586.883 93.4348350562548
595.419 93.4421508542896
604.08 93.45068605172895
612.866 93.46106075001985
621.78 93.47490984357343
630.824 93.49202791107886
640.0 93.51375993236964
649.309 93.54201377595116
658.753 93.57721374019147
668.335 93.61923124828554
678.056 93.66838020070138
687.919 93.72562538588441
697.925 93.78963089497869
708.077 93.86006642142117
718.376 93.93529073839703
728.825 94.01394029946151
739.426 94.0933942257283
750.181 94.17232633510808
761.093 94.24719179370719
772.163 94.31440192322022
783.394 94.37271355746937
794.789 94.41951905126881
806.349 94.45143396548178
818.078 94.46659542898247
829.977 94.46289597259882
842.05 94.43877605737877
854.298 94.39139691149751
866.724 94.32153909082318
879.33 94.22976046930908
892.12 94.1124173044209
905.097 93.97829743011896
918.262 93.82442283774431
931.618 93.65571799224308
945.169 93.47731451478731
958.917 93.29443461309796
972.864 93.11337733092745
987.015 92.94110523308612
1001.37 92.7840375385535
1015.94 92.64590264506687
1030.71 92.5316890802
1045.71 92.44254198627517
1060.92 92.37419494822393
1076.35 92.32633684720273
1092.0 92.2916001553445
1107.89 92.26277422308274
1124.0 92.23498190720993
1140.35 92.20498271294198
1156.94 92.16694758157813
1173.77 92.12563868140263
1190.84 92.08093022233147
1208.16 92.03832821376724
1225.73 92.01057417179918
1243.56 91.99913212616725
1261.65 92.02034505510144
1280.0 92.0729279338074
1298.62 92.17787870147886
1317.51 92.28779287218639
1336.67 92.43639021078953
1356.11 92.59693650207124
1375.84 92.75818660340622
1395.85 92.91114546702927
1416.15 93.04377108485548
1436.75 93.16355603197259
1457.65 93.25972027351325
1478.85 93.34242006126604
1500.36 93.41517621791424
1522.19 93.48707274150266
1544.33 93.56609275101663
1566.79 93.65522423207057
1589.58 93.75283964142643
1612.7 93.85293851213649
1636.16 93.94625362766324
1659.95 94.02126686870382
1684.1 94.06737731584639
1708.6 94.07712955135497
1733.45 94.04832705799282
1758.66 93.98347340834691
1784.24 93.88948865893082
1810.19 93.77766619155501
1836.52 93.65862161252569
1863.24 93.53572117107862
1890.34 93.40862791377913
1917.83 93.26761041274497
1945.73 93.09840457826753
1974.03 92.88672264286711
2002.74 92.61880429979949
2031.87 92.3032978529073
2061.43 91.952798966851
2091.41 91.59826373316311
2121.83 91.27539621628951
2152.69 91.02722100802067
2184.01 90.8323305549546
2215.77 90.74647490615612
2248.0 90.73318431981328
2280.7 90.859950845905
2313.87 91.15904903536236
2347.53 91.65420186289833
2381.68 92.32130975293178
2416.32 93.05339211510956
2451.46 93.75100175560978
2487.12 94.340677706526
2523.3 94.71566441718596
2560.0 94.88051892745932
2597.24 94.81876441253554
2635.01 94.56096075132821
2673.34 94.14475791367062
2712.23 93.6981094660943
2751.68 93.36477663278589
2791.7 93.26354556390568
2832.31 93.4389602325933
2873.5 93.749154200322
2915.3 94.09329925695404
2957.7 94.3626927514155
3000.72 94.48005232083962
3044.37 94.40778909565073
3088.65 94.2087695854683
3133.58 93.9742482494372
3179.16 93.76855425742734
3225.4 93.58663573215163
3272.31 93.353709545087
3319.91 92.95096501359612
3368.2 92.27781902407725
3417.19 91.30801491384885
3466.89 90.14351485578477
3517.32 89.05741717772767
3568.48 88.40484123977059
3620.39 88.39409906874405
3673.05 88.90302411176465
3726.47 89.54318129080256
3780.67 89.88896399076962
3835.67 89.86131634476202
3891.46 89.1567449105411
3948.06 88.16539805443435
4005.49 87.40806069083783
4063.75 87.50607309816738
4122.86 88.25615497496425
4182.82 89.01025867564361
4243.66 89.60781156696265
4305.39 90.10447480854855
4368.01 90.38390012432278
4431.55 90.24131923816893
4496.01 89.75727806964069
4561.4 89.15441135353969
4627.75 88.62096609530826
4695.06 88.12062578971333
4763.35 87.85527105561182
4832.64 88.37481921971842
4902.93 89.388175415234
4974.24 89.9287785190436
5046.6 89.66257634629359
5120.0 89.33980539990225
5194.47 89.55595408886924
5270.03 90.02797269317007
5346.68 90.32752342031772
5424.45 90.57666361868667
5503.35 90.93435269932071
5583.4 91.14132921042311
5664.61 91.01566501976357
5747.01 90.7247465772434
5830.6 90.3144317170783
5915.41 89.82161016848049
6001.45 89.34693121218591
6088.74 89.211834689714
6177.3 89.43364628925333
6267.15 89.84178490055024
6358.31 90.31259666569208
6450.8 90.76119308477998
6544.62 91.11690565375893
6639.82 91.36781930033894
6736.4 91.48433172237378
6834.38 91.3583761061801
6933.79 91.11676852182879
7034.64 90.9895696249482
7136.96 90.78617608713992
7240.77 90.53571150107614
7346.09 90.50780694536506
7452.94 90.6611603463429
7561.35 91.09495485806983
7671.33 91.65788463418293
7782.91 92.1862682532792
7896.12 92.63340184302149
8010.97 92.73914441699965
8127.49 92.74813014252813
8245.71 92.67583338387854
8365.65 92.45799352566455
8487.33 92.3190588246828
8610.78 92.19714512339347
8736.03 92.3260786862391
8863.09 92.66950687991051
8992.01 93.26398029001109
9122.8 93.75609971633374
9255.5 93.83683664118603
9390.12 93.50009346816509
9526.7 92.8943212100075
9665.27 92.54614734798967
9805.86 92.68015309470964
9948.49 93.02233821458475
10093.2 93.19415554223978
10240.0 93.25265802959885
10388.9 93.37138996845992
10540.1 93.55026571874002
10693.4 93.53536619887544
10848.9 93.2802031222251
11006.7 93.07580532470588
11166.8 93.11930814759016
11329.2 93.20665385796927
11494.0 93.257225757491
11661.2 93.5793532013515
11830.8 93.9409730480149
12002.9 94.08282211623062
12177.5 93.78325888383101
12354.6 93.21797146259937
12534.3 93.13230593501667
12716.6 93.57767724406581
12901.6 93.92910331477525
13089.2 94.19839344683261
13279.6 94.26096854340858
13472.8 93.96332770615503
13668.8 93.49318957007301
13867.6 93.3784449302242
14069.3 93.62582664152539
14273.9 93.79789803761523
14481.5 93.85396891632827
14692.2 93.84557547559866
14905.9 93.49000599576813
15122.7 93.1631741860509
15342.7 93.14500409788171
15565.8 93.33836327769272
15792.2 93.36526667966064
16021.9 93.13702908021267
16255.0 92.5444219599392
16491.4 91.97318080925375
16731.3 92.16296206901889
16974.7 92.30241689181386
17221.6 91.88061806291434
17472.1 91.08669162962023
17726.2 90.4567019679394
17984.0 90.6683021041481
18245.6 91.1072034706286
18511.0 90.84363375953566
18780.2 90.13468871285676
19053.4 89.7336796123586
19330.5 90.00688032803431
19611.7 90.3447973045127
19897.0 90.0399385420049
