Freq,Floor Bounce,Ceiling Bounce,Front Wall Bounce,Side Wall Bounce,Rear Wall Bounce,Total Early Reflection
22.4,-9.883214664917972,4.4809840811049355,5.614888777417519,6.851457421250103,7.1994180929614515,5.222554603233448
23.0,-9.647009458621454,5.774166697293623,4.789948829766644,6.32482077835553,6.612457550153806,4.990004912271132
23.6,-8.927676136097801,7.269155720046484,4.685064920406944,6.380329662451771,6.563828966786474,5.385686852363534
24.0,-6.788140949638688,10.07844159970378,6.274426487540438,8.056642633668105,8.150694698668275,7.412661120629224
25.0,-4.924108544202653,12.289116392085077,7.39933126404614,9.22497813789326,9.213299277108575,8.972427351036231
25.8,-3.317024704090329,13.986792098873565,8.17898509386319,9.926641762501674,9.829765069456386,10.131039811940155
26.5,-1.7842205220852634,15.384621819499046,8.736713187438596,10.378886240351477,10.181490542441537,11.074040987019004
27.2,-0.18677602066526333,16.570743590680365,9.31553801981616,10.792665198500373,10.542051029385021,11.944223973035918
28.0,1.601414285541722,17.657138287391746,9.907955660767044,11.13506188915207,10.847732523814187,12.773098549814023
29.0,3.4544458180598667,18.645148783065537,10.50613020936592,11.4950898984807,11.129956472067079,13.569169179703977
30.0,5.491381330362401,19.82198277996207,11.570492581972047,12.302981913036405,11.869976922704012,14.661468419520418
30.7,8.06127711209436,21.600647239465502,13.270968295543724,13.793651886886693,13.284142577522346,16.384032281172722
31.5,10.022358217145268,22.759567335888107,14.435276672091618,14.801780349986927,14.147307355977006,17.52503623257246
32.5,11.7383851686794,23.614650753346638,15.3982454956394,15.570715321253743,14.786879767333147,18.396228106438997
33.5,13.038385168679412,24.186761959694934,16.21353423755113,16.238724949964165,15.285585758124995,19.030959916581935
34.5,14.138385168679434,24.563758870671904,16.901416658953167,16.83487221343458,15.660516408208736,19.503635427984022
35.5,15.238385168679429,24.940287288709897,17.65618251929422,17.464346571894993,16.11920891595605,20.002630143507048
36.5,17.088664900308316,26.048875789293646,19.261163894778264,18.95329302204817,17.38800775099486,21.28080548949501
37.5,18.588664900308316,26.87122134315078,20.49556097322261,20.12992914155896,18.319018663127935,22.262533353018654
38.7,19.690950815120146,27.312360930106593,21.426660499956483,20.963850398478,18.919917482457805,22.893269585829074
40.0,20.642956392769037,27.574377372194164,22.106246658810647,21.526134613626567,19.284168046823964,23.333813550852824
41.2,21.38395269084586,27.42771877782951,22.577016918141226,21.93477021241091,19.431563898242587,23.484827450370318
42.5,22.63805552087092,27.89896519388165,23.59888889651569,22.8823028606177,20.14957051937745,24.238169318569902
43.7,23.9112515958266,28.17753995241887,24.625062346489415,23.81151540114783,20.88852986732246,24.93231558150009
45.0,24.86668704826357,28.160683721103055,25.372803547593463,24.515017052868302,21.393388606911827,25.38227436410739
46.2,25.62269060187876,28.008255492222673,25.97811744557356,25.051873827971605,21.816125822822556,25.717532819268484
47.5,26.56668704826356,27.710034361952182,26.7257022936316,25.769016074324952,22.40914463741251,26.161489078276304
48.7,28.129607788473095,27.95933929981308,28.210115428383006,27.230832939677725,23.78969065272551,27.332364087901766
50.0,29.402416785667867,28.070717324954103,29.497805618246076,28.548955756352,25.054890039937277,28.375613899913276
51.5,30.461957115110067,28.110077997802904,30.613189701289485,29.74162518954529,26.21517055546522,29.31620901978954
53.0,31.411155545057795,28.51430637862282,31.744695605737718,30.983275506747958,27.44115546553209,30.332214829460156
54.5,32.58153123181182,29.67269145322598,33.23110083287267,32.562838043238344,29.056111604220092,31.733348384275672
56.0,33.47532051493633,31.1012346510814,34.63370304152468,34.08665283670808,30.649509738712055,33.072810552903974
58.0,34.06983756644311,32.48197279351601,35.97521316329096,35.637549396065026,32.26948366282451,34.35544813613768
60.0,34.5432152634838,34.01321937972793,37.58420403872532,37.4477121061565,34.26940757628802,35.872253626193526
61.5,35.11388511176722,35.39294223178729,39.21327118407484,39.31267075104452,36.27961441175884,37.45593112276583
63.0,35.65243652821502,36.577670541427636,41.047030116205036,41.366868416215624,38.52862715113352,39.219346381020586
65.0,36.02606546453066,37.69271726765626,43.37226199407104,43.953842111656655,41.42636723736487,41.4837528025524
67.0,37.20566331235776,39.354890606837074,46.379892821055336,47.23552344435677,44.9295961159186,44.51327522338241
69.0,38.46607278724875,41.04211077607542,48.9226103248005,49.971831935571146,47.987260710379616,47.16054475829446
71.0,39.76946872863661,42.559353044591916,49.69450337468734,50.87344119586929,49.14707429966822,48.13131934123791
73.0,41.94795234738507,44.803649587199544,50.43034630985069,51.62237609213227,50.155422545684814,49.08737878793576
75.0,43.767178545419625,46.58727280770239,50.47320657311957,51.617966777791054,50.40286523663866,49.40275285272142
77.5,45.79122588531641,48.31890313993139,50.98290049624728,51.931646658504974,50.96577479577951,50.104373275396895
80.0,47.64264565432185,49.87536737510351,51.66066643924073,52.37168728887437,51.62343218773414,50.93307451302934
82.5,49.814710339779566,51.65150771982452,52.959608849708644,53.41084527162748,52.84206727992611,52.31212015871799
85.0,51.94786829224299,53.305535767140654,54.37703930115792,54.496220017463614,54.09925909194013,53.74097894204964
87.5,53.854949012638585,54.825862274944825,55.8902373712845,55.77160618542956,55.509986455467214,55.23291197300189
90.0,55.60554950338957,56.11837380767318,57.263350358528385,56.87162640099484,56.714425938756534,56.553400560016954
92.5,57.070351937873525,57.23638464278706,58.42379789569425,57.813397252697385,57.72246137873522,57.679784610248234
95.0,58.32179738688896,58.22602931574093,59.415775686942496,58.70496136617723,58.635469090240434,58.68152552004361
97.5,59.61592538879982,59.419426004246105,60.611546548744116,59.82933943988195,59.78542993072804,59.87192373935625
100.0,61.03897757455802,60.675484348380095,61.823005295022426,61.03202670680838,60.954515810247955,61.12216915423224
103.0,62.20131827952113,61.89192787953053,62.8894702043597,62.10424315238427,62.016799616287344,62.23526328746382
106.0,63.39238562216103,63.04611403139876,63.943714174934115,63.21595924845556,63.060096390482045,63.34457133244412
109.0,64.82104166298748,64.49317164073086,65.21199959334453,64.56670664714582,64.35835606063577,64.70086896179043
112.0,66.01430637862282,65.74413052381577,66.33691507498752,65.76782971680352,65.5012354514077,65.88220006472676
115.0,67.04415774934851,66.82758719283592,67.26360670716288,66.80904042631747,66.47859767535799,66.8924753746222
118.0,68.00906430015984,67.8566725593005,68.17657558138386,67.79324134646669,67.434109126185,67.8609603896972
122.0,68.87449351030438,68.75260953202218,68.99042913322418,68.64789205225325,68.24727773004153,68.7099116650585
125.0,69.53964531976003,69.4457671943847,69.64678994296995,69.37366428641458,68.9505681327075,69.39772853472338
128.0,70.00531806766472,69.9098662867233,70.10330414739937,69.82994631411475,69.3905178172929,69.85464320433549
132.0,70.4707173249541,70.37449351030438,70.60433679655141,70.32677663022395,69.88859753038818,70.33958872865895
136.0,70.93663575667186,70.8053180676647,71.06009724486702,70.77549248829826,70.32941339634436,70.78833371576891
140.0,71.20228461396019,71.10531806766468,71.37569713721814,71.06280516935205,70.61806178238872,71.08000604734443
145.0,71.60228461396021,71.47071732495408,71.78988322198784,71.47276451979818,71.03237674779587,71.48067975702493
150.0,71.80228461396018,71.73663575667186,72.0321432491439,71.72225816796146,71.28400277033917,71.7221601760471
155.0,72.0022846139602,71.9022846139602,72.23214324914392,71.9318483569237,71.46803061012908,71.91432476800077
160.0,72.20228461396019,72.06845083805433,72.38883962278669,72.061427071536,71.62053972049645,72.07560784048482
165.0,72.30228461396018,72.16845083805433,72.50265417083517,72.19194381315005,71.7415700479907,72.18846476886738
170.0,72.36845083805433,72.16845083805433,72.54512368826401,72.20161170377612,71.746126130867,72.21401391454371
175.0,72.36845083805433,72.16845083805433,72.54512368826401,72.16236179753685,71.7144869273737,72.20053979982404
180.0,72.36845083805433,72.16845083805433,72.54512368826401,72.15237853523921,71.6829846715648,72.19294329252025
185.0,72.33435140868502,72.13513059177983,72.54512368826401,72.1224980496327,71.65139369925438,72.16769747620947
190.0,72.33435140868502,72.10076749445561,72.4894916700089,72.08297485831152,71.60906169679855,72.13344095290232
195.0,72.33435140868502,72.13513059177983,72.4894916700089,72.07325491647897,71.59829836679049,72.13646322197428
200.0,72.3669218511605,72.13513059177983,72.50330414739938,72.06352362286742,71.56693290448146,72.13886914996213
206.0,72.3669218511605,72.13513059177983,72.50330414739938,72.02388929104663,71.5403715239366,72.12645374937357
212.0,72.3669218511605,72.13513059177983,72.50330414739938,71.99356436962384,71.50277887452873,72.11399205593113
218.0,72.40076749445562,72.13513059177983,72.54776629633652,71.96442113748412,71.46631119800621,72.11900884209389
224.0,72.43358982687998,72.07001488257475,72.5474409271095,71.92457637466998,71.42953469890864,72.0989905607286
230.0,72.43358982687998,72.00306957104252,72.50530029936075,71.80575558805435,71.32941152067704,72.03655927477757
236.0,72.43358982687998,72.00306957104252,72.5193827167738,71.78619100149916,71.28212936806098,72.02799945976919
240.0,72.43358982687998,71.93821129888744,72.47763667454646,71.72826283738593,71.19259065761149,71.97981410366337
250.0,72.40076749445562,71.93821129888744,72.46308626545354,71.65882786330991,71.09792069675086,71.94049318612514
258.0,72.40076749445562,71.90690501035459,72.46308626545354,71.62046956153776,71.03520275482431,71.91677755787092
265.0,72.30076749445563,71.83821129888742,72.37730600842409,71.53099974704877,70.95129373880978,71.83085614943471
272.0,72.30076749445563,71.73821129888744,72.33512927764767,71.46246011972805,70.87317250907724,71.77584544555793
280.0,72.23513059177982,71.63821129888743,72.22077053652625,71.35335640399273,70.75781109200176,71.6761872194534
290.0,72.13513059177983,71.5069050103546,72.13417237059011,71.2657696798697,70.64812791497815,71.57378760767878
300.0,72.03513059177983,71.40690501035459,72.03417237059011,71.14755220007956,70.55449336507678,71.47142950445375
307.0,71.93513059177982,71.2404416794549,71.90497173289589,70.94755220007957,70.37706361329509,71.32073403575303
315.0,71.70231994589774,71.04044167945491,71.70669262583408,70.74098274736505,70.15082137414913,71.1081633354962
325.0,71.57001488257477,70.84044167945491,71.59223940121059,70.59302390539708,69.96878895827595,70.95588843957901
335.0,71.40231994589774,70.7098662867233,71.49223940121061,70.47553065319158,69.7651925423512,70.81476272652642
345.0,71.27001488257477,70.57449351030439,71.42013790593066,70.30816205214259,69.54569907466461,70.6760084415462
355.0,71.20306957104252,70.4744935103044,71.39289093823004,70.24108381169833,69.3627381699035,70.59439774957323
365.0,71.20306957104252,70.4744935103044,71.47966935779183,70.2241780317133,69.21076431349198,70.58985966705201
375.0,71.3022846139602,70.54415774934851,71.59416440600646,70.30089921301374,69.09620966368827,70.65244931913807
387.0,71.46845083805434,70.6797774579057,71.82601428601045,70.42341651211807,69.08224283326068,70.7963901373914
400.0,71.60306957104252,70.80986628672329,71.98126324304945,70.51876996561236,69.02628441665408,70.9029751686539
412.0,71.90306957104252,71.0457671943847,72.28280541797602,70.7007356636753,69.09486463212977,71.13988381330499
425.0,72.2030695710425,71.28219967332305,72.52614556841019,70.86245312820158,69.22243192277602,71.36655406668244
437.0,72.37001488257476,71.38219967332304,72.65685353392553,70.93845215419256,69.23265646531503,71.47584366395093
450.0,72.56845083805433,71.51916705502754,72.82712657343741,71.05191163465908,69.31292096785936,71.62591439856968
462.0,72.63663575667186,71.48623512455238,72.85578521012795,70.99942672006108,69.28360909052836,71.63159533590863
475.0,72.67150800786939,71.48623512455238,72.81338977405673,70.92453803925429,69.23614292063081,71.610850108976
487.0,72.57609175449223,71.29471929119204,72.7118584233578,70.75126179278584,69.07041085134175,71.47390116631749
500.0,72.37928732607432,71.09471929119204,72.55565482066461,70.53874860961679,68.83305436054414,71.28003479270456
515.0,72.21627940083641,70.86588846059688,72.40894717415007,70.3861557087648,68.57193724448713,71.09956734211043
530.0,72.05380974359446,70.69897445130925,72.23818273581385,70.20535886791109,68.28923322652125,70.91761548960824
545.0,71.92402487026023,70.57082970284297,72.10910200724288,70.06640271593112,67.97864031136771,70.76739280162306
560.0,71.82402487026023,70.54314826109436,72.06545736350604,69.98801029628154,67.69473582607142,70.6814979123132
580.0,71.78219967332305,70.64314826109435,72.05152379652131,69.95994452256731,67.43429495097146,70.65618021996336
600.0,71.8457671943847,70.84314826109434,72.15311272827627,70.0107548031334,67.22731811263387,70.73074988994087
615.0,71.93964531976,70.97082970284298,72.1979559577176,70.00269935068975,67.01121519804735,70.77399071828742
630.0,72.07150800786938,71.13752777300027,72.28597810300715,69.98335861103931,66.85451367084207,70.85237435574416
650.0,72.23513059177982,71.26588846059687,72.3745416628919,70.00790459663509,66.73440676534574,70.94289113442177
670.0,72.33513059177983,71.26235742942079,72.38822858212248,69.92457933224367,66.5900442558169,70.94909749680158
690.0,72.40076749445562,71.25380974359447,72.37427859895394,69.89971224316494,66.48425734921567,70.95000381713683
710.0,72.40076749445562,71.1840783937255,72.38806514209902,69.87527584254585,66.43292319362422,70.93148390916916
730.0,72.33746771551316,71.04898514879551,72.33146956055509,69.88464433818257,66.37964875224145,70.86717151734466
750.0,72.24136150423587,70.98219967332305,72.30298529107093,69.98207520154781,66.4076174489365,70.8363294694206
775.0,72.1148352363348,70.92104166298748,72.28167844749504,70.1304033533523,66.45292116765995,70.8113459137646
800.0,71.91627940083642,70.96419800295965,72.24195462928584,70.20670182197347,66.44451428337446,70.76908193453787
825.0,71.8457671943847,71.10920925226938,72.31406343520487,70.32785548878033,66.43728978009935,70.8228446463902
850.0,71.94415774934852,71.3117284643738,72.40496931576871,70.3253677404955,66.355067748813,70.91094469499589
875.0,72.07609175449221,71.39897445130926,72.4623655961118,70.11595964027771,66.07760879053856,70.92597600956427
900.0,72.17150800786938,71.3623574294208,72.46066446413855,69.75047284917645,65.71082601224195,70.86080517749359
925.0,72.17071732495407,71.15237800738083,72.32726820847408,69.30768640110124,65.29788933199049,70.6837739011981
950.0,72.34283030471974,71.14608461666676,72.45617934474785,69.26781313422686,65.21020389885183,70.75857579234278
975.0,72.6840783937255,71.34608461666676,72.76253509706473,69.48928343429434,65.388381274723,71.03296301101659
1000.0,72.89913536951437,71.57387961222817,73.14292653685138,69.80487469660952,65.62488103885201,71.31585111874838
1030.0,72.49317164073088,71.21430637862282,73.01960072179676,69.55850414567047,65.17985892060472,71.02798355139814
1060.0,71.4687803399679,70.21852635130016,72.3919724633453,68.605827791865,63.83291221336563,70.13320435296615
1090.0,70.50378320443463,69.10943953665229,71.75410768306911,67.38882351112657,61.99961853254875,69.18224446673462
1120.0,70.684933415315,68.79430744544666,71.72440672866216,66.68396849194218,61.09393754260758,69.04230001258657
1150.0,72.06668552790023,69.64716357473719,72.49606099463453,67.45970175649404,62.58876444968598,70.04037539280898
1180.0,72.87643617825208,70.4079926521559,73.23737246372947,68.50833123830617,64.09447703064163,70.87153841133662
1220.0,72.50942076110276,70.28219812790056,73.25847996505442,68.41569582620961,63.845350373002816,70.72149434812471
1250.0,71.28538710465898,69.16226919657724,72.38731180827506,67.20388280895007,62.133606520458926,69.62885192467866
1280.0,70.16194729184086,68.04985150686697,71.30627107673237,65.85717392095182,60.34836435316599,68.47662348247277
1320.0,70.54314683892156,68.35648313414828,71.58648248837805,66.08523480071753,60.243495913110436,68.77471187932436
1360.0,71.76839968904116,69.34520516099381,72.59338108984772,67.14609173254536,61.18310287184664,69.84905966759844
1400.0,72.10261155895365,69.50937829065057,72.7452216730331,67.41064552408524,61.454553166340204,70.07595353811693
1450.0,71.5599996174499,68.89389595883674,72.25834164239507,67.0135296338167,61.12377910122261,69.56327856633725
1500.0,70.84090753602631,68.4361070797735,71.8250519883576,66.55556841349039,60.46944897877398,69.02809514540427
1550.0,70.87584607527147,68.99562483724394,72.16869135296959,66.50972788809102,59.96114886122032,69.25460030916418
1600.0,71.49408963790566,69.73638088039144,72.73865728490681,66.38308251282226,59.25383130419621,69.77676965683708
1650.0,71.63696012594369,69.33638088039145,72.61589166991496,65.44744096404364,58.05205050503062,69.5969615114578
1700.0,71.28538710465898,67.98444762363009,72.04721074026186,64.48568261399623,57.2394602063916,68.93120103754492
1750.0,71.14852015458806,66.87655346032068,71.66944061215472,64.86077856371824,57.61223792563365,68.60045493004846
1800.0,71.65177437534742,67.13403046914814,72.16273167900552,66.27068162973926,58.789995073788575,69.16398097816838
1850.0,71.71172846437379,67.29037884047719,72.64388115848419,66.52353755859654,59.23673351107095,69.43506972566054
1900.0,71.17584607527147,66.71664590330462,72.32948031570963,65.74822173115761,59.335757397826896,68.9782368664877
1950.0,71.28888863538651,66.89083949114905,72.23107095637727,66.297917671101,60.08340419833982,69.06774460433408
2000.0,71.65522280896298,67.74165288164495,72.63434768400975,67.33373757372146,60.8464747649536,69.59551221961749
2060.0,71.28204905670954,68.00432912249858,72.82504151591834,67.5081917187973,60.834241295444244,69.61520353765897
2120.0,70.76136837622764,67.6590626365751,72.61347057144673,67.51087966148881,60.84023024476811,69.3302009978707
2180.0,70.85098823501218,67.5771046600885,72.54255461049884,68.23386877962719,61.4347739311782,69.43462946275936
2240.0,70.75522280896298,67.62364704950977,72.6197630258663,69.00108689809463,61.76729564405062,69.58206576918141
2300.0,69.8254512340871,67.62602452356693,72.47733793322045,69.14494102141568,61.224502085793404,69.30682705903975
2360.0,69.17269145322597,67.8429397936019,72.51874529785033,69.2177291613203,60.63559066259997,69.21373744196572
2400.0,69.33308937677076,68.36585727595255,72.91995800868176,69.40527482052337,60.35723639447727,69.5264545962559
2500.0,69.13557346045842,68.48509485802376,72.88821481939013,68.51023413280191,58.93814187671043,69.3018691250829
2580.0,69.62812100489948,68.16251322065519,72.6380299703345,67.62235084758409,57.67049211408114,69.08007635128142
2650.0,70.34090753602631,67.9079107556345,72.46535890339932,67.41555639656987,57.477391841039136,69.1072957064879
2720.0,70.74293979360189,68.20937829065058,72.21014934990116,67.42246776577352,57.32424089746681,69.15775208516098
2800.0,71.88239860760774,68.78888863538651,72.61243334326159,68.26319968847147,57.53435954357006,69.86876351566642
2900.0,71.7672655885961,68.16893616304387,72.42013603872815,67.46650686017742,56.00475535913989,69.5442900057574
3000.0,70.97584607527145,67.39472217650471,72.16934506677231,66.33767333308886,53.39356704857667,68.92191663281494
3070.0,70.59470218621024,66.81798740949019,72.3874566200426,66.07944382826028,51.72990658036548,68.7858030295028
3150.0,69.94449659419709,66.38051352069253,72.17895347406139,65.43917185121855,51.18885318533124,68.37140502922303
3250.0,69.54577223479652,66.42933043421358,72.10394614876087,65.11602595316026,51.191955462876535,68.1972818075922
