Freq "Ceiling Bounce"
22.4 3.516427119079651
23.0 4.809609735268339
23.6 6.3045987580212
24.0 9.113884637678495
25.0 11.324559430059793
25.8 13.02223513684828
26.5 14.420064857473761
27.2 15.606186628655081
28.0 16.69258132536646
29.0 17.680591821040252
30.0 18.857425817936786
30.7 20.636090277440218
31.5 21.795010373862823
32.5 22.650093791321353
33.5 23.22220499766965
34.5 23.59920190864662
35.5 23.975730326684612
36.5 25.084318827268362
37.5 25.906664381125495
38.7 26.34780396808131
40.0 26.60982041016888
41.2 26.463161815804227
42.5 26.934408231856366
43.7 27.212982990393584
45.0 27.19612675907777
46.2 27.04369853019739
47.5 26.745477399926898
48.7 26.994782337787797
50.0 27.10616036292882
51.5 27.14552103577762
53.0 27.549749416597535
54.5 28.708134491200695
56.0 30.136677689056114
58.0 31.517415831490723
60.0 33.048662417702644
61.5 34.428385269762
63.0 35.61311357940235
65.0 36.72816030563098
67.0 38.39033364481179
69.0 40.077553814050134
71.0 41.59479608256663
73.0 43.83909262517426
75.0 45.62271584567711
77.5 47.35434617790611
80.0 48.910810413078224
82.5 50.68695075779924
85.0 52.34097880511537
87.5 53.86130531291954
90.0 55.153816845647896
92.5 56.271827680761774
95.0 57.26147235371565
97.5 58.45486904222082
100.0 59.71092738635481
103.0 60.92737091750524
106.0 62.081557069373474
109.0 63.52861467870558
112.0 64.77957356179049
115.0 65.86303023081064
118.0 66.89211559727522
122.0 67.78805256999689
125.0 68.48121023235942
128.0 68.94530932469802
132.0 69.40993654827909
136.0 69.84076110563942
140.0 70.1407611056394
145.0 70.5061603629288
150.0 70.77207879464657
155.0 70.93772765193492
160.0 71.10389387602905
165.0 71.20389387602904
170.0 71.20389387602904
175.0 71.20389387602904
180.0 71.20389387602904
185.0 71.17057362975454
190.0 71.13621053243033
195.0 71.17057362975454
200.0 71.17057362975454
206.0 71.17057362975454
212.0 71.17057362975454
218.0 71.17057362975454
224.0 71.10545792054947
230.0 71.03851260901723
236.0 71.03851260901723
240.0 70.97365433686215
250.0 70.97365433686215
258.0 70.94234804832931
265.0 70.87365433686213
272.0 70.77365433686215
280.0 70.67365433686214
290.0 70.54234804832932
300.0 70.44234804832931
307.0 70.27588471742962
315.0 70.07588471742963
325.0 69.87588471742963
335.0 69.74530932469801
345.0 69.60993654827911
355.0 69.50993654827911
365.0 69.50993654827911
375.0 69.57960078732323
387.0 69.71522049588042
400.0 69.84530932469801
412.0 70.08121023235941
425.0 70.31764271129776
437.0 70.41764271129776
450.0 70.55461009300225
462.0 70.5216781625271
475.0 70.5216781625271
487.0 70.33016232916675
500.0 70.13016232916675
515.0 69.9013314985716
530.0 69.73441748928397
545.0 69.60627274081769
560.0 69.57859129906907
580.0 69.67859129906907
600.0 69.87859129906906
615.0 70.00627274081769
630.0 70.17297081097499
650.0 70.30133149857159
670.0 70.2978004673955
690.0 70.28925278156919
710.0 70.21952143170022
730.0 70.08442818677023
750.0 70.01764271129777
775.0 69.95648470096219
800.0 69.99964104093436
825.0 70.1446522902441
850.0 70.34717150234852
875.0 70.43441748928397
900.0 70.39780046739551
925.0 70.18782104535555
950.0 70.18152765464147
975.0 70.38152765464147
1000.0 70.60932265020288
1030.0 70.24974941659754
1060.0 69.25396938927487
1090.0 68.144882574627
1120.0 67.82975048342138
1150.0 68.68260661271191
1180.0 69.44343569013061
1220.0 69.31764116587527
1250.0 68.19771223455196
1280.0 67.08529454484169
1320.0 67.391926172123
1360.0 68.38064819896853
1400.0 68.54482132862529
1450.0 67.92933899681145
1500.0 67.47155011774822
1550.0 68.03106787521865
1600.0 68.77182391836615
1650.0 68.37182391836616
1700.0 67.0198906616048
1750.0 65.9119964982954
1800.0 66.16947350712286
1850.0 66.3258218784519
1900.0 65.75208894127934
1950.0 65.92628252912377
2000.0 66.77709591961967
2060.0 67.03977216047329
2120.0 66.69450567454982
2180.0 66.61254769806321
2240.0 66.65909008748449
2300.0 66.66146756154164
2360.0 66.87838283157662
2400.0 67.40130031392727
2500.0 67.52053789599847
2580.0 67.1979562586299
2650.0 66.94335379360922
2720.0 67.24482132862529
2800.0 67.82433167336123
2900.0 67.20437920101858
3000.0 66.43016521447943
3070.0 65.8534304474649
3150.0 65.41595655866725
3250.0 65.4647734721883
3350.0 64.10236032129187
3450.0 62.75785029806147
3550.0 61.842469956564145
3650.0 61.69010204987649
3750.0 61.81744136125194
3870.0 61.74792915670328
4000.0 60.86174335291918
4120.0 60.68371421818303
4250.0 61.551369960241786
4370.0 63.21207102051376
4500.0 64.15661547507258
4620.0 64.37465285908615
4750.0 65.18676063378298
4870.0 66.25208894127933
5000.0 66.14465444517876
5150.0 65.79795625862991
5300.0 65.90437920101859
5450.0 65.86241124091701
5600.0 64.40807324834591
5800.0 64.52380250619628
6000.0 63.87465432120423
6150.0 63.148183910710856
6300.0 64.09593718460077
6500.0 64.47339142752475
6700.0 61.88692392335672
6900.0 60.53710275489436
7100.0 60.912071020513764
7300.0 60.768129193352635
7500.0 59.652003031150784
7750.0 58.318877648270245
8000.0 57.13441748928395
8250.0 57.121678162527076
8500.0 57.671917161878866
8750.0 58.132865024637724
9000.0 59.731067875218656
9250.0 60.345389115046444
9500.0 60.25865057663738
9750.0 59.84537930697766
10000.0 59.635000023162945
10300.0 59.0391451342885
10600.0 58.89230338465913
10900.0 59.27377788875529
11200.0 60.108906113055085
11500.0 60.480391494840845
11800.0 61.46291026883442
12200.0 62.678913428268245
12500.0 63.8099365482791
12800.0 64.93209085090703
13200.0 64.40533166779817
13600.0 62.92127475040053
14000.0 62.21358906834959
14500.0 61.95461402014327
15000.0 62.185782850808906
15500.0 62.78008549978746
16000.0 65.22710828837656
16500.0 65.51965931810525
17000.0 64.03283863308488
17500.0 62.24384321256926
18000.0 58.76120978151111
18500.0 58.43211272340787
19000.0 55.02807962080411
19500.0 49.32127475040053
