Freq "Ceiling Bounce"
22.4 4.480984081104964
23.0 5.774166697293623
23.6 7.269155720046484
24.0 10.078441599703751
25.0 12.289116392085077
25.8 13.986792098873593
26.5 15.384621819499046
27.2 16.570743590680337
28.0 17.657138287391774
29.0 18.645148783065565
30.0 19.82198277996207
30.7 21.60064723946553
31.5 22.759567335888107
32.5 23.61465075334661
33.5 24.186761959694934
34.5 24.563758870671904
35.5 24.940287288709925
36.5 26.048875789293618
37.5 26.87122134315075
38.7 27.312360930106593
40.0 27.574377372194192
41.2 27.427718777829483
42.5 27.89896519388165
43.7 28.177539952418897
45.0 28.160683721103055
46.2 28.008255492222673
47.5 27.710034361952182
48.7 27.95933929981308
50.0 28.070717324954074
51.5 28.110077997802904
53.0 28.51430637862282
54.5 29.67269145322595
56.0 31.1012346510814
58.0 32.48197279351601
60.0 34.0132193797279
61.5 35.39294223178729
63.0 36.577670541427665
65.0 37.69271726765629
67.0 39.3548906068371
69.0 41.04211077607539
71.0 42.559353044591916
73.0 44.803649587199516
75.0 46.58727280770239
77.5 48.31890313993139
80.0 49.87536737510351
82.5 51.65150771982454
85.0 53.30553576714067
87.5 54.825862274944825
90.0 56.11837380767318
92.5 57.23638464278707
95.0 58.22602931574093
97.5 59.41942600424612
100.0 60.67548434838011
103.0 61.89192787953053
106.0 63.046114031398744
109.0 64.49317164073088
112.0 65.74413052381576
115.0 66.82758719283594
118.0 67.8566725593005
122.0 68.75260953202218
125.0 69.44576719438469
128.0 69.90986628672329
132.0 70.37449351030438
136.0 70.8053180676647
140.0 71.1053180676647
145.0 71.47071732495408
150.0 71.73663575667186
155.0 71.9022846139602
160.0 72.06845083805433
165.0 72.16845083805433
170.0 72.16845083805433
175.0 72.16845083805433
180.0 72.16845083805433
185.0 72.13513059177984
190.0 72.10076749445562
195.0 72.13513059177984
200.0 72.13513059177984
206.0 72.13513059177984
212.0 72.13513059177984
218.0 72.13513059177984
224.0 72.07001488257477
230.0 72.00306957104252
236.0 72.00306957104252
240.0 71.93821129888744
250.0 71.93821129888744
258.0 71.90690501035459
265.0 71.83821129888743
272.0 71.73821129888742
280.0 71.63821129888743
290.0 71.50690501035459
300.0 71.40690501035459
307.0 71.2404416794549
315.0 71.0404416794549
325.0 70.8404416794549
335.0 70.7098662867233
345.0 70.57449351030438
355.0 70.47449351030438
365.0 70.47449351030438
375.0 70.54415774934853
387.0 70.67977745790569
400.0 70.80986628672329
412.0 71.0457671943847
425.0 71.28219967332303
437.0 71.38219967332304
450.0 71.51916705502754
462.0 71.48623512455237
475.0 71.48623512455237
487.0 71.29471929119205
500.0 71.09471929119205
515.0 70.86588846059686
530.0 70.69897445130924
545.0 70.57082970284299
560.0 70.54314826109434
580.0 70.64314826109434
600.0 70.84314826109436
615.0 70.97082970284299
630.0 71.13752777300026
650.0 71.26588846059687
670.0 71.26235742942077
690.0 71.25380974359446
710.0 71.18407839372551
730.0 71.04898514879551
750.0 70.98219967332304
775.0 70.92104166298749
800.0 70.96419800295965
825.0 71.10920925226938
850.0 71.3117284643738
875.0 71.39897445130924
900.0 71.36235742942078
925.0 71.15237800738082
950.0 71.14608461666677
975.0 71.34608461666674
1000.0 71.57387961222818
1030.0 71.21430637862281
1060.0 70.21852635130014
1090.0 69.10943953665227
1120.0 68.79430744544665
1150.0 69.6471635747372
1180.0 70.40799265215588
1220.0 70.28219812790056
1250.0 69.16226919657723
1280.0 68.04985150686699
1320.0 68.35648313414828
1360.0 69.34520516099383
1400.0 69.50937829065057
1450.0 68.89389595883674
1500.0 68.4361070797735
1550.0 68.99562483724392
1600.0 69.73638088039144
1650.0 69.33638088039146
1700.0 67.98444762363009
1750.0 66.8765534603207
1800.0 67.13403046914816
1850.0 67.29037884047719
1900.0 66.71664590330461
1950.0 66.89083949114904
2000.0 67.74165288164494
2060.0 68.00432912249856
2120.0 67.65906263657509
2180.0 67.57710466008848
2240.0 67.62364704950977
2300.0 67.62602452356691
2360.0 67.8429397936019
2400.0 68.36585727595255
2500.0 68.48509485802376
2580.0 68.1625132206552
2650.0 67.90791075563449
2720.0 68.20937829065056
2800.0 68.78888863538651
2900.0 68.16893616304387
3000.0 67.39472217650473
3070.0 66.81798740949017
3150.0 66.38051352069255
3250.0 66.42933043421357
3350.0 65.06691728331717
3450.0 63.72240726008674
3550.0 62.80702691858943
3650.0 62.654659011901785
3750.0 62.78199832327721
3870.0 62.71248611872855
4000.0 61.82630031494445
4120.0 61.6482711802083
4250.0 62.515926922267056
4370.0 64.17662798253905
4500.0 65.12117243709787
4620.0 65.33920982111144
4750.0 66.15131759580825
4870.0 67.21664590330462
5000.0 67.10921140720403
5150.0 66.76251322065521
5300.0 66.86893616304386
5450.0 66.8269682029423
5600.0 65.37263021037121
5800.0 65.48835946822155
6000.0 64.8392112832295
6150.0 64.11274087273613
6300.0 65.06049414662607
6500.0 65.43794838955
6700.0 62.85148088538202
6900.0 61.50165971691965
7100.0 61.87662798253905
7300.0 61.73268615537795
7500.0 60.616559993176054
7750.0 59.283434610295515
8000.0 58.09897445130926
8250.0 58.086235124552374
8500.0 58.63647412390415
8750.0 59.09742198666302
9000.0 60.695624837243926
9250.0 61.309946077071714
9500.0 61.22320753866266
9750.0 60.80993626900295
10000.0 60.599556985188215
10300.0 60.00370209631379
10600.0 59.85686034668443
10900.0 60.23833485078059
11200.0 61.07346307508038
11500.0 61.44494845686613
11800.0 62.42746723085969
12200.0 63.643470390293515
12500.0 64.77449351030438
12800.0 65.89664781293233
13200.0 65.36988862982345
13600.0 63.88583171242581
14000.0 63.178146030374876
14500.0 62.919170982168566
15000.0 63.150339812834176
15500.0 63.74464246181273
16000.0 66.19166525040185
16500.0 66.48421628013055
17000.0 64.99739559511015
17500.0 63.20840017459456
18000.0 59.72576674353641
18500.0 59.39666968543317
19000.0 55.99263658282938
19500.0 50.28583171242582
