Freq "Front Wall Bounce"
22.4 5.614888777417519
23.0 4.789948829766644
23.6 4.685064920406944
24.0 6.274426487540438
25.0 7.39933126404614
25.8 8.17898509386319
26.5 8.736713187438596
27.2 9.31553801981616
28.0 9.907955660767044
29.0 10.50613020936592
30.0 11.570492581972047
30.7 13.270968295543724
31.5 14.435276672091618
32.5 15.3982454956394
33.5 16.21353423755113
34.5 16.901416658953167
35.5 17.65618251929422
36.5 19.261163894778264
37.5 20.49556097322261
38.7 21.426660499956483
40.0 22.106246658810647
41.2 22.577016918141226
42.5 23.59888889651569
43.7 24.625062346489415
45.0 25.372803547593463
46.2 25.97811744557356
47.5 26.7257022936316
48.7 28.210115428383006
50.0 29.497805618246076
51.5 30.613189701289485
53.0 31.744695605737718
54.5 33.23110083287267
56.0 34.63370304152468
58.0 35.97521316329096
60.0 37.58420403872532
61.5 39.21327118407484
63.0 41.047030116205036
65.0 43.37226199407104
67.0 46.379892821055336
69.0 48.9226103248005
71.0 49.69450337468734
73.0 50.43034630985069
75.0 50.47320657311957
77.5 50.98290049624728
80.0 51.66066643924073
82.5 52.959608849708644
85.0 54.37703930115792
87.5 55.8902373712845
90.0 57.263350358528385
92.5 58.42379789569425
95.0 59.415775686942496
97.5 60.611546548744116
100.0 61.823005295022426
103.0 62.8894702043597
106.0 63.943714174934115
109.0 65.21199959334453
112.0 66.33691507498752
115.0 67.26360670716288
118.0 68.17657558138386
122.0 68.99042913322418
125.0 69.64678994296995
128.0 70.10330414739937
132.0 70.60433679655141
136.0 71.06009724486702
140.0 71.37569713721814
145.0 71.78988322198784
150.0 72.0321432491439
155.0 72.23214324914392
160.0 72.38883962278669
165.0 72.50265417083517
170.0 72.54512368826401
175.0 72.54512368826401
180.0 72.54512368826401
185.0 72.54512368826401
190.0 72.4894916700089
195.0 72.4894916700089
200.0 72.50330414739938
206.0 72.50330414739938
212.0 72.50330414739938
218.0 72.54776629633652
224.0 72.5474409271095
230.0 72.50530029936075
236.0 72.5193827167738
240.0 72.47763667454646
250.0 72.46308626545354
258.0 72.46308626545354
265.0 72.37730600842409
272.0 72.33512927764767
280.0 72.22077053652625
290.0 72.13417237059011
300.0 72.03417237059011
307.0 71.90497173289589
315.0 71.70669262583408
325.0 71.59223940121059
335.0 71.49223940121061
345.0 71.42013790593066
355.0 71.39289093823004
365.0 71.47966935779183
375.0 71.59416440600646
387.0 71.82601428601045
400.0 71.98126324304945
412.0 72.28280541797602
425.0 72.52614556841019
437.0 72.65685353392553
450.0 72.82712657343741
462.0 72.85578521012795
475.0 72.81338977405673
487.0 72.7118584233578
500.0 72.55565482066461
515.0 72.40894717415007
530.0 72.23818273581385
545.0 72.10910200724288
560.0 72.06545736350604
580.0 72.05152379652131
600.0 72.15311272827627
615.0 72.1979559577176
630.0 72.28597810300715
650.0 72.3745416628919
670.0 72.38822858212248
690.0 72.37427859895394
710.0 72.38806514209902
730.0 72.33146956055509
750.0 72.30298529107093
775.0 72.28167844749504
800.0 72.24195462928584
825.0 72.31406343520487
850.0 72.40496931576871
875.0 72.4623655961118
900.0 72.46066446413855
925.0 72.32726820847408
950.0 72.45617934474785
975.0 72.76253509706473
1000.0 73.14292653685138
1030.0 73.01960072179676
1060.0 72.3919724633453
1090.0 71.75410768306911
1120.0 71.72440672866216
1150.0 72.49606099463453
1180.0 73.23737246372947
1220.0 73.25847996505442
1250.0 72.38731180827506
1280.0 71.30627107673237
1320.0 71.58648248837805
1360.0 72.59338108984772
1400.0 72.7452216730331
1450.0 72.25834164239507
1500.0 71.8250519883576
1550.0 72.16869135296959
1600.0 72.73865728490681
1650.0 72.61589166991496
1700.0 72.04721074026186
1750.0 71.66944061215472
1800.0 72.16273167900552
1850.0 72.64388115848419
1900.0 72.32948031570963
1950.0 72.23107095637727
2000.0 72.63434768400975
2060.0 72.82504151591834
2120.0 72.61347057144673
2180.0 72.54255461049884
2240.0 72.6197630258663
2300.0 72.47733793322045
2360.0 72.51874529785033
2400.0 72.91995800868176
2500.0 72.88821481939013
2580.0 72.6380299703345
2650.0 72.46535890339932
2720.0 72.21014934990116
2800.0 72.61243334326159
2900.0 72.42013603872815
3000.0 72.16934506677231
3070.0 72.3874566200426
3150.0 72.17895347406139
3250.0 72.10394614876087
3350.0 71.79936142768348
3450.0 71.41424460567336
3550.0 71.18997193823799
3650.0 71.50151177273067
3750.0 71.70481289191162
3870.0 72.2818366724492
4000.0 72.65790981541025
4120.0 72.5136915293453
4250.0 72.65495983866111
4370.0 72.81718342267779
4500.0 72.50594610844828
4620.0 72.63587237317944
4750.0 73.1073196197522
4870.0 72.89457917453217
5000.0 72.56676916910058
5150.0 72.10942530701182
5300.0 72.23568599552661
5450.0 72.5825681003146
5600.0 72.15351190450868
5800.0 72.00568968569243
6000.0 72.02971906700661
6150.0 71.07738084932812
6300.0 70.11025300573677
6500.0 70.81287357721237
6700.0 70.84903198535514
6900.0 70.761556469207
7100.0 71.08362361222176
7300.0 71.29395376200483
7500.0 71.69448483211366
7750.0 71.89169782786877
8000.0 71.78815208056163
8250.0 71.23989570720013
8500.0 70.97445336236984
8750.0 70.7010847837806
9000.0 70.35463047364937
9250.0 70.30524752640311
9500.0 70.18154451411844
9750.0 70.59066293648115
10000.0 70.75280549527993
10300.0 70.7555411654779
10600.0 70.19496252467566
10900.0 69.86996670368947
11200.0 69.46720930575772
11500.0 69.66529926840288
11800.0 70.20865083943347
12200.0 70.67118114805139
12500.0 71.81276002969112
12800.0 72.61145022359187
13200.0 72.29695724287049
13600.0 71.34990037641444
14000.0 70.53240517163424
14500.0 70.5262495067013
15000.0 70.91027636668429
15500.0 70.30377901703986
16000.0 70.30043827058755
16500.0 69.51659902681556
17000.0 68.45093255706563
17500.0 68.99947194297717
18000.0 68.30591680286268
18500.0 67.17903309511053
19000.0 65.63544667400045
19500.0 63.97478244298179
