Freq,On Axis,Listening Window,Sound Power,Early Reflections,Early Reflections DI,Sound Power DI,DI offset
22.4,48.8,55.125987509923945,54.62826196486991,54.25215430748692,40.87383320243703,40.49772554505404,40
23.0,50.2,56.49814681272325,56.667720683018516,56.625549572233254,39.872597240489995,39.83042612970473,40
23.6,51.3,57.628441660102524,58.571749484580735,58.71897452437689,38.909467135725635,39.05669217552179,40
24.0,52.3,58.7549103022596,59.31492972635364,59.43924500003773,39.31566530222187,39.43998057590596,40
25.0,53.60000000000001,60.17621176423772,60.45722958495894,60.59180941690822,39.5844023473295,39.71898217927878,40
25.8,54.8,61.49237624100739,61.941292881946154,62.22879913404776,39.26357710695963,39.55108335906124,40
26.5,55.8,62.76018343312212,64.37030839696622,64.9665144966795,37.79366893644263,38.3898750361559,40
27.2,56.8,62.074381763527626,63.70139417612357,63.39008298788691,38.68429877564071,38.372987587404054,40
28.0,58.000000000000014,61.71797849126935,63.62172783125254,62.439798513426936,39.27817997784241,38.09625066001681,40
29.0,59.10000000000001,61.4614507204366,63.88690999018914,61.976818780681256,39.484631939755346,37.57454073024746,40
30.0,60.000000000000014,61.0040695462729,63.01750179096926,61.144530754914484,39.85953879135842,37.98656775530364,40
30.7,60.999999999999986,61.26519118311593,62.52811987717051,61.34098772344974,39.92420345966619,38.73707130594542,40
31.5,61.89999999999999,61.873331903030504,62.953746798480736,62.034842834894775,39.83848906813573,38.91958510454977,40
32.5,62.7,62.55839212030328,63.53017114109865,62.78123215405074,39.77715996625254,39.02822097920463,40
33.5,63.60000000000001,63.64013439200339,64.26657751642223,63.93026368327712,39.70987070872627,39.37355687558116,40
34.5,64.50000000000001,64.9220245844409,65.11886129372456,65.1840220969504,39.738002487490505,39.80316329071634,40
35.5,65.3,66.27145082982219,66.20295710945415,66.53724394602975,39.73420688379244,40.06849372036804,40
36.5,66.2,67.65136522454965,67.45701158302147,67.86388682513213,39.78747839941752,40.19435364152818,40
37.5,67.00000000000001,69.08417834217816,68.83334162296181,69.22912857616517,39.855049766012996,40.25083671921635,40
38.7,67.8,70.78784348742674,70.22780754292826,70.576418407097,40.21142508032975,40.56003594449848,40
40.0,68.49999999999999,70.90021139594639,69.44964511333006,70.0411013435437,40.859110052402684,41.45056628261632,40
41.2,69.2,71.11810432391538,68.90336381044591,69.70420913143599,41.41389519247939,42.214740513469465,40
42.5,70.0,71.03770569877314,68.96826600622704,69.70899799781947,41.32870770095367,42.0694396925461,40
43.7,70.60000000000001,70.84516316302886,69.85979395145208,70.18882385445066,40.6563393085782,40.98536921157678,40
45.0,71.3,71.26238943314962,71.29349086102123,71.29235800383086,39.970031429318766,39.968898572128396,40
46.2,71.9,71.82237736562816,71.42280013267153,71.835291320552,39.987086045076154,40.39957723295663,40
47.5,72.5,72.69450904608756,72.46525752218861,73.14942618580271,39.54508286028485,40.22925152389895,40
48.7,73.0,72.87729019899695,74.25424327627216,74.87082182904126,38.006468369955684,38.62304692272478,40
50.0,73.49999999999999,73.34957651271681,74.52788524119187,75.15553633724289,38.194040175473916,38.82169127152494,40
51.5,73.9,74.01519389352497,72.76616661542964,73.56662271333353,40.448571180191436,41.249027278095326,40
53.0,74.4,74.52092351434445,72.53556694763203,73.48168329876161,41.039240215582836,41.98535656671241,40
54.5,74.89999999999999,74.37844984530996,72.84162241104755,73.64943850763385,40.72901133767611,41.536827434262406,40
56.0,75.4,74.72005873600146,73.40542620192649,74.14163227233674,40.57842646366473,41.314632534074974,40
58.0,75.99999999999999,75.50064500083492,74.21869620537167,74.91043207680713,40.590212924027796,41.28194879546325,40
60.0,76.6,76.23921517058122,75.0170223847029,75.6474887012999,40.59172646928131,41.22219278587832,40
61.5,77.3,76.96325520407984,75.85250167718006,76.38074626659657,40.58250893748327,41.110753526899785,40
63.0,77.9,77.55245292831147,76.5225586440841,77.00063727890618,40.551815649405285,41.02989428422737,40
65.0,78.49999999999999,78.09699737028048,77.10556875300794,77.56987617194407,40.5271211983364,40.99142861727253,40
67.0,79.0,78.60691732963416,77.67376800301481,78.10945041245061,40.497466917183544,40.93314932661934,40
69.0,79.59999999999998,79.183620412542,78.26164188507688,78.69023946344352,40.49338094909848,40.921978527465114,40
71.0,80.1,79.78307626545255,78.89716465005513,79.32006412044964,40.46301214500291,40.88591161539742,40
73.0,80.60000000000001,80.36922992973311,79.6424818247644,79.98065475255197,40.38857517718114,40.726748104968706,40
75.0,80.99999999999999,80.8343573213356,80.33413040718465,80.58043865361762,40.25391866771798,40.50022691415096,40
77.5,81.3,81.28925841531061,80.98797719539094,81.13142931714046,40.157829098170154,40.30128121991967,40
80.0,81.8,81.77823306508388,81.67202699216867,81.727032765282,40.05120029980188,40.106206072915214,40
82.5,82.3,82.31122549985842,82.42405820735961,82.37987162125249,39.93135387860593,39.887167292498816,40
85.0,82.8,82.88925841531062,83.17410645997671,83.03428340370472,39.8549750116059,39.71515195533391,40
87.5,83.3,83.30025584655587,83.72178958312098,83.53997753226423,39.76027831429164,39.57846626343489,40
90.0,83.6,83.6112254998584,83.94387053738427,83.79812008299193,39.81310541686648,39.667354962474136,40
92.5,83.9,83.87849019712911,83.93475673381506,83.95513598637139,39.92335421075772,39.94373346331405,40
95.0,84.2,84.16768347817136,83.84889890480451,84.07036500416504,40.097318474006315,40.31878457336684,40
97.5,84.4,84.42319152961714,83.92505449257843,84.19705978635896,40.22613174325818,40.49813703703872,40
100.0,84.59999999999998,84.61300581665408,84.04649746481921,84.31714198796621,40.29586382868787,40.56650835183487,40
103.0,84.7,84.72293110248063,84.1072089073969,84.3914729008543,40.33145820162633,40.615722195083734,40
106.0,84.8,84.7454944791988,84.11404236461469,84.40064007768923,40.344854401509565,40.63145211458411,40
109.0,84.8,84.75686156553041,83.98839715301004,84.32163400053454,40.43522756499587,40.76846441252037,40
112.0,84.8,84.76768347817136,83.81970008387017,84.22971384482096,40.5379696333504,40.94798339430119,40
115.0,84.59999999999998,84.5902725709036,83.53175503528792,83.99933051235853,40.59094205854507,41.05851753561568,40
118.0,84.50000000000001,84.44549447919881,83.32890423542351,83.81460176285518,40.63089271634364,41.116590243775306,40
122.0,84.4,84.31274477799037,83.05922996023638,83.60645935731833,40.706285420672046,41.253514817753995,40
125.0,84.2,84.11274477799039,82.80298624306944,83.38733711845542,40.725407659534966,41.309758534920945,40
128.0,84.0,83.85786005860781,82.47898279326442,83.10570656012447,40.75215349848334,41.37887726534339,40
132.0,83.8,83.65837672536982,82.14180237297862,82.85064973398138,40.807726991388435,41.5165743523912,40
136.0,83.6,83.44727259632451,81.87260444091032,82.60043075002825,40.84684184629626,41.57466815541419,40
140.0,83.40000000000002,83.18127710423244,81.64833194270473,82.33925141652547,40.842025687706965,41.53294516152771,40
145.0,83.2,82.99428176701228,81.30977348404433,82.06013070009293,40.934151066919355,41.684508282967954,40
150.0,83.0,82.76363182410125,80.96604238132515,81.79676206445139,40.96686975964987,41.7975894427761,40
155.0,82.9,82.6520177531097,80.69512789239003,81.5952350631365,41.056782689973204,41.95688986071967,40
160.0,82.8,82.53025654958245,80.47220723421141,81.42580301546559,41.10445353411686,42.058049315371036,40
165.0,82.8,82.46390198076043,80.28918672837378,81.29906600055138,41.16483598020905,42.17471525238665,40
170.0,82.7,82.35384071244383,80.04060242199425,81.1204220096842,41.23341870275962,42.313238290449576,40
175.0,82.6,82.2223133132246,79.7343595318835,80.90721275798977,41.315100555234835,42.487953781341105,40
180.0,82.5,82.11453682579611,79.43668798462073,80.69537000113637,41.41916682465974,42.677848841175376,40
185.0,82.5,82.04312061170451,79.09240648200576,80.48924555585931,41.5538750558452,42.95071412969875,40
190.0,82.5,81.98653703694285,78.9364173526284,80.38956019934335,41.5969768375995,43.05011968431445,40
195.0,82.5,82.04366978779929,79.19729232440558,80.52438563572535,41.519284152073936,42.84637746339371,40
200.0,82.7,82.18736211571434,79.23681070482782,80.57850879775707,41.60885331795727,42.95055141088652,40
206.0,82.8,82.37415670610531,79.12467556851027,80.65141528441403,41.72274142169128,43.24948113759504,40
212.0,83.0,82.49888217575923,79.0497239246989,80.72718083740514,41.77170133835409,43.44915825106034,40
218.0,83.10000000000001,82.714810053683,79.02865674684669,80.86563772711878,41.849172326564215,43.6861533068363,40
224.0,83.10000000000001,82.79882484139397,78.99141986796765,80.91355478676343,41.88527005463054,43.807404973426316,40
230.0,83.0,82.74063796503015,78.90089966348326,80.86814508477659,41.87249288025356,43.83973830154689,40
236.0,82.8,82.54063796503013,78.70887934597805,80.67988444813582,41.860753516894306,43.83175861905208,40
240.0,82.6,82.2673535614441,78.38865973903036,80.40886930259391,41.85848425885018,43.87869382241374,40
250.0,82.39999999999999,82.15547878801952,78.16736909261473,80.23921681420498,41.91626197381454,43.98810969540479,40
258.0,82.3,82.07521491911375,78.07068549824756,80.16100649735401,41.91420842175974,44.00452942086619,40
265.0,82.3,81.99882484139397,78.05466426537373,80.11266503828755,41.88615980310642,43.94416057602024,40
272.0,82.2,81.89882484139397,77.98199600193962,80.0651055216059,41.833719319788074,43.916828839454354,40
280.0,82.00000000000001,81.75255333093843,77.8328853031549,79.89798647749039,41.854566853448034,43.91966802778353,40
290.0,81.7,81.53920322092233,77.65680400981012,79.68890263405054,41.850300586871796,43.882399211112215,40
300.0,81.4,81.31711097384773,77.49197512304579,79.49930978526092,41.81780118858681,43.82513585080194,40
307.0,81.4,81.31658937413277,77.52826041030923,79.50551593863537,41.811073435497406,43.788328963823545,40
315.0,81.9,81.74077894527068,77.90798238654214,79.84937879318261,41.89140015208807,43.83279655872853,40
325.0,82.5,82.32042087112158,78.35400426132333,80.3105717456341,42.00984912548748,43.96641660979826,40
335.0,83.10000000000001,82.80284559139568,78.61029577844555,80.6472694530052,42.15557613839049,44.19254981295013,40
345.0,83.49999999999999,83.12948444092207,78.47418620794585,80.71977809314703,42.40970634777504,44.65529823297622,40
355.0,83.8,83.3953085929133,78.37593630763554,80.81899146284813,42.57631713006516,45.019372285277754,40
365.0,83.9,83.59234999311512,78.57075030945441,81.05425632441931,42.53809366869581,45.02159968366071,40
375.0,84.1,83.79234999311511,78.89016731321782,81.3474022182269,42.444947774888206,44.902182679897294,40
387.0,84.3,83.97269175359993,79.03969585745376,81.51089159653823,42.4618001570617,44.93299589614617,40
400.0,84.4,84.01531132286463,78.91504310415814,81.46153767923478,42.55377364362985,45.10026821870649,40
412.0,84.4,83.9224202042077,78.59701539596183,81.28848796093625,42.633932243271445,45.325404808245864,40
425.0,84.2,83.79391938272046,78.51410801965815,81.16491563599925,42.62900374672121,45.27981136306231,40
437.0,84.0,83.59864882712533,78.79355130767934,81.21111967307876,42.387529154046575,44.805097519445994,40
450.0,83.7,83.40739489547273,79.16887800638911,81.29115589235538,42.11623900311736,44.23851688908363,40
462.0,83.6,83.3561292821829,79.45085694345524,81.3536124790367,42.00251680314621,43.90527233872767,40
475.0,83.9,83.54105733103732,79.54189420955609,81.53953307364307,42.00152425739425,43.99916312148123,40
487.0,84.50000000000001,84.0211247702672,79.63628906549714,81.87997317760235,42.141151592664855,44.38483570477007,40
500.0,84.89999999999999,84.37959048579195,79.68094132060169,82.17407358576862,42.205516900023326,44.69864916519026,40
515.0,84.89999999999999,84.39814316574216,79.42317810651694,82.12372189568235,42.274421270059804,44.97496505922521,40
530.0,84.89999999999999,84.38788121162683,79.2092217116858,82.0774144015977,42.31046681002914,45.178659499941034,40
545.0,85.0,84.51625419721864,79.18710796498533,82.20884222746689,42.307411969751755,45.32914623223331,40
560.0,85.1,84.66896614876295,79.20268067682024,82.35898204924716,42.30998409951579,45.46628547194271,40
580.0,85.0,84.56890628824141,79.14814618002765,82.34739205224997,42.221514235991435,45.420760108213756,40
600.0,84.8,84.37903341354534,78.97821841219258,82.18318266892304,42.195850744622305,45.40081500135277,40
615.0,84.8,84.44285204452046,78.89749591969107,82.16803532289532,42.27481672162514,45.5453561248294,40
630.0,84.89999999999999,84.4384964591682,78.79601985918981,82.15336224330811,42.2851342158601,45.642476599978394,40
650.0,84.89999999999999,84.39791340474171,78.67439502613085,82.14728051158896,42.250632893152755,45.72351837861086,40
670.0,84.8,84.23616825067829,78.21622697874383,81.89821260952044,42.33795564115785,46.01994127193446,40
690.0,84.8,84.0786778494569,77.52458502800636,81.51755951446329,42.56111833499361,46.55409282145054,40
710.0,84.7,83.95228642295349,77.07204366433035,81.28764901353982,42.66463740941367,46.88024275862314,40
730.0,84.3,83.49105624173048,76.42212083968268,80.7147423627035,42.77631387902697,47.0689354020478,40
750.0,84.0,83.04045761439194,75.86082185674441,80.1495724120914,42.89088520230054,47.17963575764753,40
775.0,83.9,82.87974611364518,75.70194141705461,79.93821121330285,42.94153490034233,47.17780469659057,40
800.0,83.6,82.58836265916325,75.60210299208578,79.84203522848462,42.74632743067863,46.986259667077476,40
825.0,83.7,82.61197877914198,75.53045852414745,79.8468774808592,42.76510129828277,47.08152025499453,40
850.0,84.0,82.74845711697249,75.35416495353498,79.91378753919224,42.83466957778025,47.39429216343751,40
875.0,83.9,82.66973503854736,75.14217810993622,79.89586794285343,42.77386709569393,47.52755692861113,40
900.0,84.2,83.05590706541864,75.45577593156963,80.2303798906206,42.82552717479804,47.600131133849004,40
925.0,84.59999999999998,83.49888158506572,75.6629414037405,80.54725865746286,42.951622927602855,47.83594018132521,40
950.0,85.5,84.53589256984291,76.4586230449623,81.30621734061963,43.22967522922329,48.07726952488062,40
975.0,86.6,85.44262976638453,77.02486632180248,81.64696352862966,43.79566623775487,48.41776344458205,40
1000.0,87.5,86.3419957480174,77.9083965896087,82.50864637241774,43.83334937559965,48.4335991584087,40
1030.0,87.9,86.77458966798712,78.39808975984919,82.96793147596946,43.80665819201765,48.37649990813793,40
1060.0,87.8,86.45744729983572,77.89060940222141,82.48819304644941,43.96925425338631,48.566837897614306,40
1090.0,87.00000000000001,85.74671183064949,77.12576254006053,81.73852989023871,44.00818194041078,48.62094929058895,40
1120.0,86.3,85.14863521820575,76.29212712434204,80.91484208520667,44.23379313299908,48.85650809386371,40
1150.0,85.7,84.41594382268202,75.33838000554107,79.98631556406085,44.42962825862118,49.077563817140955,40
1180.0,85.5,83.94212850295416,74.34314209328863,79.0972970338526,44.844831469101564,49.59898640966553,40
1220.0,85.8,84.28073022197835,74.28303923982504,79.11228024733948,45.16844997463886,49.9976909821533,40
1250.0,86.2,84.3386336583681,74.19787077996605,78.9410734738411,45.397560184526995,50.14076287840204,40
1280.0,86.7,84.71537525179407,74.89815037254546,79.46552965864406,45.24984559315001,49.81722487924861,40
1320.0,86.4,84.33347626935448,74.87697491344379,79.270866167807,45.06261010154748,49.45650135591069,40
1360.0,85.90000000000002,83.77117101933352,74.73143045271543,78.90884876756488,44.862322251768646,49.03974056661809,40
1400.0,85.1,83.29832288940777,74.49479181998728,78.47269448352026,44.825628405887514,48.80353106942049,40
1450.0,84.50000000000001,82.60849189598078,73.95118150191304,77.99169454083543,44.61679735514535,48.657310394067736,40
1500.0,84.4,82.64409499333249,74.2500066911413,78.33669728366151,44.30739770967098,48.39408830219119,40
1550.0,84.4,82.54874123031897,74.38261517041371,78.65396057439638,43.89478065592259,48.16612605990525,40
1600.0,84.2,82.60537117110162,74.36511211940685,78.6941774351976,43.91119373590402,48.24025905169478,40
1650.0,84.1,82.70037491845432,74.43614484159049,78.7284000690669,43.97197484938742,48.264230076863825,40
1700.0,83.9,82.71546162087868,74.70058934911013,78.75339978884394,43.96206183203475,48.01487227176855,40
1750.0,83.6,82.37826010325621,74.66584073429965,78.58372746300797,43.794532640248235,47.71241936895656,40
1800.0,83.10000000000001,82.14930155546902,74.69814973217795,78.57889237648827,43.57040917898075,47.45115182329107,40
1850.0,83.0,82.0702094798131,74.62510161847777,78.54606778565038,43.52414169416272,47.44510786133533,40
1900.0,83.0,81.9530548216372,74.23581640945112,78.45231353267047,43.50074128896672,47.71723841218608,40
1950.0,82.9,81.7176995913632,73.91068973690531,78.34735592870003,43.370343662663174,47.80700985445789,40
2000.0,82.7,81.80246708335831,74.1089815651596,78.43680783416805,43.36565924919026,47.69348551819871,40
2060.0,82.8,81.9268862682138,74.42391761974662,78.55830130074403,43.36858496746977,47.50296864846719,40
2120.0,83.2,82.49138395772633,74.68195441358347,78.85989261607902,43.631491341647305,47.80942954414286,40
2180.0,82.7,82.23756259720643,74.29304893872515,78.47909872848446,43.758463868721975,47.944513658481284,40
2240.0,82.00000000000001,82.15896750938403,74.43266677473909,78.43677198491777,43.72219552446626,47.72630073464494,40
2300.0,82.00000000000001,82.43687489228051,74.63329521667303,78.70668392104187,43.73019097123864,47.80357967560748,40
2360.0,82.8,82.90229204729012,74.84982151941922,78.98220758946829,43.92008445782183,48.052470527870895,40
2400.0,83.6,83.10385902910272,74.74158890813543,79.00234942326385,44.10150960583887,48.362270120967295,40
2500.0,83.49999999999999,82.87480399289647,74.51010096353416,78.77242485902603,44.10237913387044,48.36470302936232,40
2580.0,83.6,83.07988656692746,74.73395037286018,78.90237140566315,44.17751516126431,48.34593619406728,40
2650.0,83.6,83.05340935353853,74.32191490815327,78.50718613868297,44.54622321485556,48.73149444538525,40
2720.0,83.6,83.11633734784697,74.27365225817117,78.43994162848729,44.676395719359675,48.8426850896758,40
2800.0,83.6,82.97421533075759,73.76313570380456,78.17912508695332,44.79509024380427,49.21107962695302,40
2900.0,83.7,82.91425014065247,73.57680777169402,78.03182624046973,44.882423900182744,49.33744236895845,40
3000.0,83.6,82.8398203514658,73.40619130766346,77.91330696988025,44.92651338158555,49.43362904380234,40
3070.0,83.40000000000002,82.48619828705988,72.98867779845423,77.40343082163015,45.082767465429725,49.497520488605645,40
3150.0,83.3,82.29999037251903,72.84129024411389,77.16108358393159,45.13890678858745,49.45870012840514,40
3250.0,83.6,82.32947656310901,72.852588446068,77.20705183315165,45.12242472995736,49.476888117041014,40
3350.0,84.0,82.23106058382614,72.6691616717366,77.24186498814362,44.98919559568252,49.56189891208953,40
3450.0,84.50000000000001,82.6255179375231,73.19709707341225,77.6403515546798,44.9851663828433,49.42842086411085,40
3550.0,84.8,83.18362409526888,74.01033412148279,78.26769110330095,44.915932991967935,49.1732899737861,40
3650.0,84.2,83.19360395318242,74.23297114888142,78.45651503214174,44.73708892104068,48.960632804301,40
3750.0,83.2,82.09979823407957,72.75312803297727,77.16699308012028,44.93280515395929,49.3466702011023,40
3870.0,83.40000000000002,82.13993710874975,72.6811024026168,77.20807689895493,44.93186020979482,49.45883470613295,40
4000.0,83.7,82.39354495630094,72.77745456921768,77.29847781095829,45.095067145342654,49.61609038708326,40
4120.0,83.8,82.60614781569534,72.81963245744367,77.4206962640775,45.18545155161783,49.78651535825166,40
4250.0,83.9,82.82210108615926,73.00724106243997,77.67547944275614,45.14662164340312,49.81486002371929,40
4370.0,83.8,82.95450516962337,73.17530280673502,77.75262619258889,45.20187897703448,49.779202362888356,40
4500.0,83.9,83.30673931941706,73.61952592348045,78.22818066145149,45.07855865796557,49.68721339593661,40
