Freq "Listening Window"
22.4 55.125987509923945
23.0 56.49814681272325
23.6 57.628441660102524
24.0 58.7549103022596
25.0 60.17621176423772
25.8 61.49237624100739
26.5 62.76018343312212
27.2 62.074381763527626
28.0 61.71797849126935
29.0 61.4614507204366
30.0 61.0040695462729
30.7 61.26519118311593
31.5 61.873331903030504
32.5 62.55839212030328
33.5 63.64013439200339
34.5 64.9220245844409
35.5 66.27145082982219
36.5 67.65136522454965
37.5 69.08417834217816
38.7 70.78784348742674
40.0 70.90021139594639
41.2 71.11810432391538
42.5 71.03770569877314
43.7 70.84516316302886
45.0 71.26238943314962
46.2 71.82237736562816
47.5 72.69450904608756
48.7 72.87729019899695
50.0 73.34957651271681
51.5 74.01519389352497
53.0 74.52092351434445
54.5 74.37844984530996
56.0 74.72005873600146
58.0 75.50064500083492
60.0 76.23921517058122
61.5 76.96325520407984
63.0 77.55245292831147
65.0 78.09699737028048
67.0 78.60691732963416
69.0 79.183620412542
71.0 79.78307626545255
73.0 80.36922992973311
75.0 80.8343573213356
77.5 81.28925841531061
80.0 81.77823306508388
82.5 82.31122549985842
85.0 82.88925841531062
87.5 83.30025584655587
90.0 83.6112254998584
92.5 83.87849019712911
95.0 84.16768347817136
97.5 84.42319152961714
100.0 84.61300581665408
103.0 84.72293110248063
106.0 84.7454944791988
109.0 84.75686156553041
112.0 84.76768347817136
115.0 84.5902725709036
118.0 84.44549447919881
122.0 84.31274477799037
125.0 84.11274477799039
128.0 83.85786005860781
132.0 83.65837672536982
136.0 83.44727259632451
140.0 83.18127710423244
145.0 82.99428176701228
150.0 82.76363182410125
155.0 82.6520177531097
160.0 82.53025654958245
165.0 82.46390198076043
170.0 82.35384071244383
175.0 82.2223133132246
180.0 82.11453682579611
185.0 82.04312061170451
190.0 81.98653703694285
195.0 82.04366978779929
200.0 82.18736211571434
206.0 82.37415670610531
212.0 82.49888217575923
218.0 82.714810053683
224.0 82.79882484139397
230.0 82.74063796503015
236.0 82.54063796503013
240.0 82.2673535614441
250.0 82.15547878801952
258.0 82.07521491911375
265.0 81.99882484139397
272.0 81.89882484139397
280.0 81.75255333093843
290.0 81.53920322092233
300.0 81.31711097384773
307.0 81.31658937413277
315.0 81.74077894527068
325.0 82.32042087112158
335.0 82.80284559139568
345.0 83.12948444092207
355.0 83.3953085929133
365.0 83.59234999311512
375.0 83.79234999311511
387.0 83.97269175359993
400.0 84.01531132286463
412.0 83.9224202042077
425.0 83.79391938272046
437.0 83.59864882712533
450.0 83.40739489547273
462.0 83.3561292821829
475.0 83.54105733103732
487.0 84.0211247702672
500.0 84.37959048579195
515.0 84.39814316574216
530.0 84.38788121162683
545.0 84.51625419721864
560.0 84.66896614876295
580.0 84.56890628824141
600.0 84.37903341354534
615.0 84.44285204452046
630.0 84.4384964591682
650.0 84.39791340474171
670.0 84.23616825067829
690.0 84.0786778494569
710.0 83.95228642295349
730.0 83.49105624173048
750.0 83.04045761439194
775.0 82.87974611364518
800.0 82.58836265916325
825.0 82.61197877914198
850.0 82.74845711697249
875.0 82.66973503854736
900.0 83.05590706541864
925.0 83.49888158506572
950.0 84.53589256984291
975.0 85.44262976638453
1000.0 86.3419957480174
1030.0 86.77458966798712
1060.0 86.45744729983572
1090.0 85.74671183064949
1120.0 85.14863521820575
1150.0 84.41594382268202
1180.0 83.94212850295416
1220.0 84.28073022197835
1250.0 84.3386336583681
1280.0 84.71537525179407
1320.0 84.33347626935448
1360.0 83.77117101933352
1400.0 83.29832288940777
1450.0 82.60849189598078
1500.0 82.64409499333249
1550.0 82.54874123031897
1600.0 82.60537117110162
1650.0 82.70037491845432
1700.0 82.71546162087868
1750.0 82.37826010325621
1800.0 82.14930155546902
1850.0 82.0702094798131
1900.0 81.9530548216372
1950.0 81.7176995913632
2000.0 81.80246708335831
2060.0 81.9268862682138
2120.0 82.49138395772633
2180.0 82.23756259720643
2240.0 82.15896750938403
2300.0 82.43687489228051
2360.0 82.90229204729012
2400.0 83.10385902910272
2500.0 82.87480399289647
2580.0 83.07988656692746
2650.0 83.05340935353853
2720.0 83.11633734784697
2800.0 82.97421533075759
2900.0 82.91425014065247
3000.0 82.8398203514658
3070.0 82.48619828705988
3150.0 82.29999037251903
3250.0 82.32947656310901
3350.0 82.23106058382614
3450.0 82.6255179375231
3550.0 83.18362409526888
3650.0 83.19360395318242
3750.0 82.09979823407957
3870.0 82.13993710874975
4000.0 82.39354495630094
4120.0 82.60614781569534
4250.0 82.82210108615926
4370.0 82.95450516962337
4500.0 83.30673931941706
4620.0 82.62343570067681
4750.0 82.45159277624072
4870.0 82.46909265149768
5000.0 82.98586935736617
5150.0 83.2377724488585
5300.0 84.06653490442044
5450.0 84.61255611762648
5600.0 85.11921358946161
5800.0 84.91552828481915
6000.0 84.70284016885999
6150.0 84.109208556072
6300.0 84.17776567724509
6500.0 84.62117888990925
6700.0 84.92383739917248
6900.0 85.11958338381876
7100.0 85.27879105524268
7300.0 85.69267974656856
7500.0 85.95778336925945
7750.0 86.04051917268485
8000.0 86.74667508471062
8250.0 86.41501964459114
8500.0 85.51438674061714
8750.0 84.80449268035906
9000.0 84.33250690717644
9250.0 84.30314844841371
9500.0 85.52282301076644
9750.0 86.6527094369021
10000.0 86.8676181090698
10300.0 86.45309337338067
10600.0 86.13688975840668
10900.0 85.51902211473023
11200.0 85.7183880036353
11500.0 84.94872322816467
11800.0 84.06470453187852
12200.0 84.74079855372013
12500.0 85.01812244119354
12800.0 83.73791741077241
13200.0 83.39042606242215
13600.0 84.51854848094645
14000.0 82.63069040895718
14500.0 82.41999871703445
15000.0 83.00751776709825
15500.0 84.10526770611685
16000.0 86.50362027713612
16500.0 85.79035583745998
17000.0 85.40347242443984
17500.0 86.26144458067219
18000.0 86.23158208734395
18500.0 88.43869519166901
19000.0 86.91237388174508
19500.0 84.18065239946235
