Freq "Sound Power"
22.4 -8.003638339033856
23.0 -6.185154287561332
23.6 -4.653099440268804
24.0 -3.974613817444279
25.0 -3.9000147542822816
25.8 -4.364445075594531
26.5 -6.647141705225877
27.2 -6.463173802825381
28.0 -4.85978626083876
29.0 -3.5748802047636303
30.0 -1.247544691068569
30.7 3.6324960679284715
31.5 7.203916453684812
32.5 11.216631827778073
33.5 16.79022130367811
34.5 20.29505991627711
35.5 23.290080742221264
36.5 25.947372764867154
37.5 27.643435446098962
38.7 30.116869888648367
40.0 35.04933490205396
41.2 40.98987218606918
42.5 45.063556922518
43.7 47.462771639621124
45.0 48.09909234789113
46.2 48.36307800492095
47.5 50.20459835543623
48.7 53.93066540467136
50.0 56.856414830388175
51.5 58.27786517630419
53.0 59.1445716328778
54.5 59.927879905023914
56.0 60.411285561747476
58.0 60.59094897481866
60.0 61.46748302598078
61.5 63.10500356508784
63.0 64.56127940258311
65.0 65.7489225194956
67.0 66.72685827958362
69.0 67.57909466376948
71.0 68.388926712803
73.0 69.29148370635562
75.0 70.27494680598446
77.5 71.20117429675241
80.0 71.90596708659469
82.5 72.79023793563496
85.0 73.69004796673467
87.5 74.51341685513547
90.0 75.32186883362918
92.5 76.07421276980995
95.0 76.75719109538178
97.5 77.39400667074293
100.0 78.04149276789512
103.0 78.68554811833053
106.0 79.40054170579252
109.0 80.19061114045384
112.0 80.78997881682577
115.0 81.34584048521195
118.0 81.74386913646765
122.0 81.94010617953641
125.0 81.90250556741039
128.0 81.66883337304883
132.0 81.45330797297747
136.0 81.27006040570733
140.0 81.17279907302954
145.0 81.1090829902838
150.0 81.4001534651243
155.0 82.2373680685413
160.0 83.35492352510884
165.0 84.18189572897084
170.0 84.71039707982051
175.0 84.9876902352983
180.0 84.13141906557625
185.0 82.68228803719678
190.0 81.05839355988688
195.0 79.89985696451562
200.0 79.04051861935969
206.0 78.77367809809037
212.0 79.6470466896699
218.0 80.80236318737177
224.0 81.4324636095618
230.0 81.37909926902786
236.0 80.7172202833199
240.0 79.97773616423409
250.0 78.87490831430739
258.0 77.8970183849574
265.0 77.53229303861885
272.0 77.62586549656955
280.0 77.89828914731483
290.0 78.25359620639355
300.0 78.67836280606058
307.0 79.23355696117555
315.0 79.36173956881534
325.0 78.82316605914633
335.0 78.07716191434152
345.0 77.92577513504396
355.0 78.02768996483711
365.0 77.79654233884915
375.0 76.94891168917582
387.0 76.52868850889627
400.0 76.70087385371099
412.0 76.55767049605693
425.0 76.26236154529666
437.0 76.30413263749286
450.0 76.5744101700002
462.0 76.37334708475225
475.0 76.26645042293084
487.0 75.6751946710089
500.0 75.34926621540123
515.0 75.50047263250167
530.0 75.41822664290108
545.0 74.89377522460377
560.0 74.55272350590563
580.0 73.4957692668452
600.0 74.1985233188926
615.0 74.33564373433406
630.0 73.65279253250047
650.0 73.54892795321503
670.0 74.09561347962858
690.0 74.5033292000948
710.0 74.81914221883541
730.0 74.21267402696802
750.0 73.72479303855538
775.0 73.13610636156979
800.0 72.72775220386976
825.0 73.0857809598039
850.0 72.60581049356522
875.0 72.39140027164156
900.0 72.24487136627344
925.0 71.66217561036207
950.0 71.21351451183246
975.0 71.5742411827557
1000.0 72.03543219655481
1030.0 72.2227424068421
1060.0 72.03007697888268
1090.0 71.11325572376269
1120.0 70.51059617448435
1150.0 70.89390241884247
1180.0 71.12872154432353
1220.0 70.94705070307941
1250.0 70.33217044915533
1280.0 70.07624091323895
1320.0 70.08527820776193
1360.0 70.16660164004715
1400.0 70.23538606106243
1450.0 70.10690050784035
1500.0 70.22142231368623
1550.0 69.98879652631159
1600.0 69.68312678563304
1650.0 69.68874643191555
1700.0 69.61755259442556
1750.0 69.8254831806426
1800.0 69.65053910108227
1850.0 69.58932079905736
1900.0 70.32334239592049
1950.0 70.54587133082929
2000.0 70.78404707722645
2060.0 70.69245956859505
2120.0 69.81138958160908
2180.0 70.07364530270289
2240.0 70.36855359392364
2300.0 70.03841960977702
2360.0 69.77192059603811
2400.0 69.5169698952039
2500.0 69.24133656111933
2580.0 69.73974782773327
2650.0 70.06272749042104
2720.0 70.62524711709794
2800.0 70.03021634456276
2900.0 70.33786516267739
3000.0 70.00585818863465
3070.0 70.10815611222806
3150.0 70.11037585813632
3250.0 70.510908858789
3350.0 70.4244357620774
3450.0 70.59322468490079
3550.0 70.83920789167307
3650.0 71.2066888023643
3750.0 71.16470992009704
3870.0 71.42858641687089
4000.0 71.20649323126129
4120.0 71.20457750085663
4250.0 71.35044184032672
4370.0 71.32615968054039
4500.0 71.92699921573238
4620.0 71.86625528400312
4750.0 71.46986627752315
4870.0 71.29754315726858
5000.0 71.02592159988782
5150.0 70.8354291475262
5300.0 70.6340973844737
5450.0 70.40435273555141
5600.0 70.3557117146742
5800.0 70.55782110189601
6000.0 70.70653491051021
6150.0 70.30521802522698
6300.0 69.19612403304744
6500.0 68.80119820341481
6700.0 70.63247258883645
6900.0 71.60203718624297
7100.0 71.55504704686062
7300.0 70.61480937765812
7500.0 70.69886239099118
7750.0 70.97317379836093
8000.0 70.89510863193327
8250.0 70.74175887778806
8500.0 70.4183876560539
8750.0 70.26156354154497
9000.0 69.71195206001583
9250.0 70.52497672614152
9500.0 70.60036851991266
9750.0 69.15291277965137
10000.0 68.90820484969542
10300.0 69.67469086303693
10600.0 70.49361690680657
10900.0 69.81049595509388
11200.0 70.3528308654818
11500.0 71.82968875890175
11800.0 71.76365376030624
12200.0 72.22748388331723
12500.0 73.10920488182775
12800.0 70.27361586949992
13200.0 71.70123071366817
13600.0 69.95702216754012
14000.0 70.02513845219775
14500.0 69.4557187669635
15000.0 69.15433679230384
15500.0 68.21327322929854
16000.0 69.32995576380793
16500.0 67.73524000276855
17000.0 68.90965141859273
17500.0 69.0966113690486
18000.0 65.52072810684339
18500.0 63.16423983636052
19000.0 58.93366579914884
19500.0 56.302061482685176
