Freq "Estimated In-Room Response"
20.5078 65.81029173566814
21.2402 66.79675312124233
21.9727 67.782462140113
22.7051 68.72313724118908
23.4375 69.42870286853544
24.1699 69.63711283920215
25.6348 71.35040629120913
26.3672 72.36586222762038
27.0996 73.43727150680526
27.832 73.93919648436571
29.2969 74.57064576461981
30.0293 74.85560995193445
31.4941 75.88871558480761
32.2266 76.25279947385266
33.6914 76.90561449704731
34.4238 77.33076498685767
35.8887 77.74881158702883
37.3535 78.365562219099
38.8184 78.91082576667952
39.5508 79.13245813698822
41.0156 79.61155678523149
42.4805 80.04402581860784
43.9453 80.5530866861598
45.4102 80.98765354343583
47.6074 81.61252965010958
49.0723 82.10625185150099
50.5371 82.55908820777654
52.7344 83.11839213633412
54.1992 83.52076815868746
56.3965 84.16232532074854
58.5938 84.78647156730868
60.0586 85.11468457308335
62.2559 85.53928971485077
64.4531 86.00536670140625
66.6504 86.39794804535836
69.5801 86.8830053921641
71.7773 87.12543786248675
73.9746 87.37545867117687
76.9043 87.65303728262985
79.834 87.73824862723754
82.7637 87.72931074117379
85.6934 87.91424684775859
88.623 87.84132441840408
91.5527 87.81169767883881
94.4824 87.69843595663201
98.1445 87.57166716968122
101.807 87.40972752677466
105.469 87.15571632757735
109.131 86.79049436930562
112.793 86.59445055772535
116.455 86.43866919253725
120.85 86.17291107933441
125.244 86.11487096795577
129.639 85.98277405361945
134.033 85.59101904227923
138.428 85.27861612269615
143.555 85.18859532730153
148.682 84.91018449645586
153.809 84.7496717544549
159.668 84.25580303940491
164.795 84.22690153758165
170.654 84.41993606334952
176.514 83.80147225593018
183.105 83.49230643010796
189.697 83.4022013666446
196.289 82.99792586156799
202.881 82.93134598862093
210.205 82.85660617459575
217.529 82.68653665531953
225.586 82.14604579198296
232.91 82.11248666307428
241.699 81.80191097191131
249.756 81.94861131903674
258.545 81.83445285147813
268.066 81.79131349443179
277.588 81.14882856299441
287.109 81.1736388173607
297.363 80.80386997072021
307.617 80.55013124628344
318.604 80.57625835960907
329.59 80.77026083610411
341.309 80.37656236182116
353.76 79.98248425236089
366.211 79.94063536721832
378.662 80.02819137279386
392.578 80.14887471376261
405.762 80.17698317968025
420.41 80.59098880143144
435.059 80.94232492343788
450.439 80.52735404513909
466.553 80.02141118300808
482.666 80.30336666846289
500.244 80.44134937677711
517.822 80.43256487770157
536.133 80.76803479493861
554.443 81.0940710134099
574.219 81.30206593600946
594.727 81.15817794744422
615.234 81.05581572989722
637.207 81.19440837295768
659.912 81.86344185044425
683.35 81.28602862103186
706.787 80.45338408209206
731.689 80.06664400428944
758.057 79.548912880066
784.424 79.50798787096531
812.256 79.77160313128722
840.82 79.75806079553213
870.85 80.0369886031791
901.611 80.56217566619998
933.105 81.1110248808735
966.064 80.87479711501841
999.756 80.84050294288919
1034.91 80.13472971691122
1071.53 80.18712166216959
1109.62 80.26971492942802
1148.44 80.83654377257996
1189.45 81.05215142212519
1231.2 81.4129723419726
1274.41 81.02539807071487
1319.82 80.83371362748885
1365.97 80.80502523833428
1414.31 81.61851437107661
1464.11 81.93624700852708
1515.38 82.11311063910155
1568.85 82.06619102391555
1624.51 81.8916237434879
1681.64 82.2652081999066
1740.97 82.67100758705693
1802.49 82.85716451429394
1866.21 82.81645917109462
1932.13 82.23220412530038
2000.24 82.02437940019966
2070.56 81.64568292015595
2143.8 80.48481811046226
2219.24 79.92650940731617
2297.61 79.90124691522725
2378.17 79.25280618395182
2462.4 78.6766183213254
2548.83 79.33893500358094
2638.92 79.48133360319531
2731.93 79.26872234863507
2828.61 79.45610479707327
2928.22 79.32571528772449
3031.49 79.72448365664403
3138.43 79.86653845548138
3249.02 79.94597086322501
3363.28 79.99272457005152
3481.93 80.0944575107285
3604.98 80.1157077654706
3732.42 80.38040322690388
3863.53 80.62987147441316
3999.76 80.8832772372009
4141.11 80.769298360624
4286.87 81.13217419749863
4438.48 81.11804303618759
4594.48 80.93293531025391
4757.08 80.92856172350535
4924.8 80.74378542263105
5098.39 80.82585032755964
5277.83 80.80330513529007
5463.87 80.82391317792111
5656.49 81.23453665068061
5856.45 81.24464964535747
6062.99 81.34683940456573
6276.86 81.34865177675137
6498.05 81.58451148870869
6727.29 81.46267090705167
6964.6 81.80099791200261
7209.96 81.53065803478233
7464.11 81.7519051883574
7727.78 81.55624819004939
8000.24 81.27624412848944
8282.23 81.37831912290885
8574.46 81.17759486801702
8876.22 80.81920563108937
9189.7 80.53653695867794
9513.43 80.19068622032417
9848.88 79.6863384047222
10196.8 79.39635945160133
10556.4 79.42867267161779
10928.5 79.59122827721067
11313.7 79.66365647697114
11712.9 79.59238581165879
12126.0 79.502715725065
12553.7 79.50890483161118
12996.1 79.79644471147074
13454.6 80.17196064652117
13928.5 80.417456004431
14419.9 80.45263810089848
14928.2 80.34844818464755
15454.8 80.0086764934701
15999.8 79.52135045578017
16564.5 79.17878232336582
17148.2 78.749249712342
17753.2 78.05216344509954
18379.4 77.41161245428118
19027.6 76.65246256970639
19698.5 76.28669476323357
19999.5 76.28504389091451
