Freq "Sound Power"
22.4 12.706925642525363
23.0 13.323627123279806
23.6 14.164159539277108
24.0 16.28610164938442
25.0 17.92595529449588
25.8 18.969527662318825
26.5 19.69133806018911
27.2 20.19624100677163
28.0 20.515352133796654
29.0 20.67821766112442
30.0 21.028251714844686
30.7 21.91535213379666
31.5 22.523627123279795
32.5 22.764159539277102
33.5 22.666857334149086
34.5 22.1479291450068
35.5 21.447050770496418
36.5 22.653427310472807
37.5 23.854567503136167
38.7 24.837545359793495
40.0 25.653427310472807
41.2 26.607454170962768
42.5 28.08610164938443
43.7 29.55873988742991
45.0 30.841051134651025
46.2 32.0125352880616
47.5 33.19474784896832
48.7 34.637545359793506
50.0 35.94243684229423
51.5 37.146587455100956
53.0 38.26531023251923
54.5 39.36952766231883
56.0 40.547929145006805
58.0 41.758739887429925
60.0 42.85788798128516
61.5 44.007454170962745
63.0 45.11535213379665
65.0 46.146587455100956
67.0 47.516713240134266
69.0 48.88916683811351
71.0 50.19474784896832
73.0 51.64968184296836
75.0 52.94658745510095
77.5 54.26531023251923
80.0 55.50530600650535
82.5 56.93457677985816
85.0 58.46531023251923
87.5 59.82576193028541
90.0 61.11535213379665
92.5 62.160503551263574
95.0 63.03892927053228
97.5 63.987909973404314
100.0 65.01952736639947
103.0 65.91975365162138
106.0 66.82656186322187
109.0 67.89820521688495
112.0 68.8385823321256
115.0 69.58376039966831
118.0 70.26044754866024
122.0 70.88082932563063
125.0 71.41702678340792
128.0 71.68778870209928
132.0 72.06941505612978
136.0 72.39123376229537
140.0 72.58074746080486
145.0 72.83346850371235
150.0 72.94100037157578
155.0 73.05181131634019
160.0 73.17734785485976
165.0 73.29964343304178
170.0 73.35774843144532
175.0 73.40009256127513
180.0 73.43806377554958
185.0 73.43595614505945
190.0 73.40861367378197
195.0 73.33937082996164
200.0 73.25307963673194
206.0 73.12665735921834
212.0 73.01645325095598
218.0 72.91137520835753
224.0 72.82141974302127
230.0 72.75941220616944
236.0 72.73660434568318
240.0 72.71219456345322
250.0 72.65712191545111
258.0 72.60139671437449
265.0 72.49618175908648
272.0 72.40871409041442
280.0 72.23060226234543
290.0 72.1011389803374
300.0 71.95207820923743
307.0 71.7434986059288
315.0 71.52985103883367
325.0 71.37109667710699
335.0 71.2649864049641
345.0 71.12562068835572
355.0 71.09599565264102
365.0 71.08073653311888
375.0 71.08052484467368
387.0 71.13683409332769
400.0 71.07444920571443
412.0 71.0781163669314
425.0 71.01477058631045
437.0 70.780857305385
450.0 70.69407146792855
462.0 70.47330816871418
475.0 70.345047124594
487.0 70.24846663907644
500.0 70.23059378558946
515.0 70.24644398613847
530.0 70.2417555750661
545.0 70.15462184047152
560.0 70.00484638954053
580.0 69.8036709728334
600.0 69.63908353122751
615.0 69.58234537586806
630.0 69.63162723638101
650.0 69.73659976450043
670.0 69.8422635590727
690.0 69.84072774680703
710.0 69.65769381366562
730.0 69.44477418455045
750.0 69.26570569716291
775.0 69.20939191831718
800.0 69.30452623338832
825.0 69.30600397432437
850.0 69.17389332556435
875.0 68.893220413174
900.0 68.74441482290729
925.0 68.56872361147384
950.0 68.43244747204923
975.0 68.24289391071115
1000.0 68.20590700672608
1030.0 68.49076440324752
1060.0 68.23906538019645
1090.0 67.08700782588525
1120.0 65.96009146019176
1150.0 67.02528323757332
1180.0 68.07550055112512
1220.0 67.71455068622312
1250.0 67.51878599486179
1280.0 67.01115504294906
1320.0 65.79199310840333
1360.0 65.55979524240422
1400.0 66.37750452993575
1450.0 68.96109846043984
1500.0 70.34950709702613
1550.0 69.0352058570208
1600.0 67.06875726865307
1650.0 66.0387952051416
1700.0 66.17113071612253
1750.0 66.07714358698108
1800.0 65.05420923408232
1850.0 64.39865147431615
1900.0 64.49279736616565
1950.0 64.6289751989092
2000.0 64.51427193606743
2060.0 64.74897634940228
2120.0 65.42115301091997
2180.0 65.82870519147801
2240.0 65.95287215437988
2300.0 65.99162101861022
2360.0 66.0553177668446
2400.0 65.68282817947762
2500.0 65.46415799701643
2580.0 65.32206878068968
2650.0 65.12600670081072
2720.0 65.10232731429556
2800.0 65.33894646816825
2900.0 64.81903651647532
3000.0 64.31552701517904
3070.0 64.41945310623534
3150.0 64.21673012966602
3250.0 63.938442522669845
3350.0 63.47796905118274
3450.0 63.48146591967128
3550.0 64.14410802484942
3650.0 64.36529091043279
3750.0 65.20017588086327
3870.0 65.36496257008054
4000.0 64.84422449633955
4120.0 66.09043735559945
4250.0 67.58164332289763
4370.0 66.9144715501761
4500.0 66.05853839065384
4620.0 66.08129548823263
4750.0 66.15652284500744
4870.0 66.21106681937808
5000.0 66.32128006823976
5150.0 65.84609656338098
5300.0 65.77028050523533
5450.0 65.73666050529872
5600.0 64.9695243828863
5800.0 64.53319601449864
6000.0 64.30734871480186
6150.0 63.45920248716743
6300.0 63.33447833336196
6500.0 63.700774727839374
6700.0 62.56363006297961
6900.0 61.30337523351601
7100.0 60.83310446858414
7300.0 60.7815084704538
7500.0 60.61983541209297
7750.0 60.77764080661055
8000.0 61.417477114721606
8250.0 62.18235183074442
8500.0 63.232464365210205
8750.0 63.9799611905259
9000.0 64.46829005168675
9250.0 63.87448925491914
9500.0 62.97360829906826
9750.0 62.631298725729195
10000.0 63.40528109089621
10300.0 64.77730140637563
10600.0 65.57508302491432
10900.0 65.01082827188307
11200.0 64.39376491268293
11500.0 63.5011847964428
11800.0 62.16698041595254
12200.0 62.15068569269748
12500.0 63.49193311724929
12800.0 63.129422749310706
13200.0 62.45743001672382
13600.0 62.11966960128636
14000.0 60.99200220457908
14500.0 61.47101175812972
15000.0 64.86312009465624
15500.0 63.82749551292373
16000.0 61.397351229149024
16500.0 60.83187476971756
17000.0 61.96028824201713
17500.0 63.33780546710658
18000.0 62.97046412124854
18500.0 61.22506925111155
19000.0 59.59649851875258
19500.0 57.58268000358187
