Freq,Floor Bounce,Ceiling Bounce,Front Wall Bounce,Side Wall Bounce,Rear Wall Bounce,Total Early Reflection
20.507813,59.335126956093404,57.42197708696642,58.93019049139542,58.601089815803846,72.03318869666903,65.77196930888749
21.972656,60.79820861913444,60.092961208706555,60.663308036688704,60.74819659592731,73.11026889101747,66.9970143155906
23.4375,63.309723354214896,62.55265362850605,63.34855892969213,62.94831390185081,73.83375562083648,68.09585139094074
24.902344,63.886879589509306,63.03181809118058,63.739539442698174,63.67722646408703,74.65532415799403,68.84964441708331
26.367188,64.79820118620134,64.86540330223932,64.74094086639428,65.3735326021945,75.06372832767703,69.50366509022729
27.832031,66.17980088236612,66.444418868024,66.13540525714154,66.89505994303542,75.77393346570318,70.44149074777458
29.296875,67.32911305047023,67.87260757226119,67.32529398888883,68.22094748219374,76.23819843188592,71.18128429282224
30.761719,68.30983569298752,69.05080126338564,68.32917752555944,69.32970431210802,76.65389389763813,71.84513588720588
32.226563,69.33728611733734,70.21501349037027,69.38275243355692,70.42547793215819,77.05105636325528,72.52892486547438
33.691406,70.33115470303912,71.29106076867524,70.38815530485454,71.44250686611986,77.44173271800864,73.20617567472513
35.15625,71.5287825888525,72.45641019457823,71.58966830619583,72.54669840906067,77.86961585326517,73.99497953262184
36.621094,72.53454717243041,73.42158707659132,72.59482214839394,73.46966805263186,78.26597799984336,74.69524259895117
38.085938,73.41615910768246,74.26430436132591,73.47555997062858,74.28014417923464,78.64049081582041,75.33595473718749
39.550781,74.31359693810991,75.10528545012505,74.36103385224023,75.11180492482066,79.0901285594294,76.02582446153718
41.015625,75.10801739491612,75.87402409808207,75.15528511810653,75.85747196021521,79.49731124030171,76.65507705275786
42.480469,75.8809150794668,76.60271881466244,75.92371280971071,76.5712386828286,79.8845056923308,77.26518062782989
43.945313,76.610956248988,77.29747899421228,76.65232905048404,77.25029791516539,80.27819515606136,77.85993697852994
45.410156,77.30830163527372,77.9631340931811,77.34930498794373,77.89965542161767,80.66999583152771,78.43880473917841
46.875,77.97603083721123,78.59938249584664,78.01520682003793,78.52455582793554,81.07253183580762,79.00593825448433
48.339844,78.59559038006171,79.19745104466323,78.63554575136214,79.11082219292277,81.46413611471505,79.54353050253854
51.269531,79.80256264411611,80.36645941037949,79.84569775331892,80.2560232274628,82.25198690589134,80.6062150332367
52.734375,80.37663595007758,80.92195454264368,80.42159001110886,80.8014073271714,82.63444432951354,81.116580566558
54.199219,80.92667352746429,81.45346979859883,80.97289202898702,81.32490802477379,83.00991083108856,81.60946502803661
55.664063,81.45689810454387,81.96716685338447,81.50475267655699,81.83132320134457,83.38079084971251,82.08884678910175
58.59375,82.47105926077666,82.95063842886834,82.52347699769703,82.80021618495954,84.0958780534938,83.01056602608853
60.058594,82.9654648922832,83.42122824077873,83.01655710289253,83.27032564691616,84.44987978333681,83.45972184336357
62.988281,83.90741321225897,84.32038364424898,83.95725915747428,84.16640854686791,85.12877786006513,84.31937271473308
64.453125,84.3589014246713,84.75864697057435,84.41157552282748,84.60068036586601,85.469448946136,84.73893909863195
67.382813,85.2359501984451,85.61488672481835,85.2920738552207,85.45128899555388,86.17442075985022,85.56715343643313
68.847656,85.64248034337729,86.00882760161147,85.6981714763265,85.84803853290147,86.51256949595692,85.9535055218453
71.777344,86.40059363997823,86.74093601863171,86.45653820099787,86.5864527316526,87.13495776941487,86.67200116720775
74.707031,87.1294725848438,87.44818911287379,87.18882905287496,87.29377448241674,87.71951972887192,87.3611658191044
77.636719,87.82638641150524,88.12493016842731,87.89115506447517,87.96888595985851,88.26848975996462,88.01896310598973
79.101563,88.1354065525698,88.42481346810979,88.20303958723615,88.26765755130143,88.50914186176874,88.31024029529915
82.03125,88.65124192554327,88.92396870076269,88.7250264677387,88.76397225509695,88.89532835435712,88.79313242084484
84.960938,89.09050392970448,89.34205403930024,89.16711146386818,89.1854603697991,89.22753959381488,89.20332332824933
87.890625,89.48595523506286,89.7009041286186,89.56084489928702,89.55833116202778,89.51666211955221,89.56516728399498
90.820313,89.83644083038831,90.01325234751116,89.91111274383515,89.88354270385167,89.75139981742805,89.88000599946412
95.214844,90.27874529093071,90.42169236426466,90.35676936711833,90.30145001242049,90.07186023720926,90.28769292701432
98.144531,90.52447755700818,90.66682134205146,90.61256781125641,90.54499489206559,90.28385764239988,90.52851212398708
101.07422,90.74211984873027,90.88282921863018,90.84270077553339,90.7586385031444,90.4607565001294,90.73989440918075
105.46875,90.93021112562435,91.0676224733512,91.05236979804171,90.930855070091,90.53948905805449,90.90825246477695
108.39844,91.03237459196947,91.15957314293412,91.16836054199817,91.01119366194689,90.52751030254585,90.98602079930241
112.79297,91.22313843873003,91.30705442503677,91.36676190508547,91.16496263030615,90.54915979270257,91.1319239737499
117.1875,91.44129068783229,91.4367854098309,91.57030260443157,91.34287160925929,90.64854329791072,91.29992030139027
120.11719,91.49139256320666,91.43824129843435,91.6150073038476,91.37565384835622,90.6616497748208,91.3290057993966
124.51172,91.53584751571117,91.44331700967165,91.67695613478475,91.38984386255635,90.54904929830917,91.33645534436555
128.90625,91.55577998994153,91.4276976263174,91.70648038514956,91.38702669901252,90.4310061362128,91.32383384324993
133.30078,91.55203840713548,91.37533197895434,91.70613256295114,91.35907547087358,90.32229026348082,91.28903059714409
139.16016,91.54347736025396,91.37781751529077,91.72086258970198,91.37772173452598,90.33509043156435,91.29681221772574
143.55469,91.35732920571549,91.20340205028634,91.55612385852066,91.20577939641196,90.20242586379858,91.12927505260066
147.94922,91.1962463505929,91.0013739823236,91.40791077586842,91.02110648718808,89.97506881368597,90.94727996594521
153.80859,91.12668236457509,90.83232965770601,91.34802084315179,90.90902513731962,89.76085645771434,90.82832004841622
159.66797,91.15678103087379,90.85889934272228,91.41353404214748,90.94433027927361,89.79379788069784,90.86722580347039
165.52734,91.05180917045823,90.74127621527391,91.34200838974189,90.80797263792385,89.47835279950051,90.72875956373122
171.38672,91.0149887730448,90.75699771677223,91.3434669776504,90.81686903190204,89.29859949443731,90.69966569109212
177.24609,90.65222937927062,90.39835356741924,90.99075174688932,90.50874019413371,89.2613342421493,90.39987061391031
183.10547,90.24043657538174,89.95276964883651,90.62156243409818,90.05616089547632,88.8279108251595,89.97950488129307
188.96484,90.11799000992043,89.85426270389418,90.58222443506375,89.86561899220953,88.33378349213513,89.81265597887437
196.28906,90.53239858291388,90.21252244548182,91.00320957952378,90.28182117205324,88.56608178643535,90.19222010139785
203.61328,90.20663930045214,89.793396510707,90.66382961942088,90.00001762003862,88.64954926192185,89.91241828616546
210.9375,89.64257586157365,88.93956912162155,90.10026293236915,89.3020494965733,88.46571132037546,89.32638187481072
218.26172,90.14148145778913,89.26083537111104,90.64475203809579,89.52207948832921,87.92169794500512,89.59244997223367
225.58594,90.36660867260721,89.45769281916607,90.88451654372089,89.73629459505382,87.36962982147779,89.71589307479839
232.91016,90.61925533494406,89.74475693828619,91.159638683326,90.11978749150043,87.0745793428048,89.94763429500887
241.69922,90.25599180566658,89.29326369224651,90.80403595333603,89.86497266313387,87.59653306404411,89.69256067131326
250.48828,90.30069096785087,89.23845137088136,90.89482434179091,89.83480516358182,87.25044793848404,89.6691760581704
259.27734,90.37201436269646,89.29069269493291,91.00519551171314,89.96151738221985,87.27241587478196,89.75339281741604
268.06641,90.13907524872016,89.05438082033899,90.78636902631379,89.8077885229811,87.29176032902338,89.56945631924124
276.85547,89.331585423917,88.15773456958124,90.02808850949233,88.95584147609867,86.85988982736477,88.7963515361355
287.10938,89.6460477981929,88.25398827299699,90.3941238520689,89.00558023991346,85.82922662366359,88.88043726971316
297.36328,90.21681190595027,88.77988253081458,90.95424601731212,89.7171525877203,85.77038921157936,89.41168155797706
307.61719,89.81617028085324,88.44493486835155,90.64031210577014,89.5665499738125,85.86154944997804,89.14562222626284
319.33594,89.36178762804147,87.8128005314644,90.3183943230407,89.22232296417985,85.87754035831372,88.77005763887828
329.58984,89.36028612707469,87.32480074868955,90.3251264967935,89.01094014008088,85.26928615894224,88.58978169215605
341.30859,89.73683501544619,87.68764832375149,90.70820688872357,89.56757802185884,85.39201222429661,88.98376503244248
353.02734,89.48395192734037,87.51239225910848,90.5039076061681,89.60972397833007,85.7652948932171,88.88309687452508
366.21094,88.65998240394296,86.41555796129633,89.77386649605717,88.7411849370193,85.4292580224199,88.08792905460132
379.39453,88.62464402167348,86.25765155688266,89.90992010452848,88.60877792904164,84.34991771829414,87.96385197299097
392.57813,89.12488672525717,86.74102419381025,90.35502264221287,89.26901672835234,84.51175179381282,88.45413937567824
405.76172,88.58674332134854,86.30407650024425,89.88837158795914,89.04480271275395,84.76790173929109,88.09717075464226
420.41016,88.09512658608179,85.37961359892668,89.57725864834947,88.40617629173738,84.29544444043047,87.57240760393378
435.05859,88.42675542715901,85.96236913355105,90.11552636516794,89.13514749803305,84.13399962857929,88.05668279321549
451.17188,87.66749258158288,85.01445121111004,89.49960271968251,88.85888038808652,85.14911431620905,87.61794052592828
465.82031,87.82668281787926,84.62611475800324,89.69571962102663,88.51098303091848,84.91593714781567,87.55669799841058
483.39844,87.97723411427069,84.44623971146052,89.89300452637076,88.9008144042875,84.70193972676776,87.71343344540976
499.51172,87.50618641085077,83.85335431306058,89.71766047919922,88.60983255419065,83.89387772821564,87.34680094861098
517.08984,86.94401979706282,83.42583060824171,89.45036435475944,88.54881109833478,84.1976769762245,87.11774510537084
536.13281,86.39032246554808,83.23005714909722,89.39911878692422,88.58825581588357,84.68697406089578,87.04738626686165
555.17578,86.4462089241558,83.07295345155165,89.64568929491162,88.03999917881391,84.77420751393731,86.99447445758548
574.21875,87.62306722720957,82.68307109664059,90.61836706400447,88.38075167996683,84.322221085107,87.59866299415418
594.72656,88.04875973724849,82.24739739276241,90.71429213587784,88.53481516706981,84.30766338100543,87.73479860717312
615.23438,88.17697237831432,80.98184322042373,90.76728826323497,88.8135060558839,84.49397748567648,87.80777680860375
637.20703,87.7858871474922,78.95722348305934,90.49884271351593,88.12427706343925,84.9218580344814,87.42071362881363
659.17969,88.19075557612062,78.81958001361906,90.84127657868196,87.99947322153,84.43717820203088,87.57077978613529
682.61719,88.16351409499589,77.80933310897206,90.76421493606311,87.68448066677405,83.73510031050814,87.37354681752996
707.51953,88.64800386439614,76.52245236367821,91.18163858210708,87.88674218319483,83.66552761950109,87.68988329957419
732.42188,88.4612458981694,76.04432686408725,91.30122730732914,87.81343423764451,83.38183445871424,87.65446392895524
757.32422,88.52809150544513,76.59196709219447,91.57227874008203,88.32758569543734,82.83865116374068,87.87750496311162
785.15625,86.72581178556969,76.8326757661151,90.90275436440379,87.76935565084013,82.4603655954939,87.03176530282857
811.52344,86.2977089826435,76.47170217088961,90.95846001364089,87.96814799756164,82.26600826402765,87.0113972086227
840.82031,85.03943708871256,75.85879583820704,90.59905524866268,87.68954332944304,82.1271430510023,86.54403516456021
870.11719,84.08531359770598,75.0097271436263,90.40423539843195,87.56655245817339,81.30626255904234,86.21494023857841
900.87891,84.29142159828369,75.61700231641777,91.13983306964785,87.93884953850694,81.49100724986002,86.75464733245744
933.10547,83.18056450783303,76.71949505783367,90.95254307925488,87.78817500043843,82.10995009317914,86.55848558179606
965.33203,82.23002282738763,77.265475401543,90.50880020075303,87.44055653187361,82.41767118272855,86.17811030274383
1000.4883,80.98578866821121,75.32020910846904,89.71844412725247,87.32155202397195,82.02074069970978,85.5526411454415
1035.6445,80.6032654084317,73.96048777837173,89.2480757337773,86.73860604860855,81.23877417949659,85.01260594954238
1072.2656,80.41474817479218,78.21616534684557,89.66030071006664,86.84762022748994,80.06424198157056,85.28015333734024
1108.8867,81.1778231348778,81.09128985939819,90.36406697352045,87.17961321059046,80.5594939286514,85.98410459956945
1148.4375,81.67453995676604,82.87801632542958,90.89818136336504,87.21753571042663,80.83584768132934,86.47178221941981
1189.4531,82.06771504556339,83.50712459407023,91.06441455138824,87.24762578899993,80.90473262219322,86.6590200440676
1230.4688,81.98853908115657,84.1671133029324,91.04853959094628,87.205260276701,80.29363120637699,86.67383369225094
1274.4141,82.07244914135225,84.22273719731072,91.07653909372789,87.10145275394439,79.88857429341103,86.6602573524734
1319.8242,81.20241412699659,83.51869151317803,90.74064637916428,86.74903135552495,79.33771502908492,86.23576714748984
1366.6992,80.81262333979836,83.10168325709449,90.71268906741092,86.56311931622967,78.63637662891044,86.08406345269759
1413.5742,80.67260218937989,83.60881077671523,90.58171785467219,86.44273850847227,78.37802882366738,86.0190798632094
1463.3789,81.05353289707489,83.48435389484908,90.77781334449476,86.54450703213713,78.35053411803045,86.16232510246037
1516.1133,81.49152672476751,83.35384876827976,90.71590635067659,86.67336152703078,78.1816074282232,86.1643680095828
1568.8477,80.99589065838398,83.43054259870988,90.58089996848082,86.35073705343275,77.79315216443433,85.97906180115652
1624.5117,80.55592587034356,82.93325306030525,90.44072533041425,86.1547346705912,77.52021330377494,85.76569687489436
1681.6406,80.81210494432719,82.72639028355601,90.61169198616349,86.21007813241019,77.39240858095968,85.87003511096081
1741.6992,81.42113187815454,82.7806858669697,90.77207704086811,86.45120282017675,77.47770035077728,86.06512588501154
1803.2227,81.45755958057686,82.95007080105997,90.4235655186516,86.21967977276145,77.31771854834369,85.82575811277702
1866.2109,81.55535527308253,82.79697691124693,90.10447541016083,86.01176106842313,77.03664535513167,85.58122086315987
1932.1289,81.72319020856992,82.61512226858548,90.12128185178528,86.24781295088425,77.24333606194494,85.64457407208303
1999.5117,81.37280387176136,82.47943586483416,90.58376342533187,86.9222269310201,77.30811028904655,86.02955715390571
2069.8242,81.88569073927778,82.7238928562124,90.44827595363331,87.06257265783583,77.32531475022307,86.04835027378036
2143.0664,80.1780535022103,82.7529267311777,89.83075254115056,86.56972189462046,77.4412278682717,85.47490820733165
2219.2383,79.56977666550337,84.13797812664599,89.7113027569076,86.51850061517985,77.20098487348652,85.53065892100435
2296.875,79.86179701629445,84.9714474252219,89.70106434564592,86.70385390237273,77.64567226020363,85.73059491268644
2378.9063,80.31325076372491,85.57696531474463,89.46841108556563,86.79859357152718,77.50721043126484,85.77085188631963
2462.4023,81.23556481850835,86.08953716539354,89.27016545805466,86.49943186457804,76.60019320208588,85.74484254098657
2548.8281,81.84020169472984,86.69742582002841,89.23523349170247,86.45129266108776,76.60463945521947,85.90222020140342
2639.6484,82.78050458390791,86.8277053256587,88.87591165766061,86.18510916680995,76.03519998163657,85.7953588342707
2731.9336,83.57086667613522,86.79852146009665,88.98063289425573,86.29101152215347,76.1353477280765,85.94079632202036
2828.6133,84.22270651614087,86.97320450253848,89.37357941451711,86.61476449487803,76.19645085562257,86.29101376052155
2928.2227,84.99889876982667,87.27346753386898,89.14123479486639,86.83358160032427,76.18594583756386,86.42344005683015
3030.7617,85.49799853235737,87.64164735918541,88.95904837539008,86.70264913585814,75.88486491619534,86.49198068286732
3137.6953,86.00916766082798,87.82369441737714,89.17132436751099,87.14380707622213,75.62432630818051,86.78639797055123
3249.0234,86.23045480221286,87.52521662823793,88.89938055168426,87.11826140284104,76.24025899812602,86.66265739057472
3363.2813,86.26047200921323,87.2001829302946,89.04356713420358,86.92975984809917,75.69102114158346,86.58984698905608
3481.9336,86.42031271783611,86.85815468502929,89.28576786624029,86.9971445152334,75.80153499491063,86.64808926236546
3604.9805,86.93231314467498,86.16306594018256,89.47699159367068,86.93407792920553,75.7843763922823,86.67422494115132
3732.4219,86.77707903115042,85.62007997784283,89.42385560139002,86.69403221328909,75.4175220642496,86.4709705423593
3864.2578,86.70275351059213,85.37965414197062,89.14609794655482,86.14001502002642,75.16180257903093,86.18806465439295
4000.4883,87.14823750777101,85.35357084666944,89.12802295447605,85.84003774421925,74.08625080021619,86.20981916063943
4141.1133,87.24533477764655,85.76903191565388,88.89859068372176,85.12468207787438,73.58907384964041,86.08972258940285
4287.5977,87.29422287689962,86.00699499990833,88.9833936238355,84.61983094763536,72.21751407262704,86.09113863473391
4438.4766,87.29655032415602,85.67092160513573,88.84682641028171,84.7108937527874,73.20176804836935,85.9971408827417
4595.2148,87.38734436999292,85.46476582781709,88.72608724350482,85.20179812779291,73.31097323649573,86.01705193107873
4756.3477,87.51810672360095,84.96592405478623,88.89516756432513,86.09728649707316,74.09215884682654,86.20472172234827
4924.8047,87.57357505619308,85.1318016079153,88.89394118092683,86.76591134271293,74.21352763526907,86.38361199092365
5097.6563,87.60536058538304,85.23886883010988,89.1432109593288,86.58577561293916,73.46748601646696,86.45231753537341
5277.832,87.69124690184186,85.44989720663108,88.99862003574576,86.48924930153453,73.59810748259046,86.43641241359866
5463.8672,87.68604895711003,85.5433302951186,89.0036487004502,86.03700229052723,72.54181906148918,86.35441632978122
5657.2266,87.67055069349406,85.46050986823226,89.4057059192455,85.7033700097976,72.91824978164023,86.43448491503793
5856.4453,87.69110883345881,85.33560805656072,89.18891464282932,85.31112962989376,72.65708831069126,86.26764795757919
6062.9883,87.57363621297714,85.1496480622198,89.00071430490405,85.18929670330216,71.98094672435278,86.10623113975149
6276.8555,87.42700232136667,85.123041126575,88.92945331011302,84.7861501045439,71.0919963855137,85.96312266947517
6498.0469,87.16857879969061,84.94902445195336,88.69792509930558,84.85235376354953,71.01604937057391,85.78137395795055
6726.5625,86.88321145080147,84.5571256869093,88.34271597091188,84.66288285925421,70.3774629978997,85.46479021799117
6963.8672,86.68804090576529,83.95850191658394,87.71922810738434,84.19074704418293,70.14736866089143,84.99554428120652
7209.9609,86.42569697613705,83.29944547318726,87.5434791464132,83.78819231806226,69.36816243772799,84.6797867065693
7464.8438,86.31460307385886,82.76786706397039,87.29683953841555,82.80722994191572,68.05793293856163,84.31703579694359
7727.0508,86.19051899737642,82.4206712882141,87.09585490422998,82.15837756152678,67.8873653090574,84.06017155656241
7999.5117,86.01324867600162,82.26344084544543,87.49150218115571,82.03942634323433,67.58173864547192,84.13176089386869
8282.2266,86.03259270119078,82.09911634736173,87.77666389017527,81.73633214917513,66.28426762357986,84.2028206353452
8573.7305,86.17289150629595,81.81734231603141,87.73076422508917,81.19744078813719,64.91806076425922,84.13003871696608
