Freq "Sound Power"
20.5078 61.627144498187846
21.9727 64.44311128189767
23.4375 67.9945868876751
24.9023 68.74623955965433
26.3672 72.83750438704894
27.832 74.44599151803962
29.2969 76.9261671980781
30.7617 78.72427316191084
32.2266 80.75175352521586
33.6914 82.80496387183068
35.1562 84.61433773613912
36.6211 86.14937437538794
38.0859 87.58148440892765
39.5508 88.83132647031849
41.0156 89.75863078149236
42.4805 90.5638013412561
43.9453 91.20059639457939
45.4102 91.8109162470248
46.875 92.21353151856488
48.3398 92.60910066009372
51.2695 93.10049079080687
52.7344 93.26476419827158
54.1992 93.44835315561309
55.6641 93.55147284845444
58.5938 93.75674265426119
60.0586 93.86385116135071
62.9883 94.0186360708848
64.4531 94.05349445356724
67.3828 94.02854395775702
68.8477 94.08894371797467
71.7773 94.19579542949414
74.707 94.29528517271967
77.6367 94.33013936477585
79.1016 94.33433543164489
82.0312 94.2942107650706
84.9609 94.28031801644435
87.8906 94.33484927084895
90.8203 94.25964877507764
95.2148 94.32264127532696
98.1445 94.2735861712404
101.074 94.14511769438428
105.469 94.19244196206219
108.398 94.35300844171525
112.793 94.30338113515137
117.188 94.18293727037704
120.117 94.19401527911862
124.512 94.16218458807066
128.906 94.0137414916043
133.301 93.96419550663711
139.16 93.91177461372016
143.555 93.8327783115534
147.949 93.62040937300738
153.809 93.51350287632108
159.668 93.64634878825242
165.527 93.62843983574965
171.387 93.45160495886522
177.246 93.26316371429846
183.105 93.01387484369009
188.965 92.99473739788056
196.289 93.0137164120864
203.613 92.81639055142604
210.938 92.55067151375982
218.262 92.41843009271173
225.586 92.49068208856754
232.91 92.18557490192279
241.699 91.98353397533835
250.488 92.0462085421837
259.277 92.16380980111899
268.066 91.65925328024716
276.855 91.64674113598416
287.109 91.4968650702032
297.363 91.47088595441403
307.617 91.20922450678509
319.336 91.2001359154157
329.59 91.20295024447483
341.309 91.3262161910047
353.027 91.30200011846594
366.211 91.22414486584006
379.395 91.68104681517887
392.578 91.0108399521052
405.762 90.54376146365554
420.41 90.48348000252805
435.059 90.51859306056801
451.172 90.11972380983491
465.82 89.831513234321
483.398 89.72564836868852
499.512 89.9913027264445
517.09 90.10065886025352
536.133 89.6380864207306
555.176 89.30038313498973
574.219 89.35666556406213
594.727 88.34887074777832
615.234 86.85396283027166
637.207 89.97814759911435
659.18 89.76010534206915
682.617 89.64552784468798
707.52 89.43622342570146
732.422 88.09669894977354
757.324 87.51664083469126
785.156 88.77279982179854
811.523 89.47596896531606
840.82 89.98785062597328
870.117 90.25506186646919
900.879 90.6432036555433
933.105 90.18855755673658
965.332 90.51161311033448
1000.49 89.69181614735508
1035.64 89.5657135109374
1072.27 88.64756503620009
1108.89 87.90399041890788
1148.44 87.29806526209873
1189.45 87.02136374293582
1230.47 86.81777141236506
1274.41 86.62125809399389
1319.82 86.83171191689536
1366.7 86.46235419197197
1413.57 86.20558232015391
1463.38 85.50000151649846
1516.11 84.434671288397
1568.85 84.04682798387978
1624.51 84.49437596171643
1681.64 85.05986025599967
1741.7 85.74820342491455
1803.22 85.62700625661567
1866.21 85.16433426165617
1932.13 84.83427722890661
1999.51 85.42303827829336
2069.82 86.02941089547839
2143.07 86.05774718588955
2219.24 85.1323147335633
2296.88 84.73158614568644
2378.91 84.94935817385361
2462.4 85.97024551042578
2548.83 86.48446639218437
2639.65 86.34650432437388
2731.93 85.75871051712622
2828.61 86.08753000395237
2928.22 86.73922507044875
3030.76 86.91744282672707
3137.7 86.43531364109967
3249.02 86.03076762721385
3363.28 86.14636805497798
3481.93 86.85117277934388
3604.98 87.39393869448287
3732.42 87.31290853088261
3864.26 86.38247332996227
4000.49 85.92416393883728
4141.11 85.98553089816352
4287.6 85.78252786843069
4438.48 85.84149338726995
4595.21 85.70634434444683
4756.35 86.3995715216663
4924.8 86.56709545293603
5097.66 86.58994331288909
5277.83 86.85514745738334
5463.87 86.78209644194934
5657.23 86.65569044880377
5856.45 86.43582181728384
6062.99 86.7034858322005
6276.86 86.50571698618455
6498.05 86.83109304072018
6726.56 86.70867278106726
6963.87 86.8138176560872
7209.96 87.10992655954459
7464.84 86.65869148595323
7727.05 86.89422777135579
7999.51 86.36769841460898
8282.23 86.21010078767355
8573.73 85.53977216370006
8876.95 84.96670039848283
9188.96 84.03844399640735
9514.16 84.21826601014486
9849.61 84.3407563123653
10196.8 84.28024523287024
10555.7 83.75409852409352
10927.7 83.713317582632
11313.0 84.78067462944904
11712.9 85.27206601329738
12126.0 85.28091276659481
12553.7 85.40842812499945
12996.1 85.61727565477835
13454.6 85.95766036515063
13929.2 86.35350454406169
14419.9 86.45047848413296
14928.2 85.56170978430599
15455.6 84.4140541776953
16000.5 83.94924676616104
16564.5 84.49846176791749
17148.9 84.97949150233742
17752.4 85.10129581460161
18379.4 82.94683418332619
19026.9 80.85655630290493
19697.8 79.4560064905743
19999.5 77.84681172515324
