Freq "Sound Power"
20.5078 49.12300410076942
21.2402 51.16105342692289
21.9727 51.24726992445615
22.7051 51.68094790552472
23.4375 53.1153840298838
24.1699 54.48794435955769
25.6348 56.47192309132633
26.3672 57.63794507954459
27.0996 58.55264797333869
27.832 59.386508175144414
29.2969 61.5879803504193
30.0293 62.65522754992364
31.4941 64.42770380541646
32.2266 65.11803230884482
33.6914 67.13564734323526
34.4238 68.20627282171856
35.8887 69.98075307470391
37.3535 71.9392230797602
38.8184 73.77315321611022
39.5508 74.69187389466664
41.0156 76.51543586725725
42.4805 78.09784602622516
43.9453 79.58411089913292
45.4102 80.72101286445043
47.6074 81.80810869104153
49.0723 82.21579049232312
50.5371 82.37562827027627
52.7344 82.40546881799577
54.1992 82.32184481909194
56.3965 82.24352256792238
58.5938 82.15956624611587
60.0586 82.07142917440936
62.2559 82.0701211811617
64.4531 82.10792562186734
66.6504 82.10887592854229
69.5801 82.31568720494411
71.7773 82.48950751757442
73.9746 82.70242920789009
76.9043 82.83117470322411
79.834 83.04197668668617
82.7637 83.15222070098021
85.6934 83.27488252768674
88.623 83.2943551287738
91.5527 83.22590607788216
94.4824 83.28019372265206
98.1445 83.3142685395778
101.807 83.19913839426975
105.469 83.09895386234007
109.131 83.06439816161016
112.793 82.97827622673461
116.455 82.80547341503454
120.85 82.73531733890852
125.244 82.61791191025495
129.639 82.39460985977344
134.033 82.23505412508845
138.428 82.09536757829767
143.555 81.84774697683936
148.682 81.70425193403346
153.809 81.63009579164175
159.668 81.92200177803646
164.795 82.04730142968671
170.654 81.88328719551085
176.514 81.27298797767132
183.105 80.43466915598444
189.697 79.80866971584422
196.289 79.27444094891179
202.881 78.80679725883397
210.205 78.52150558783465
217.529 78.69517466143364
225.586 79.06456017682096
232.91 79.77159700825324
241.699 80.0983329181385
249.756 80.58234466224505
258.545 81.15314028949534
268.066 81.14242084139504
277.588 81.28966363263719
287.109 81.30686533409815
297.363 81.48069120321512
307.617 81.83675202507597
318.604 81.81883012137247
329.59 82.18987628610009
341.309 82.03328960843923
353.76 81.57138614709673
366.211 81.18543942486947
378.662 81.78023137664988
392.578 81.55316352239348
405.762 81.68940683127411
420.41 81.6857075488604
435.059 81.35843734496218
450.439 81.48129302941412
466.553 81.53538091122927
482.666 81.31297668382247
500.244 81.27284823591205
517.822 81.6160502497619
536.133 81.738165287399
554.443 81.31132321744226
574.219 81.49293630259203
594.727 81.46835478703998
615.234 81.69939693525197
637.207 80.78415142108115
659.912 79.7373280586784
683.35 80.14001548951113
706.787 80.09659283042583
731.689 80.00517393416989
758.057 79.86687365036255
784.424 79.96718289484612
812.256 79.647389264647
840.82 79.3673924641398
870.85 79.21206896702068
901.611 79.3626345209839
933.105 79.06063977940708
966.064 79.23449675939828
999.756 78.94324494523856
1034.91 78.76276504884756
1071.53 78.42259527361225
1109.62 78.03844825341675
1148.44 78.00511817566762
1189.45 77.70606218859054
1231.2 77.62686164405702
1274.41 77.3789827131414
1319.82 76.80255630795709
1365.97 76.45633123791917
1414.31 76.13889288600262
1464.11 75.84711535931685
1515.38 75.9906125362519
1568.85 76.07669214327662
1624.51 75.84398205903639
1681.64 75.96137376002737
1740.97 76.35747586274583
1802.49 77.12690192551679
1866.21 77.58540099385046
1932.13 77.63339938385637
2000.24 78.26660904057216
2070.56 78.90384097910166
2143.8 78.8093363249008
2219.24 78.36441178517545
2297.61 78.963434433217
2378.17 78.74990496106132
2462.4 78.02819237552009
2548.83 77.69352253939316
2638.92 77.72941951036344
2731.93 77.52508451804552
2828.61 77.68594195198911
2928.22 77.5575495860182
3031.49 77.46626833737035
3138.43 77.50079526664265
3249.02 77.5879890947342
3363.28 77.36517298434892
3481.93 77.12165606940668
3604.98 77.14574233055063
3732.42 77.05844133456164
3863.53 77.02663556030053
3999.76 77.07717501552276
4141.11 77.13618287544811
4286.87 77.40621996695197
4438.48 77.53751515423282
4594.48 77.84931536461657
4757.08 77.88272513891094
4924.8 77.80455447563995
5098.39 77.76128142248726
5277.83 77.22552019608274
5463.87 76.97491147449378
5656.49 76.45543661459827
5856.45 76.20334076068761
6062.99 75.7354448514694
6276.86 75.59605087509674
6498.05 75.7506429818757
6727.29 75.89376730952068
6964.6 76.22631721626082
7209.96 76.37589855099722
7464.11 75.8315187681629
7727.78 75.13535334938005
8000.24 74.70784600488565
8282.23 75.13622659243546
8574.46 75.68611842356066
8876.22 75.52630778354302
9189.7 74.39183804027239
9513.43 72.99805041423065
9848.88 72.57849739162752
10196.8 72.7797402772252
10556.4 73.10025748410135
10928.5 73.14921125155948
11313.7 72.89826309153749
11712.9 72.04094432228975
12126.0 71.22203624016579
12553.7 71.10830792298962
12996.1 71.07303921956637
13454.6 70.69518253500593
13928.5 69.43528302616225
14419.9 68.68523216351045
14928.2 68.66866763872356
15454.8 68.72798681978783
15999.8 68.5423925424405
16564.5 67.99243357849006
17148.2 67.97791322117614
17753.2 67.8939941835855
18379.4 66.6406053796257
19027.6 64.49332736577351
19698.5 63.96629605024471
19999.5 63.91749323370978
