Freq "Ceiling Bounce"
20.0 18.244550182803223
20.2909 19.081146701390324
20.586 20.147003742175045
20.8855 21.381762318163354
21.1893 22.60406257594117
21.4975 23.6839050122329
21.8102 24.600034044334123
22.1274 25.376687658958943
22.4492 26.07459005601011
22.7758 26.781365104362905
23.1071 27.58173852511051
23.4432 28.513054531006034
23.7841 29.534657316552327
24.1301 30.560572964228342
24.4811 31.533532075948997
24.8372 32.43287552273894
25.1984 33.274260250604684
25.5649 34.0950541023624
25.9368 34.931983283466664
26.3141 35.80934782630432
26.6968 36.727180710001434
27.0851 37.675136591382156
27.4791 38.635902098221905
27.8788 39.59915029660554
28.2843 40.55690975489365
28.6957 41.498473947375444
29.1131 42.41821197949538
29.5365 43.3124265450456
29.9661 44.18509742224113
30.402 45.044842180829974
30.8442 45.90664725704217
31.2929 46.77639148851162
31.748 47.650294187741295
32.2098 48.522673120286655
32.6783 49.38682948297897
33.1536 50.2369388237087
33.6359 51.068807959519276
34.1251 51.87858810227824
34.6215 52.671870829865114
35.125 53.44960898294312
35.6359 54.214641273198694
36.1543 54.96435268144772
36.6802 55.69212375920769
37.2137 56.39304196707265
37.755 57.074217274802876
38.3041 57.73658869582343
38.8613 58.384204347302855
39.4265 59.00707225007234
40.0 59.60804228255441
40.5818 60.197393755340855
41.1721 60.78445317949303
41.771 61.356350890644705
42.3785 61.886334279959
42.9949 62.37270272679736
43.6203 62.83719715253348
44.2548 63.311476071260415
44.8985 63.797022025528435
45.5515 64.26925681145353
46.2141 64.71497428962715
46.8863 65.1381810846181
47.5683 65.54933691370688
48.2602 65.94940047650526
48.9621 66.32806793675753
49.6743 66.68424449903041
50.3968 67.0195292565203
51.1299 67.33915058846078
51.8736 67.64057459168745
52.6281 67.9291503265812
53.3936 68.20814953282012
54.1702 68.479002248045
54.9581 68.74244815132342
55.7575 68.99694393804852
56.5685 69.2423003722976
57.3914 69.46821044238852
58.2261 69.66586895817734
59.073 69.82045074896698
59.9323 69.93307331451653
60.804 70.016007663434
61.6884 70.07615793162724
62.5857 70.10905825795597
63.496 70.1208198420646
64.4196 70.1257053736318
65.3566 70.14014223323022
66.3073 70.173908870876
67.2717 70.2242002740479
68.2502 70.28265763659668
69.2429 70.35060144152723
70.2501 70.42152405815978
71.2719 70.48119564010706
72.3086 70.52187603415356
73.3603 70.52855886610676
74.4274 70.51379200626774
75.5099 70.49265456300867
76.6083 70.46041709497955
77.7226 70.45260332226185
78.8531 70.48612890438913
80.0 70.55250282574711
81.1636 70.63230197639648
82.3442 70.69942653119406
83.5419 70.7505670202584
84.757 70.77793037636121
85.9899 70.78373622246127
87.2406 70.77750506099932
88.5096 70.7873387360261
89.797 70.81173231622641
91.1031 70.8301599977065
92.4282 70.81948980616188
93.7726 70.7720966343769
95.1366 70.68970366059482
96.5204 70.62964951893652
97.9243 70.59658446261167
99.3486 70.58808630564712
100.794 70.58554833978921
102.26 70.58272798254146
103.747 70.57198173815259
105.256 70.55662116928247
106.787 70.54364108199512
108.34 70.5176729003926
109.916 70.45735835578988
111.515 70.37169781406874
113.137 70.31599694553138
114.783 70.27589805941564
116.452 70.23307801159076
118.146 70.18964999150636
119.865 70.14701238435053
121.608 70.09945862336755
123.377 70.06017443934051
125.171 70.03302150763625
126.992 70.00709360724615
128.839 69.97626424403117
130.713 69.92923522301572
132.615 69.8649686085298
134.543 69.81069608458483
136.5 69.77436106045602
138.486 69.73596737760631
140.5 69.6799213815135
142.544 69.63056300554656
144.617 69.59885472744729
146.721 69.54047437650398
148.855 69.51745933546505
151.02 69.53782254678494
153.217 69.52554927256656
155.445 69.50223771797204
157.706 69.47453691286611
160.0 69.29785827671004
162.327 69.16187221281304
164.688 69.15588036933534
167.084 69.20186831944561
169.514 69.26420488750414
171.98 69.12022930924711
174.481 68.94752986205258
177.019 68.8820914016319
179.594 68.86078551550918
182.206 68.82479594665944
184.856 68.87180291584274
187.545 68.92145038353628
190.273 68.96043898486583
193.041 68.99108122937633
195.849 68.99039748378192
198.697 69.05777753509695
201.587 69.05445625818473
204.52 68.90979968283754
207.494 68.79613867530983
210.512 68.77311381061521
213.574 68.7947515484028
216.681 68.70009091461179
219.833 68.7224591068774
223.03 68.76113000085401
226.274 68.85909184116655
229.565 68.96007884288458
232.905 68.92643878445774
236.292 68.86045636489071
239.729 68.8464592374881
243.216 68.9021118023082
246.754 68.99341758836505
250.343 68.96740950031997
253.984 68.90238169838435
257.678 68.91206276537334
261.426 68.96108161582255
265.229 68.99738904653617
269.087 69.0023728425461
273.001 68.88938132562659
276.972 68.908065499507
281.0 69.02103160811411
285.088 69.07635867238365
289.234 69.15066922443962
293.441 69.25633489403376
297.709 69.28500399199488
302.04 69.24106079946733
306.433 69.05302969327637
310.89 69.01612280367017
315.412 69.0487768304871
320.0 69.03390685327348
324.655 69.01079438927772
329.377 68.89817663970967
334.168 68.8058157428874
339.028 68.77318673333633
343.959 69.1892047174566
348.962 69.16788656481899
354.038 68.95570932020509
359.188 68.88120532487895
364.412 68.79188050292241
369.713 68.63143758849539
375.09 68.47822055811245
380.546 68.45591343380576
386.081 68.42181457455969
391.697 68.23291745729442
397.394 68.22493387699055
403.175 68.09178608828778
409.039 67.99984990024976
414.989 68.04451862070408
421.025 68.15904964162867
427.149 68.08252524397906
433.362 68.04332118159347
439.665 68.14817384453276
446.06 68.32050429384013
452.548 68.3361477745829
459.131 68.42589288648914
465.809 68.46261989844966
472.584 68.51225834699358
479.458 68.62603336257828
486.432 68.6625325860383
493.507 68.70017147122113
500.686 68.74340620192986
507.968 68.74783357503466
515.357 68.73459433307441
522.853 68.70856224841769
530.458 68.66968377956242
538.174 68.6191791652736
546.002 68.56844602100519
553.943 68.50443189734877
562.001 68.42713883288523
570.175 68.35219191057305
578.469 68.26573764195345
586.883 68.18013734425678
595.419 68.08492364076167
604.08 68.00022533213026
612.866 67.91543779928934
621.78 67.8273820033958
630.824 67.74354622444483
640.0 67.66733886871368
649.309 67.57876021467887
658.753 67.49808826536174
668.335 67.40834907767577
678.056 67.31753448385803
687.919 67.2245733231811
697.925 67.12578642388996
708.077 67.01072974255729
718.376 66.89960024489393
728.825 66.7857515484028
739.426 66.66679952062637
750.181 66.55999237991055
761.093 66.46150946320843
772.163 66.39464421894687
783.394 66.3515592384075
794.789 66.35562981881222
806.349 66.40440340026161
818.078 66.50689936216217
829.977 66.6553782914104
842.05 66.85268569627709
854.298 67.06645701181543
866.724 67.30653788336886
879.33 67.5394704563663
892.12 67.76864266618615
905.097 67.9738917545689
918.262 68.15229139801495
931.618 68.28564930333842
945.169 68.3940789503563
958.917 68.46433941587041
972.864 68.50574394205765
987.015 68.51820615823186
1001.37 68.51597576351283
1015.94 68.5121484706897
1030.71 68.51438522481664
1045.71 68.54552333851477
1060.92 68.59619204168615
1076.35 68.6776677784923
1092.0 68.78494517816817
1107.89 68.91143783710754
1124.0 69.03714921045359
1140.35 69.1470972145615
1156.94 69.23929676632227
1173.77 69.288036761838
1190.84 69.28623745826343
1208.16 69.2360934596296
1225.73 69.12908604441013
1243.56 68.96845258943394
1261.65 68.7617691803809
1280.0 68.52133471186234
1298.62 68.24885803660298
1317.51 67.96784588211155
1336.67 67.68675459818148
1356.11 67.40837492432753
1375.84 67.12904900989093
1395.85 66.84647441931915
1416.15 66.53976109992371
1436.75 66.21328110635876
1457.65 65.86265063776972
1478.85 65.48791645249983
1500.36 65.10564072978283
1522.19 64.76312463817867
1544.33 64.48468000447336
1566.79 64.29991465373854
1589.58 64.22674761499611
1612.7 64.24230908569622
1636.16 64.28705193335664
1659.95 64.32104626753515
1684.1 64.29606735800813
1708.6 64.16871006278909
1733.45 63.94825339777431
1758.66 63.63747449028574
1784.24 63.317639573365994
1810.19 63.04857487961509
1836.52 62.92693957679832
1863.24 62.959606129464206
1890.34 63.12472572050545
1917.83 63.30136010934838
1945.73 63.38689957824006
1974.03 63.31022352528953
2002.74 63.03851575258983
2031.87 62.603235555349855
2061.43 62.064984593510715
2091.41 61.56184993124573
2121.83 61.18698722581149
2152.69 60.93535992944611
2184.01 60.694485851261106
2215.77 60.31592844509275
2248.0 59.656550354554966
2280.7 58.678471283291216
2313.87 57.450550386136
2347.53 56.1998709342967
2381.68 55.25961881642283
2416.32 54.77004658493806
2451.46 54.53016205728744
2487.12 54.25685658268894
2523.3 53.904578541043705
2560.0 53.51829209717788
2597.24 53.18804464403952
2635.01 52.906432170572
2673.34 52.61856964686791
2712.23 52.23104500366658
2751.68 51.77893154597356
2791.7 51.27661866167263
2832.31 50.975485920022706
2873.5 51.182740429853
2915.3 51.93936294865357
2957.7 52.91892568314289
3000.72 53.732529986304215
3044.37 54.45701043581265
3088.65 55.22525552765387
3133.58 56.12327700805456
3179.16 56.9620622534578
3225.4 57.55780565775771
3272.31 57.91473769865773
3319.91 58.19720600649211
3368.2 58.53406858434944
3417.19 58.99460861583894
3466.89 59.5551354160592
3517.32 60.094259169300045
3568.48 60.46183593504105
3620.39 60.6706160669636
3673.05 61.03435490661191
3726.47 61.747287750889754
3780.67 62.43855725373611
3835.67 62.72001643240252
3891.46 62.76032329802021
3948.06 63.09687359455302
4005.49 63.63642699067809
4063.75 63.85343476522651
4122.86 63.7649184312087
4182.82 63.921425283920016
4243.66 64.29911919258416
4305.39 64.34515782976466
4368.01 64.18775681820593
4431.55 64.37599632221084
4496.01 64.71490792440234
4561.4 64.7841977998984
4627.75 64.79642710857817
4695.06 64.95790597177832
4763.35 65.07248880009344
4832.64 65.14135251235038
4902.93 65.33670801896635
4974.24 65.61573183992765
5046.6 65.72225117230744
5120.0 65.49275675323922
5194.47 65.4485790230009
5270.03 65.83734102778423
5346.68 65.78576719000657
5424.45 65.46151073758257
5503.35 65.77884881511609
5583.4 65.87247191482113
5664.61 65.54412168131827
5747.01 65.75270214153612
5830.6 65.74443209904521
5915.41 65.0396554813195
6001.45 64.82643150744659
6088.74 65.27081203632123
6177.3 65.34295746211305
6267.15 65.58490863824566
6358.31 65.92775747034783
6450.8 65.58819843043837
6544.62 65.60966647392395
6639.82 65.5373723091296
6736.4 65.49482687384176
6834.38 65.8768077393725
6933.79 65.98516358588155
7034.64 66.29915550850451
7136.96 66.52649765658602
7240.77 66.63893714467643
7346.09 66.73149485829761
7452.94 66.66966825865721
7561.35 66.611819487127
7671.33 66.44549466944582
7782.91 66.22740215051276
7896.12 66.23680910717586
8010.97 66.13148153751175
8127.49 66.2868212134053
8245.71 66.42264878875353
8365.65 66.7711635179604
8487.33 66.87559578142522
8610.78 67.01413755199782
8736.03 66.75568864089557
8863.09 66.64810347254779
8992.01 66.16162113056214
9122.8 66.35730410461562
9255.5 66.30728646046198
9390.12 66.8919031850772
9526.7 66.99820954850644
9665.27 67.47384793873739
9805.86 67.45654848099059
9948.49 68.0393487610802
10093.2 68.17542040237275
10240.0 68.89856307734867
10388.9 69.28402159162324
10540.1 69.95302662948555
10693.4 70.29974931509561
10848.9 70.41883662306294
11006.7 70.56939635064124
11166.8 70.58735810895176
11329.2 70.52987265083532
11494.0 70.18749843612422
11661.2 70.13190414917199
11830.8 69.86276384584939
12002.9 69.60237727506849
12177.5 69.48127619906012
12354.6 69.04930495414823
12534.3 68.62106203819538
12716.6 68.25663317581136
12901.6 67.95943084887172
13089.2 67.92356475500135
13279.6 67.90543826309835
13472.8 67.68441963954196
13668.8 67.36262219363759
13867.6 67.00313531632473
14069.3 66.60427821398612
14273.9 66.18438152302802
14481.5 65.67178443020316
14692.2 65.168946689581
14905.9 65.05602189634176
15122.7 64.88457442284506
15342.7 64.48887150855279
15565.8 64.04876461072372
15792.2 63.65861641140181
16021.9 63.40839685452873
16255.0 63.28980793834583
16491.4 62.99821909612639
16731.3 62.9182549723709
16974.7 62.96168452399483
17221.6 62.82109141559367
17472.1 62.58327011514727
17726.2 62.287895060721624
17984.0 61.98040799892334
18245.6 61.576574396461936
18511.0 61.40706118462016
18780.2 61.45888908140279
19053.4 61.20314716574342
19330.5 61.397199522471865
19611.7 62.030680830291146
19897.0 62.04749399633337
