Freq,On Axis,Listening Window,Sound Power,Early Reflections,Early Reflections DI,Sound Power DI,DI offset
22.4,-26.000000000000014,-26.79762419937147,-29.877978548325913,-28.31701377523514,41.51938957586367,43.080354348954444,40
23.0,-24.100000000000037,-24.909678223775288,-28.003126486861746,-26.42790779635574,41.51822957258045,43.09344826308646,40
23.6,-22.200000000000003,-23.062801564418677,-26.149464211841646,-24.580777755488228,41.51797619106955,43.08666264742297,40
24.0,-20.39999999999999,-21.262801564418666,-24.349464211841635,-22.780777755488216,41.51797619106955,43.08666264742297,40
25.0,-18.60000000000001,-19.409678223775316,-22.503126486861746,-20.92790779635577,41.51822957258045,43.09344826308643,40
25.8,-16.79999999999997,-17.609678223775333,-20.703126486861734,-19.127907796355785,41.51822957258045,43.0934482630864,40
26.5,-15.000000000000014,-15.809678223775293,-18.90312648686175,-17.327907796355774,41.51822957258048,43.09344826308646,40
27.2,-13.200000000000003,-14.009678223775282,-17.10312648686171,-15.527907796355734,41.51822957258045,43.09344826308643,40
28.0,-11.399999999999991,-12.262801564418695,-15.349464211841635,-13.780777755488216,41.51797619106952,43.08666264742294,40
29.0,-9.59999999999998,-10.462801564418655,-13.549464211841624,-11.980777755488205,41.51797619106955,43.08666264742297,40
30.0,-7.8999999999999915,-8.70967822377527,-11.8031264868617,-10.227907796355723,41.51822957258045,43.09344826308643,40
30.7,-6.09999999999998,-6.962801564418683,-10.049464211841624,-8.480777755488205,41.51797619106952,43.08666264742294,40
31.5,-4.3999999999999915,-5.209678223775271,-8.303126486861728,-6.727907796355751,41.51822957258048,43.09344826308646,40
32.5,-2.700000000000003,-3.509678223775282,-6.60312648686174,-5.027907796355763,41.51822957258048,43.09344826308646,40
33.5,-1.0000000000000142,-1.7976241993714694,-4.87355716308484,-3.3153775712720375,41.51775337190057,43.07593296371337,40
34.5,0.7000000000000313,-0.1096782237753331,-3.203126486861734,-1.6279077963557853,41.51822957258045,43.0934482630864,40
35.5,2.40000000000002,1.590321776224684,-1.5031264868617455,0.07209220364426017,41.518229572580424,43.09344826308643,40
36.5,4.1000000000000085,3.2371984355813055,0.15952374182462847,1.7223106736577023,41.5148877619236,43.07767469375668,40
37.5,5.700000000000031,4.890321776224667,1.8144131069664269,3.3783513154985627,41.511970460726104,43.07590866925824,40
38.7,7.40000000000002,6.577663701444962,3.4927278906904604,5.052349672617012,41.52531402882795,43.0849358107545,40
40.0,8.999999999999986,8.190321776224707,5.114229587766218,6.675601066855947,41.51472070936876,43.07609218845849,40
41.2,10.700000000000031,9.837198435581328,6.766253734004252,8.32339717580966,41.51380125977167,43.070944701577076,40
42.5,12.299999999999997,11.490321776224718,8.416129434203,9.978351315498614,41.511970460726104,43.07419234202172,40
43.7,13.90000000000002,13.111784819860404,10.062624174529489,11.6191676717592,41.4926171481012,43.049160645330915,40
45.0,15.600000000000009,14.77766370144495,11.702176063126515,13.255224744502229,41.52243895694272,43.075487638318435,40
46.2,17.200000000000003,16.390321776224695,13.352151751704227,14.902314203749867,41.48800757247483,43.03817002452047,40
47.5,18.89999999999999,18.090321776224684,15.016049795961962,16.579043857671635,41.51127791855305,43.07427198026272,40
48.7,20.499999999999986,19.711784819860426,16.66881010181511,18.222180149396067,41.48960467046436,43.042974718045315,40
50.0,22.200000000000003,21.390321776224695,18.33741534251935,19.88835905554963,41.50196272067507,43.052906433705346,40
51.5,23.89999999999999,23.090321776224712,20.033073555574603,21.583226436457025,41.50709533976769,43.05724822065011,40
53.0,25.60000000000001,24.7903217762247,21.72909147086672,23.286603631542434,41.50371814468227,43.06123030535798,40
54.5,27.299999999999997,26.49032177622469,23.447109114756145,25.007541401929714,41.482780374294975,43.043212661468544,40
56.0,29.10000000000001,28.237198435581305,25.18358551000067,26.728718225830946,41.50848020975036,43.05361292558064,40
58.0,30.799999999999997,29.99032177622469,26.929091470866737,28.486603631542422,41.50371814468227,43.06123030535795,40
60.0,32.60000000000001,31.790321776224673,28.70146695052854,30.273961459920926,41.51636031630375,43.08885482569613,40
61.5,34.39999999999999,33.590321776224684,30.49848455973809,32.07273945713449,41.517582319090195,43.091837216486596,40
63.0,36.2,35.390321776224695,32.296873513138266,33.87209220364424,41.51822957258045,43.09344826308643,40
65.0,38.10000000000001,37.237198435581334,34.15313225471671,35.7289164296851,41.508282005896234,43.084066180864625,40
67.0,39.999999999999986,39.13719843558131,36.029580107543254,37.61302180197369,41.524176633607624,43.10761832803806,40
69.0,41.89999999999999,41.03719843558132,37.90885770788303,39.494184597315936,41.54301383826538,43.12834072769829,40
71.0,43.8,42.937198435581294,39.79910163257945,41.398655051933886,41.53854338364741,43.138096803001844,40
73.0,45.7,44.83719843558133,41.69121407999505,43.29286420697967,41.544334228601656,43.14598435558628,40
75.0,47.60000000000001,46.77019515631595,43.598676206106475,45.2185751924129,41.55161996390305,43.171518950209474,40
77.5,49.499999999999986,48.64997482865864,45.488204323575744,47.114259215504646,41.535715613154,43.1617705050829,40
80.0,51.39999999999999,50.57019515631593,47.37869740483727,49.00831317308787,41.56188198322806,43.191497751478664,40
82.5,53.3,52.449974828658654,49.24348058234624,50.88600555888932,41.56396926976933,43.20649424631242,40
85.0,55.2,54.33719843558133,51.09965708229508,52.75373993139699,41.583458504184335,43.23754135328625,40
87.5,56.999999999999986,56.14997482865864,52.926858003929354,54.57948411879205,41.57049070986659,43.22311682472929,40
90.0,58.89999999999999,57.995852590418835,54.730385117170655,56.39136498807254,41.604487602346296,43.26546747324818,40
92.5,60.60000000000001,59.749974828658665,56.50128834975668,58.171895562687794,41.57807926597087,43.24868647890199,40
95.0,62.39999999999999,61.49585259041885,58.231685858812895,59.901121485177526,41.59473110524132,43.264166731605954,40
97.5,64.1,63.16362339373421,59.910691518972726,61.5808310998096,41.58279229392461,43.25293187476149,40
100.0,65.7,64.83719843558133,61.55799735134147,63.22902158465769,41.60817685092364,43.27920108423986,40
103.0,67.3,66.39585259041884,63.13252558947791,64.79711269240215,41.59873989801669,43.26332700094093,40
106.0,68.8,67.91728838520275,64.66652112410195,66.32378823415392,41.59350015104883,43.250767261100805,40
109.0,70.2,69.34997482865867,66.12866232192007,67.78104424247393,41.56893058618475,43.2213125067386,40
112.0,71.6,70.74997482865867,67.54057849701215,69.18451736573893,41.56545746291974,43.209396331646516,40
115.0,72.9,72.03719843558133,68.85443494726856,70.47716869793064,41.560029737650694,43.18276348831277,40
118.0,74.1,73.24997482865867,70.10018770854504,71.71323903313272,41.53673579552594,43.14978712011363,40
122.0,75.2,74.3903217762247,71.2577687746586,72.86195403490409,41.52836774132061,43.132553001566095,40
125.0,76.3,75.43719843558131,72.35053578815837,73.91922224451179,41.51797619106952,43.08666264742294,40
128.0,77.2,76.37766370144492,73.31853911264562,74.8609088457198,41.51675485572511,43.05912458879929,40
132.0,78.0,77.19032177622469,74.21931567784092,75.72979852345094,41.460523252773754,42.97100609838377,40
136.0,78.8,77.97766370144491,75.02963719662392,76.51620845141532,41.46145525002959,42.94802650482099,40
140.0,79.4,78.61082109992354,75.75816279367093,77.20732351747509,41.40349758244845,42.85265830625261,40
145.0,80.0,79.21082109992354,76.4041337716641,77.81457352125936,41.39624757866417,42.80668732825943,40
150.0,80.4,79.7180930196691,76.9809388814799,78.34748650179704,41.37060651787206,42.7371541381892,40
155.0,80.90000000000002,80.17316472682097,77.50691519637905,78.84317219712997,41.329992529691,42.66624953044192,40
160.0,81.2,80.5055157464718,77.9577030460661,79.23550018849711,41.27001555797469,42.5478127004057,40
165.0,81.5,80.82641832950543,78.33680367802539,79.57806116157806,41.24835716792737,42.48961465148004,40
170.0,81.7,81.1018234462474,78.671417901211,79.87946030869072,41.22236313755667,42.43040554503639,40
175.0,81.9,81.30182344624737,78.95426518579521,80.12019653377436,41.18162691247301,42.34755826045216,40
180.0,82.00000000000001,81.40182344624738,79.1750977455665,80.28006674153305,41.12175670471433,42.22672570068087,40
185.0,82.09999999999998,81.52322986294679,79.36301175749067,80.43353742804486,41.089692434901934,42.160218105456124,40
190.0,82.09999999999998,81.57682616469013,79.50194571686397,80.52687526108205,41.04995090360808,42.07488044782616,40
195.0,82.09999999999998,81.59835584272399,79.60350571741044,80.59685820471915,41.001497638004835,41.99485012531355,40
200.0,82.09999999999998,81.59835584272399,79.66571294924653,80.6208719249785,40.97748391774549,41.932642893477464,40
206.0,82.00000000000001,81.57445490257871,79.70000067923361,80.6354871079029,40.938967794675804,41.8744542233451,40
212.0,82.00000000000001,81.5078268572132,79.70595993123447,80.60884572654945,40.898981130663756,41.80186692597873,40
218.0,81.9,81.42970045668939,79.68460712790858,80.55491931697931,40.87478113971008,41.74509332878081,40
224.0,81.7,81.31744273431092,79.64598865360641,80.48812072537477,40.829322008936145,41.67145408070451,40
230.0,81.6,81.23977515023047,79.59168795677849,80.43339860399634,40.806376546234134,41.648087193451985,40
236.0,81.5,81.13977515023048,79.51294397638407,80.3414957096424,40.798279440588075,41.62683117384641,40
240.0,81.4,81.06099577187571,79.44449389063182,80.27194869316364,40.78904707871207,41.61650188124389,40
250.0,81.2,80.9584120116772,79.3554426603563,80.17715172584808,40.78126028582912,41.602969351320894,40
258.0,81.1,80.87027877853474,79.26242327986064,80.10392920484183,40.76634957369291,41.6078554986741,40
265.0,80.99999999999999,80.7810492542877,79.16591056118884,80.02200242965516,40.759046824632534,41.61513869309886,40
272.0,80.99999999999999,80.70462756605401,79.06998179761312,79.94254037198539,40.76208719406863,41.63464576844089,40
280.0,80.90000000000002,80.65841201167721,78.96440827724136,79.86489417514541,40.793517836531805,41.69400373443585,40
290.0,80.8,80.58104925428769,78.86933500947038,79.79989298226833,40.78115627201936,41.711714244817315,40
300.0,80.7,80.56948173034685,78.78235944649036,79.74246918037781,40.82701254996904,41.78712228385649,40
307.0,80.7,80.50255805872011,78.6747069630552,79.66932039147413,40.83323766724598,41.82785109566491,40
315.0,80.60000000000001,80.45788331376366,78.58264603490686,79.6209327579758,40.836950555787865,41.8752372788568,40
325.0,80.60000000000001,80.45788331376366,78.49190688920409,79.57545939894511,40.882423914818546,41.96597642455957,40
335.0,80.60000000000001,80.45788331376366,78.39931831311534,79.54301436152717,40.91486895223649,42.058565000648315,40
345.0,80.60000000000001,80.44677792146747,78.31310631503251,79.50126150412913,40.94551641733834,42.13367160643496,40
355.0,80.60000000000001,80.45788331376366,78.22536309622181,79.46967063570017,40.98821267806349,42.23252021754185,40
365.0,80.60000000000001,80.47950687011969,78.15594026096008,79.45737257584258,41.02213429427711,42.32356660915961,40
375.0,80.60000000000001,80.46819897766142,78.07714661014653,79.42323709327742,41.044961884383994,42.39105236751489,40
387.0,80.60000000000001,80.50102329580307,78.01116009940507,79.41478717793944,41.08623611786362,42.48986319639799,40
400.0,80.60000000000001,80.53512468018192,77.93902666209699,79.39589416080456,41.139230519377364,42.59609801808493,40
412.0,80.7,80.56819897766142,77.88909411886502,79.39594889234431,41.17225008531712,42.67910485879641,40
425.0,80.7,80.64575355685861,77.83473181858903,79.41361506718717,41.23213848967144,42.811021738269574,40
437.0,80.8,80.70102329580307,77.80060896653745,79.42775501772245,41.27326827808062,42.900414329265615,40
450.0,80.90000000000002,80.76845670446247,77.76398736906032,79.44787415772488,41.32058254673758,43.00446933540215,40
462.0,80.99999999999999,80.85711996599535,77.73597910647055,79.47811258583745,41.3790073801579,43.1211408595248,40
475.0,80.99999999999999,80.92396086372067,77.72506938173784,79.52091623394035,41.40304462978031,43.19889148198283,40
487.0,81.1,81.01302337147602,77.71197327210523,79.56090772918432,41.4521156422917,43.3010500993708,40
500.0,81.2,81.09002781022308,77.71085485044033,79.60979000681834,41.480237803404734,43.37917295978275,40
515.0,81.4,81.23589781402053,77.72363730511613,79.67681661317644,41.55908120084409,43.512260508904404,40
530.0,81.5,81.33589781402053,77.74739969208383,79.75142220178427,41.58447561223626,43.588498121936695,40
545.0,81.6,81.45763083976429,77.76740738341189,79.81154160685182,41.64608923291247,43.6902234563524,40
560.0,81.8,81.58079812347711,77.80877098530362,79.9021303917578,41.678667731719315,43.772027138173485,40
580.0,81.9,81.7038424776175,77.84637736374864,79.9776545323602,41.726187945257294,43.857465113868855,40
600.0,82.00000000000001,81.83742057617614,77.88200991362514,80.06565706649808,41.77176350967807,43.955410662551,40
615.0,82.2,81.94907369676628,77.9291766041144,80.16240405886174,41.78666963790454,44.019897092651874,40
630.0,82.3,82.08411551908257,77.9787041602171,80.24178987244805,41.84232564663452,44.10541135886547,40
650.0,82.5,82.26096597237131,78.04364698934009,80.35575011838857,41.90521585398274,44.21731898303122,40
670.0,82.6,82.36096597237129,78.09059808162117,80.424413138171,41.936552834200285,44.27036789075012,40
690.0,82.8,82.52982387080866,78.14686706607705,80.53528847650195,41.99453539430671,44.382956804731606,40
710.0,83.0,82.64176890257558,78.20389345013992,80.62080530765213,42.020963594923444,44.43787545243566,40
730.0,83.10000000000001,82.79917336993003,78.272683806116,80.73019309445593,42.068980275474104,44.526489563814025,40
750.0,83.2,82.89917336993003,78.2921015088187,80.77913314487319,42.12004022505684,44.60707186111132,40
775.0,83.40000000000002,83.01120288534551,78.34306871084479,80.86508526156175,42.146117623783766,44.66813417450072,40
800.0,83.49999999999999,83.10350501238092,78.36571773595892,80.91617782576698,42.18732718661394,44.737787276422,40
825.0,83.6,83.20350501238094,78.38821207553397,80.96426376863128,42.23924124374966,44.81529293684697,40
850.0,83.8,83.36141410943553,78.40740710594345,81.02203714689237,42.339376962543156,44.95400700349208,40
875.0,83.9,83.39624994905707,78.40426859657407,81.04508173223579,42.35116821682128,44.991981352482995,40
900.0,84.0,83.48621202537971,78.40876263733689,81.08262510429094,42.403586921088774,45.07744938804282,40
925.0,84.0,83.5545387224609,78.38198469971718,81.07933579937996,42.47520292308094,45.172554022743725,40
950.0,84.1,83.65453872246091,78.38553731032798,81.11324079021396,42.54129793224695,45.26900141213294,40
975.0,84.2,83.69062966230963,78.34576974021725,81.10817135889528,42.582458303414356,45.34485992209238,40
1000.0,84.2,83.71310002650422,78.26839271335204,81.05365711010705,42.65944291639717,45.44470731315218,40
1030.0,84.3,83.74809322708418,78.20694700879399,81.01955296825437,42.72854025882981,45.541146218290194,40
1060.0,84.3,83.74809322708418,78.13205282419402,80.97209733824936,42.77599588883483,45.616040402890164,40
1090.0,84.3,83.77185065087916,78.03177828267317,80.91229296198762,42.85955768889154,45.740072368205986,40
1120.0,84.3,83.75342031686621,77.92612983436034,80.83059845751794,42.922821859348275,45.82729048250587,40
1150.0,84.3,83.68452565517465,77.79249361009437,80.70564460069504,42.978881054479615,45.892032045080285,40
1180.0,84.3,83.66614914597908,77.6668214950405,80.6128506693282,43.05329847665088,45.99932765093858,40
1220.0,84.3,83.64395228633171,77.53880043330217,80.5153684088019,43.128583877529806,46.10515185302954,40
1250.0,84.2,83.59035782929354,77.40353616510654,80.40587121331053,43.184486615983005,46.18682166418699,40
1280.0,84.2,83.53144978725996,77.2639185379151,80.28266620294265,43.24878358431731,46.267531249344856,40
1320.0,84.1,83.49035782929353,77.1167691984458,80.15932846335643,43.3310293659371,46.373588630847735,40
1360.0,84.1,83.40327256149338,76.95151747798676,80.02721480617576,43.37605775531762,46.451755083506626,40
1400.0,84.0,83.33777558073909,76.80640760933848,79.90324414867221,43.434531432066876,46.53136797140061,40
1450.0,83.9,83.25585212386238,76.6563105586545,79.76353696586195,43.49231515800044,46.599541565207886,40
1500.0,83.9,83.1909399140916,76.51352758460617,79.64639133794905,43.544548576142546,46.677412329485435,40
1550.0,83.8,83.1155702870573,76.36352880753036,79.51879712215461,43.596773164902686,46.75204147952694,40
1600.0,83.7,83.0155702870573,76.21670184942037,79.38920777963848,43.62636250741882,46.798868437636926,40
1650.0,83.7,82.94682324542144,76.07035337547799,79.26126651440556,43.68555673101588,46.87646986994345,40
1700.0,83.6,82.89376020463025,75.93939486127597,79.16134611387514,43.732414090755114,46.95436534335428,40
1750.0,83.49999999999999,82.8240145287178,75.82330954133108,79.05362833830227,43.77038619041552,47.00070498738671,40
1800.0,83.49999999999999,82.73712776253684,75.69516567274773,78.9276421387266,43.80948562381025,47.04196208978911,40
1850.0,83.40000000000002,82.66206434183817,75.56411015688741,78.81970706364534,43.842357278192836,47.097954184950765,40
1900.0,83.40000000000002,82.62516994114594,75.48078125342467,78.75193154912007,43.87323839202587,47.144388687721275,40
1950.0,83.3,82.5342389716736,75.36267557043128,78.64431400492619,43.889924966747415,47.171563401242324,40
2000.0,83.2,82.52111699924558,75.29282410546418,78.58464772292962,43.93646927631596,47.2282928937814,40
2060.0,83.2,82.47212606110175,75.21239528963324,78.52206444103997,43.950061620061774,47.25973077146851,40
2120.0,83.2,82.41323531851948,75.13515678573593,78.45453851992083,43.95869679859865,47.27807853278355,40
2180.0,83.2,82.42319086380131,75.1010640801094,78.42699557639084,43.99619528741047,47.322126783691914,40
2240.0,83.10000000000001,82.38960448981767,75.04725308652114,78.38434257019675,44.00526191962092,47.34235140329653,40
2300.0,83.10000000000001,82.38084972870533,75.01678996034944,78.35668361992171,44.02416610878362,47.36405976835589,40
2360.0,83.10000000000001,82.37009389476408,74.9805526527652,78.32745638016989,44.04263751459419,47.389541241998884,40
2400.0,83.10000000000001,82.38976387034764,74.97366414312934,78.33161064938109,44.058153220966545,47.416099727218295,40
2500.0,83.2,82.39464615534396,74.96011828108668,78.33377168489537,44.060874470448596,47.434527874257284,40
2580.0,83.2,82.40950004865077,74.96678615351428,78.33978590573004,44.06971414292073,47.44271389513649,40
2650.0,83.2,82.4538593223848,74.96485546981093,78.36326572343211,44.090593598952694,47.48900385257387,40
2720.0,83.2,82.4538593223848,74.97582414625965,78.3688500778688,44.085009244516,47.47803517612515,40
2800.0,83.3,82.5025715032997,75.00687452081479,78.41756010804043,44.08501139525927,47.495696982484915,40
2900.0,83.3,82.53417947323294,75.0411199793794,78.45014737405414,44.0840320991788,47.493059493853536,40
3000.0,83.40000000000002,82.59497016702487,75.06982573262087,78.50425210778535,44.09071805923952,47.525144434404,40
3070.0,83.40000000000002,82.6388404101172,75.12494041949958,78.55972001781812,44.079120392299075,47.51389999061762,40
3150.0,83.49999999999999,82.70804146173687,75.1633694956491,78.61661299912146,44.09142846261541,47.54467196608776,40
3250.0,83.6,82.75597956218901,75.21909923039804,78.67815473629622,44.07782482589279,47.53688033179097,40
3350.0,83.6,82.8426186224841,75.27231580349114,78.74166024689781,44.10095837558629,47.57030281899296,40
3450.0,83.7,82.88024484152636,75.3201166235151,78.80454739046625,44.07569745106011,47.56012821801126,40
3550.0,83.8,82.98024484152636,75.3907140062158,78.89310125915226,44.0871435823741,47.589530835310555,40
3650.0,83.9,83.03569278459106,75.46187043716127,78.97561994879982,44.060072835791246,47.5738223474298,40
3750.0,84.0,83.10504027495085,75.51354782309107,79.05036052582842,44.05467974912243,47.59149245185978,40
