Freq "On Axis"
22.4 -26.00000000000003
23.0 -24.099999999999994
23.6 -22.200000000000017
24.0 -20.400000000000006
25.0 -18.599999999999994
25.8 -16.799999999999983
26.5 -15.0
27.2 -13.200000000000017
28.0 -11.400000000000006
29.0 -9.599999999999994
30.0 -7.900000000000006
30.7 -6.099999999999994
31.5 -4.400000000000006
32.5 -2.700000000000017
33.5 -1.0000000000000284
34.5 0.700000000000017
35.5 2.4000000000000057
36.5 4.099999999999994
37.5 5.700000000000017
38.7 7.400000000000006
40.0 8.999999999999972
41.2 10.700000000000017
42.5 12.299999999999983
43.7 13.900000000000006
45.0 15.599999999999994
46.2 17.200000000000017
47.5 18.900000000000006
48.7 20.5
50.0 22.200000000000017
51.5 23.900000000000006
53.0 25.599999999999994
54.5 27.299999999999983
56.0 29.099999999999994
58.0 30.799999999999983
60.0 32.599999999999994
61.5 34.400000000000006
63.0 36.20000000000002
65.0 38.099999999999994
67.0 40.0
69.0 41.900000000000006
71.0 43.79999999999998
73.0 45.70000000000002
75.0 47.599999999999994
77.5 49.5
80.0 51.400000000000006
82.5 53.29999999999998
85.0 55.20000000000002
87.5 57.0
90.0 58.900000000000006
92.5 60.599999999999994
95.0 62.400000000000006
97.5 64.1
100.0 65.7
103.0 67.30000000000001
106.0 68.79999999999998
109.0 70.19999999999999
112.0 71.6
115.0 72.9
118.0 74.1
122.0 75.19999999999999
125.0 76.29999999999998
128.0 77.2
132.0 78.0
136.0 78.79999999999998
140.0 79.4
145.0 80.0
150.0 80.4
155.0 80.9
160.0 81.20000000000002
165.0 81.5
170.0 81.7
175.0 81.9
180.0 82.0
185.0 82.1
190.0 82.1
195.0 82.1
200.0 82.1
206.0 82.0
212.0 82.0
218.0 81.9
224.0 81.7
230.0 81.6
236.0 81.5
240.0 81.4
250.0 81.20000000000002
258.0 81.1
265.0 81.0
272.0 81.0
280.0 80.9
290.0 80.8
300.0 80.7
307.0 80.7
315.0 80.6
325.0 80.6
335.0 80.6
345.0 80.6
355.0 80.6
365.0 80.6
375.0 80.6
387.0 80.6
400.0 80.6
412.0 80.7
425.0 80.7
437.0 80.8
450.0 80.9
462.0 81.0
475.0 81.0
487.0 81.1
500.0 81.20000000000002
515.0 81.4
530.0 81.5
545.0 81.6
560.0 81.8
580.0 81.9
600.0 82.0
615.0 82.2
630.0 82.30000000000001
650.0 82.5
670.0 82.6
690.0 82.8
710.0 83.0
730.0 83.1
750.0 83.2
775.0 83.4
800.0 83.5
825.0 83.6
850.0 83.79999999999998
875.0 83.9
900.0 84.0
925.0 84.0
950.0 84.1
975.0 84.2
1000.0 84.2
1030.0 84.3
1060.0 84.3
1090.0 84.3
1120.0 84.3
1150.0 84.3
1180.0 84.3
1220.0 84.3
1250.0 84.2
1280.0 84.2
1320.0 84.1
1360.0 84.1
1400.0 84.0
1450.0 83.9
1500.0 83.9
1550.0 83.79999999999998
1600.0 83.70000000000002
1650.0 83.70000000000002
1700.0 83.6
1750.0 83.5
1800.0 83.5
1850.0 83.4
1900.0 83.4
1950.0 83.3
2000.0 83.2
2060.0 83.2
2120.0 83.2
2180.0 83.2
2240.0 83.1
2300.0 83.1
2360.0 83.1
2400.0 83.1
2500.0 83.2
2580.0 83.2
2650.0 83.2
2720.0 83.2
2800.0 83.3
2900.0 83.3
3000.0 83.4
3070.0 83.4
3150.0 83.5
3250.0 83.6
3350.0 83.6
3450.0 83.70000000000002
3550.0 83.79999999999998
3650.0 83.9
3750.0 84.0
3870.0 84.1
4000.0 84.2
4120.0 84.4
4250.0 84.5
4370.0 84.6
4500.0 84.80000000000001
4620.0 84.9
4750.0 85.0
4870.0 85.1
5000.0 85.19999999999999
5150.0 85.4
5300.0 85.5
5450.0 85.6
5600.0 85.6
5800.0 85.7
6000.0 85.8
6150.0 85.8
6300.0 85.8
6500.0 85.8
6700.0 85.8
6900.0 85.8
7100.0 85.7
7300.0 85.6
7500.0 85.5
7750.0 85.3
8000.0 85.1
8250.0 84.9
8500.0 84.7
8750.0 84.4
9000.0 84.1
9250.0 83.79999999999998
9500.0 83.4
9750.0 83.0
10000.0 82.6
10300.0 82.2
10600.0 81.8
10900.0 81.4
11200.0 80.9
11500.0 80.4
11800.0 79.9
12200.0 79.4
12500.0 78.9
12800.0 78.4
13200.0 77.9
13600.0 77.4
14000.0 76.9
14500.0 76.29999999999998
15000.0 75.8
15500.0 75.3
16000.0 74.80000000000001
16500.0 74.2
17000.0 73.70000000000002
17500.0 73.2
18000.0 72.6
18500.0 72.0
19000.0 71.4
19500.0 70.8
