Freq "Sound Power"
22.4 -29.877978548325927
23.0 -28.00312648686173
23.6 -26.14946421184166
24.0 -24.34946421184165
25.0 -22.50312648686173
25.8 -20.70312648686172
26.5 -18.903126486861765
27.2 -17.103126486861726
28.0 -15.34946421184165
29.0 -13.549464211841638
30.0 -11.803126486861714
30.7 -10.049464211841638
31.5 -8.303126486861743
32.5 -6.603126486861754
33.5 -4.873557163084854
34.5 -3.20312648686172
35.5 -1.503126486861703
36.5 0.15952374182461426
37.5 1.814413106966441
38.7 3.492727890690446
40.0 5.114229587766204
41.2 6.766253734004238
42.5 8.416129434202986
43.7 10.062624174529532
45.0 11.702176063126501
46.2 13.352151751704213
47.5 15.016049795961948
48.7 16.668810101815097
50.0 18.337415342519336
51.5 20.033073555574646
53.0 21.729091470866734
54.5 23.44710911475613
56.0 25.183585510000654
58.0 26.929091470866723
60.0 28.701466950528555
61.5 30.498484559738102
63.0 32.29687351313825
65.0 34.153132254716695
67.0 36.029580107543296
69.0 37.908857707883016
71.0 39.799101632579465
73.0 41.69121407999506
75.0 43.59867620610646
77.5 45.48820432357576
80.0 47.37869740483728
82.5 49.24348058234622
85.0 51.099657082295096
87.5 52.92685800392934
90.0 54.73038511717067
92.5 56.50128834975669
95.0 58.23168585881288
97.5 59.91069151897271
100.0 61.55799735134147
103.0 63.13252558947792
106.0 64.66652112410193
109.0 66.12866232192006
112.0 67.54057849701215
115.0 68.85443494726854
118.0 70.10018770854504
122.0 71.2577687746586
125.0 72.35053578815835
128.0 73.31853911264562
132.0 74.21931567784092
136.0 75.02963719662392
140.0 75.75816279367092
145.0 76.4041337716641
150.0 76.98093888147989
155.0 77.50691519637904
160.0 77.95770304606611
165.0 78.3368036780254
170.0 78.67141790121102
175.0 78.95426518579521
180.0 79.1750977455665
185.0 79.36301175749067
190.0 79.50194571686397
195.0 79.60350571741043
200.0 79.66571294924654
206.0 79.7000006792336
212.0 79.70595993123446
218.0 79.68460712790858
224.0 79.6459886536064
230.0 79.59168795677849
236.0 79.51294397638407
240.0 79.44449389063182
250.0 79.35544266035632
258.0 79.26242327986066
265.0 79.16591056118884
272.0 79.06998179761311
280.0 78.96440827724136
290.0 78.86933500947038
300.0 78.78235944649036
307.0 78.6747069630552
315.0 78.58264603490687
325.0 78.49190688920409
335.0 78.39931831311534
345.0 78.3131063150325
355.0 78.22536309622181
365.0 78.15594026096008
375.0 78.07714661014654
387.0 78.01116009940507
400.0 77.939026662097
412.0 77.889094118865
425.0 77.83473181858903
437.0 77.80060896653744
450.0 77.76398736906032
462.0 77.73597910647055
475.0 77.72506938173784
487.0 77.71197327210523
500.0 77.71085485044031
515.0 77.72363730511613
530.0 77.74739969208383
545.0 77.76740738341188
560.0 77.80877098530362
580.0 77.84637736374864
600.0 77.88200991362514
615.0 77.9291766041144
630.0 77.9787041602171
650.0 78.04364698934009
670.0 78.09059808162117
690.0 78.14686706607705
710.0 78.20389345013992
730.0 78.272683806116
750.0 78.2921015088187
775.0 78.34306871084479
800.0 78.36571773595891
825.0 78.38821207553397
850.0 78.40740710594345
875.0 78.40426859657407
900.0 78.40876263733689
925.0 78.38198469971718
950.0 78.38553731032798
975.0 78.34576974021726
1000.0 78.26839271335204
1030.0 78.20694700879397
1060.0 78.13205282419402
1090.0 78.03177828267316
1120.0 77.92612983436035
1150.0 77.79249361009435
1180.0 77.66682149504048
1220.0 77.53880043330219
1250.0 77.40353616510654
1280.0 77.2639185379151
1320.0 77.1167691984458
1360.0 76.95151747798676
1400.0 76.80640760933848
1450.0 76.6563105586545
1500.0 76.51352758460615
1550.0 76.36352880753036
1600.0 76.21670184942039
1650.0 76.07035337547799
1700.0 75.93939486127596
1750.0 75.8233095413311
1800.0 75.69516567274773
1850.0 75.5641101568874
1900.0 75.48078125342468
1950.0 75.36267557043129
2000.0 75.29282410546418
2060.0 75.21239528963324
2120.0 75.13515678573592
2180.0 75.1010640801094
2240.0 75.04725308652114
2300.0 75.01678996034946
2360.0 74.98055265276518
2400.0 74.97366414312933
2500.0 74.9601182810867
2580.0 74.96678615351426
2650.0 74.96485546981093
2720.0 74.97582414625965
2800.0 75.00687452081479
2900.0 75.0411199793794
3000.0 75.06982573262087
3070.0 75.12494041949958
3150.0 75.1633694956491
3250.0 75.21909923039803
3350.0 75.27231580349113
3450.0 75.32011662351509
3550.0 75.3907140062158
3650.0 75.46187043716128
3750.0 75.51354782309106
3870.0 75.59010199490386
4000.0 75.65108679798388
4120.0 75.7632461979614
4250.0 75.83691636393544
4370.0 75.91361050956066
4500.0 75.99933036620368
4620.0 76.06953639096311
4750.0 76.16003150836191
4870.0 76.2172704546409
5000.0 76.28605506841294
5150.0 76.35784804004541
5300.0 76.42528131247103
5450.0 76.47326905778046
5600.0 76.5313117526989
5800.0 76.55944455012121
6000.0 76.59150921752932
6150.0 76.59705113854308
6300.0 76.5973084863203
6500.0 76.57674396667474
6700.0 76.52992029753631
6900.0 76.49935655007299
7100.0 76.41813884264946
7300.0 76.30271062932846
7500.0 76.18827474074567
7750.0 76.03722655077982
8000.0 75.82663030051589
8250.0 75.64411257867354
8500.0 75.3892716300691
8750.0 75.11696435528889
9000.0 74.81134430354675
9250.0 74.49317497000234
9500.0 74.12923626401103
9750.0 73.76254533157325
10000.0 73.3649762874915
10300.0 72.95548089917784
10600.0 72.51528150757565
10900.0 72.05875665507249
11200.0 71.60961156426373
11500.0 71.12449330592602
11800.0 70.63392048831767
12200.0 70.13268570800044
12500.0 69.64796486497896
12800.0 69.12640360923439
13200.0 68.61814858555904
13600.0 68.08997648192172
14000.0 67.56813108557668
14500.0 67.04591826553812
15000.0 66.51930672588352
15500.0 65.98483854573907
16000.0 65.48483854573905
16500.0 64.92663030051588
17000.0 64.38483854573909
17500.0 63.85203614210303
18000.0 63.28483854573906
18500.0 62.70577820620659
19000.0 62.10577820620658
19500.0 61.50620637255514
