Freq "Sound Power"
20.5078 32.15219634791613
23.4375 33.88642687006474
26.3672 38.09710306320828
29.2969 42.163542547372444
32.2266 45.142149438145296
35.1562 48.64247062730924
38.0859 52.02762833258802
41.0156 55.47262094295759
43.9453 58.35274553394116
46.875 61.221302987023506
49.8047 63.31273806587323
52.7344 64.55636773551264
55.6641 65.11360307993192
58.5938 65.21361578084375
61.5234 65.19534465092212
64.4531 65.21041252044711
67.3828 65.09994349911437
70.3125 65.15421640593142
73.2422 64.92860068421643
76.1719 65.06931737672636
79.1016 65.06704201165992
82.0312 65.11391038091041
84.9609 65.16451416526002
87.8906 65.25603501756764
90.8203 65.3250544574566
93.75 65.37911385014999
96.6797 65.55883425130641
102.539 65.78788930005884
105.469 65.75109974465059
108.398 65.76736047620045
111.328 65.8407651528781
117.188 65.97024223619472
120.117 66.33726167036961
125.977 66.47500180154877
128.906 66.54231975139018
134.766 66.64382338584143
137.695 66.69025840526353
143.555 66.81745706949391
149.414 66.83107883987627
155.273 66.87496068448647
158.203 66.8873124371993
164.062 66.90428032977209
169.922 66.95023434507718
175.781 66.9472192728568
181.641 66.94767418600206
190.43 66.91476002017609
196.289 66.92163064176366
202.148 66.8656356671339
210.938 66.762031898617
216.797 66.60613963847098
225.586 66.45972520280527
234.375 66.33422691336563
240.234 66.23328516529976
249.023 66.2073558953208
257.812 66.24948320040104
266.602 66.19673536440003
278.32 66.11374812093749
287.109 66.06498025413492
295.898 65.93726084221309
307.617 65.70714872006441
319.336 65.49903386941195
331.055 65.41512883840562
342.773 65.33723108445706
354.492 65.23240432782289
366.211 65.11384511559656
377.93 65.12788034248787
392.578 65.02162778825584
407.227 64.88330650074383
421.875 64.82582961635079
436.523 64.54074706466707
451.172 64.15047191393104
465.82 63.769159273862826
483.398 63.443327530948125
500.977 63.19933293455534
518.555 63.30640829149418
536.133 63.10664856971664
553.711 62.83350172877512
574.219 62.47309996418598
594.727 62.34824841122277
615.234 62.30744043442769
638.672 62.94519552880878
659.18 63.57746444092987
682.617 63.55363708546591
706.055 63.225516191355425
732.422 63.00161159116897
758.789 62.857741160774765
785.156 62.6886232658419
811.523 62.60840955730714
840.82 62.220762793063514
870.117 61.97139824059951
902.344 61.738564319550775
931.641 61.33030420888019
966.797 60.692018422892474
999.023 60.45868982552571
1034.18 61.01156314860327
1072.27 60.64424966573388
1110.35 60.81406810744615
1148.44 60.54482378292556
1189.45 60.34101654311519
1230.47 60.303505063682664
1274.41 60.090308424152
1318.36 60.127490843226255
1365.23 59.743936401093904
1415.04 59.64759895130591
1464.84 59.60528776112383
1514.65 59.682591850318786
1570.31 59.58781375117444
1623.05 59.32903894564147
1681.64 59.175707140541036
1740.23 59.26004546685324
1801.76 59.492258319969196
1866.21 59.42984327309897
1930.66 59.362891925608
2000.98 59.28818743481651
2071.29 59.2925311678883
2144.53 59.16465172403363
2217.77 59.00428633911311
2296.88 59.775491554190694
2378.91 60.489505111754994
2460.94 60.37510817680372
2548.83 60.29616970922724
2639.65 60.209326369976
2733.4 60.32631007648172
2827.15 60.36467876905827
2926.76 60.40657911283792
3032.23 60.1820230736446
3137.7 60.47428331298414
3249.02 60.395276417031525
3363.28 60.04091662657771
3483.4 60.22809493055014
3606.45 59.83088284457084
3732.42 59.78862807019796
3864.26 59.65381828761112
3999.02 59.59264712331584
4139.65 59.28797460096513
4286.13 59.226171440868356
4438.48 59.011943638564176
4593.75 58.87325463396934
4757.81 58.781053480427616
4924.8 58.535927224237355
5097.66 58.41084368783811
5279.3 58.33010746783883
5463.87 58.221819821929685
5657.23 58.232310370229555
5856.45 58.313570237035904
6061.52 58.28989431041707
6275.39 58.39917338407511
6498.05 58.21768997300104
6726.56 58.01487432679416
6963.87 57.82193944951938
7209.96 57.693837553811264
7464.84 57.4776481382432
7728.52 57.158051909042044
8000.98 56.93637469355632
8282.23 56.70557430314604
8575.2 56.298661217896665
8876.95 56.035568856009675
9190.43 55.738243645338756
9512.7 55.321363572445875
9849.61 55.19650998043241
10195.3 55.045126084560124
10555.7 54.93639440193094
10927.7 55.11376419694605
11314.5 55.246468822413775
11712.9 55.38624376686097
12126.0 55.27058831915714
12553.7 55.050691606607586
12996.1 54.83461797172525
13453.1 54.65936578943361
13927.7 54.31124354137674
14419.9 54.16568577188832
14929.7 54.012568044696295
15454.1 54.00780365868755
15999.0 54.184599565959914
16564.5 54.304120871080656
17147.5 54.39078474961623
17753.9 54.273420763102095
18377.9 54.16747758711769
19028.3 53.91725897962259
19699.2 53.594299505956215
19998.0 53.3286531644538
