Freq "Listening Window"
20.5078 66.60525779375796
21.9727 68.99108108946643
23.4375 69.3234454426023
24.9023 70.20208885382324
26.3672 71.90641946568698
27.832 72.52321985396567
29.2969 73.30281047416337
30.7617 74.292235390736
32.2266 74.84580866187844
33.6914 75.6587915300202
35.1562 76.36465037736092
36.6211 77.15605589288317
38.0859 77.80274924966977
39.5508 78.47228045655494
41.0156 79.31752946949211
42.4805 79.88214163893217
43.9453 80.36354244313212
45.4102 80.96697642428846
46.875 81.49285204337049
48.3398 82.01998421865679
51.2695 83.00405684663852
52.7344 83.68272317029793
54.1992 84.19697056474449
55.6641 84.6983700991088
58.5938 85.71288771043989
60.0586 86.2112497982847
62.9883 87.0641086101147
64.4531 87.30849491265549
67.3828 88.0641111397797
68.8477 88.41727651513453
71.7773 89.09060441419942
74.707 89.78131672748641
77.6367 90.26817971128939
79.1016 90.4405206877788
82.0312 90.90691923365263
84.9609 91.25623353801784
87.8906 91.5796394334527
90.8203 91.72498656834314
95.2148 91.98379840303775
98.1445 92.07095661653763
101.074 92.15299304283414
105.469 92.06980196751529
108.398 92.15415047573158
112.793 92.00139126561511
117.188 92.00832088543936
120.117 92.17403355403432
124.512 92.49781259662764
128.906 92.88243832350038
133.301 92.6760873098627
139.16 92.26588192901148
143.555 92.50495265749292
147.949 93.0419378157921
153.809 92.85905989686196
159.668 92.10610164829905
165.527 91.66516575190495
171.387 91.45980820414648
177.246 91.59147826757017
183.105 91.78953317718593
188.965 92.0245772851409
196.289 91.636069611368
203.613 91.47868254585599
210.938 91.46041805622919
218.262 91.3964675157703
225.586 91.41179220033331
232.91 92.34401547172125
241.699 91.48132512710129
250.488 93.03820139694893
259.277 93.69999212690517
268.066 92.50970232245977
276.855 91.53895494246188
287.109 93.06153315616653
297.363 92.63679664531347
307.617 92.29856469171959
319.336 92.676862032104
329.59 93.00981018698349
341.309 94.24860791317184
353.027 94.10984957535955
366.211 94.66030207196202
379.395 93.34153445052227
392.578 94.42286431775996
405.762 93.26026296115667
420.41 93.05360875171586
435.059 91.05323751085278
451.172 92.97318965214367
465.82 94.52328545811405
483.398 92.47282191669792
499.512 90.92193209864332
517.09 92.47706520483688
536.133 92.81090355743889
555.176 92.45084905123801
574.219 92.7682191427913
594.727 92.41885864390309
615.234 91.84494952681827
637.207 91.21030714339648
659.18 91.64623269120358
682.617 93.31651113579575
707.52 91.55635223765977
732.422 92.26654257825612
757.324 90.93010092639113
785.156 91.77929889275299
811.523 92.29964765920853
840.82 91.12213393414497
870.117 91.7472962614204
900.879 90.35189253139272
933.105 91.04483689036284
965.332 91.23484925345747
1000.49 90.78627521420213
1035.64 89.86031869921528
1072.27 89.5800414307776
1108.89 89.65307089536249
1148.44 89.50869839102326
1189.45 88.30867817848552
1230.47 88.37220737036768
1274.41 87.70232971231951
1319.82 87.68883509365678
1366.7 88.07601631827139
1413.57 88.2659296044601
1463.38 88.26057150421828
1516.11 88.22632409608686
1568.85 87.93481467900797
1624.51 87.91848243503254
1681.64 87.76343526546951
1741.7 87.33742196254406
1803.22 87.6854061520446
1866.21 88.16685695275645
1932.13 88.00037979680901
1999.51 87.30361164589465
2069.82 87.25574400231179
2143.07 88.10820327314462
2219.24 88.39670628980495
2296.88 88.76006154015663
2378.91 89.54782670345023
2462.4 89.90152213262773
2548.83 89.53752416131819
2639.65 89.1648139816108
2731.93 88.72762943487612
2828.61 88.73870531361771
2928.22 88.66455652099795
3030.76 88.4333623914524
3137.7 88.67530836292026
3249.02 88.92067829217164
3363.28 88.90261868356265
3481.93 89.51044544500161
3604.98 90.12602433794159
3732.42 90.9011689618322
3864.26 91.6555551197909
4000.49 92.4075328699587
4141.11 92.32732265083114
4287.6 91.9616062591961
4438.48 92.60889099397322
4595.21 92.42083509735644
4756.35 92.15255746643122
4924.8 91.7457775277215
5097.66 91.81979108738311
5277.83 91.93120854209944
5463.87 91.51832564582982
5657.23 90.88589645336899
5856.45 90.44368410002691
6062.99 90.6822511918518
6276.86 90.81548419749706
6498.05 90.27575147065663
6726.56 90.14010231553965
6963.87 90.39027454084372
7209.96 90.29785452043464
7464.84 90.05526891987692
7727.05 90.03748042591748
7999.51 89.97452970185154
8282.23 90.24804691534587
8573.73 90.50112732065641
8876.95 90.61403031193106
9188.96 90.20025849474676
9514.16 90.1472087693609
9849.61 90.34637985703594
10196.8 90.07936002362642
10555.7 89.87330679040726
10927.7 89.64592125028618
11313.0 89.07518384173437
11712.9 88.36501814563816
12126.0 87.75021602099436
12553.7 87.60657617866426
12996.1 87.17383530496001
13454.6 86.45924685845227
13929.2 86.68738761156304
14419.9 87.16895625473158
14928.2 87.4744344065017
15455.6 87.850773980261
16000.5 88.19293050976117
16564.5 88.39469961905301
17148.9 87.55785402620202
17752.4 88.11531515091391
18379.4 88.32863524163295
19026.9 87.75858602809892
19697.8 87.11738895348442
19999.5 87.0510050079116
