Freq "Ceiling Bounce"
20.5078 47.9051589098335
21.9727 55.077999513231546
23.4375 59.31448891076978
24.9023 62.51419196433105
26.3672 65.94522779676412
27.832 68.52911569616455
29.2969 70.66078821179062
30.7617 72.74403014244999
32.2266 74.2006413394514
33.6914 75.2568520772317
35.1562 75.98063786432739
36.6211 76.45439855482984
38.0859 76.72655066587609
39.5508 77.08099762763838
41.0156 77.41674585684059
42.4805 77.7185406900161
43.9453 78.01251740195555
45.4102 78.30153719211664
46.875 78.57313561842678
48.3398 78.93236101066556
51.2695 79.53309029405342
52.7344 79.77430973201686
54.1992 80.01910998371261
55.6641 80.26874561007982
58.5938 80.76376044313368
60.0586 81.00787763602226
62.9883 81.41692996864604
64.4531 81.52152722491284
67.3828 81.74124461307332
68.8477 81.72866840303759
71.7773 81.72718854070443
74.707 81.7494801739159
77.6367 81.42293533725636
79.1016 81.23692646856814
82.0312 81.05621115832803
84.9609 80.95679230285863
87.8906 81.06495391640384
90.8203 81.18022713409292
95.2148 80.92883729323361
98.1445 80.94826830699235
101.074 81.12529425268285
105.469 81.17346578175624
108.398 81.16812697014173
112.793 81.08636313158573
117.188 80.58090762723573
120.117 81.00493698456326
124.512 81.25702547339928
128.906 81.10549426116279
133.301 81.03271838595388
139.16 80.73077280191954
143.555 80.33558073619552
147.949 80.76449407811182
153.809 80.46439571127193
159.668 79.788984979932
165.527 79.37323897984406
171.387 80.28877177333315
177.246 80.03490064179569
183.105 80.02765160612476
188.965 79.91791112384257
196.289 79.56351457761488
203.613 79.4006828562866
210.938 79.60531622930971
218.262 79.99957542220068
225.586 79.91343514396989
232.91 79.6461683264868
241.699 79.48527768633846
250.488 80.12961176902758
259.277 80.89293234308153
268.066 80.85714814217498
276.855 80.10274697082801
287.109 80.51971640456452
297.363 80.66300091431155
307.617 80.43655802641945
319.336 80.16389361961092
329.59 80.1798636229994
341.309 79.92586984698164
353.027 79.87035963194026
366.211 80.00293694198025
379.395 79.69894238053469
392.578 79.29281239769949
405.762 78.50922419844416
420.41 79.5970401802233
435.059 78.7233899769699
451.172 78.67758683260791
465.82 78.62533793424845
483.398 78.50375392050334
499.512 78.95636338574711
517.09 79.2209918328822
536.133 79.04239911155219
555.176 78.88319879587884
574.219 79.04002997333636
594.727 78.84124405857922
615.234 78.7106022227238
637.207 78.49573635601239
659.18 78.08470049370753
682.617 77.93870839353583
707.52 77.123123921797
732.422 77.43849181274787
757.324 76.53090630232316
785.156 78.06800365264723
811.523 77.4809343734634
840.82 77.98233625678023
870.117 77.52629896512057
900.879 77.157673654694
933.105 77.01901232458113
965.332 76.54810490921193
1000.49 76.78890049874023
1035.64 76.76228039377851
1072.27 76.41264229448362
1108.89 76.19032763449259
1148.44 76.21446423983598
1189.45 76.415290364425
1230.47 76.51553651350487
1274.41 76.6692781328473
1319.82 76.5346538368142
1366.7 76.5886844750702
1413.57 76.72271155123732
1463.38 76.87782425966876
1516.11 77.40645114413287
1568.85 77.88066560009999
1624.51 77.45305835308677
1681.64 77.72062052578879
1741.7 77.80314685027732
1803.22 78.3260647427682
1866.21 78.04590345747941
1932.13 77.89539815812931
1999.51 78.0841014092053
2069.82 78.6503247683539
2143.07 78.68596095272902
2219.24 78.60228406713684
2296.88 79.01473922721506
2378.91 78.63876522440046
2462.4 78.55398021593321
2548.83 78.38786003053379
2639.65 77.87126740619863
2731.93 78.14262120933917
2828.61 77.55206562135241
2928.22 77.61558661224608
3030.76 77.07929804081941
3137.7 76.83817590577831
3249.02 76.37243355973666
3363.28 76.32799412716766
3481.93 76.64843719721817
3604.98 76.15762711511918
3732.42 76.45449163454252
3864.26 75.85167488508456
4000.49 75.84988270021306
4141.11 75.51312997988279
4287.6 75.87396474445165
4438.48 75.39596055372812
4595.21 75.28598204835598
4756.35 75.06984493732024
4924.8 75.02060692139135
5097.66 74.97677538712828
5277.83 74.83367844822054
5463.87 74.94276689248657
5657.23 74.9268643018358
5856.45 74.62866750990173
6062.99 74.64921462770621
6276.86 74.93122573498377
6498.05 75.18979254929386
6726.56 75.39479210054223
6963.87 75.62923787523533
7209.96 75.61428274452562
7464.84 75.54124370161938
7727.05 74.75070110430478
7999.51 74.90982714836399
8282.23 74.63601927651013
8573.73 74.38395381289716
8876.95 74.25892209618614
9188.96 74.05987333141702
9514.16 73.99314149946093
9849.61 73.90648196760982
10196.8 73.88608379641495
10555.7 73.71746764733108
10927.7 73.57685358323914
11313.0 73.47660535496462
11712.9 73.24281268731214
12126.0 72.8791413857713
12553.7 72.62351750064802
12996.1 72.88798926954621
13454.6 72.89681557268621
13929.2 72.85505380931407
14419.9 73.01106918102948
14928.2 73.04914561564773
15455.6 73.07704657064878
16000.5 72.80903327676673
16564.5 72.08427160005246
17148.9 71.42781835732202
17752.4 71.14073291714732
18379.4 70.45730365558458
19026.9 70.11729101121362
19697.8 69.39898808956458
19999.5 69.26521072512209
