Freq "Front Wall Bounce"
20.5078 48.28001501492032
21.9727 53.11314773298518
23.4375 58.79844183460132
24.9023 62.40315921588734
26.3672 65.66806694983374
27.832 68.5375862650816
29.2969 70.69141295723043
30.7617 72.75438755155996
32.2266 74.24303319043008
33.6914 75.33629157625668
35.1562 76.0742650924797
36.6211 76.56965984152198
38.0859 76.84740698738285
39.5508 77.25248319494614
41.0156 77.60031362555341
42.4805 77.91835483986789
43.9453 78.22966119789233
45.4102 78.54452486280806
46.875 78.81938029287538
48.3398 79.18776464688013
51.2695 79.72779953303446
52.7344 80.02138484355044
54.1992 80.30369583234942
55.6641 80.57522656033355
58.5938 81.09553862145279
60.0586 81.36786037280832
62.9883 81.81516136391154
64.4531 81.92473895980883
67.3828 82.10241814513238
68.8477 82.10261226283467
71.7773 82.12347067347143
74.707 82.2059542278967
77.6367 81.83639692678027
79.1016 81.64170652342473
82.0312 81.5690073870144
84.9609 81.50603009254453
87.8906 81.68064120645258
90.8203 81.69855313526696
95.2148 81.57595514385216
98.1445 81.68270180339422
101.074 81.82138325808361
105.469 81.82286610975588
108.398 81.81557983328938
112.793 81.73481946118157
117.188 81.6146026444593
120.117 81.9872390715749
124.512 82.05642068290543
128.906 82.04626464806182
133.301 81.95962463583402
139.16 81.72707455380919
143.555 81.58480894248989
147.949 81.91857490255173
153.809 81.55791324678397
159.668 80.99132749891085
165.527 81.15122871265918
171.387 81.83717399628651
177.246 81.62094829449761
183.105 81.70316755568601
188.965 81.6700147270651
196.289 81.49885194487113
203.613 81.54703070353143
210.938 81.84766188457297
218.262 82.160718403399
225.586 82.0719072056002
232.91 81.99798622830006
241.699 81.92956252787411
250.488 82.62882943982419
259.277 83.0413020404322
268.066 82.68203075782554
276.855 82.38237623314767
287.109 82.47910136065101
297.363 82.67016621650036
307.617 82.37481290867937
319.336 82.09857607645432
329.59 82.24855552147888
341.309 82.10003088697115
353.027 82.59891134963998
366.211 82.38823849243998
379.395 82.04548004857396
392.578 82.06295610104807
405.762 81.91166732417233
420.41 82.39175296014902
435.059 82.10539517750372
451.172 82.23589978694257
465.82 82.30889723425538
483.398 82.83906056273842
499.512 82.59707748744421
517.09 83.46220372700044
536.133 83.01793305838714
555.176 82.83067838885292
574.219 83.46029470471866
594.727 82.68674448996748
615.234 83.10006263131658
637.207 82.66760494803856
659.18 82.49994893763609
682.617 82.62601152709928
707.52 82.1552363266314
732.422 81.9644567655753
757.324 81.84565714478278
785.156 81.88545507603168
811.523 81.40347231779374
840.82 81.47957161931815
870.117 81.20690596533827
900.879 81.02482345419774
933.105 81.03254169834248
965.332 80.9731321564705
1000.49 81.33060617311033
1035.64 81.16970011069567
1072.27 81.2104012309634
1108.89 80.89407814496306
1148.44 81.43105949985754
1189.45 81.37201490728411
1230.47 81.8522855450393
1274.41 82.27544025103849
1319.82 82.63982329898319
1366.7 82.62311708332275
1413.57 82.244756981863
1463.38 81.89915254445157
1516.11 82.2492671813039
1568.85 82.52509816341875
1624.51 82.25024147643397
1681.64 82.00436112788825
1741.7 82.36130715858555
1803.22 82.06968230199912
1866.21 81.26821301432592
1932.13 81.74829666961877
1999.51 81.91474017464927
2069.82 81.2069838646152
2143.07 80.31376367147888
2219.24 80.89506500715346
2296.88 80.92943175694381
2378.91 80.6784200571511
2462.4 80.93618797466588
2548.83 81.13143368694341
2639.65 81.0410888062809
2731.93 80.87681814212202
2828.61 81.12476284989567
2928.22 80.92329735271822
3030.76 80.45530280628934
3137.7 80.31216887489545
3249.02 80.83141910008251
3363.28 80.6691542958362
3481.93 81.6408215103912
3604.98 81.34140006754808
3732.42 81.66576643475707
3864.26 81.22637743578753
4000.49 81.33927183045027
4141.11 80.98462126152883
4287.6 81.06893238192824
4438.48 81.01244929217671
4595.21 80.70983108998323
4756.35 81.07273042517413
4924.8 80.64968305189667
5097.66 80.69520917252238
5277.83 80.97633430706445
5463.87 81.07216800192336
5657.23 80.95770751417705
5856.45 80.82107620679021
6062.99 80.89914521047078
6276.86 80.85063542194185
6498.05 80.81307790429425
6726.56 80.85427739649063
6963.87 80.79464042618626
7209.96 80.44760188261904
7464.84 80.0958604517075
7727.05 80.14249936753045
7999.51 80.66103543677593
8282.23 80.6936729155265
8573.73 80.93480232485783
8876.95 80.96705132233107
9188.96 80.55807095193084
9514.16 80.40843140521996
9849.61 80.4330759072282
10196.8 80.53254329559691
10555.7 80.63107864855773
10927.7 80.82191674040884
11313.0 80.85661501661505
11712.9 80.67284322591796
12126.0 80.44200444845373
12553.7 80.33794712557034
12996.1 80.56271734563865
13454.6 80.78416569815289
13929.2 80.55380348559565
14419.9 80.81391237234892
14928.2 80.92877774999951
15455.6 81.08563355602018
16000.5 80.97636401140565
16564.5 80.61024844789586
17148.9 80.03715599986252
17752.4 79.40204474610476
18379.4 78.82540757841156
19026.9 77.85160423421922
19697.8 77.25021614436119
19999.5 76.96638265700862
