Freq "Rear Wall Bounce"
20.5078 62.28246796571591
21.9727 65.23041872580842
23.4375 67.36715285083768
24.9023 69.04440275559332
26.3672 71.54096153197519
27.832 73.14374879191114
29.2969 74.88891303877739
30.7617 76.459049288186
32.2266 77.5795770607279
33.6914 78.28926226093834
35.1562 78.76301185202169
36.6211 79.12225557495289
38.0859 79.18911602621752
39.5508 79.16219483922013
41.0156 79.45372452525336
42.4805 79.60149205794376
43.9453 79.75645226347886
45.4102 79.99656592711568
46.875 80.18086820298095
48.3398 80.44018419995798
51.2695 80.7932721523107
52.7344 80.95146647446738
54.1992 81.15892875539632
55.6641 81.37311893860344
58.5938 81.72503645713012
60.0586 81.91883390856086
62.9883 82.19988424873911
64.4531 82.19956823147963
67.3828 82.35552135673395
68.8477 82.2689210615346
71.7773 82.34379281704851
74.707 82.00209269919596
77.6367 81.82636025842702
79.1016 81.7563828792645
82.0312 81.55788743202365
84.9609 81.50037118563897
87.8906 81.22590343705029
90.8203 81.28604302250864
95.2148 81.2868296927435
98.1445 81.1637311669482
101.074 80.98700415941454
105.469 81.01795367548513
108.398 80.99548874222805
112.793 81.04613158064642
117.188 80.66289333312385
120.117 80.92251380901433
124.512 81.16511533535191
128.906 80.96734046609797
133.301 80.7858564569295
139.16 80.58327363699337
143.555 80.34602984274167
147.949 80.3944673247883
153.809 80.01033619320832
159.668 79.67154633773308
165.527 79.14405943131698
171.387 79.66867186595901
177.246 79.84638515536602
183.105 80.0317316702986
188.965 80.05606734885313
196.289 79.77299086424425
203.613 79.12084255298312
210.938 79.02451888048341
218.262 79.50084223275216
225.586 79.64348101443086
232.91 79.45822588603492
241.699 79.09987635162602
250.488 78.51276577283089
259.277 78.73814333980171
268.066 80.02699346714496
276.855 78.86568120915985
287.109 78.67986083310537
297.363 78.38909215686373
307.617 79.54704150362126
319.336 78.7621099898489
329.59 78.85964257317418
341.309 78.44253271520935
353.027 77.67927516226824
366.211 78.26043157773252
379.395 78.15644211350248
392.578 77.88048851646501
405.762 77.99588137575037
420.41 77.18631362827412
435.059 77.16717530293246
451.172 77.06754856939469
465.82 77.29253717675964
483.398 77.46340383172299
499.512 76.77926523245189
517.09 76.43862250269459
536.133 77.34380592323791
555.176 76.87538265511456
574.219 76.4168834196423
594.727 76.64065153517174
615.234 76.87755406319177
637.207 74.80306148009855
659.18 75.69496730662053
682.617 75.94951160359531
707.52 74.1242397214941
732.422 73.80450691824942
757.324 75.38349864478988
785.156 73.23937303061473
811.523 72.87567466966124
840.82 73.9122019180563
870.117 72.22704345726736
900.879 72.43678824500226
933.105 71.96139000153119
965.332 71.17607971163316
1000.49 71.8307606391869
1035.64 70.60651080604298
1072.27 71.24472239197658
1108.89 69.8489825704413
1148.44 70.61897548439322
1189.45 69.86071155463031
1230.47 70.31930828330064
1274.41 69.52614092851589
1319.82 70.30874066217278
1366.7 69.88869775509828
1413.57 69.17260664697984
1463.38 69.03770324888937
1516.11 68.34232301532789
1568.85 68.10162294592332
1624.51 68.58503085639366
1681.64 68.130754864723
1741.7 67.15356207273412
1803.22 67.73486237999624
1866.21 67.54426766300803
1932.13 67.2860401015512
1999.51 66.786264937604
2069.82 66.98535102473504
2143.07 66.86461809309965
2219.24 66.72353088141686
2296.88 66.77275930811446
2378.91 66.31910161426175
2462.4 65.66848480458843
2548.83 65.4909410704748
2639.65 65.57213009904673
2731.93 64.66193430996044
2828.61 63.63792680023043
2928.22 63.315481513809075
3030.76 62.48273547050174
3137.7 62.146230849551344
3249.02 61.46358423056223
3363.28 61.30798447384363
3481.93 62.24061262829511
3604.98 62.36516652126427
3732.42 62.66102141000813
3864.26 62.71417181592069
4000.49 61.50689636496848
4141.11 61.82038287726698
4287.6 61.43012312206062
4438.48 61.386690762505495
4595.21 60.93718574649533
4756.35 60.779102955226776
4924.8 59.90634296813148
5097.66 59.62765068475784
5277.83 60.39186658771136
5463.87 61.1397078457216
5657.23 60.961954442227764
5856.45 60.67031258289667
6062.99 60.68407475256224
6276.86 60.14758145500382
6498.05 60.189269241418884
6726.56 59.5931923523076
6963.87 59.43952516259736
7209.96 59.81496793100463
7464.84 59.8575673902093
7727.05 58.32830152126185
7999.51 57.3121289195869
8282.23 56.73151520327782
8573.73 55.85703418956747
8876.95 55.822247257814254
9188.96 56.39688247526085
9514.16 56.03171675711464
9849.61 55.312124109225905
10196.8 55.17651803402087
10555.7 54.851753913265796
10927.7 54.616025343819004
11313.0 54.31377615480814
11712.9 53.96080901265411
12126.0 54.07429811285955
12553.7 54.85206800254521
12996.1 55.55247579493438
13454.6 54.7516226805369
13929.2 54.809447369253505
14419.9 54.22336285501105
14928.2 53.807717346610175
15455.6 53.832686676464945
16000.5 53.54663640947116
16564.5 52.29934144275147
17148.9 51.511325050466226
17752.4 50.63336751160806
18379.4 49.59664381897802
19026.9 49.63555333124491
19697.8 49.240778134926
19999.5 48.685711543946084
