Freq,Floor Bounce,Ceiling Bounce,Front Wall Bounce,Side Wall Bounce,Rear Wall Bounce,Total Early Reflection
22.4,32.38163459014784,30.00519116263679,32.39176898982468,30.535596178355902,24.602182648685172,30.70848389366894
23.0,34.317031592633086,31.945589213625297,34.306939094841525,32.47524147839228,26.597964120983747,32.64258295506649
23.6,36.38163459014784,34.00519116263679,36.362646222959725,34.51244090676268,28.65244917976203,34.69795786267004
24.0,39.11703159263307,36.805191162636774,39.10693909484151,37.27524147839229,31.45961851118419,37.45587309238935
25.0,40.517031592633074,38.145589213625314,40.50693909484151,38.61244090676267,32.86912784793718,38.83414407768127
25.8,41.61703159263307,39.305191162636774,41.60693909484151,39.77524147839229,34.070974728239534,39.96154090251504
26.5,42.781634590147874,40.40519116263677,42.76264622295976,40.93559617835591,35.22591097321636,41.11118496544778
27.2,44.017031592633074,41.70519116263678,44.00693909484151,42.175241478392294,36.51781318015135,42.36396638787831
28.0,45.41703159263305,43.105191162636785,45.40693909484152,43.57524147839227,37.95454757919954,43.76588607141879
29.0,45.98163459014786,43.67207525791615,45.96264622295975,44.14948923454334,38.54378480584187,44.331431793854065
30.0,46.817031592633086,44.572075257916126,46.862646222959725,45.006204866478,39.474206032984725,45.205953995091406
30.7,47.61703159263307,45.33192396916742,47.60693909484151,45.79217242646335,40.30132743816573,45.981543986205125
31.5,49.317031592633086,47.10519116263676,49.362646222959725,47.549489234543344,42.09039511642466,47.726253931487534
32.5,50.81703159263306,48.60519116263676,50.862646222959754,49.049489234543344,43.63792117406872,49.22886383152111
33.5,51.98163459014786,49.731923969167426,51.977918217723285,50.175241478392294,44.81887149687138,50.36603857856427
34.5,53.31703159263306,51.10519116263676,53.362646222959725,51.526408115051495,46.21346675751106,51.72865269466202
35.5,54.91703159263308,52.66534627536227,54.9326415459734,53.106204866477995,47.83426601473714,53.310353727243225
36.5,56.71703159263306,54.53192396916744,56.76264622295976,54.94948923454335,49.725250666884065,55.144049645153686
37.5,58.68163459014785,56.43192396916744,58.70693909484153,56.90620486647801,51.7181977493356,57.091724080752115
38.7,60.6505682617334,58.46534627536228,60.732641545973394,58.90620486647801,53.77005690862323,59.09906030246724
40.0,62.017031592633074,59.83192396916742,62.062646222959756,60.28063611206484,55.179540227558064,60.45902204226297
41.2,63.91703159263308,61.765346275362276,63.96264622295975,62.18063611206483,57.124441385851995,62.36749841187938
42.5,65.51703159263307,63.331923969167434,65.56264622295974,63.76366004181399,58.743223169774424,63.95957424579454
43.7,66.71703159263306,64.63192396916743,66.8037924832463,65.006204866478,60.06511051024155,65.20442299728465
45.0,68.11703159263307,65.99232471017903,68.16264622295975,66.406204866478,61.47011685403062,66.58594337818366
46.2,69.01703159263307,66.93192396916744,69.13264154597339,67.30620486647798,62.46381810333972,67.51888033589225
47.5,70.01703159263307,67.93192396916744,70.1037924832463,68.30620486647801,63.500397891994496,68.5128314769014
48.7,70.81703159263307,68.79232471017903,70.93264154597338,69.1406543116028,64.35586576830603,69.34184258505785
50.0,71.71703159263306,69.69232471017904,71.83264154597339,70.057720370277,65.30796867417128,70.24842854510977
51.5,72.55056826173339,70.53192396916744,72.68861136374865,70.906204866478,66.19514114537829,71.09581541042533
53.0,73.45056826173338,71.4591101737869,73.58861136374865,71.8205173809576,67.14273488060935,72.0064339740459
54.5,74.41703159263307,72.41975914909469,74.56264622295976,72.78063611206484,68.15021057124493,72.9755281578285
56.0,75.4505682617334,73.49232471017903,75.58861136374865,73.82051738095761,69.21792491345911,74.01724905495324
58.0,76.51703159263307,74.5197591490947,76.6037924832463,74.857720370277,70.32143486120337,75.05900535513011
60.0,77.58621833677068,75.6591101737869,77.75878615592642,75.98063611206484,71.45554946057796,76.17983255003186
61.5,78.61703159263307,76.69232471017902,78.78861136374866,77.02051738095761,72.53761699459297,77.21599304719305
63.0,79.61703159263308,77.71975914909468,79.80379248324628,78.0205173809576,73.60168548235434,78.22961526143688
65.0,80.68621833677071,78.79232471017903,80.83011081629293,79.05772037027701,74.66385318031578,79.28054925804493
67.0,81.58621833677068,79.69232471017904,81.75878615592642,79.9721932970121,75.57146577388403,80.19203589265774
69.0,82.4862183367707,80.61975914909469,82.68861136374865,80.92051738095762,76.5516878613898,81.12026317486908
71.0,83.28621833677069,81.41975914909469,83.48861136374865,81.72051738095762,77.37194756836931,81.92168140951195
73.0,84.01703159263307,82.15327484337283,84.2037924832463,82.42051738095762,78.13789564403642,82.64510529270488
75.0,84.71703159263306,82.8197591490947,84.93011081629292,83.12051738095761,78.83094978535384,83.34621023748197
77.5,85.21703159263306,83.41975914909469,85.45878615592643,83.63766259720141,79.38305725477143,83.87926156852667
80.0,85.68621833677071,83.8197591490947,85.93011081629292,84.1205173809576,79.86857898602219,84.34045893549263
82.5,85.9862183367707,84.19232471017905,86.2301108162929,84.4205173809576,80.21068403952155,84.6564329145508
85.0,86.15295688699821,84.31975914909468,86.38861136374865,84.62051738095761,80.35383395864697,84.81840613872188
87.5,86.15295688699821,84.31975914909468,86.38861136374865,84.62051738095761,80.36998372672153,84.81956355326251
90.0,86.0862183367707,84.29232471017905,86.33011081629293,84.52051738095761,80.31681065216678,84.7568734287096
92.5,85.9862183367707,84.21975914909468,86.2601329224492,84.4205173809576,80.23309842546418,84.67162391185975
95.0,85.8862183367707,84.11975914909469,86.18861136374865,84.34644147929356,80.16987568155362,84.58739965459837
97.5,85.78621833677069,84.0197591490947,86.08861136374864,84.24644147929357,80.06752498132764,84.48722968712595
100.0,85.68621833677071,83.95327484337282,86.01502157601469,84.14644147929356,79.97321995089995,84.40132169363554
103.0,85.65589377666318,83.91975914909469,85.9601329224492,84.1205173809576,79.92836081604993,84.36309445314293
106.0,85.62239836543468,83.91975914909469,85.9601329224492,84.106204866478,79.92836081604993,84.35138900758871
109.0,85.68621833677071,83.99232471017903,86.03011081629292,84.14644147929356,79.94889018978313,84.4110201282468
112.0,85.72239836543467,84.0197591490947,86.03011081629292,84.16941665465161,79.9739277502418,84.43184692559045
115.0,85.65589377666318,83.99232471017903,86.03011081629292,84.13221428489986,79.94889018978313,84.40022742633307
118.0,85.55589377666317,83.89232471017904,85.93011081629292,84.03221428489987,79.81380261707535,84.2977188817651
122.0,85.42239836543466,83.69232471017904,85.78861136374864,83.86941665465162,79.64889018978312,84.14209091517755
125.0,85.22239836543466,83.5591101737869,85.58861136374865,83.66941665465161,79.45247567395614,83.9544643038393
128.0,84.99232625560153,83.3591101737869,85.38861136374864,83.45526464908865,79.19895757294195,83.73999546255278
132.0,84.72239836543466,83.09232471017903,85.13011081629291,83.21543902287009,78.93294233271749,83.47991057902988
136.0,84.45589377666317,82.83192396916745,84.86013292244921,82.93221428489986,78.63724521293322,83.20832214323724
140.0,84.15589377666318,82.55911017378689,84.63011081629293,82.65526464908864,78.35117285373177,82.9391636969125
145.0,83.89232625560153,82.29232471017905,84.36013292244921,82.38158001120397,78.05973835958007,82.6692863434961
150.0,83.69232625560153,82.13192396916743,84.2037924832463,82.20143643563684,77.8587955802037,82.49312865049602
155.0,83.59232625560153,82.0591101737869,84.13011081629293,82.08158001120397,77.75022821289262,82.40167391436442
160.0,83.49232625560153,81.99232471017903,84.03011081629292,82.00143643563685,77.65879558020372,82.31210922617946
165.0,83.39232625560152,81.93192396916744,83.96013292244919,81.92465029741977,77.55899493854143,82.23274785168054
170.0,83.29232625560152,81.83192396916742,83.9037924832463,81.85115125071782,77.44184151369609,82.14956304640249
175.0,83.19232625560151,81.73192396916743,83.83011081629293,81.75115125071783,77.33283483330341,82.05685555793978
180.0,83.12929363730602,81.73192396916743,83.7301108162929,81.6511512507178,77.23283483330341,81.98518027971171
185.0,82.9999551490132,81.63192396916743,83.6601329224492,81.55115125071781,77.10923866372262,81.88499877365423
190.0,82.89995514901321,81.53192396916744,83.5601329224492,81.45115125071781,76.96845887372153,81.78229483542792
195.0,82.6999551490132,81.43192396916744,83.43011081629292,81.33758013661723,76.83646144465322,81.6429162136491
200.0,82.59995514901321,81.33192396916743,83.30379248324631,81.1781031163418,76.67673889877894,81.52000194380167
206.0,82.3999551490132,81.23192396916744,83.2037924832463,81.07810311634178,76.54795802034592,81.3926819527181
212.0,82.2999551490132,81.20519116263678,83.16013292244921,81.0212077271517,76.45735596456613,81.33262362317801
218.0,82.2999551490132,81.23192396916744,83.2037924832463,81.00785410802403,76.44427807821103,81.34784020834938
224.0,82.3710917246503,81.33192396916743,83.26013292244922,81.08802707126189,76.47643279915033,81.41925023343352
230.0,82.40910103358773,81.47207525791615,83.36013292244921,81.1646160928806,76.5321292222953,81.50465465318469
236.0,82.40910103358773,81.50519116263679,83.4037924832463,81.18802707126189,76.53774732946383,81.52933597992467
240.0,82.38095628512146,81.57207525791614,83.4037924832463,81.18802707126189,76.50770490452253,81.53397131706456
250.0,82.34765435527876,81.60519116263679,83.43399644324062,81.17487764371953,76.48604023624121,81.53815298025906
258.0,82.28095628512146,81.6455892136253,83.5037924832463,81.23507517055008,76.46512356955047,81.56200148878465
265.0,82.24765435527875,81.74558921362531,83.53399644324061,81.23507517055008,76.46222086741176,81.58404123337334
272.0,82.21975914909467,81.74558921362531,83.53399644324061,81.22206763728464,76.38836475922615,81.57064077797594
280.0,82.0591101737869,81.70519116263678,83.4493693394984,81.14570847740964,76.25299440775379,81.47622528506118
290.0,81.8591101737869,81.6455892136253,83.33399644324061,81.02206763728464,76.03433239994091,81.34582807816489
300.0,81.69901205382851,81.51954906653869,83.23399644324063,80.84570847740964,75.82740611687377,81.20638305539737
307.0,81.47207525791615,81.37890692224639,83.10830203318552,80.68949810414338,75.57157264942502,81.04186156812834
315.0,81.27207525791614,81.24558921362531,82.97791821772329,80.57332061709488,75.34080147069612,80.89254410983673
325.0,81.04558921362532,81.11954906653867,82.8493693394984,80.37332061709486,75.0732306272557,80.72241443163581
335.0,80.8455892136253,81.01954906653867,82.72376598834728,80.2607212130272,74.83592402884288,80.58292143095271
345.0,80.7865428796,80.96074786238212,82.70830203318552,80.17332061709486,74.6589747879857,80.52682795631144
355.0,80.71954906653868,81.03539112156697,82.72376598834728,80.17332061709486,74.5413237689463,80.52846088281579
365.0,80.728054479927,81.03539112156697,82.8237659883473,80.17332061709486,74.47232145310778,80.56021507045035
375.0,80.728054479927,81.13539112156697,82.87018595085759,80.20139535387902,74.3875792053962,80.59934959875167
387.0,80.70250557037649,81.1773921708746,82.87018595085759,80.18199174410991,74.30244383973572,80.59608336440817
400.0,80.60250557037648,81.1773921708746,82.87018595085759,80.10139535387903,74.18478278299541,80.55566528212752
412.0,80.50250557037647,81.15270931890862,82.87018595085759,79.99482129453712,74.07213768312208,80.50561860901935
425.0,80.40250557037648,81.11995513784605,82.80133017176676,79.87903212318713,73.93451714341798,80.4275643373169
437.0,80.14482431588746,80.95270931890865,82.64528706223668,79.62340641839725,73.69066967661519,80.22744611258095
450.0,79.80250557037648,80.69551368693746,82.3452870622367,79.2759402971779,73.36035548204272,79.91978552749458
462.0,79.40250557037648,80.57149495850612,82.06134140539196,78.91807695628422,73.01456878106055,79.63714917163176
475.0,79.228054479927,80.51510326904655,81.92081624530478,78.68992420167372,72.85772048250436,79.4958781800964
487.0,79.25404383089486,80.6917386676127,81.96834367047347,78.57382013096561,72.82035658334358,79.54218360590751
500.0,79.31278108568188,80.8917386676127,82.06834367047348,78.44666218689015,72.75317722377754,79.61840082202308
515.0,79.39901205382851,81.01343042056777,81.96834367047347,78.23929253037338,72.49319409087063,79.59157866098042
530.0,79.51975914909468,80.94623366205198,81.81644562958343,77.82595985992604,72.00151777857222,79.46724485558178
545.0,79.71975914909467,80.86918921885356,81.59292303389383,77.38102496065991,71.40372310330825,79.33231068431836
560.0,80.08095628512146,80.86918921885356,81.5698121296934,77.0581351579014,70.83378085503223,79.3499519786108
580.0,80.61477160546383,80.86918921885356,81.66981212969337,76.91198405462016,70.37119823343369,79.48662813245875
600.0,80.98730554217651,80.76918921885358,81.68652715275421,76.7346732863159,69.86802984934313,79.53473077874973
615.0,81.1992828835749,80.54765851804753,81.66391031702396,76.51728749342551,69.28476117381202,79.49642408940657
630.0,81.37296275229384,80.26918921885357,81.59656379753693,76.35360723542577,68.82102783123062,79.4331263058183
650.0,81.54708670822217,80.14765851804754,81.69656379753692,76.38422433412298,68.5866179347236,79.49156921755673
670.0,81.86189579332074,80.06918921885358,81.89656379753693,76.56577883747704,68.53490763349065,79.66029429845595
690.0,82.20269669641456,80.12408310316121,82.24169392540716,76.9156706364922,68.66095305593758,79.93895772855285
710.0,82.49586439385804,80.09111148778528,82.54169392540716,77.22755059126654,68.80271063924754,80.1680559532979
730.0,82.61500750149214,79.99111148778528,82.74659536278776,77.44615881998125,68.95539199978553,80.28584447280868
750.0,82.67954644594577,79.79111148778529,82.94659536278775,77.69004152512228,69.13102128752777,80.3715674282078
775.0,82.65997808914547,79.51343042056777,83.12479899969149,77.88037547513879,69.32867599424122,80.40755795322553
800.0,82.41212561390005,79.01343042056779,83.1420804407216,77.9467786964555,69.45050115280866,80.26325076425677
825.0,81.95140385528236,78.51343042056777,83.04208044072158,77.89048692320685,69.54029169569965,79.99764275656085
850.0,81.46609988312217,78.01343042056776,82.92075923364862,77.78635778512749,69.64514204559534,79.71876485631456
875.0,80.78964136511699,77.6361511058454,82.72075923364862,77.64179317144944,69.70342724818416,79.37022410664898
900.0,80.06697094780755,77.59173866761269,82.42075923364864,77.39333332892075,69.65955362740176,79.00604383734733
925.0,79.42185633638006,78.04789392513388,82.1915993705858,77.3037372874711,69.70170198852064,78.80876204522326
950.0,78.81840368884812,78.85818322983462,82.01356257218694,77.26324641696161,69.64318207415839,78.74490710664863
975.0,78.20454103200053,79.79217563898803,82.06391031702397,77.31608179729967,69.4778632820109,78.8657453725961
1000.0,77.44958254678447,80.49217563898803,82.24710785072405,77.10472411557699,68.8799679441938,78.96991467510473
1030.0,76.21371007677561,80.42668657545455,82.35285789752466,76.43138161426508,67.44016786238761,78.7339146381428
1060.0,74.90808135955255,79.76171975087719,82.31332903699419,75.34973050189477,65.22869571949217,78.2422478978485
1090.0,74.04618851713509,78.65547053994747,82.37904467053583,74.47023209612878,62.94032709462796,77.80555194118523
1120.0,73.88000825406436,77.41979827752813,82.54379510978701,74.01313160467483,61.481853770409415,77.57200666049948
1150.0,73.86531878246117,76.27681066274513,82.66257880940339,73.9829760440368,61.36653806308304,77.44737446997298
1180.0,73.82723748856594,75.47109172465031,82.69889365229666,74.27397881642874,62.088637038233855,77.38651542898504
1220.0,73.64766340886926,75.10200803632402,82.64379510978699,74.51363994322627,62.74986831090092,77.31598888677176
1250.0,73.58630076841256,75.39232471017904,82.542575093962,74.70600634990215,63.14215816769429,77.30206153812532
1280.0,74.02804877792126,76.06534627536227,82.42539211816883,74.88574132162118,63.25999906776322,77.37852344826187
1320.0,75.08191911388565,76.78675456481754,82.3723125904782,74.99295964356793,63.20883405268508,77.57825552716544
1360.0,76.08626058222117,77.37839332432642,82.29330174249344,75.05981971657948,63.02587469075394,77.76587736093418
1400.0,77.04587052005103,77.84765435527876,82.26172912187006,75.18401436435774,62.913654790946836,77.99138542401366
1450.0,77.90830867710336,77.97681066274515,82.23158966519411,75.27590370276307,62.823975139942974,78.16003186051634
1500.0,78.49252518988622,77.91422141237861,82.1434386334704,75.15347594692581,62.63522794647588,78.2078015122207
1550.0,78.867807860498,77.58396171854697,81.94452584495843,74.66931830212111,62.18099308307259,78.08639979131438
1600.0,79.14225481080602,77.45344408905703,81.75434080472345,73.92093682968213,61.74193668495067,77.97467878751671
1650.0,79.4028542356606,77.44335552025889,81.64257509396201,73.17398166031764,61.46052127023593,77.93503923091869
1700.0,79.55891358960764,77.20285613234144,81.51826784285967,72.4750430629576,61.28384570231218,77.83520021385853
1750.0,79.69627061351257,76.557172422849,81.40488160010537,71.88119015526283,61.31038318566186,77.68597702329339
1800.0,79.59284664280771,75.54405946577633,81.2528891236278,71.10102589887755,61.25607650216973,77.39660827231327
1850.0,79.34222467750327,74.2405759215222,80.9884313961685,70.02783048538261,60.92869158264948,76.97848586257003
1900.0,78.94706882346132,72.91609755913073,80.71825969913101,69.25688891168842,60.44471044461811,76.54294671483588
1950.0,78.7476192423772,71.8284133010781,80.72846142840294,69.58670853780067,60.11650639894273,76.40610542465129
2000.0,78.45703094947454,71.23987756275264,80.85970372979844,70.64114179133043,59.84243965820367,76.3918276714415
2060.0,77.95703094947454,71.67871704161769,81.11156590624752,71.58238836037332,59.39900458288348,76.46655557986836
2120.0,77.25670073378932,72.83402185166658,81.45435048283915,72.31870609023308,59.13004536242373,76.62806700292197
2180.0,76.5189088583248,73.5799641487216,81.70786974752603,72.54296201840556,59.04509236883631,76.71372453083558
2240.0,76.05515425405167,73.46520362582238,81.66834053935919,72.42805120369276,58.900511379368666,76.58262451324653
2300.0,75.87497284413512,73.10880406775183,81.72936037871284,72.44605761141692,58.6870834100054,76.55822666384152
2360.0,75.5885994987805,72.9185709787853,81.7683405393592,72.51156582408571,58.32558303076645,76.52365657436734
2400.0,75.39205658361938,72.65622634130668,81.82670888202631,72.61156582408573,58.18732122576144,76.51740329815165
2500.0,75.11468333930664,71.80443402772514,81.64145052975202,72.72999012193608,58.136582885023714,76.2931010068635
2580.0,74.70785472005521,71.24025023491497,81.47998779276055,72.97599814834176,58.00425352654851,76.10552463311951
2650.0,74.3132903521457,71.39541404984924,81.24670481222354,73.0690957487652,57.87833826493535,75.90895866209297
2720.0,74.26393577855119,71.75177946392341,80.89215905791414,72.74049833211045,57.80705514557333,75.65529245275506
2800.0,74.52439067106239,71.83785666892379,80.59221532169529,72.10908575802135,57.314729634623646,75.4409620216056
2900.0,74.61688468587576,71.84964677361354,80.50243246445399,71.33414271497642,56.59404152309837,75.3295697302675
3000.0,74.89218328496456,72.25108413676581,80.85059524027157,71.16259143807291,56.55787923180192,75.62999217598957
3070.0,75.30071573032346,72.7186397897878,81.2700677600378,71.235673540822,56.58353006526927,76.02726940521407
3150.0,75.73732950632954,73.26364823254839,81.56204008448573,71.47894992814422,56.54831519642961,76.36428721752314
3250.0,76.13185656363187,73.36015575613752,81.70459117009106,71.79450122794309,56.74849820103687,76.55853668824584
3350.0,76.59532213557794,73.39848605050004,81.76204008448573,72.25654184253115,57.23873828929398,76.71934101604623
