Freq "Front Wall Bounce"
22.4 32.39176898982468
23.0 34.306939094841525
23.6 36.362646222959725
24.0 39.10693909484151
25.0 40.50693909484151
25.8 41.60693909484151
26.5 42.76264622295976
27.2 44.00693909484151
28.0 45.40693909484152
29.0 45.96264622295975
30.0 46.862646222959725
30.7 47.60693909484151
31.5 49.362646222959725
32.5 50.862646222959754
33.5 51.977918217723285
34.5 53.362646222959725
35.5 54.9326415459734
36.5 56.76264622295976
37.5 58.70693909484153
38.7 60.732641545973394
40.0 62.062646222959756
41.2 63.96264622295975
42.5 65.56264622295974
43.7 66.8037924832463
45.0 68.16264622295975
46.2 69.13264154597339
47.5 70.1037924832463
48.7 70.93264154597338
50.0 71.83264154597339
51.5 72.68861136374865
53.0 73.58861136374865
54.5 74.56264622295976
56.0 75.58861136374865
58.0 76.6037924832463
60.0 77.75878615592642
61.5 78.78861136374866
63.0 79.80379248324628
65.0 80.83011081629293
67.0 81.75878615592642
69.0 82.68861136374865
71.0 83.48861136374865
73.0 84.2037924832463
75.0 84.93011081629292
77.5 85.45878615592643
80.0 85.93011081629292
82.5 86.2301108162929
85.0 86.38861136374865
87.5 86.38861136374865
90.0 86.33011081629293
92.5 86.2601329224492
95.0 86.18861136374865
97.5 86.08861136374864
100.0 86.01502157601469
103.0 85.9601329224492
106.0 85.9601329224492
109.0 86.03011081629292
112.0 86.03011081629292
115.0 86.03011081629292
118.0 85.93011081629292
122.0 85.78861136374864
125.0 85.58861136374865
128.0 85.38861136374864
132.0 85.13011081629291
136.0 84.86013292244921
140.0 84.63011081629293
145.0 84.36013292244921
150.0 84.2037924832463
155.0 84.13011081629293
160.0 84.03011081629292
165.0 83.96013292244919
170.0 83.9037924832463
175.0 83.83011081629293
180.0 83.7301108162929
185.0 83.6601329224492
190.0 83.5601329224492
195.0 83.43011081629292
200.0 83.30379248324631
206.0 83.2037924832463
212.0 83.16013292244921
218.0 83.2037924832463
224.0 83.26013292244922
230.0 83.36013292244921
236.0 83.4037924832463
240.0 83.4037924832463
250.0 83.43399644324062
258.0 83.5037924832463
265.0 83.53399644324061
272.0 83.53399644324061
280.0 83.4493693394984
290.0 83.33399644324061
300.0 83.23399644324063
307.0 83.10830203318552
315.0 82.97791821772329
325.0 82.8493693394984
335.0 82.72376598834728
345.0 82.70830203318552
355.0 82.72376598834728
365.0 82.8237659883473
375.0 82.87018595085759
387.0 82.87018595085759
400.0 82.87018595085759
412.0 82.87018595085759
425.0 82.80133017176676
437.0 82.64528706223668
450.0 82.3452870622367
462.0 82.06134140539196
475.0 81.92081624530478
487.0 81.96834367047347
500.0 82.06834367047348
515.0 81.96834367047347
530.0 81.81644562958343
545.0 81.59292303389383
560.0 81.5698121296934
580.0 81.66981212969337
600.0 81.68652715275421
615.0 81.66391031702396
630.0 81.59656379753693
650.0 81.69656379753692
670.0 81.89656379753693
690.0 82.24169392540716
710.0 82.54169392540716
730.0 82.74659536278776
750.0 82.94659536278775
775.0 83.12479899969149
800.0 83.1420804407216
825.0 83.04208044072158
850.0 82.92075923364862
875.0 82.72075923364862
900.0 82.42075923364864
925.0 82.1915993705858
950.0 82.01356257218694
975.0 82.06391031702397
1000.0 82.24710785072405
1030.0 82.35285789752466
1060.0 82.31332903699419
1090.0 82.37904467053583
1120.0 82.54379510978701
1150.0 82.66257880940339
1180.0 82.69889365229666
1220.0 82.64379510978699
1250.0 82.542575093962
1280.0 82.42539211816883
1320.0 82.3723125904782
1360.0 82.29330174249344
1400.0 82.26172912187006
1450.0 82.23158966519411
1500.0 82.1434386334704
1550.0 81.94452584495843
1600.0 81.75434080472345
1650.0 81.64257509396201
1700.0 81.51826784285967
1750.0 81.40488160010537
1800.0 81.2528891236278
1850.0 80.9884313961685
1900.0 80.71825969913101
1950.0 80.72846142840294
2000.0 80.85970372979844
2060.0 81.11156590624752
2120.0 81.45435048283915
2180.0 81.70786974752603
2240.0 81.66834053935919
2300.0 81.72936037871284
2360.0 81.7683405393592
2400.0 81.82670888202631
2500.0 81.64145052975202
2580.0 81.47998779276055
2650.0 81.24670481222354
2720.0 80.89215905791414
2800.0 80.59221532169529
2900.0 80.50243246445399
3000.0 80.85059524027157
3070.0 81.2700677600378
3150.0 81.56204008448573
3250.0 81.70459117009106
3350.0 81.76204008448573
3450.0 81.66136489201809
3550.0 81.88399495300486
3650.0 82.10703070614798
3750.0 81.75433954896394
3870.0 81.8528891236278
4000.0 82.25652410665408
4120.0 82.74814015885278
4250.0 82.58232998174623
4370.0 81.90096622027606
4500.0 81.72545692795944
4620.0 82.48964455287442
4750.0 83.097974800958
4870.0 82.94179951575684
5000.0 82.47966074644035
5150.0 82.4990452197475
5300.0 82.25317411214081
5450.0 82.28493285366818
5600.0 82.65577981353908
5800.0 82.32493419786049
6000.0 82.03324027649568
6150.0 82.03686398901513
6300.0 82.40349432870939
6500.0 82.43148450807486
6700.0 82.60688982762943
6900.0 82.83985830866739
7100.0 82.64044136115879
7300.0 82.35403422563427
7500.0 82.18222252693239
7750.0 82.04417041844134
8000.0 81.9657771729229
8250.0 82.19729522633104
8500.0 82.66835752200448
8750.0 82.51100595760471
9000.0 82.37091187982871
9250.0 82.56500257473498
9500.0 82.9278967195998
9750.0 82.86492357910242
10000.0 82.67908760851158
10300.0 83.10756084485202
10600.0 82.9714012880397
10900.0 82.48376391077502
11200.0 81.96199428042299
11500.0 82.21250123712643
11800.0 82.76248182014436
12200.0 83.54709493152346
12500.0 83.8008362910557
12800.0 83.53621572797282
13200.0 82.99316919154727
13600.0 83.29115051211562
14000.0 83.87309088866157
14500.0 83.92142341046667
15000.0 81.29910026226383
15500.0 81.11958417384352
16000.0 80.36151400971876
16500.0 78.15070820580705
17000.0 76.95603343675799
17500.0 75.688644144594
18000.0 73.08469659014364
18500.0 67.56485427235698
19000.0 66.14317919761122
19500.0 72.6653628634612
