Freq "Side Wall Bounce"
22.4 29.925469596077434
23.0 31.86511489611381
23.6 33.90231432448421
24.0 36.66511489611379
25.0 38.0023143244842
25.8 39.16511489611379
26.5 40.32546959607741
27.2 41.565114896113826
28.0 42.9651148961138
29.0 43.53936265226487
30.0 44.39607828419953
30.7 45.182045844184884
31.5 46.939362652264876
32.5 48.439362652264876
33.5 49.565114896113826
34.5 50.91628153277303
35.5 52.49607828419953
36.5 54.33936265226488
37.5 56.29607828419951
38.7 58.29607828419951
40.0 59.670509529786344
41.2 61.570509529786364
42.5 63.153533459535495
43.7 64.39607828419952
45.0 65.79607828419952
46.2 66.69607828419952
47.5 67.69607828419952
48.7 68.5305277293243
50.0 69.44759378799851
51.5 70.29607828419951
53.0 71.21039079867913
54.5 72.17050952978634
56.0 73.21039079867911
58.0 74.24759378799851
60.0 75.37050952978635
61.5 76.41039079867912
63.0 77.41039079867912
65.0 78.44759378799851
67.0 79.36206671473361
69.0 80.31039079867912
71.0 81.11039079867912
73.0 81.81039079867914
75.0 82.51039079867911
77.5 83.02753601492294
80.0 83.51039079867911
82.5 83.81039079867912
85.0 84.01039079867913
87.5 84.01039079867913
90.0 83.91039079867912
92.5 83.81039079867912
95.0 83.73631489701509
97.5 83.63631489701508
100.0 83.53631489701507
103.0 83.51039079867911
106.0 83.49607828419951
109.0 83.53631489701507
112.0 83.55929007237312
115.0 83.52208770262138
118.0 83.42208770262137
122.0 83.25929007237313
125.0 83.05929007237313
128.0 82.84513806681015
132.0 82.6053124405916
136.0 82.32208770262137
140.0 82.04513806681017
145.0 81.77145342892548
150.0 81.59130985335837
155.0 81.47145342892547
160.0 81.39130985335838
165.0 81.3145237151413
170.0 81.24102466843932
175.0 81.14102466843933
180.0 81.04102466843933
185.0 80.94102466843934
190.0 80.84102466843932
195.0 80.72745355433875
200.0 80.5679765340633
206.0 80.46797653406331
212.0 80.41108114487324
218.0 80.39772752574554
224.0 80.4779004889834
230.0 80.55448951060214
236.0 80.57790048898342
240.0 80.57790048898342
250.0 80.56475106144106
258.0 80.62494858827161
265.0 80.62494858827161
272.0 80.61194105500617
280.0 80.53558189513116
290.0 80.41194105500615
300.0 80.23558189513115
307.0 80.0793715218649
315.0 79.96319403481638
325.0 79.7631940348164
335.0 79.6505946307487
345.0 79.56319403481638
355.0 79.56319403481638
365.0 79.56319403481638
375.0 79.59126877160054
387.0 79.57186516183143
400.0 79.49126877160056
412.0 79.38469471225865
425.0 79.26890554090863
437.0 79.01327983611877
450.0 78.66581371489941
462.0 78.30795037400573
475.0 78.07979761939522
487.0 77.96369354868715
500.0 77.83653560461165
515.0 77.62916594809491
530.0 77.21583327764756
545.0 76.77089837838143
560.0 76.44800857562292
580.0 76.30185747234168
600.0 76.1245467040374
615.0 75.90716091114703
630.0 75.74348065314727
650.0 75.7740977518445
670.0 75.95565225519857
690.0 76.30554405421371
710.0 76.61742400898804
730.0 76.83603223770277
750.0 77.0799149428438
775.0 77.27024889286031
800.0 77.33665211417703
825.0 77.28036034092838
850.0 77.176231202849
875.0 77.03166658917094
900.0 76.78320674664228
925.0 76.6936107051926
950.0 76.65311983468312
975.0 76.7059552150212
1000.0 76.4945975332985
1030.0 75.82125503198658
1060.0 74.73960391961627
1090.0 73.8601055138503
1120.0 73.40300502239633
1150.0 73.37284946175832
1180.0 73.66385223415024
1220.0 73.9035133609478
1250.0 74.09587976762367
1280.0 74.2756147393427
1320.0 74.38283306128946
1360.0 74.44969313430101
1400.0 74.57388778207924
1450.0 74.66577712048458
1500.0 74.54334936464733
1550.0 74.05919171984262
1600.0 73.31081024740365
1650.0 72.56385507803914
1700.0 71.8649164806791
1750.0 71.27106357298433
1800.0 70.49089931659908
1850.0 69.41770390310413
1900.0 68.64676232940995
1950.0 68.9765819555222
2000.0 70.03101520905193
2060.0 70.97226177809483
2120.0 71.70857950795461
2180.0 71.93283543612709
2240.0 71.81792462141429
2300.0 71.83593102913845
2360.0 71.90143924180724
2400.0 72.00143924180723
2500.0 72.11986353965759
2580.0 72.36587156606328
2650.0 72.45896916648674
2720.0 72.13037174983195
2800.0 71.49895917574287
2900.0 70.72401613269793
3000.0 70.55246485579441
3070.0 70.62554695854352
3150.0 70.86882334586575
3250.0 71.18437464566459
3350.0 71.64641526025267
3450.0 71.85809492167999
3550.0 72.17071698028074
3650.0 72.73886459331824
3750.0 72.62951532504867
3870.0 72.80254336111358
4000.0 73.02525114546009
4120.0 72.93553498229046
4250.0 71.81457837410221
4370.0 70.76431670466917
4500.0 70.56988248245689
4620.0 71.4023524067916
4750.0 72.3563676517847
4870.0 72.57928816063033
5000.0 72.60444443693973
5150.0 72.87508330144568
5300.0 72.41915321158616
5450.0 72.32169062984669
5600.0 72.14285459545972
5800.0 71.1511605587788
6000.0 70.3146935887497
6150.0 70.19646691592173
6300.0 71.17087605159028
6500.0 71.32422317101138
6700.0 71.46043992185041
6900.0 71.914644778864
7100.0 71.46886146834119
7300.0 70.05439219501001
7500.0 69.58185002322219
7750.0 70.02368668636343
8000.0 70.58000562896731
8250.0 71.02614183624297
8500.0 71.58807633942699
8750.0 71.08928214872927
9000.0 70.85353729988024
9250.0 70.52621863277149
9500.0 71.285122295781
9750.0 71.23988545167286
10000.0 70.71967496744786
10300.0 70.77729481378142
10600.0 70.06099928221042
10900.0 69.23747039557313
11200.0 68.32634385114052
11500.0 68.65293083917256
11800.0 68.85351440514272
12200.0 70.39558765017567
12500.0 70.95750841717263
12800.0 70.63659737356474
13200.0 70.29892402412985
13600.0 70.80507755602875
14000.0 71.55965865916205
14500.0 71.14736743465943
15000.0 65.07057375366044
15500.0 66.53258819296146
16000.0 65.03604886918448
16500.0 59.91932906857484
17000.0 56.54412244944483
17500.0 54.13590099861993
18000.0 48.34633881835164
18500.0 45.41325029960761
19000.0 57.6604333401974
19500.0 64.03957340971748
