Freq "Side Wall Bounce"
22.4 29.92546959607742
23.0 31.865114896113795
23.6 33.902314324484195
24.0 36.665114896113806
25.0 38.00231432448419
25.8 39.165114896113806
26.5 40.325469596077426
27.2 41.56511489611381
28.0 42.96511489611379
29.0 43.539362652264856
30.0 44.39607828419952
30.7 45.18204584418487
31.5 46.93936265226486
32.5 48.43936265226486
33.5 49.56511489611381
34.5 50.91628153277301
35.5 52.49607828419951
36.5 54.33936265226487
37.5 56.296078284199524
38.7 58.296078284199524
40.0 59.67050952978636
41.2 61.57050952978635
42.5 63.15353345953551
43.7 64.39607828419952
45.0 65.79607828419952
46.2 66.6960782841995
47.5 67.69607828419953
48.7 68.53052772932432
50.0 69.44759378799851
51.5 70.29607828419952
53.0 71.21039079867911
54.5 72.17050952978636
56.0 73.21039079867913
58.0 74.24759378799851
60.0 75.37050952978636
61.5 76.41039079867913
63.0 77.41039079867912
65.0 78.44759378799853
67.0 79.36206671473361
69.0 80.31039079867914
71.0 81.11039079867913
73.0 81.81039079867914
75.0 82.51039079867913
77.5 83.02753601492293
80.0 83.51039079867911
82.5 83.81039079867912
85.0 84.01039079867913
87.5 84.01039079867913
90.0 83.91039079867913
92.5 83.81039079867912
95.0 83.73631489701508
97.5 83.63631489701508
100.0 83.53631489701507
103.0 83.51039079867911
106.0 83.49607828419951
109.0 83.53631489701507
112.0 83.55929007237313
115.0 83.52208770262138
118.0 83.42208770262138
122.0 83.25929007237313
125.0 83.05929007237313
128.0 82.84513806681016
132.0 82.6053124405916
136.0 82.32208770262137
140.0 82.04513806681015
145.0 81.77145342892548
150.0 81.59130985335835
155.0 81.47145342892549
160.0 81.39130985335836
165.0 81.31452371514129
170.0 81.24102466843934
175.0 81.14102466843934
180.0 81.04102466843932
185.0 80.94102466843933
190.0 80.84102466843933
195.0 80.72745355433875
200.0 80.56797653406332
206.0 80.4679765340633
212.0 80.41108114487322
218.0 80.39772752574555
224.0 80.47790048898341
230.0 80.55448951060212
236.0 80.5779004889834
240.0 80.5779004889834
250.0 80.56475106144104
258.0 80.6249485882716
265.0 80.6249485882716
272.0 80.61194105500616
280.0 80.53558189513116
290.0 80.41194105500615
300.0 80.23558189513116
307.0 80.0793715218649
315.0 79.9631940348164
325.0 79.76319403481638
335.0 79.65059463074871
345.0 79.56319403481638
355.0 79.56319403481638
365.0 79.56319403481638
375.0 79.59126877160054
387.0 79.57186516183143
400.0 79.49126877160055
412.0 79.38469471225864
425.0 79.26890554090865
437.0 79.01327983611877
450.0 78.66581371489941
462.0 78.30795037400574
475.0 78.07979761939524
487.0 77.96369354868713
500.0 77.83653560461167
515.0 77.6291659480949
530.0 77.21583327764756
545.0 76.77089837838143
560.0 76.44800857562292
580.0 76.30185747234168
600.0 76.12454670403741
615.0 75.90716091114703
630.0 75.74348065314729
650.0 75.7740977518445
670.0 75.95565225519856
690.0 76.30554405421371
710.0 76.61742400898805
730.0 76.83603223770277
750.0 77.0799149428438
775.0 77.27024889286031
800.0 77.33665211417701
825.0 77.28036034092837
850.0 77.17623120284901
875.0 77.03166658917095
900.0 76.78320674664226
925.0 76.69361070519261
950.0 76.65311983468312
975.0 76.70595521502119
1000.0 76.4945975332985
1030.0 75.8212550319866
1060.0 74.73960391961629
1090.0 73.8601055138503
1120.0 73.40300502239634
1150.0 73.37284946175832
1180.0 73.66385223415026
1220.0 73.90351336094778
1250.0 74.09587976762367
1280.0 74.2756147393427
1320.0 74.38283306128945
1360.0 74.449693134301
1400.0 74.57388778207925
1450.0 74.66577712048459
1500.0 74.54334936464733
1550.0 74.05919171984263
1600.0 73.31081024740365
1650.0 72.56385507803915
1700.0 71.86491648067911
1750.0 71.27106357298435
1800.0 70.49089931659907
1850.0 69.41770390310413
1900.0 68.64676232940994
1950.0 68.97658195552219
2000.0 70.03101520905194
2060.0 70.97226177809483
2120.0 71.7085795079546
2180.0 71.93283543612708
2240.0 71.81792462141428
2300.0 71.83593102913844
2360.0 71.90143924180722
2400.0 72.00143924180725
2500.0 72.1198635396576
2580.0 72.36587156606328
2650.0 72.45896916648672
2720.0 72.13037174983197
2800.0 71.49895917574287
2900.0 70.72401613269794
3000.0 70.55246485579443
3070.0 70.62554695854352
3150.0 70.86882334586574
3250.0 71.1843746456646
3350.0 71.64641526025267
3450.0 71.85809492167999
3550.0 72.17071698028073
3650.0 72.73886459331825
3750.0 72.62951532504869
3870.0 72.80254336111359
4000.0 73.02525114546009
4120.0 72.93553498229045
4250.0 71.81457837410221
4370.0 70.76431670466917
4500.0 70.56988248245688
4620.0 71.40235240679158
4750.0 72.3563676517847
4870.0 72.57928816063033
5000.0 72.60444443693974
5150.0 72.87508330144567
5300.0 72.41915321158615
5450.0 72.3216906298467
5600.0 72.14285459545974
5800.0 71.1511605587788
6000.0 70.31469358874969
6150.0 70.19646691592172
6300.0 71.17087605159028
6500.0 71.32422317101138
6700.0 71.4604399218504
6900.0 71.91464477886399
7100.0 71.46886146834117
7300.0 70.05439219501002
7500.0 69.58185002322217
7750.0 70.02368668636343
8000.0 70.5800056289673
8250.0 71.02614183624297
8500.0 71.58807633942698
8750.0 71.08928214872927
9000.0 70.85353729988023
9250.0 70.52621863277147
9500.0 71.285122295781
9750.0 71.23988545167285
10000.0 70.71967496744787
10300.0 70.77729481378142
10600.0 70.0609992822104
10900.0 69.23747039557311
11200.0 68.32634385114054
11500.0 68.65293083917256
11800.0 68.85351440514273
12200.0 70.39558765017567
12500.0 70.95750841717262
12800.0 70.63659737356474
13200.0 70.29892402412986
13600.0 70.80507755602873
14000.0 71.55965865916205
14500.0 71.14736743465943
15000.0 65.07057375366044
15500.0 66.53258819296147
16000.0 65.03604886918447
16500.0 59.919329068574854
17000.0 56.54412244944484
17500.0 54.135900998619945
18000.0 48.3463388183516
18500.0 45.4132502996076
19000.0 57.660433340197386
19500.0 64.03957340971748
