Freq "Floor Bounce"
20.5078 62.74481877374764
21.2402 62.71208893221019
21.9727 63.276295739307315
22.7051 64.45282595306658
23.4375 64.56050735063197
24.1699 65.52694583501206
25.6348 66.64497209294616
26.3672 67.1958718753488
27.0996 67.72678462951781
27.832 68.06802147110191
29.2969 68.93141061404208
30.0293 69.4084259462271
31.4941 69.95377313450264
32.2266 70.39239887367721
33.6914 71.10037498497321
34.4238 71.41732209686604
35.8887 72.15530670108562
37.3535 72.80381962321839
38.8184 73.3998201568184
39.5508 73.76088561765268
41.0156 74.39077341368915
42.4805 75.009435052415
43.9453 75.55771895349925
45.4102 76.13060823378596
47.6074 76.91608791396438
49.0723 77.45860470787932
50.5371 77.96017931416748
52.7344 78.60733602801102
54.1992 79.15202725444755
56.3965 79.82319800490795
58.5938 80.54690994816352
60.0586 80.95330318443602
62.2559 81.45500861804133
64.4531 82.04273961424519
66.6504 82.64236829160336
69.5801 83.27040449168832
71.7773 83.78112693665518
73.9746 84.2483233521466
76.9043 84.91618769426789
79.834 85.50616141987068
82.7637 85.98060425202279
85.6934 86.54735633760784
88.623 87.10478888768183
91.5527 87.55772331031677
94.4824 87.98578904162395
98.1445 88.46513944203096
101.807 88.88472786677062
105.469 89.248377268276
109.131 89.57044899627289
112.793 89.92496554431142
116.455 90.20322650069961
120.85 90.49669026841472
125.244 90.62824761557428
129.639 90.81685358637287
134.033 91.02117726979152
138.428 91.04277625252202
143.555 91.15799487374247
148.682 91.411429499139
153.809 91.48137449131198
159.668 91.45279170315406
164.795 91.4844886088298
170.654 91.7502846071937
176.514 91.67157789111549
183.105 91.36629511891257
189.697 91.109180927441
196.289 90.96481855280915
202.881 90.71125951058448
210.205 90.44988961306238
217.529 90.53209681120862
225.586 90.28648789568392
232.91 90.22599504677343
241.699 90.34296194366249
249.756 90.77544035400982
258.545 90.57009329904857
268.066 90.14042907258258
277.588 89.67833739178329
287.109 89.30409238731079
297.363 89.74133348253743
307.617 89.80422798500426
318.604 90.08392338030603
329.59 89.66887082792827
341.309 89.17996507906516
353.76 90.05497365128204
366.211 90.0893519518816
378.662 90.39135401249928
392.578 90.93284333301133
405.762 90.47150661014636
420.41 90.71132328233737
435.059 89.81546367990033
450.439 90.35807230419064
466.553 91.84826391687606
482.666 91.287741733567
500.244 91.51118153328035
517.822 91.16415602288637
536.133 90.7896305661333
554.443 91.24591111278099
574.219 91.1370214287745
594.727 92.16696130962926
615.234 91.83453983448668
637.207 92.57471095480147
659.912 92.3430880743528
683.35 91.02632795459904
706.787 89.66259611758967
731.689 90.59734567052953
758.057 90.81225057220907
784.424 90.47089967905342
812.256 89.84396268525401
840.82 91.75056967197432
870.85 92.67308498359968
901.611 91.56498429072566
933.105 93.14513740909383
966.064 92.94299154194893
999.756 93.01412083632775
1034.91 92.6629532152165
1071.53 92.86043834430195
1109.62 92.00607834964889
1148.44 92.61905891490109
1189.45 92.76588101776295
1231.2 93.12659264746881
1274.41 92.59063161660343
1319.82 92.62093069973602
1365.97 92.26443544075835
1414.31 91.97862149114182
1464.11 92.40307561687578
1515.38 92.68271304667363
1568.85 91.62454548641931
1624.51 90.82442185718483
1681.64 89.95727509341
1740.97 89.7182699316518
1802.49 89.90529587498811
1866.21 89.03753488010541
1932.13 87.61299627609027
2000.24 86.8070970314917
2070.56 86.9786047918533
2143.8 86.49671035004963
2219.24 87.46282238675589
2297.61 88.27354015955115
2378.17 89.05926881190024
2462.4 89.6078446179674
2548.83 90.28213987866351
2638.92 90.28880946951607
2731.93 90.61816128333567
2828.61 89.95442806201544
2928.22 89.5601885842206
3031.49 89.40164384758346
3138.43 88.2345206400508
3249.02 87.56661127086669
3363.28 87.56616496956914
3481.93 87.70494061598967
3604.98 87.81818761623605
3732.42 88.12253410063333
3863.53 88.46445351826026
3999.76 88.47022151498882
4141.11 88.18478623346883
4286.87 88.05877432455448
4438.48 86.69613438178507
4594.48 86.38366797967699
4757.08 86.49372553828509
4924.8 86.12124407401511
5098.39 86.1064424281373
5277.83 86.11714678357428
5463.87 85.58809286690224
5656.49 84.83598093150526
5856.45 84.25363039007675
6062.99 84.28439606568475
6276.86 84.20501884691923
6498.05 84.52334610062195
6727.29 84.62749850471928
6964.6 84.87710071404358
7209.96 84.996285652407
7464.11 84.63099768984134
7727.78 84.3448753427033
8000.24 84.53759685606879
8282.23 82.6922109496267
8574.46 83.24131241036984
8876.22 83.10371046754487
9189.7 82.62128087088352
9513.43 82.66177621164313
9848.88 81.8151011767888
10196.8 83.05149922214439
10556.4 83.11584767459176
10928.5 83.02235456708308
11313.7 83.2894582656302
11712.9 82.8056162896094
12126.0 82.50529115397255
12553.7 81.04022425145992
12996.1 82.60960779025649
13454.6 84.24921005836946
13928.5 85.5882188425805
14419.9 86.67995937499363
14928.2 84.84432514872296
15454.8 83.89838788698471
15999.8 85.95980214731215
16564.5 86.41608301959855
17148.2 81.9011111158894
17753.2 75.02917411360757
18379.4 69.56470916909585
19027.6 62.045338562034246
19698.5 55.97622037410538
19999.5 55.4538795364963
