Freq "Front Wall Bounce"
20.5078 60.84725360424672
21.2402 60.9095076955732
21.9727 61.41261019431245
22.7051 62.52248380874754
23.4375 62.66776165121918
24.1699 63.62374187125796
25.6348 64.77912610684946
26.3672 65.31466685642597
27.0996 65.84341416370064
27.832 66.17412606552968
29.2969 67.03457812752318
30.0293 67.50736372090945
31.4941 68.0673809749447
32.2266 68.50682323527869
33.6914 69.2195356372376
34.4238 69.53577113614043
35.8887 70.2704876350543
37.3535 70.9096564578933
38.8184 71.48160192158036
39.5508 71.843207471437
41.0156 72.48697191642971
42.4805 73.10796405695284
43.9453 73.65675666481661
45.4102 74.23275737816336
47.6074 75.01762785981722
49.0723 75.54141533894342
50.5371 76.03966357236773
52.7344 76.69708764958402
54.1992 77.24783809388617
56.3965 77.95699342526618
58.5938 78.66006067457708
60.0586 79.04359130587481
62.2559 79.54550534027533
64.4531 80.13555007776974
66.6504 80.73310926905627
69.5801 81.35357841660164
71.7773 81.85874686855279
73.9746 82.32562334190861
76.9043 82.99126148345806
79.834 83.58878425725862
82.7637 84.0586345364191
85.6934 84.61310524453899
88.623 85.17570879946196
91.5527 85.62677043870885
94.4824 86.05419186453118
98.1445 86.5287087099
101.807 86.93793996607948
105.469 87.28211665895607
109.131 87.60032232764422
112.793 87.9586528657401
116.455 88.20085110293756
120.85 88.47959001384224
125.244 88.63976345041785
129.639 88.87492380449778
134.033 89.09489085124515
138.428 89.1031966123175
143.555 89.21266663857708
148.682 89.48189431292523
153.809 89.59695669830913
159.668 89.55356870173152
164.795 89.59543429231987
170.654 89.87943470088942
176.514 89.83398626003687
183.105 89.50170058750912
189.697 89.19342591157437
196.289 89.08029064247366
202.881 88.80608363432123
210.205 88.56054226559907
217.529 88.55758247296271
225.586 88.22482012314097
232.91 88.15335992221645
241.699 88.31422897744484
249.756 88.873456128981
258.545 88.74417797797726
268.066 88.326745884858
277.588 87.91851815824464
287.109 87.57464443789381
297.363 87.86391633713129
307.617 87.94933374721174
318.604 88.28996669451017
329.59 87.49788572089967
341.309 87.1636303497579
353.76 88.79934467361637
366.211 88.55213697716685
378.662 88.76102523120015
392.578 89.26772558615195
405.762 89.00082054302952
420.41 89.57688208490217
435.059 88.76476436702438
450.439 89.37230797437546
466.553 90.8840557782062
482.666 90.91298429741015
500.244 91.1434903684526
517.822 91.19464286831379
536.133 90.46324570645548
554.443 90.91431308454204
574.219 91.3226902182874
594.727 92.11973705996263
615.234 91.78905856495187
637.207 92.33807800193325
659.912 92.95396682479388
683.35 91.70018658123475
706.787 90.22048745396172
731.689 90.06254978063303
758.057 90.23117124921795
784.424 90.04691044046113
812.256 89.26803364886057
840.82 90.35105917155089
870.85 91.23355778388415
901.611 90.93854152588489
933.105 91.18163829544449
966.064 90.55973798801357
999.756 89.77115491065514
1034.91 89.7668807061729
1071.53 89.182325582605
1109.62 88.72475452036078
1148.44 90.04169550510588
1189.45 89.98992988157418
1231.2 90.16378838829122
1274.41 90.47787689581126
1319.82 90.40576703651027
1365.97 91.2806624449255
1414.31 91.45791863031612
1464.11 91.94498969527558
1515.38 92.42586764453397
1568.85 92.28012996827523
1624.51 91.50383915692605
1681.64 91.53089610632408
1740.97 91.86130766143404
1802.49 92.24441162933475
1866.21 92.25753775252015
1932.13 92.318081602042
2000.24 92.48086261536174
2070.56 92.72116151982688
2143.8 92.2581305987617
2219.24 92.23738433459114
2297.61 92.74416570241432
2378.17 92.36134142096664
2462.4 91.29956333779873
2548.83 90.83699876652024
2638.92 90.37850946868811
2731.93 88.8655977767426
2828.61 87.8353099851719
2928.22 87.20954536773318
3031.49 87.70941964924093
3138.43 86.82056072653741
3249.02 86.72172600810276
3363.28 86.36712993916846
3481.93 86.45847202551185
3604.98 87.58552539044649
3732.42 87.96264322664804
3863.53 88.53548235604872
3999.76 88.72176854394867
4141.11 89.19103837748672
4286.87 88.40191988359076
4438.48 88.13145270312974
4594.48 87.70731854788292
4757.08 88.45739799131688
4924.8 88.30006636459984
5098.39 88.82539233308493
5277.83 89.23560336584677
5463.87 88.80825203079367
5656.49 88.19168565149927
5856.45 88.23728313387247
6062.99 88.1325558403854
6276.86 88.46632086644378
6498.05 88.82382531705376
6727.29 89.3259194104175
6964.6 89.69639384189753
7209.96 89.59151617582194
7464.11 89.56550126978439
7727.78 89.75400103536776
8000.24 89.83044617199924
8282.23 87.76107284302456
8574.46 88.30972147784392
8876.22 88.67687910152512
9189.7 88.66721909315856
9513.43 88.98461677594497
9848.88 88.20230066797221
10196.8 88.98691301170534
10556.4 88.82749811161598
10928.5 88.27144803599937
11313.7 88.54472506703839
11712.9 88.31127741631913
12126.0 87.7479713275158
12553.7 87.03268813837033
12996.1 88.1881351268017
13454.6 89.05861597534438
13928.5 89.47237463400326
14419.9 90.59233252713781
14928.2 89.29238557768944
15454.8 89.0909073576968
15999.8 90.94329229572669
16564.5 90.07881250390763
17148.2 85.96496507776392
17753.2 81.1417544562508
18379.4 76.3301812965284
19027.6 62.21997959303384
19698.5 63.279068730199285
19999.5 59.07959838582464
