Freq "Front Wall Bounce"
20.5078 62.22535426005858
21.2402 62.28760835138509
21.9727 62.79071085012434
22.7051 63.9005844645594
23.4375 64.04586230703104
24.1699 65.00184252706983
25.6348 66.15722676266132
26.3672 66.69276751223784
27.0996 67.22151481951254
27.832 67.55222672134154
29.2969 68.41267878333507
30.0293 68.88546437672134
31.4941 69.44548163075656
32.2266 69.88492389109057
33.6914 70.59763629304949
34.4238 70.91387179195229
35.8887 71.64858829086617
37.3535 72.28775711370517
38.8184 72.85970257739224
39.5508 73.22130812724889
41.0156 73.86507257224157
42.4805 74.4860647127647
43.9453 75.03485732062848
45.4102 75.61085803397523
47.6074 76.39572851562909
49.0723 76.9195159947553
50.5371 77.4177642281796
52.7344 78.07518830539591
54.1992 78.62593874969805
56.3965 79.33509408107807
58.5938 80.03816133038896
60.0586 80.4216919616867
62.2559 80.92360599608722
64.4531 81.51365073358163
66.6504 82.11120992486816
69.5801 82.73167907241351
71.7773 83.23684752436465
73.9746 83.7037239977205
76.9043 84.36936213926994
79.834 84.9668849130705
82.7637 85.43673519223098
85.6934 85.99120590035086
88.623 86.55380945527382
91.5527 87.00487109452071
94.4824 87.43229252034304
98.1445 87.9068093657119
101.807 88.31604062189135
105.469 88.66021731476796
109.131 88.9784229834561
112.793 89.33675352155197
116.455 89.57895175874944
120.85 89.8576906696541
125.244 90.01786410622971
129.639 90.25302446030965
134.033 90.47299150705702
138.428 90.48129726812937
143.555 90.59076729438895
148.682 90.85999496873711
153.809 90.97505735412099
159.668 90.9316693575434
164.795 90.97353494813176
170.654 91.2575353567013
176.514 91.21208691584873
183.105 90.87980124332101
189.697 90.57152656738623
196.289 90.45839129828555
202.881 90.1841842901331
210.205 89.93864292141095
217.529 89.93568312877457
225.586 89.60292077895285
232.91 89.53146057802832
241.699 89.69232963325672
249.756 90.25155678479287
258.545 90.12227863378915
268.066 89.70484654066986
277.588 89.2966188140565
287.109 88.9527450937057
297.363 89.24201699294316
307.617 89.32743440302362
318.604 89.66806735032205
329.59 88.87598637671157
341.309 88.54173100556977
353.76 90.17744532942825
366.211 89.93023763297872
378.662 90.13912588701201
392.578 90.64582624196383
405.762 90.3789211988414
420.41 90.95498274071403
435.059 90.14286502283625
450.439 90.75040863018732
466.553 92.26215643401808
482.666 92.29108495322204
500.244 92.52159102426448
517.822 92.57274352412567
536.133 91.84134636226736
554.443 92.29241374035392
574.219 92.7007908740993
594.727 93.4978377157745
615.234 93.16715922076374
637.207 93.71617865774512
659.912 94.33206748060576
683.35 93.07828723704664
706.787 91.59858810977359
731.689 91.44065043644493
758.057 91.60927190502981
784.424 91.42501109627302
812.256 90.64613430467244
840.82 91.72915982736276
870.85 92.61165843969603
901.611 92.31664218169675
933.105 92.55973895125636
966.064 91.93783864382544
999.756 91.14925556646702
1034.91 91.14498136198476
1071.53 90.56042623841688
1109.62 90.10285517617267
1148.44 91.41979616091774
1189.45 91.36803053738605
1231.2 91.5418890441031
1274.41 91.85597755162313
1319.82 91.78386769232216
1365.97 92.65876310073737
1414.31 92.83601928612798
1464.11 93.32309035108746
1515.38 93.80396830034583
1568.85 93.65823062408712
1624.51 92.88193981273791
1681.64 92.90899676213597
1740.97 93.23940831724592
1802.49 93.62251228514664
1866.21 93.63563840833201
1932.13 93.69618225785386
2000.24 93.85896327117364
2070.56 94.09926217563877
2143.8 93.63623125457357
2219.24 93.615484990403
2297.61 94.12226635822618
2378.17 93.73944207677852
2462.4 92.67766399361062
2548.83 92.2150994223321
2638.92 91.75661012449997
2731.93 90.24369843255448
2828.61 89.21341064098378
2928.22 88.58764602354508
3031.49 89.08752030505282
3138.43 88.19866138234927
3249.02 88.09982666391464
3363.28 87.74523059498036
3481.93 87.83657268132373
3604.98 88.96362604625837
3732.42 89.3407438824599
3863.53 89.9135830118606
3999.76 90.09986919976056
4141.11 90.56913903329858
4286.87 89.78002053940263
4438.48 89.50955335894162
4594.48 89.0854192036948
4757.08 89.83549864712876
4924.8 89.67816702041173
5098.39 90.20349298889681
5277.83 90.61370402165865
5463.87 90.18635268660556
5656.49 89.56978630731115
5856.45 89.61538378968434
6062.99 89.51065649619727
6276.86 89.84442152225566
6498.05 90.20192597286565
6727.29 90.70402006622938
6964.6 91.07449449770941
7209.96 90.96961683163383
7464.11 90.94360192559625
7727.78 91.13210169117964
8000.24 91.20854682781112
8282.23 89.13917349883646
8574.46 89.68782213365581
8876.22 90.05497975733701
9189.7 90.04531974897044
9513.43 90.36271743175685
9848.88 89.5804013237841
10196.8 90.3650136675172
10556.4 90.20559876742786
10928.5 89.64954869181126
11313.7 89.92282572285026
11712.9 89.689378072131
12126.0 89.12607198332769
12553.7 88.4107887941822
12996.1 89.56623578261357
13454.6 90.43671663115627
13928.5 90.85047528981512
14419.9 91.9704331829497
14928.2 90.67048623350132
15454.8 90.4690080135087
15999.8 92.32139295153856
16564.5 91.4569131597195
17148.2 87.34306573357578
17753.2 82.51985511206269
18379.4 77.70828195234029
19027.6 63.59808024884573
19698.5 64.65716938601115
19999.5 60.4576990416365
