Freq "Ceiling Bounce"
20.5078 62.83090554627208
21.9727 66.34156691903877
23.4375 68.86187402505551
24.9023 71.67813429268739
26.3672 74.50967708697713
27.832 76.92989956244213
29.2969 79.06291066073979
30.7617 80.9907941442551
32.2266 82.34067964871879
33.6914 83.38284305755616
35.1562 84.39503471652213
36.6211 85.07130820691275
38.0859 85.56629976389156
39.5508 85.83668951702901
41.0156 86.0060149217432
42.4805 86.2044263580234
43.9453 86.35849090282755
45.4102 86.54015815488549
46.875 86.60226736808917
48.3398 86.6798459293733
51.2695 86.74873580327869
52.7344 86.79823435745234
54.1992 86.87257558557255
55.6641 86.84588312903801
58.5938 86.95360783677867
60.0586 87.0049004585524
62.9883 87.06916674632868
64.4531 87.08614080636696
67.3828 87.0637553641249
68.8477 87.14249700975932
71.7773 87.2872542964787
74.707 87.37769990266922
77.6367 87.40287501224444
79.1016 87.39312159198299
82.0312 87.39659323297573
84.9609 87.41749402298795
87.8906 87.4133260894926
90.8203 87.31508546231318
95.2148 87.22952571691225
98.1445 87.14656878473122
101.074 86.92473398379701
105.469 86.80782692955563
108.398 86.80144336687614
112.793 86.79045395942566
117.188 86.6824606913703
120.117 86.57362290654737
124.512 86.34319329243661
128.906 86.23690650487558
133.301 86.15996265689643
139.16 85.95757016806063
143.555 85.79261309329453
147.949 85.51626119560318
153.809 85.27740655554967
159.668 85.61661736564437
165.527 85.42302453290013
171.387 85.36572563429125
177.246 85.15520261330808
183.105 84.98243738228885
188.965 85.04446755988101
196.289 84.81743693335603
203.613 84.98569021480502
210.938 84.83587515154255
218.262 84.53753684314145
225.586 84.79661486283442
232.91 84.74738687765185
241.699 84.22396862611384
250.488 84.62075962003479
259.277 84.66018323049784
268.066 84.17850581541735
276.855 84.28755549996917
287.109 84.44353091158439
297.363 84.55953023124103
307.617 84.58946988270631
319.336 84.45363792331221
329.59 84.66158101714935
341.309 84.51422471337347
353.027 84.93306377523635
366.211 85.0913961868495
379.395 85.54032638101515
392.578 85.18757151863863
405.762 84.32656719738745
420.41 84.35447758151422
435.059 84.62582680174346
451.172 83.47534641953436
465.82 82.89404885277389
483.398 82.5725961146058
499.512 82.33747218850887
517.09 82.43183211331319
536.133 82.2674394092179
555.176 82.11538640728963
574.219 81.95025021775453
594.727 82.107066568935
615.234 82.50329001337413
637.207 82.4055511990514
659.18 83.12543542494507
682.617 83.6618607635589
707.52 84.45753364398186
732.422 84.53334374482581
757.324 83.96197862795785
785.156 84.35501412272318
811.523 83.89095839459188
840.82 84.85382502723022
870.117 84.82826969660452
900.879 85.35555460333467
933.105 84.13120584986987
965.332 83.0364697925144
1000.49 83.78870895761415
1035.64 83.32827218727553
1072.27 82.84851020135208
1108.89 83.21029194427958
1148.44 82.81855383286813
1189.45 81.80735617210905
1230.47 81.47736992991393
1274.41 79.78489626819575
1319.82 79.41221373704911
1366.7 79.31781672457396
1413.57 77.8860209601777
1463.38 78.23215160430587
1516.11 78.67637534617579
1568.85 77.95299650775621
1624.51 77.94762677535225
1681.64 77.35976806695618
1741.7 76.9006897268867
1803.22 77.59351473533937
1866.21 78.2745522881168
1932.13 78.6740138514958
1999.51 79.31508021539472
2069.82 79.45870425922058
2143.07 79.37753036387436
2219.24 78.73544924082395
2296.88 79.85020979212517
2378.91 79.28581543414857
2462.4 79.49524601102885
2548.83 79.9483520108289
2639.65 80.12800545997162
2731.93 79.67279620321531
2828.61 79.71818263350282
2928.22 79.65328293849373
3030.76 80.03291123808086
3137.7 79.89014336521282
3249.02 80.47182402002242
3363.28 80.01891285039312
3481.93 80.20579756789104
3604.98 79.96419953105755
3732.42 80.37769468211722
3864.26 80.16819753183134
4000.49 79.83977753612736
4141.11 80.27906174081309
4287.6 79.50910089479865
4438.48 80.00042068983848
4595.21 79.07437310900158
4756.35 79.17286912992788
4924.8 78.92302579203285
5097.66 79.20706030516742
5277.83 79.0348746364609
5463.87 78.78605734315558
5657.23 78.99657097694332
5856.45 78.96749874387808
6062.99 78.56260338080827
6276.86 78.88272734747974
6498.05 79.15843870729576
6726.56 78.97529832658843
6963.87 79.34505828185466
7209.96 79.5101740708094
7464.84 79.45621949619598
7727.05 79.54542067895143
7999.51 79.35946777998979
8282.23 79.31478569948376
8573.73 79.23356580058422
8876.95 79.09731262870321
9188.96 79.30065586982761
9514.16 79.32271295878134
9849.61 79.53124654134946
10196.8 79.58686675012055
10555.7 79.61651367216905
10927.7 79.74387001445277
11313.0 79.79835630065952
11712.9 79.72065842950146
12126.0 79.75086346838914
12553.7 79.73596361639368
12996.1 79.64997275990413
13454.6 79.34051312335785
13929.2 79.14360509541682
14419.9 79.01607311635028
14928.2 79.08254439132408
15455.6 79.00045095729818
16000.5 78.83094614367815
16564.5 78.24507339683421
17148.9 77.67010536828884
17752.4 77.14662906810248
18379.4 76.4945803492357
19026.9 75.47218996199427
19697.8 74.43919821032041
19999.5 73.70989248372845
