Freq "Floor Bounce"
20.5078 60.12877023271176
21.9727 64.55016237263357
23.4375 67.36389157308965
24.9023 70.45763581354082
26.3672 73.77135931605154
27.832 76.23768762426644
29.2969 78.61393451034056
30.7617 80.63592017767098
32.2266 82.16368690166391
33.6914 83.31395654471726
35.1562 84.42722104881081
36.6211 85.19407896367733
38.0859 85.75669129365824
39.5508 86.08843333943742
41.0156 86.3228952113561
42.4805 86.55996227624058
43.9453 86.7601600434426
45.4102 86.97290309619453
46.875 87.07865548724294
48.3398 87.18998363226973
51.2695 87.33749995531404
52.7344 87.40873529483345
54.1992 87.51355404348291
55.6641 87.50305398734179
58.5938 87.64305595837976
60.0586 87.72051098280694
62.9883 87.84316125493262
64.4531 87.88793338610068
67.3828 87.92580022202944
68.8477 88.01824623515444
71.7773 88.1819345785501
74.707 88.20325079008619
77.6367 88.30247217065697
79.1016 88.31745035061732
82.0312 88.36127440544625
84.9609 88.40708429215475
87.8906 88.40613523872855
90.8203 88.36811064033138
95.2148 88.34284622565661
98.1445 88.22445392572627
101.074 88.0007315807906
105.469 87.95147093681447
108.398 87.963923857742
112.793 88.00710224122186
117.188 87.82449919368204
120.117 87.72878958456286
124.512 87.64172782284065
128.906 87.54098088781797
133.301 87.56016517913064
139.16 87.44938396742958
143.555 87.32471637989512
147.949 87.18196732901377
153.809 87.08719985824068
159.668 87.25255953673647
165.527 87.01946560456658
171.387 87.11206986886701
177.246 86.8906389010167
183.105 86.7260950371936
188.965 86.88014775634579
196.289 86.90778254812608
203.613 87.06369321867686
210.938 86.78514562132784
218.262 86.610807567125
225.586 87.03926108564163
232.91 87.2440926679525
241.699 86.8300521895885
250.488 87.65870029057007
259.277 87.57671412161162
268.066 86.98963942814795
276.855 86.66580818070345
287.109 86.62970822012299
297.363 87.05073992221148
307.617 87.46637380376875
319.336 87.48081022584986
329.59 87.07905458137468
341.309 86.7313706867319
353.027 86.26964531688076
366.211 86.48461710572143
379.395 86.92759281692881
392.578 86.18973472743905
405.762 86.2964989660722
420.41 86.38918640250431
435.059 86.53438221087188
451.172 86.64293043668005
465.82 87.37174354233983
483.398 86.67836560113196
499.512 87.98443425643335
517.09 87.31093721300235
536.133 87.0720268650202
555.176 86.81457649142325
574.219 87.42784854201116
594.727 86.75809464851379
615.234 85.8937085496399
637.207 87.06638428615446
659.18 86.1592598629485
682.617 85.86757204457004
707.52 86.63262459477477
732.422 85.63177913888933
757.324 85.75637319355573
785.156 85.40375916296708
811.523 85.71224900313128
840.82 86.34400897020734
870.117 86.56577619767194
900.879 87.74805740392326
933.105 87.165264943206
965.332 86.8208578445426
1000.49 86.92919314069826
1035.64 86.91629550818557
1072.27 87.29237496945792
1108.89 86.55468142756519
1148.44 86.35184921995096
1189.45 85.43278673096326
1230.47 85.90264322364672
1274.41 86.14852630232886
1319.82 86.16800073744493
1366.7 85.99044468212806
1413.57 85.87685452106898
1463.38 85.76273943430162
1516.11 84.7609343988882
1568.85 83.00185033310898
1624.51 82.75520498941688
1681.64 82.24674500834648
1741.7 82.43479254581229
1803.22 82.35953699530228
1866.21 82.21040435841319
1932.13 80.77104842550477
1999.51 79.93716012811085
2069.82 81.61428774505342
2143.07 82.16507313957521
2219.24 81.82676029288199
2296.88 82.8245819664684
2378.91 82.18666949626747
2462.4 82.52941778323694
2548.83 83.31001555431287
2639.65 84.25100733694612
2731.93 83.86796759452317
2828.61 83.8019908037102
2928.22 84.23690692045685
3030.76 84.39673055495419
3137.7 83.95892853996742
3249.02 83.733760263742
3363.28 83.86224779736956
3481.93 83.81169451866528
3604.98 84.13380214097342
3732.42 84.19521132239488
3864.26 85.61521095800636
4000.49 84.8918545458352
4141.11 84.74150324245542
4287.6 84.61423827476699
4438.48 84.56353166520339
4595.21 84.06408100471643
4756.35 84.0380047011778
4924.8 84.69154228959137
5097.66 84.72067725402455
5277.83 84.9008071476333
5463.87 85.49763791170577
5657.23 85.26545870349203
5856.45 84.55204420966332
6062.99 84.94299346597991
6276.86 84.46006206025214
6498.05 84.81096124423935
6726.56 84.62891549767673
6963.87 84.8345360130324
7209.96 84.84500459725373
7464.84 85.48521911578726
7727.05 85.6765956146957
7999.51 85.36959790972949
8282.23 85.35201807803077
8573.73 85.00745450257364
8876.95 84.82601843160302
9188.96 84.85319068892424
9514.16 84.94731494468306
9849.61 84.81674805865269
10196.8 85.1479040470192
10555.7 84.63712130850982
10927.7 84.27512149872747
11313.0 84.36594438802362
11712.9 84.51668051903485
12126.0 84.80265635987743
12553.7 84.43548562998141
12996.1 84.71827232120079
13454.6 84.52986128576532
13929.2 84.66922810758263
14419.9 84.6610680967099
14928.2 84.70968593783417
15455.6 84.99846607083477
16000.5 85.1681842823964
16564.5 85.33029675897161
17148.9 85.30518692466731
17752.4 85.5811006698722
18379.4 85.71353818166388
19026.9 85.40538438434916
19697.8 85.10177489990832
19999.5 85.02642470642786
