Freq "Front Wall Bounce"
20.5078 60.682219138885756
21.9727 64.87913079266039
23.4375 67.62166043559661
24.9023 70.62823905910855
26.3672 73.8637313053846
27.832 76.28974309705771
29.2969 78.6210770002815
30.7617 80.6395528095214
32.2266 82.1211847539272
33.6914 83.24432052998438
35.1562 84.33333544544408
36.6211 85.08203832617917
38.0859 85.63151487976418
39.5508 85.95196869112264
41.0156 86.16721293850875
42.4805 86.39688034346314
43.9453 86.58516865494434
45.4102 86.79179214925912
46.875 86.887989346012
48.3398 86.9971297763767
51.2695 87.13171201258946
52.7344 87.19896472979352
54.1992 87.29870079865555
55.6641 87.28471001132642
58.5938 87.41860583303458
60.0586 87.49109777566338
62.9883 87.5996696048047
64.4531 87.63787950427121
67.3828 87.65139441600158
68.8477 87.73526320519932
71.7773 87.90269034081703
74.707 87.96236181521054
77.6367 88.04290188327005
79.1016 88.0502498651604
82.0312 88.08079377751518
84.9609 88.1205470251687
87.8906 88.12418095795334
90.8203 88.06662463150948
95.2148 88.02709501376272
98.1445 87.92406710344008
101.074 87.72483740321036
105.469 87.69111213889207
108.398 87.70354703013976
112.793 87.68095635555277
117.188 87.54509048527026
120.117 87.45487948316647
124.512 87.30504980237134
128.906 87.22356624287377
133.301 87.21553113243539
139.16 87.09116155120167
143.555 86.96044195108868
147.949 86.77364853893212
153.809 86.69851655575732
159.668 86.91088487979809
165.527 86.72074371970696
171.387 86.77312988392364
177.246 86.5564071728543
183.105 86.41558786511996
188.965 86.56797888365202
196.289 86.53960407481739
203.613 86.82093255005901
210.938 86.5474412987621
218.262 86.27868121027683
225.586 86.75747317766802
232.91 86.93317443185575
241.699 86.52530792539625
250.488 87.13594804517118
259.277 87.1472620081715
268.066 86.56889277116085
276.855 86.42662941630302
287.109 86.49073393888735
297.363 87.16941603051065
307.617 87.27801220198238
319.336 87.22088065404071
329.59 87.11353410840276
341.309 86.95835374849538
353.027 86.69001897637891
366.211 86.80935356548996
379.395 87.0477417275818
392.578 86.29489925060649
405.762 86.28466897515622
420.41 86.46444449795013
435.059 86.53993689702457
451.172 85.83302901616892
465.82 86.40151384230607
483.398 86.29671926906528
499.512 87.72544663894982
517.09 87.38100441898989
536.133 87.36838457435985
555.176 87.09231468907552
574.219 86.8627126196991
594.727 86.74729173980649
615.234 86.29437599239421
637.207 86.80240722053613
659.18 86.63799643013573
682.617 86.40771004587727
707.52 86.31489032594085
732.422 86.10584925609446
757.324 86.16070517904583
785.156 86.65135287970861
811.523 86.82638956401046
840.82 87.43990348159647
870.117 87.8051816259523
900.879 87.82361729983919
933.105 87.93783230160851
965.332 87.51532792060148
1000.49 86.87243822431287
1035.64 86.58479403664907
1072.27 85.68273820067196
1108.89 85.68088803294586
1148.44 85.37733212034006
1189.45 85.51845438171974
1230.47 86.06869181952234
1274.41 85.79083068326105
1319.82 85.81262769017329
1366.7 86.63208734614378
1413.57 86.83523689607887
1463.38 85.92191690357154
1516.11 84.9392814741604
1568.85 84.76412304971214
1624.51 85.17610365816392
1681.64 86.08085256931813
1741.7 86.05769056135075
1803.22 85.44809078881359
1866.21 84.06554491131959
1932.13 83.60757859250637
1999.51 84.1479870704364
2069.82 84.8448600652285
2143.07 85.08002550229139
2219.24 84.4505225143287
2296.88 84.5360094935081
2378.91 86.2076368795426
2462.4 87.9436103094819
2548.83 87.9011428599527
2639.65 86.57688560753505
2731.93 86.17366316259918
2828.61 86.94407853942548
2928.22 87.5841654952472
3030.76 87.60734906099218
3137.7 87.46430199237918
3249.02 87.0237371558978
3363.28 86.91720219556589
3481.93 86.80574860933973
3604.98 87.4302566285981
3732.42 87.98190781299786
3864.26 86.97859945048683
4000.49 87.27811527846251
4141.11 87.48237454218021
4287.6 87.2648378277664
4438.48 87.02101084549506
4595.21 86.34376659737201
4756.35 87.26708753981518
4924.8 86.70885940903335
5097.66 86.71296495061551
5277.83 86.53680264902334
5463.87 86.4403884290041
5657.23 86.25192129303097
5856.45 85.92424218371278
6062.99 86.17951025683007
6276.86 85.80994881610468
6498.05 86.10279224340452
6726.56 86.12555354022217
6963.87 86.31546884110853
7209.96 86.66861765725906
7464.84 86.21693049605418
7727.05 86.96528416098832
7999.51 86.37345428582884
8282.23 86.55275974969649
8573.73 86.34231146817513
8876.95 86.27637090862304
9188.96 85.7044893317209
9514.16 85.76375376055884
9849.61 85.51999293872657
10196.8 85.63375798703109
10555.7 85.41091449682636
10927.7 85.18352285672668
11313.0 85.04441328051672
11712.9 84.99358209431323
12126.0 85.09813759715196
12553.7 85.07381717567245
12996.1 85.22718670186487
13454.6 85.36124257582948
13929.2 85.71691312592668
14419.9 85.94202741627485
14928.2 86.12591954079977
15455.6 86.19708155493477
16000.5 86.27660615090525
16564.5 86.36540734521684
17148.9 86.4432986140647
17752.4 86.11534099412363
18379.4 85.64716267864178
19026.9 85.23541384160544
19697.8 84.93359056618533
19999.5 85.02493852491067
