Freq "Rear Wall Bounce"
20.5078 67.52752474617985
21.9727 70.11717126697214
23.4375 72.41495457239894
24.9023 74.95098532032964
26.3672 77.29630039034414
27.832 79.76528707725907
29.2969 81.57215726377312
30.7617 83.22449577176431
32.2266 84.43765922633452
33.6914 85.3283873184291
35.1562 86.18340345620233
36.6211 86.71902969734441
38.0859 87.08868611255191
39.5508 87.23620860185572
41.0156 87.31451345540145
42.4805 87.3904064941212
43.9453 87.45578161471258
45.4102 87.56624002974
46.875 87.58473446417233
48.3398 87.5467785799656
51.2695 87.49581096867551
52.7344 87.49268777360051
54.1992 87.48410428050616
55.6641 87.41944709904914
58.5938 87.45507331407916
60.0586 87.4535603413802
62.9883 87.46277955178175
64.4531 87.44603156622725
67.3828 87.4325213739908
68.8477 87.50897947013372
71.7773 87.54612129502328
74.707 87.60036042248828
77.6367 87.60856084093486
79.1016 87.58995228722554
82.0312 87.56659232479034
84.9609 87.56724881516908
87.8906 87.52671212794293
90.8203 87.45167432174992
95.2148 87.29479689076055
98.1445 87.256609039485
101.074 87.1065687884287
105.469 86.72594612303553
108.398 86.61711426947294
112.793 86.61540518649042
117.188 86.52175453652418
120.117 86.39187838817807
124.512 86.24222127312991
128.906 86.11478162704043
133.301 85.9021485560109
139.16 85.6873402008132
143.555 85.51002660364901
147.949 85.36267380110695
153.809 85.0990470012093
159.668 85.16000474452973
165.527 85.07506945848772
171.387 84.76346847134474
177.246 84.48114133140413
183.105 84.37563422810419
188.965 84.43150341300657
196.289 84.27235237945762
203.613 83.85718810517278
210.938 83.55968484626483
218.262 83.61732522656833
225.586 83.70638085931637
232.91 83.32009319062996
241.699 82.83707506900849
250.488 82.88646539647911
259.277 82.8974883855043
268.066 82.29018768556236
276.855 82.24450531491208
287.109 82.1560083129072
297.363 81.71904472523916
307.617 81.93089248816122
319.336 81.50333194740158
329.59 81.07943733646852
341.309 80.62692577290359
353.027 80.29579915072895
366.211 80.18154595149889
379.395 80.43262166597985
392.578 80.63421209253855
405.762 80.65909412360932
420.41 79.83503318931082
435.059 80.38367766764111
451.172 80.71900769477122
465.82 80.67704368490877
483.398 79.79415076228968
499.512 79.9662337950783
517.09 80.42197496935583
536.133 79.983389786243
555.176 79.07579584382533
574.219 79.59349065898064
594.727 78.94562356901386
615.234 78.47695914085554
637.207 79.30095274733158
659.18 77.9385370921152
682.617 78.19409546906815
707.52 77.95102475173884
732.422 77.11409261337349
757.324 77.46684704805106
785.156 76.90099356736437
811.523 77.61170244700153
840.82 76.58429915690547
870.117 77.48678733114596
900.879 76.39910399466652
933.105 75.6487870839689
965.332 74.80399304591958
1000.49 74.31317697178238
1035.64 73.17320071204671
1072.27 73.40834593952809
1108.89 71.98883127320201
1148.44 71.53061935139948
1189.45 72.70985667085249
1230.47 72.28233531015982
1274.41 72.78288674701017
1319.82 74.1037741007739
1366.7 74.78366203703213
1413.57 73.18697055956576
1463.38 73.62546950394405
1516.11 72.35127844338935
1568.85 71.57091904482586
1624.51 71.77750564587465
1681.64 71.87213452549538
1741.7 71.2865978744083
1803.22 70.00991563788662
1866.21 69.36461124922786
1932.13 69.28697377630044
1999.51 69.7028164206264
2069.82 69.15405664952566
2143.07 69.98560507738449
2219.24 69.2161404224443
2296.88 69.33840692838484
2378.91 70.31698062422133
2462.4 71.08899721376233
2548.83 71.31175119021603
2639.65 70.77619902040229
2731.93 70.70575127976564
2828.61 70.51489338866725
2928.22 70.87161143435208
3030.76 70.3112196484061
3137.7 70.22532729104607
3249.02 70.4553648204174
3363.28 69.77277395564624
3481.93 69.7062917457936
3604.98 70.49441542497615
3732.42 69.95151139884386
3864.26 69.08682349485512
4000.49 69.28506761212867
4141.11 69.01741277761985
4287.6 69.21820240641274
4438.48 68.29174967964698
4595.21 68.39751789723537
4756.35 68.41144025327596
4924.8 68.41277349942864
5097.66 67.81861323983019
5277.83 67.2193836955903
5463.87 67.61619449628824
5657.23 66.91720563296263
5856.45 66.40792993062087
6062.99 66.2359990846192
6276.86 65.66632005165802
6498.05 65.39758989485404
6726.56 65.34190848225413
6963.87 64.70377880034356
7209.96 65.56322940887215
7464.84 64.3910154774154
7727.05 64.38254600443074
7999.51 64.13639058698827
8282.23 64.0820228969654
8573.73 63.572025393372854
8876.95 63.31363095618332
9188.96 63.01281935337346
9514.16 62.59204966089581
9849.61 62.395060830695485
10196.8 62.75958009898034
10555.7 62.850620581628476
10927.7 63.37686057554811
11313.0 63.08821907804918
11712.9 62.50215743246832
12126.0 62.16241983477167
12553.7 61.642064998510136
12996.1 61.15963121456144
13454.6 60.907681230889665
13929.2 60.506034452733644
14419.9 59.944218453418586
14928.2 59.44565053524221
15455.6 58.77243867085318
16000.5 57.716129679253555
16564.5 56.72171756702059
17148.9 55.23178749000638
17752.4 55.11750045116406
18379.4 55.28408211465441
19026.9 56.30123219576774
19697.8 56.92441958174871
19999.5 57.343310213475775
