Freq "Early Reflections"
22.4 61.939000307252016
23.0 61.72997501983899
23.6 61.63265683422607
24.0 61.67642371691689
25.0 61.77999595612381
25.8 61.959436908468675
26.5 62.15272807873198
27.2 62.33674744383849
28.0 62.42727868239511
29.0 62.44780490269939
30.0 62.39387410291563
30.7 62.13840659125448
31.5 61.791456758810725
32.5 61.33761839645122
33.5 61.00050943223822
34.5 60.752123543273726
35.5 60.65998639635258
36.5 60.73073986130085
37.5 60.935086756200846
38.7 61.25826900862974
40.0 61.70823974491874
41.2 62.272005801056125
42.5 62.73796516090434
43.7 63.40525969016757
45.0 64.06143311021363
46.2 64.72052539254885
47.5 65.47373394470577
48.7 66.205819222179
50.0 66.90916128733018
51.5 67.58275751469378
53.0 68.26399950992113
54.5 68.91495599126908
56.0 69.52080492411787
58.0 70.28331691900641
60.0 71.07954479594592
61.5 71.67461393967912
63.0 72.18045273258595
65.0 72.84761088414855
67.0 73.41093437967608
69.0 73.94246225394566
71.0 74.49246694992097
73.0 74.94267968134115
75.0 75.39267869546103
77.5 75.95751822580955
80.0 76.35153379219086
82.5 76.99983880650582
85.0 77.79376414705622
87.5 78.3346846375818
90.0 79.09820125028698
92.5 79.80236987015418
95.0 80.39749708367482
97.5 80.8091788109031
100.0 81.36557518024536
103.0 81.99820965002472
106.0 82.63860307997679
109.0 83.24463114717842
112.0 83.9201340956501
115.0 84.43339737789451
118.0 84.89526961631833
122.0 85.23500518342674
125.0 85.5126132342039
128.0 85.67182669689494
132.0 85.84385373342054
136.0 85.99721673943797
140.0 86.092546913302
145.0 85.97595966130753
150.0 85.81342077922857
155.0 85.65049289780467
160.0 85.45858567462604
165.0 85.29150553466906
170.0 85.15266456943095
175.0 85.01170795352361
180.0 84.90478782570547
185.0 84.80719491190062
190.0 84.82782785421962
195.0 84.77013786836478
200.0 84.71976880937952
206.0 84.70890652502577
212.0 84.6726817748607
218.0 84.58570628249781
224.0 84.55082873444216
230.0 84.51794960206603
236.0 84.48491453672098
240.0 84.40776990294769
250.0 84.37948211518275
258.0 84.29665913388153
265.0 84.20311566666484
272.0 84.04890913190599
280.0 83.86832604721795
290.0 83.74577690076714
300.0 83.62395147576962
307.0 83.42554001200934
315.0 83.13442276288784
325.0 82.6562499716333
335.0 81.93013998939085
345.0 80.8745713910995
355.0 79.29670203680989
365.0 77.65103318848891
375.0 76.71741859570517
387.0 76.96474110375225
400.0 78.09368809856325
412.0 80.00380212300881
425.0 81.3531694018874
437.0 81.97861347553315
450.0 82.16685512826707
462.0 82.01956573714129
475.0 81.55182470864679
487.0 80.83661011810952
500.0 79.94435058566843
515.0 78.99164251913732
530.0 77.90810393268906
545.0 77.51124480671412
560.0 77.60083963616272
580.0 78.00512807053447
600.0 79.5605099717632
615.0 81.05514387705776
630.0 82.05220595208958
650.0 82.53368510785202
670.0 82.48703837281464
690.0 81.98431496614678
710.0 81.12358012276354
730.0 79.91655106648078
750.0 78.6932737791111
775.0 77.68210856009908
800.0 77.18254383470389
825.0 77.21091626235831
850.0 77.3628529053788
875.0 77.77342115259022
900.0 78.25075334407111
925.0 78.97550502849276
950.0 79.77104118149772
975.0 80.45008842279329
1000.0 80.87393129763716
1030.0 81.01007855381829
1060.0 80.96031721068181
1090.0 80.75999271333012
1120.0 80.47594011705648
1150.0 80.1759337304604
1180.0 79.8065711521371
1220.0 79.51185724560578
1250.0 79.26101990026376
1280.0 79.1176317266113
1320.0 79.1116245689117
1360.0 79.1361289780074
1400.0 79.1659970681065
1450.0 79.19624846324463
1500.0 79.28995645622649
1550.0 79.32799535838333
1600.0 79.00665947781293
1650.0 78.43087702900966
1700.0 77.74670108056374
1750.0 77.21621749656137
1800.0 76.94405950923644
1850.0 76.84436178081134
1900.0 77.1030625151108
1950.0 77.58878036416418
2000.0 78.0748091212134
2060.0 78.32278203646297
2120.0 78.21004103498485
2180.0 77.9030074972466
2240.0 77.70577967152325
2300.0 77.72402240544159
2360.0 77.7254491246631
2400.0 77.67131288766241
2500.0 77.85149550361582
2580.0 77.95701570679772
2650.0 77.58905065800538
2720.0 77.01441107861982
2800.0 76.48986327398136
2900.0 76.07430146795443
3000.0 76.29241329177466
3070.0 76.92701324947605
3150.0 77.44569001607594
3250.0 77.87382417497405
3350.0 77.49338937840425
3450.0 76.79633837199718
3550.0 76.67790897705821
3650.0 77.08706686044955
3750.0 77.68735142229598
3870.0 77.98563585754145
4000.0 77.91859674046118
4120.0 77.75029934788914
4250.0 77.89715354379597
4370.0 78.1965074341223
4500.0 78.63352270403085
4620.0 78.82623343417067
4750.0 78.56042212811734
4870.0 78.46411225796676
5000.0 78.42166257615723
5150.0 77.84029147347489
5300.0 77.33743701910107
5450.0 76.7819684288609
5600.0 75.99937868915664
5800.0 75.61009331710073
6000.0 75.6670742161427
6150.0 75.79214889102123
6300.0 75.8338881647257
6500.0 75.22523344197978
6700.0 74.6960905607007
6900.0 74.87883085963281
7100.0 74.99330307499939
7300.0 74.69460988670937
7500.0 74.8160592494764
7750.0 75.00394613453885
8000.0 74.05339529253335
8250.0 74.0927541050164
8500.0 73.17785495314715
8750.0 70.99584421493779
9000.0 71.9164113799932
9250.0 73.78411985114441
9500.0 74.5758950885091
9750.0 74.09354793892027
10000.0 73.97727708630805
10300.0 72.85958565252982
10600.0 74.61066318753387
10900.0 72.81558117289457
11200.0 73.44904701368112
11500.0 73.05630538833522
11800.0 73.13581950253607
12200.0 73.07692084829016
12500.0 73.84445776658107
12800.0 73.63554573716344
13200.0 74.39901234943112
13600.0 73.62917824738183
14000.0 73.92505178818554
14500.0 72.34010203756388
15000.0 72.82006211304586
15500.0 72.13099072121862
16000.0 73.25350983998456
16500.0 71.70041619195864
17000.0 72.081655805345
17500.0 69.54973058065184
18000.0 66.77294270164637
18500.0 63.375299305419006
19000.0 62.95898163095396
19500.0 63.48065014240443
