Freq "On Axis"
22.4 56.29240506329113
23.0 55.89240506329115
23.6 55.492405063291145
24.0 55.09240506329114
25.0 54.69240506329113
25.8 54.29240506329113
26.5 53.992405063291145
27.2 53.69240506329113
28.0 53.59240506329114
29.0 53.59240506329114
30.0 53.79240506329113
30.7 54.29240506329113
31.5 54.89240506329115
32.5 55.79240506329113
33.5 56.69240506329113
34.5 57.69240506329113
35.5 58.79240506329113
36.5 59.89240506329115
37.5 60.79240506329113
38.7 61.79240506329113
40.0 62.79240506329113
41.2 63.792405063291156
42.5 64.59240506329114
43.7 65.39240506329114
45.0 66.09240506329114
46.2 66.79240506329114
47.5 67.59240506329114
48.7 68.29240506329114
50.0 68.99240506329114
51.5 69.69240506329113
53.0 70.39240506329114
54.5 71.09240506329114
56.0 71.69240506329113
58.0 72.39240506329115
60.0 73.09240506329114
61.5 73.59240506329114
63.0 74.09240506329114
65.0 74.69240506329113
67.0 75.19240506329113
69.0 75.69240506329113
71.0 76.19240506329113
73.0 76.69240506329113
75.0 77.09240506329114
77.5 77.69240506329113
80.0 78.09240506329114
82.5 78.69240506329113
85.0 79.49240506329114
87.5 80.09240506329114
90.0 80.89240506329114
92.5 81.59240506329114
95.0 82.29240506329114
97.5 82.69240506329113
100.0 83.29240506329114
103.0 83.89240506329112
106.0 84.59240506329114
109.0 85.19240506329113
112.0 85.79240506329114
115.0 86.39240506329112
118.0 86.79240506329114
122.0 87.19240506329113
125.0 87.49240506329114
128.0 87.59240506329114
132.0 87.79240506329113
136.0 87.99240506329114
140.0 88.09240506329114
145.0 88.09240506329114
150.0 87.99240506329114
155.0 87.89240506329114
160.0 87.79240506329113
165.0 87.69240506329113
170.0 87.69240506329113
175.0 87.59240506329114
180.0 87.59240506329114
185.0 87.59240506329114
190.0 87.69240506329113
195.0 87.69240506329113
200.0 87.69240506329113
206.0 87.69240506329113
212.0 87.69240506329113
218.0 87.69240506329113
224.0 87.69240506329113
230.0 87.79240506329113
236.0 87.79240506329113
240.0 87.89240506329114
250.0 87.89240506329114
258.0 87.89240506329114
265.0 87.89240506329114
272.0 87.89240506329114
280.0 87.79240506329113
290.0 87.79240506329113
300.0 87.79240506329113
307.0 87.69240506329113
315.0 87.49240506329114
325.0 87.09240506329114
335.0 86.39240506329112
345.0 85.49240506329114
355.0 84.09240506329114
365.0 82.59240506329114
375.0 81.99240506329114
387.0 82.49240506329114
400.0 83.89240506329112
412.0 86.09240506329114
425.0 87.59240506329114
437.0 88.39240506329114
450.0 88.69240506329113
462.0 88.79240506329116
475.0 88.49240506329114
487.0 87.89240506329114
500.0 87.19240506329113
515.0 86.09240506329114
530.0 84.79240506329114
545.0 83.39240506329114
560.0 82.69240506329113
580.0 83.09240506329114
600.0 84.89240506329115
615.0 86.89240506329114
630.0 88.29240506329114
650.0 89.29240506329114
670.0 89.69240506329113
690.0 89.59240506329114
710.0 89.09240506329114
730.0 88.29240506329114
750.0 87.29240506329114
775.0 86.29240506329116
800.0 85.49240506329114
825.0 84.79240506329114
850.0 84.49240506329114
875.0 84.49240506329114
900.0 84.89240506329115
925.0 85.49240506329114
950.0 86.19240506329113
975.0 86.89240506329114
1000.0 87.19240506329113
1030.0 87.19240506329113
1060.0 86.99240506329114
1090.0 86.69240506329113
1120.0 86.29240506329116
1150.0 85.79240506329114
1180.0 85.19240506329113
1220.0 84.69240506329113
1250.0 84.29240506329114
1280.0 84.09240506329114
1320.0 84.39240506329114
1360.0 84.89240506329115
1400.0 85.59240506329114
1450.0 86.29240506329116
1500.0 86.69240506329113
1550.0 86.79240506329114
1600.0 86.19240506329113
1650.0 85.29240506329113
1700.0 84.59240506329114
1750.0 84.39240506329114
1800.0 84.49240506329114
1850.0 84.39240506329114
1900.0 83.89240506329112
1950.0 83.59240506329114
2000.0 84.09240506329114
2060.0 84.69240506329113
2120.0 84.69240506329113
2180.0 84.19240506329113
2240.0 83.89240506329112
2300.0 83.99240506329114
2360.0 84.49240506329114
2400.0 84.99240506329114
2500.0 85.29240506329113
2580.0 85.59240506329114
2650.0 85.49240506329114
2720.0 84.99240506329114
2800.0 84.49240506329114
2900.0 83.89240506329112
3000.0 83.69240506329113
3070.0 83.89240506329112
3150.0 84.39240506329114
3250.0 85.09240506329114
3350.0 85.39240506329114
3450.0 85.19240506329113
3550.0 85.39240506329114
3650.0 86.09240506329114
3750.0 86.89240506329114
3870.0 87.19240506329113
4000.0 86.89240506329114
4120.0 86.19240506329113
4250.0 85.69240506329113
4370.0 85.89240506329114
4500.0 87.09240506329114
4620.0 88.09240506329114
4750.0 87.99240506329114
4870.0 87.49240506329114
5000.0 86.59240506329114
5150.0 85.59240506329114
5300.0 84.69240506329113
5450.0 84.09240506329114
5600.0 83.09240506329114
5800.0 82.39240506329115
6000.0 82.99240506329114
6150.0 83.99240506329114
6300.0 83.69240506329113
6500.0 81.39240506329112
6700.0 81.29240506329116
6900.0 83.09240506329114
7100.0 83.89240506329112
7300.0 82.99240506329114
7500.0 82.39240506329115
7750.0 81.39240506329112
8000.0 80.89240506329114
8250.0 83.49240506329114
8500.0 81.69240506329113
8750.0 75.19240506329113
9000.0 79.29240506329114
9250.0 81.89240506329114
9500.0 81.39240506329112
9750.0 81.59240506329114
10000.0 80.89240506329114
10300.0 81.29240506329116
10600.0 85.09240506329114
10900.0 81.29240506329116
11200.0 81.49240506329114
11500.0 76.99240506329114
11800.0 77.29240506329114
12200.0 78.89240506329112
12500.0 80.19240506329113
12800.0 79.09240506329114
13200.0 82.79240506329113
13600.0 81.19240506329113
14000.0 82.69240506329113
14500.0 78.39240506329114
15000.0 82.99240506329114
15500.0 80.09240506329114
16000.0 80.69240506329113
16500.0 78.29240506329114
17000.0 76.99240506329114
17500.0 79.19240506329113
18000.0 75.09240506329114
18500.0 70.49240506329114
19000.0 70.69240506329113
19500.0 72.89240506329114
