Freq "Sound Power DI"
22.4 38.70126902512823
23.0 38.65595254983228
23.6 38.7130980154038
24.0 38.641958842651434
25.0 38.72827816244779
25.8 38.79700726885392
26.5 39.01898717517088
27.2 39.1957503003095
28.0 39.496356942168575
29.0 39.80262671329578
30.0 40.06302934223589
30.7 40.379379896006014
31.5 40.692549118229806
32.5 41.046596557225314
33.5 41.25777910495739
34.5 41.545688422617644
35.5 41.774448128549864
36.5 42.00059532490107
37.5 42.227889584388606
38.7 42.41708870212412
40.0 42.57616884542364
41.2 42.73779876673474
42.5 42.804092885896495
43.7 42.8120690522626
45.0 42.68022034016073
46.2 42.52720241213524
47.5 42.29630222184599
48.7 42.0832010423638
50.0 41.91554364517506
51.5 41.73343836783462
53.0 41.64269718631793
54.5 41.52912647667124
56.0 41.397386994943915
58.0 41.29343698585312
60.0 41.38470003481817
61.5 41.420904029869064
63.0 41.44003435108186
65.0 41.446801597814996
67.0 41.45820986004135
69.0 41.4101818878611
71.0 41.400466499720025
73.0 41.369797823768124
75.0 41.33313612450337
77.5 41.34141357437693
80.0 41.30595970520697
82.5 41.31433613184433
85.0 41.36159899437939
87.5 41.387590048045084
90.0 41.38456276643964
92.5 41.40668296699741
95.0 41.45124319036556
97.5 41.46148086349773
100.0 41.503720069049834
103.0 41.552260965790836
106.0 41.58168377703785
109.0 41.57177398001507
112.0 41.581258824539475
115.0 41.55786626774879
118.0 41.52796105380027
122.0 41.54582681914211
125.0 41.560802174981376
128.0 41.5877044211196
132.0 41.63918716145271
136.0 41.70279313800327
140.0 41.776397884666096
145.0 41.86215491567667
150.0 41.97841401022174
155.0 42.11753354645775
160.0 42.28292454530572
165.0 42.43450172069704
170.0 42.608293494462686
175.0 42.770506840153274
180.0 42.94340991790163
185.0 43.033732197571084
190.0 43.18489728877509
195.0 43.30386902105775
200.0 43.368823563029835
206.0 43.48142140530575
212.0 43.57181949119925
218.0 43.63528530745215
224.0 43.753108833489605
230.0 43.852043451937206
236.0 44.003296235507634
240.0 44.12774453636834
250.0 44.28422091067148
258.0 44.42745600445048
265.0 44.570826157607414
272.0 44.74214379052363
280.0 44.88054823352515
290.0 45.02061166338599
300.0 45.13676192899861
307.0 45.19497028628709
315.0 45.21908843058
325.0 45.26961337649411
335.0 45.287534182142736
345.0 45.33885331020673
355.0 45.41058382313621
365.0 45.395859579542716
375.0 45.339525233775205
387.0 45.29097147553529
400.0 45.36651678853188
412.0 45.46128550431081
425.0 45.49967213807963
437.0 45.536832418655294
450.0 45.49710271413039
462.0 45.490361811605354
475.0 45.39331858879139
487.0 45.23246395979949
500.0 45.026256084106706
515.0 44.81898167258342
530.0 44.414008280385985
545.0 44.606192198829746
560.0 44.28449099453
580.0 43.89587687050785
600.0 44.52707122219542
615.0 45.08940670447879
630.0 45.48477755728254
650.0 45.80608820872553
670.0 46.11946259776113
690.0 46.39494895458668
710.0 46.59213472289005
730.0 46.84032950763408
750.0 47.006481181377936
775.0 47.043660332852184
800.0 47.04036203760981
825.0 47.102186223676625
850.0 46.79213926149292
875.0 46.70196424897853
900.0 46.76853974002651
925.0 47.207440221018885
950.0 47.666532155492604
975.0 48.08716106772441
1000.0 48.337823254480455
1030.0 48.45920816423789
1060.0 48.44351925847461
1090.0 48.35565240887432
1120.0 48.27317519157306
1150.0 48.16774332868064
1180.0 48.159509758538434
1220.0 48.1118857307157
1250.0 48.06483278602454
1280.0 48.07476261181388
1320.0 48.18551865505147
1360.0 48.50001636073334
1400.0 49.01404497618748
1450.0 49.51945471306112
1500.0 49.72295575005731
1550.0 49.579259058295136
1600.0 49.25999460147597
1650.0 49.0032422058202
1700.0 48.956669598143776
1750.0 49.23759740846137
1800.0 49.688974006133165
1850.0 49.59489650487038
1900.0 48.82118869247738
1950.0 48.19869194344659
2000.0 48.26790463357108
2060.0 48.5616158111951
2120.0 48.60377633789852
2180.0 48.48689459289703
2240.0 48.51911443620685
2300.0 48.7990617419523
2360.0 49.36150482301419
2400.0 49.796118140293956
2500.0 49.99035357943123
2580.0 50.19454940944759
2650.0 50.380389260160015
2720.0 50.36648475694612
2800.0 50.25373925028508
2900.0 50.076740370680355
3000.0 49.5440316002569
3070.0 48.953662549713144
3150.0 48.9416243886338
3250.0 49.39766040679359
3350.0 49.900446092776974
3450.0 50.326748202116065
3550.0 50.690301754514664
3650.0 50.95620942270908
3750.0 51.03033738867052
3870.0 50.912696162631846
4000.0 50.61269763985749
4120.0 50.28289242638924
4250.0 49.9375163912993
4370.0 50.15791652846505
4500.0 50.84041039786243
4620.0 51.32306322253778
4750.0 51.20235410546047
4870.0 50.627216390824316
5000.0 50.14081763857804
5150.0 50.38863595386046
5300.0 50.59378328883213
5450.0 50.51767508478822
5600.0 50.11834270297314
5800.0 49.77869784475462
6000.0 49.93472129130177
6150.0 50.53164899512855
6300.0 50.93641469697498
6500.0 50.33464326375602
6700.0 49.77450089937622
6900.0 50.333957312109135
7100.0 50.85019947781127
7300.0 50.53556226845589
7500.0 50.37879915525454
7750.0 50.04198533384941
8000.0 50.093128168635204
8250.0 51.1352462597159
8500.0 50.62300947116756
8750.0 49.05983421846537
9000.0 50.266847220389195
9250.0 50.3429083193553
9500.0 49.90870660592073
9750.0 50.11076899001054
10000.0 49.863860297290245
10300.0 50.62454630734325
10600.0 51.69719464189056
10900.0 50.582024819913755
11200.0 50.478098476024044
11500.0 48.66584342425135
11800.0 48.29513199254629
12200.0 49.92655568371505
12500.0 48.88787202765893
12800.0 48.39699328753676
13200.0 49.348294699159084
13600.0 49.286470721643
14000.0 49.76936463230416
14500.0 49.74200002571206
15000.0 51.449153781023725
15500.0 50.716226154927796
16000.0 49.87850383164901
16500.0 49.47564298731062
17000.0 49.21465620065578
17500.0 51.07161567496257
18000.0 50.903858720410256
18500.0 49.77572093339323
19000.0 50.44049616452011
19500.0 51.12946843709044
