Freq "Listening Window"
20.5078 59.4164230823186
21.9727 60.25750937546675
23.4375 60.50836656731673
24.9023 62.07448024588672
26.3672 63.190213846859564
27.832 64.42900671754212
29.2969 65.22615524419277
30.7617 66.09352043330311
32.2266 66.88881322226106
33.6914 67.51994321979669
35.1562 68.20365050505053
36.6211 68.9618623875417
38.0859 69.61735648856563
39.5508 70.28389071697558
41.0156 70.88634513855676
42.4805 71.51413040937302
43.9453 72.09239093359288
45.4102 72.68484988510849
46.875 73.31543857362624
48.3398 73.8483881359352
51.2695 74.8760042864408
52.7344 75.34115264247728
54.1992 75.78598316908818
55.6641 76.3000955965785
58.5938 77.2430168391461
60.0586 77.6308458076936
62.9883 78.41801094631344
64.4531 78.78120221821132
67.3828 79.49697774444792
68.8477 79.81539819372688
71.7773 80.3699002264478
74.707 81.10109152809429
77.6367 81.61652199797383
79.1016 81.84122794272994
82.0312 82.21378467187948
84.9609 82.70243697785307
87.8906 83.13517377658783
90.8203 83.62268140557002
95.2148 84.17709772250328
98.1445 84.61952007548501
101.074 84.94450210811907
105.469 85.1796598197936
108.398 85.36773718574051
112.793 85.5001959523778
117.188 85.44261729036782
120.117 85.63595380367042
124.512 85.91959685888546
128.906 85.83375736372291
133.301 85.75162466360497
139.16 85.61645784951622
143.555 85.59242606864476
147.949 85.93499602874613
153.809 86.03602305962436
159.668 85.68746207423374
165.527 85.66526367370913
171.387 85.63591936796283
177.246 85.64821023658442
183.105 85.69013364926326
188.965 85.8169998100174
196.289 85.7175547591517
203.613 85.8106914567553
210.938 85.73235077544354
218.262 85.95829716701213
225.586 85.50166180170183
232.91 85.5275163534748
241.699 85.80456859603098
250.488 87.1073658020729
259.277 86.09714350089529
268.066 86.11663751096086
276.855 85.72353439930107
287.109 85.23260114700079
297.363 85.40355903653821
307.617 84.84447071803672
319.336 85.45031165502046
329.59 85.27853353661486
341.309 85.02280316153497
353.027 85.08596901836172
366.211 85.44537271762657
379.395 85.68390690113254
392.578 86.47878498711816
405.762 86.01029740341849
420.41 86.19529059377717
435.059 84.84391856488114
451.172 84.26758890950335
465.82 85.57145019794064
483.398 85.93004228254459
499.512 85.91033670703814
517.09 85.00425104064087
536.133 85.4202943687483
555.176 85.97940262114034
574.219 85.3254951192525
594.727 85.50128006238666
615.234 86.16151265293975
637.207 86.62339255837227
659.18 87.03525690518624
682.617 86.17481446541913
707.52 86.17440854662549
732.422 86.26464923075424
757.324 86.95283180724857
785.156 86.66568163649616
811.523 86.08027883872134
840.82 86.61750283470542
870.117 86.88101604494754
900.879 85.43085054381672
933.105 84.9412839464504
965.332 85.32225734580301
1000.49 85.26171205386
1035.64 84.51164515834444
1072.27 85.27373014680886
1108.89 85.05546027079927
1148.44 84.36077286960543
1189.45 84.43987207497757
1230.47 84.8627495264683
1274.41 84.78526567353794
1319.82 85.5424782723462
1366.7 85.70786680077512
1413.57 85.98233873808272
1463.38 86.53239968185257
1516.11 85.858706998514
1568.85 85.8258694501305
1624.51 85.78041444968328
1681.64 86.38477651288669
1741.7 86.19563539484437
1803.22 86.25774868107592
1866.21 85.65773267551126
1932.13 85.7719885858093
1999.51 85.34002447999
2069.82 85.01364906567973
2143.07 84.12864264107148
2219.24 83.8107729725446
2296.88 84.84555916811331
2378.91 84.33586100924819
2462.4 83.68033464512258
2548.83 84.11021031591238
2639.65 85.13417567782406
2731.93 85.06355906717366
2828.61 84.81237465777991
2928.22 84.61189222064202
3030.76 84.94380127310274
3137.7 85.22251339993383
3249.02 84.60681168054009
3363.28 85.15648128865988
3481.93 84.95755723770807
3604.98 85.0090318293963
3732.42 85.14479927081632
3864.26 84.71883174124176
4000.49 85.34055427800534
4141.11 85.00189177150492
4287.6 84.72509144418447
4438.48 85.11317548413751
4595.21 84.51039862317916
4756.35 84.58056064899198
4924.8 84.33774735370162
5097.66 84.50186066955615
5277.83 84.34252281370057
5463.87 84.56170338600631
5657.23 84.35990911435532
5856.45 84.24385786914861
6062.99 84.3781587859362
6276.86 84.42585594393516
6498.05 84.25112650891293
6726.56 84.56173923188545
6963.87 84.39154103901629
7209.96 84.43917408704453
7464.84 84.12278377566376
7727.05 83.7168662001277
7999.51 83.82298281998987
8282.23 83.78548319218581
8573.73 84.22381116273046
8876.95 84.5653860086021
9188.96 84.26963298926232
9514.16 83.98572472031194
9849.61 83.79475875240448
10196.8 83.66931118049864
10555.7 83.48420332898137
10927.7 83.50758714790645
11313.0 83.67531003969412
11712.9 83.89470240462127
12126.0 84.00055771888162
12553.7 83.7614856525177
12996.1 83.12620113125618
13454.6 82.79606666510202
13929.2 83.46554006244418
14419.9 84.02125440599852
14928.2 84.18834135302922
15455.6 83.57343139980475
16000.5 82.74718281700517
16564.5 82.32777055175998
17148.9 81.98769538817693
17752.4 81.29620501991099
18379.4 80.44788748339899
19026.9 79.16790616407872
19697.8 78.55012358865206
19999.5 78.437409835665
