Freq "Side Wall Bounce"
20.1416 64.92053958028865
20.5078 66.52329611535471
21.2402 68.7455442981296
21.9727 70.29373071259762
22.7051 71.28037371751377
23.8037 73.54427000902209
24.5361 74.88742266707875
25.2686 75.65035503629358
26.3672 76.5700423293165
27.0996 77.06875338228514
28.1982 77.95271441334728
29.2969 78.8908612649482
30.0293 79.62948151773912
31.1279 80.19821392492753
32.2266 79.92905737978884
33.3252 80.34457548735794
34.79 81.13439911533877
35.8887 81.28788352735974
36.9873 81.67673615277504
38.4521 82.57292341198688
39.917 83.34405700947188
41.3818 83.59075407443315
42.8467 84.20514220782385
44.3115 84.84194669601041
45.7764 85.45650685598375
47.2412 85.92747796121212
49.0723 86.4126010937514
50.9033 86.78225089232377
52.7344 87.0444061320972
54.5654 87.18914537467742
56.3965 87.27838118114015
58.2275 87.55956941747263
60.4248 87.82019683280137
62.6221 87.83103957992287
64.8193 87.8645153470126
67.0166 87.92216333914652
69.2139 88.00180972921544
71.7773 88.06053685038829
74.3408 88.1074805287572
76.9043 88.0888345071422
79.834 88.0434592992813
82.3975 88.121203930696
85.3271 88.15309416224972
88.2568 88.2278730167514
91.5527 88.29821964283454
94.8486 88.1692475073463
98.1445 88.01645192698531
101.44 87.82783790921188
105.103 87.67709658841815
108.765 87.5185696264924
112.793 87.355477768905
116.455 87.27554253076896
120.85 87.0782712264392
124.878 86.96384092957027
129.272 86.83275781719584
134.033 86.71315569447566
138.794 86.75651426555756
143.555 87.01142423627597
148.682 87.07054248685998
153.809 87.22215549635379
159.302 87.47810928239134
164.795 87.77842215097759
170.654 88.02695163961879
176.88 88.21661366038121
183.105 88.25040899817151
189.331 87.9914197837744
196.289 87.67681477776989
202.881 87.29565719602171
210.205 86.8286932410524
217.529 86.37551829184488
225.22 86.11486213306307
233.276 85.89093556779153
241.333 85.69996138959041
250.122 85.76270483580726
258.911 85.82911603600745
268.066 85.34540517289295
277.222 85.26235216386648
287.109 85.64879409044316
297.363 85.82930481281906
307.617 86.15785387546677
318.604 87.1111019709254
329.956 87.51664860623066
341.675 87.51826940646367
353.394 87.47917643969517
365.845 87.95585448745794
379.028 87.98108064690035
392.212 87.59797033792091
406.128 87.50773680782089
420.41 86.99422233951222
435.425 85.35435037869223
450.806 85.4821223666678
466.553 88.33595582125204
483.032 87.73211025714153
499.878 86.81419242419501
517.456 86.15158698501574
535.767 86.08184532169003
554.81 85.94557791044348
574.219 86.18942594500942
594.727 86.2131130254133
615.601 86.7113103637128
637.207 86.43679587350171
659.912 86.599321842671
682.983 86.58307242532953
707.153 86.41235659727836
732.056 85.92932979022339
757.69 85.63453300630655
784.424 85.49139352322831
812.256 85.48633423794533
840.82 85.59438321527857
870.483 86.5617431476555
901.245 87.47452524713137
933.105 86.17189940984348
966.064 86.669559865139
1000.12 85.5122480927562
1035.28 85.76107960285245
1071.9 83.38076633253766
1109.62 84.08209527560362
1148.8 85.17318975480902
1189.09 86.50732758852962
1231.2 86.1530383898078
1274.41 85.73815946570969
1319.46 85.33157276051462
1365.97 85.31515947541276
1414.31 85.3113184783376
1464.11 86.22032217148669
1515.75 87.18080611710917
1569.21 86.93557425318457
1624.51 86.65028296997535
1681.64 86.49618759267497
1740.97 86.59216994510948
1802.49 86.21644118081045
1866.21 85.78054056679906
1931.76 86.25047367455687
1999.88 87.35981715287761
2070.56 86.65798415376986
2143.43 85.27922098476711
2219.24 84.99263790505282
2297.24 84.85629009571724
2378.54 83.62474606726047
2462.4 83.02929714792333
2549.19 83.47151703825519
2638.92 83.12033199366418
2731.93 83.51216589827517
2828.25 84.29440844116932
2928.22 84.08150515665017
3031.49 84.44662852447988
3138.43 84.34226668620437
3249.02 83.6688065775502
3363.65 84.16515361951234
3482.3 85.13694609809417
3604.98 85.69617777567815
3732.06 86.43226944233521
3863.89 86.47031065398198
4000.12 86.1128675157936
4141.11 86.49153611410308
4287.23 86.54839913542102
4438.11 87.07370315971902
4594.85 86.42254891030059
4756.71 87.7282920599155
4924.44 87.69326238647504
5098.39 88.21318347700192
5278.2 87.48192207485114
5464.23 88.4324453234299
5656.86 88.48675475359097
5856.45 88.4472732695528
6062.99 88.5767652215637
6276.86 88.25711658124135
6498.05 88.57096165084792
6727.29 89.1093426778649
6964.23 89.17478949851473
7209.96 89.11243187038721
7464.11 89.06351777922762
7727.42 88.97951220939726
7999.88 88.71642100287939
8282.23 88.40824160136751
8574.1 88.26290512821723
8876.59 87.8907255960264
9189.7 88.2525042534167
9513.79 89.30394201190614
9849.24 89.72336240115648
10196.4 90.24600036504808
10556.0 90.63063901470989
10928.5 90.73172043043019
11313.7 90.68508527625843
11712.5 91.39300457051868
12125.6 91.77833226193762
12553.3 91.38335584861395
12996.1 91.36094852100604
13454.2 90.79090933280014
13928.8 90.44786645719859
14419.9 89.3326983028007
14928.6 88.4324032182331
15454.8 87.26957725046732
16000.1 84.35223936229153
16564.1 82.10061976841203
17148.2 81.69764553917696
17753.2 82.11988614076213
18379.0 80.35667703630993
19027.2 78.41407569423033
19698.5 79.12121989304026
19999.9 79.87230726365254
