Freq "Total Early Reflection"
20.1416 64.18396284752315
20.5078 65.8026055481759
21.2402 68.01883332743608
21.9727 69.54955805041118
22.7051 70.53532251533841
23.8037 72.79931429862265
24.5361 74.14226802602201
25.2686 74.91004276151
26.3672 75.8264051356593
27.0996 76.33069157297953
28.1982 77.21779705502931
29.2969 78.14465624339476
30.0293 78.8822656564348
31.1279 79.45746965582202
32.2266 79.18894574994638
33.3252 79.61046387923864
34.79 80.406615806888
35.8887 80.5556378365456
36.9873 80.93857175772125
38.4521 81.83825351008547
39.917 82.61738692435702
41.3818 82.87091815694477
42.8467 83.48682448531736
44.3115 84.12590129193207
45.7764 84.72896439803428
47.2412 85.194669031975
49.0723 85.68941564792058
50.9033 86.06896899715588
52.7344 86.33042456465846
54.5654 86.4803690299669
56.3965 86.58342535630024
58.2275 86.85539047626175
60.4248 87.10545086750716
62.6221 87.11988033324069
64.8193 87.16054586837353
67.0166 87.21857346551855
69.2139 87.29979608310431
71.7773 87.36248287515718
74.3408 87.41527836938158
76.9043 87.40845941072851
79.834 87.3662466181064
82.3975 87.43583571922738
85.3271 87.48908581106018
88.2568 87.59904420495725
91.5527 87.63329912999056
94.8486 87.49800816859734
98.1445 87.36991419756347
101.44 87.15047030578688
105.103 87.03283394128505
108.765 86.88426550738157
112.793 86.73313768412991
116.455 86.65343957808429
120.85 86.45865011885667
124.878 86.33970294946276
129.272 86.22146644942964
134.033 86.11023286522286
138.794 86.20377425475355
143.555 86.45177745619225
148.682 86.52293799329856
153.809 86.70830767404051
159.302 86.98512905988731
164.795 87.29801471909293
170.654 87.54711759112375
176.88 87.74699790832169
183.105 87.79573670794537
189.331 87.52238282275813
196.289 87.19300177222641
202.881 86.80190774076927
210.205 86.3040740352842
217.529 85.86183859407595
225.22 85.62534490024605
233.276 85.25772762450877
241.333 84.95169740622649
250.122 84.97148642879019
258.911 84.84863691189527
268.066 84.1153956398472
277.222 84.03291928518904
287.109 84.19329137844218
297.363 84.53974128135714
307.617 84.49190568012864
318.604 84.83481138368325
329.956 85.16412984035092
341.675 85.60591502873878
353.394 85.23373437878149
365.845 85.31940149817069
379.028 85.2832831263806
392.212 84.72401368557776
406.128 84.95918724429147
420.41 84.3500604189397
435.425 83.30801642628012
450.806 83.54080524055199
466.553 85.36024768038338
483.032 84.86362914526305
499.878 84.34865868546026
517.456 83.56293718192859
535.767 83.59523810961117
554.81 83.62626989847129
574.219 83.73538548017464
594.727 83.82434232920987
615.601 84.58311602426457
637.207 84.13632094123236
659.912 83.77315453879301
682.983 84.46344580715495
707.153 83.9754047085436
732.056 83.73727276823044
757.69 83.57093443594525
784.424 83.47835744929986
812.256 83.2383177646204
840.82 83.58689589212811
870.483 85.12197640375834
901.245 85.0601775835832
933.105 84.43200397435808
966.064 84.1697355683747
1000.12 83.84864429668161
1035.28 83.59818145553396
1071.9 82.88011463262102
1109.62 83.12232596221317
1148.8 84.57817784939553
1189.09 84.76329037151257
1231.2 84.62527088893867
1274.41 84.23930613383045
1319.46 83.8147369049212
1365.97 83.63397255013915
1414.31 83.95433398321437
1464.11 84.14803817374847
1515.75 84.80108444847426
1569.21 84.5782376454067
1624.51 83.96500938700245
1681.64 83.9223696095389
1740.97 84.22265794613264
1802.49 83.22789088370908
1866.21 82.36113754141246
1931.76 82.72500487302601
1999.88 83.86732980801655
2070.56 83.89883204592928
2143.43 84.0082388931734
2219.24 84.55148078697117
2297.24 85.11316549279113
2378.54 84.88973934442491
2462.4 84.64475001079708
2549.19 84.45894654145259
2638.92 83.73444678024443
2731.93 84.07407508046313
2828.25 84.44176415283252
2928.22 84.19961637564808
3031.49 84.48690661208114
3138.43 84.36563419948638
3249.02 83.79717323581632
3363.65 83.82687046355542
3482.3 84.05619126962614
3604.98 83.83445757329442
3732.06 84.09403003836036
3863.89 83.8855227126927
4000.12 83.4351452713095
4141.11 83.3719078454013
4287.23 82.90840385141146
4438.11 82.99243483214947
4594.85 82.83054706024984
4756.71 84.2566898357385
4924.44 84.02154791519561
5098.39 84.55492779707053
5278.2 84.19667428702388
5464.23 84.50458063904776
5656.86 84.47185801773088
5856.45 84.70357467476015
6062.99 84.7137456002923
6276.86 84.3022225609657
6498.05 84.51387660678193
6727.29 84.68067022757857
6964.23 84.66640733552555
7209.96 84.86134698399144
7464.11 85.31066155912295
7727.42 85.3527502910407
7999.88 85.02471057869593
8282.23 85.02676796982591
8574.1 85.05674184889801
8876.59 84.77901398014022
9189.7 85.06769852179725
9513.79 85.44473609498311
9849.24 85.63796334998051
10196.4 85.6142226921661
10556.0 85.54885172905468
10928.5 85.16073259860468
11313.7 85.11786148823983
11712.5 86.22617653846157
12125.6 86.98224330870111
12553.3 87.02134707176991
12996.1 86.97637819226439
13454.2 87.01549254288636
13928.8 86.67157819647201
14419.9 85.88612425120013
14928.6 85.02005727918299
15454.8 83.44197424499694
16000.1 81.36888182376545
16564.1 78.25440007708394
17148.2 76.38648951344629
17753.2 76.07492996788156
18379.0 75.21637322588954
19027.2 74.92877264055832
19698.5 76.12070179106172
19999.9 76.68806237404236
