Freq "Estimated In-Room Response"
22.4 27.20093858140517
23.0 28.006581535816295
23.6 28.821458801291115
24.0 29.60658153581629
25.0 30.39504655816738
25.8 31.11180335820417
26.5 31.76829405900311
27.2 32.39504655816735
28.0 33.01273508398036
29.0 33.68760816205621
30.0 34.41273508398034
30.7 35.266599637769886
31.5 36.266599637769886
32.5 37.425612054388935
33.5 38.7258766245521
34.5 40.10967698318218
35.5 41.51874941642295
36.5 42.93051343606821
37.5 44.3006616047323
38.7 45.53693482548532
40.0 46.629186219783534
41.2 47.55775688509219
42.5 48.31180335820416
43.7 48.95709411137251
45.0 49.51395220455838
46.2 50.04268206982253
47.5 50.57870336686193
48.7 51.13761457925747
50.0 51.81273508398034
51.5 52.60093858140516
53.0 53.50066160473229
54.5 54.50967698318216
56.0 55.612735083980354
58.0 56.81273508398034
60.0 58.10066160473231
61.5 59.464943802290364
63.0 60.90066160473232
65.0 62.39504655816738
67.0 63.88540144104333
69.0 65.39326408575107
71.0 66.82108728327601
73.0 68.18968929849255
75.0 69.42108728327602
77.5 70.50544438045591
80.0 71.40093858140516
82.5 72.07188976198135
85.0 72.56335334454292
87.5 72.86129113248919
90.0 73.03578208472454
92.5 73.08936194519309
95.0 73.06412599112177
97.5 72.98356357435304
100.0 72.8823279646007
103.0 72.76746425958615
106.0 72.66732245195813
109.0 72.56437983214754
112.0 72.48608381792012
115.0 72.40736378724067
118.0 72.32783990344012
122.0 72.28298031752071
125.0 72.22666601051107
128.0 72.20023425444671
132.0 72.17720412757423
136.0 72.17620986153675
140.0 72.19106874986176
145.0 72.2076129927854
150.0 72.24202763346432
155.0 72.2979403689081
160.0 72.3488974016449
165.0 72.41351469168515
170.0 72.48844479757771
175.0 72.56366485012477
180.0 72.63876663111284
185.0 72.70222472014005
190.0 72.73680471476624
195.0 72.77738434656733
200.0 72.78358578832083
206.0 72.75785981192904
212.0 72.71700193625726
218.0 72.63537002351207
224.0 72.52916567373326
230.0 72.40216271213102
236.0 72.24199192326316
240.0 72.07382588068894
250.0 71.87030896392831
258.0 71.64375296712736
265.0 71.41874739465905
272.0 71.20279838095202
280.0 70.99580798733923
290.0 70.8408524942537
300.0 70.73973874046624
307.0 70.69814124543151
315.0 70.73754341517666
325.0 70.86377466032117
335.0 71.06046480259741
345.0 71.31514512646645
355.0 71.60100650490035
365.0 71.86549494247491
375.0 72.12647035511726
387.0 72.36038553422905
400.0 72.51821199849682
412.0 72.58776822625634
425.0 72.60226938290363
437.0 72.52481073380352
450.0 72.3870759837248
462.0 72.18862593246868
475.0 71.90836708727237
487.0 71.59523312807806
500.0 71.21977679678467
515.0 70.81513990169157
530.0 70.37725701578553
545.0 69.95625051618687
560.0 69.55229071286405
580.0 69.19158253032828
600.0 68.8730659318799
615.0 68.62026305726174
630.0 68.45408524709053
650.0 68.37835778090304
670.0 68.38311965164642
690.0 68.44500557677982
710.0 68.55637024937512
730.0 68.70475993982181
750.0 68.89720579502286
775.0 69.08251578862281
800.0 69.28297162092385
825.0 69.4320840984402
850.0 69.56121614678813
875.0 69.6484507702266
900.0 69.71015731212476
925.0 69.73099411579479
950.0 69.74113759457404
975.0 69.70666023408735
1000.0 69.67149969017684
1030.0 69.57987080428603
1060.0 69.50964230074236
1090.0 69.39780765073417
1120.0 69.2746566132147
1150.0 69.1306286661303
1180.0 68.9726458888389
1220.0 68.81156282349387
1250.0 68.60506709519346
1280.0 68.42240230984153
1320.0 68.2182161197672
1360.0 68.01136697713035
1400.0 67.83378596558373
1450.0 67.63997874712904
1500.0 67.4367281763797
1550.0 67.24998017330641
1600.0 67.01793951794556
1650.0 66.77419745430262
1700.0 66.49316613231866
1750.0 66.20351688311877
1800.0 65.91265932265587
1850.0 65.64237125369047
1900.0 65.38942030042703
1950.0 65.19707002050197
2000.0 65.03231218865135
2060.0 64.93915367748043
2120.0 64.89577663801798
2180.0 64.91568672663333
2240.0 64.94364320978596
2300.0 65.002653293131
2360.0 65.05368717436131
2400.0 65.07310307221658
2500.0 65.05267976702548
2580.0 64.97147564379142
2650.0 64.86677753496872
2720.0 64.75294887376393
2800.0 64.6475212538764
2900.0 64.54717813248375
3000.0 64.47736167855855
3070.0 64.38720193243769
3150.0 64.37060047207723
3250.0 64.32480104056536
3350.0 64.33305445115485
3450.0 64.33613133469915
3550.0 64.36725189120949
3650.0 64.43328523434367
3750.0 64.5228075560617
3870.0 64.63827211364257
4000.0 64.77807235434304
4120.0 64.92433256684491
4250.0 65.02047791511762
4370.0 65.1616719629064
4500.0 65.2621778949822
4620.0 65.38690716649981
4750.0 65.52192382291665
4870.0 65.64017935827603
5000.0 65.80792921441282
5150.0 65.95642258169632
5300.0 66.11812406385738
5450.0 66.23678641319563
5600.0 66.35124902086072
5800.0 66.46199521950145
6000.0 66.51635635945902
6150.0 66.54595016629402
6300.0 66.5299154105618
6500.0 66.4494815231383
6700.0 66.35457427220256
6900.0 66.19225837155346
7100.0 66.01239006662576
7300.0 65.81325164986156
7500.0 65.60019423506594
7750.0 65.3659567078894
8000.0 65.1236394890142
8250.0 64.91381281282897
8500.0 64.70190163183474
8750.0 64.51919691809806
9000.0 64.33164838656585
9250.0 64.15453331327106
9500.0 64.02042935502223
9750.0 63.880288571463524
10000.0 63.78495957943093
10300.0 63.69468368917704
10600.0 63.646006547948986
10900.0 63.63716393686545
11200.0 63.647031983234925
11500.0 63.70067461033635
11800.0 63.79416942260413
12200.0 63.91146062780793
12500.0 64.08591320553343
12800.0 64.31980534731748
13200.0 64.5353062392493
13600.0 64.81877285072007
14000.0 65.03211988083658
14500.0 65.21881994789653
15000.0 65.31939236506935
15500.0 65.33390157021209
16000.0 65.24170871195038
16500.0 65.03325213107865
17000.0 64.71095664774572
17500.0 64.31079985507807
18000.0 63.81090034226186
18500.0 63.26804290127269
19000.0 62.73339014894438
19500.0 62.20833581219024
