Freq "Estimated In-Room Response"
20.5078 35.3930774538328
21.9727 45.67645411655968
23.4375 47.6294931632375
24.9023 50.583824935759424
26.3672 52.56278993236717
27.832 54.77232260334105
29.2969 57.06881141848072
30.7617 58.958055995822065
32.2266 60.56316643559575
33.6914 62.31472403440458
35.1562 63.78341342821179
36.6211 65.48333650272002
38.0859 66.82340826853047
39.5508 68.17447000047032
41.0156 69.22622986509285
42.4805 70.35610050423264
43.9453 71.56289658836067
45.4102 72.66914116408745
46.875 73.73075363540165
48.3398 74.72905218663685
51.2695 76.37003305308659
52.7344 77.1257264500895
54.1992 77.79341245433821
55.6641 78.40243805886968
58.5938 79.42016546576488
60.0586 79.82726739396058
62.9883 80.55005630081428
64.4531 80.7914969784114
67.3828 81.19660523941106
68.8477 81.33957351913222
71.7773 81.77646335641762
74.707 82.14319767402478
77.6367 82.34426776003316
79.1016 82.50361290930391
82.0312 82.78437997183647
84.9609 82.74765382908384
87.8906 83.03678897156271
90.8203 83.43605952527491
95.2148 83.6564844305212
98.1445 83.85839319605955
101.074 84.00428679163173
105.469 84.17970584909172
108.398 84.30799587068898
112.793 84.777999503378
117.188 84.9537649585443
120.117 85.29035747827903
124.512 85.48156971117666
128.906 85.55874099270702
133.301 85.7316139467811
139.16 85.85051471083995
143.555 85.98166222576035
147.949 86.09115701614905
153.809 86.22146629875054
159.668 86.42287306033852
165.527 86.64473619568997
171.387 86.63734420249173
177.246 86.67678401794099
183.105 86.59987208295038
188.965 86.66964209607853
196.289 86.85871187317647
203.613 86.78453510313273
210.938 86.74599543693438
218.262 86.64617662447321
225.586 86.60770692008812
232.91 86.53256813165095
241.699 86.40530115417066
250.488 85.9669187131013
259.277 86.32249490619748
268.066 85.78750151042857
276.855 85.66989099741775
287.109 86.26592450404837
297.363 86.07632122049677
307.617 86.16192338798706
319.336 85.948010216739
329.59 86.04742656620273
341.309 85.87706133901968
353.027 85.76305775212775
366.211 85.72834572292655
379.395 86.03564557158967
392.578 85.69427691897822
405.762 85.30081699765937
420.41 85.74462445325317
435.059 85.51277172750011
451.172 85.45495255709803
465.82 85.43878441875583
483.398 85.39283220758867
499.512 85.22661971823976
517.09 85.5147945954193
536.133 84.73034560287923
555.176 85.11312622076812
574.219 85.18717296676036
594.727 84.67110334765704
615.234 84.74831996650639
637.207 84.7923330210829
659.18 84.49990077270684
682.617 84.54617889457283
707.52 84.62844856792043
732.422 84.51178620924814
757.324 84.76016586003048
785.156 84.82629951912644
811.523 84.58398119827893
840.82 84.80334457831208
870.117 84.35396814615116
900.879 84.23357984988587
933.105 83.44568992407638
965.332 82.5370747744657
1000.49 83.62645970866816
1035.64 85.56448962406955
1072.27 84.91848036954535
1108.89 85.08089553389777
1148.44 85.68976756150073
1189.45 85.10715546076261
1230.47 84.70443747483986
1274.41 83.7992311238267
1319.82 83.04107227158583
1366.7 82.29914375872369
1413.57 81.28117024724443
1463.38 80.89426547904475
1516.11 82.54119902306351
1568.85 82.00233134387561
1624.51 81.04754261821682
1681.64 80.32106496552571
1741.7 82.29902543010903
1803.22 81.1996665147123
1866.21 80.52671791331056
1932.13 79.82143679662484
1999.51 78.95892374698875
2069.82 79.12841255065295
2143.07 79.49100528332055
2219.24 79.96720522950277
2296.88 79.61656323769118
2378.91 78.83530539680427
2462.4 78.99707348460839
2548.83 79.190068037137
2639.65 78.62005964329045
2731.93 77.95304671435117
2828.61 77.58192161718648
2928.22 77.41271091167735
3030.76 78.23866641853905
3137.7 79.12865585549505
3249.02 79.83886110974836
3363.28 80.17849894733602
3481.93 80.44139491657066
3604.98 81.22201422495289
3732.42 81.52057797426552
3864.26 81.34839362528459
4000.49 81.97034123062538
4141.11 82.10895803757678
4287.6 82.11839414831965
4438.48 81.8502531684846
4595.21 82.39530214884718
4756.35 81.93703548033929
4924.8 82.11034937431343
5097.66 82.32417890428123
5277.83 82.39909344910012
5463.87 81.831015883162
5657.23 82.01853508864451
5856.45 81.79206612702971
6062.99 81.78911243138332
6276.86 81.70097331055109
6498.05 81.60316775910574
6726.56 81.71316131995162
6963.87 81.18453678088999
7209.96 81.44877961129949
7464.84 80.62406316615841
7727.05 80.5098001343746
7999.51 80.13223313738372
8282.23 80.00051473979745
8573.73 80.5403063818995
8876.95 81.98554689137256
9188.96 82.6570362090083
9514.16 82.58716563897538
9849.61 82.63510893497954
10196.8 82.42505418388714
10555.7 82.03200063069987
10927.7 81.7141427880114
11313.0 81.38830321022309
11712.9 80.73756416812218
12126.0 80.36042749084868
12553.7 80.91322030644133
12996.1 81.40830203387898
13454.6 81.09359812937618
13929.2 80.62091362218757
14419.9 80.1890414715948
14928.2 80.19594520218075
15455.6 80.67506031249239
16000.5 80.69474505760977
16564.5 79.9933293646756
17148.9 78.96632075763841
17752.4 77.16615324375621
18379.4 75.73063354620338
19026.9 75.5846408785674
19697.8 75.02894001473437
19999.5 74.59481696535649
