Freq "Sound Power"
22.4 16.236796339622444
23.0 17.604031247036843
23.6 18.978072660223077
24.0 20.335995596112454
25.0 21.727915662397933
25.8 23.129111723798175
26.5 24.517572178984707
27.2 25.919110150677838
28.0 27.328384287744754
29.0 28.736766732912614
30.0 30.139883150306687
30.7 31.535771221942625
31.5 32.92553806808384
32.5 34.33553374184861
33.5 35.71864828933393
34.5 37.08313297461031
35.5 38.52521423694175
36.5 40.04797074153821
37.5 41.73404114121182
38.7 43.63064478256872
40.0 45.19438038559851
41.2 46.60263886181703
42.5 47.84817967360513
43.7 49.04992616545043
45.0 50.06996105659441
46.2 51.58319416816467
47.5 52.863115600385385
48.7 53.994752498635975
50.0 55.11229671921565
51.5 56.27842568317463
53.0 57.49260892041707
54.5 58.55930163890132
56.0 59.60228740145725
58.0 60.7869003317369
60.0 61.71171821039685
61.5 62.6753292532793
63.0 63.62412857488658
65.0 64.635209172375
67.0 65.46517106062102
69.0 66.30483718790532
71.0 67.22525060001249
73.0 67.88573830664994
75.0 68.5999332037563
77.5 69.30161103444424
80.0 69.7874771453433
82.5 70.30390911708879
85.0 70.74020155782546
87.5 71.05658593856094
90.0 71.38596115649655
92.5 71.61411450545039
95.0 71.7738449733036
97.5 71.91626278533934
100.0 71.95671178667426
103.0 71.96522583228803
106.0 71.91753108161447
109.0 71.808096492664
112.0 71.67521643681017
115.0 71.47181236241703
118.0 71.24466698534829
122.0 71.01465420784461
125.0 70.77855722860005
128.0 70.54275376756078
132.0 70.32593731659776
136.0 70.11316642406466
140.0 69.9156700056822
145.0 69.72026250632801
150.0 69.50688650983038
155.0 69.32928418299211
160.0 69.13883312543693
165.0 68.95011264624502
170.0 68.70611712370918
175.0 68.40300829803641
180.0 68.03425273229689
185.0 67.61274326674399
190.0 67.19108054954606
195.0 66.8298322391286
200.0 66.58179763823075
206.0 66.42233832255077
212.0 66.38615885051674
218.0 66.49644663088897
224.0 66.70569465063785
230.0 66.97654384640937
236.0 67.22432963551809
240.0 67.40239554527092
250.0 67.48848830109492
258.0 67.44341486687865
265.0 67.24625233033359
272.0 66.94071074096493
280.0 66.53599872473374
290.0 66.13993008163551
300.0 65.85392909565167
307.0 65.74504742735796
315.0 65.80970471976148
325.0 65.97276769740272
335.0 66.09385254030975
345.0 66.1081514166627
355.0 65.99634622994725
365.0 65.7812725118621
375.0 65.50136465272868
387.0 65.24053459245006
400.0 65.01523883229996
412.0 64.80956592286084
425.0 64.52608340449277
437.0 64.1832967869725
450.0 63.855121250795705
462.0 63.66665056773529
475.0 63.70289824238026
487.0 63.85932730212207
500.0 63.95481370334157
515.0 63.83915813131263
530.0 63.496681050806004
545.0 63.04784524171578
560.0 62.65254869180376
580.0 62.57991790684686
600.0 62.895041058490634
615.0 63.324774252890805
630.0 63.54939020812185
650.0 63.50201529871261
670.0 63.24134567617466
690.0 62.77751421641777
710.0 62.19279119138925
730.0 61.6181731977895
750.0 61.248615818138916
775.0 61.04170968786275
800.0 60.851929650792854
825.0 60.763290604159195
850.0 60.932683819687455
875.0 61.21298649335735
900.0 61.74893494775657
925.0 62.23191141231602
950.0 62.381546392940635
975.0 62.26570803138951
1000.0 61.8908143705431
1030.0 61.692713710380005
1060.0 61.93296161540482
1090.0 61.785036352837636
1120.0 61.31515935439337
1150.0 61.24990508392251
1180.0 61.172608435372766
1220.0 60.877030632754824
1250.0 60.50604584259344
1280.0 59.92456266153077
1320.0 58.89624363132258
1360.0 57.73966173537967
1400.0 57.42222537370891
1450.0 57.26071962807772
1500.0 56.80390102043545
1550.0 56.88166141372234
1600.0 57.336074984727546
1650.0 57.6023090035156
1700.0 57.58513124140477
1750.0 57.22857495773711
1800.0 56.92387854889448
1850.0 56.211980568994974
1900.0 55.48640829223977
1950.0 55.526750379465014
2000.0 55.685064043756185
2060.0 55.607225109867656
2120.0 55.54574340525129
2180.0 55.474815534883916
2240.0 56.05747150194445
2300.0 57.07333889425773
2360.0 58.34468932682714
2400.0 59.588986588258436
2500.0 59.53552803239833
2580.0 59.25117600702261
2650.0 59.292204790576434
2720.0 59.23072467884258
2800.0 58.993706564943025
2900.0 59.68558395067241
3000.0 59.7256719474822
3070.0 59.54052120077979
3150.0 59.45618074972195
3250.0 59.20420936024858
3350.0 58.64117429905886
3450.0 58.25536795183024
3550.0 58.09497875918906
3650.0 58.060431119267776
3750.0 58.50199910982265
3870.0 59.57528619699441
4000.0 59.1990395732863
4120.0 58.55350193599456
4250.0 58.207806342504995
4370.0 58.09314086906434
4500.0 57.766244356670526
4620.0 57.30341240035011
4750.0 57.67036491112448
4870.0 58.08731551729322
5000.0 58.603732137814106
5150.0 59.270266703161596
5300.0 59.51875085681375
5450.0 59.75075718109625
5600.0 59.971678132560925
5800.0 59.69435030191579
6000.0 59.98363239287943
6150.0 59.93369403361142
6300.0 60.10671565978181
6500.0 60.38490594032565
6700.0 58.03086853475254
6900.0 56.88676252360919
7100.0 57.57956916977146
7300.0 59.102030561179205
7500.0 61.439681109350275
7750.0 61.084789373051734
8000.0 59.780261612395776
8250.0 59.551591702563954
8500.0 59.33801496374379
8750.0 60.797118862292564
9000.0 61.28016540876668
9250.0 59.08627960321385
9500.0 57.851447234860956
9750.0 59.15420729684236
10000.0 61.102373341778176
10300.0 61.10658333266129
10600.0 63.28779227628951
10900.0 62.60129242751127
11200.0 60.72127598247371
11500.0 61.01669978991764
11800.0 60.1240862267356
12200.0 57.658934737846465
12500.0 61.09657195649366
12800.0 63.366494371270946
13200.0 56.5860572145134
13600.0 63.22165140069555
14000.0 58.83874857457076
14500.0 54.133783911295396
15000.0 61.42796193277029
15500.0 62.23318611616939
16000.0 60.91851643929613
16500.0 58.37143688044708
17000.0 58.09742769706541
17500.0 55.53774947749727
18000.0 60.59152758492171
18500.0 59.02752205682208
19000.0 59.126853793410945
19500.0 57.50787487773202
