Freq,Floor Bounce,Ceiling Bounce,Front Wall Bounce,Side Wall Bounce,Rear Wall Bounce,Total Early Reflection
22.4,45.84044167945491,31.273254362031352,42.40639295083268,37.493215810641075,33.276390232820475,41.13006422419413
23.0,47.140441679454895,32.724252940998056,43.74394962648479,38.93503424953944,34.77408519029494,42.46235139893089
23.6,48.474493510304384,34.19313025812913,45.10639295083267,40.39158647321098,36.30294118895743,43.824687819884545
24.0,49.74044167945489,35.611743661839554,46.47312972576576,41.80435798211421,37.792912938013146,45.14278258903293
25.0,51.0404416794549,37.02045201940025,47.793203290934756,43.22388723998624,39.292912938013146,46.46939237882138
25.8,52.340441679454884,38.48017536225835,49.113648828919864,44.63517954153535,40.801533045326934,47.797422728597795
26.5,53.640441679454895,39.94224702149948,50.46060083446913,46.0454598824558,42.262714151833435,49.131283261594334
27.2,54.940441679454906,41.31820761005416,51.78120006971834,47.45866776019706,43.74220632930043,50.45746917265548
28.0,56.20531806766469,42.73031973423251,53.13163961991678,48.882572302037445,45.23007412611189,51.7751066102024
29.0,57.47150800786936,44.20782715355445,54.431639619916766,50.26244077552211,46.692837189031124,53.076571814446496
30.0,58.77150800786937,45.58623761145877,55.75285819554459,51.662440775522114,48.160759850061496,54.4028148469648
30.7,60.036635756671856,47.07577144153164,57.131639619916754,53.08712744401372,49.65166183203003,55.73323203980685
31.5,61.33663575667187,48.500266915425996,58.45285819554458,54.512244704412225,51.15166183203003,57.0663120650223
32.5,62.63663575667185,49.91505453119957,59.8041133471978,55.94365122082759,52.59085892046109,58.405626752579636
33.5,64.0030695710425,51.41505453119957,61.204113347197776,57.39370936434078,54.1206696334949,59.80339525725786
34.5,65.33663575667187,52.94047078004995,62.57306189882415,58.869281275813464,55.6206696334949,61.17800816063489
35.5,66.56845083805435,54.340470780049955,63.89506756962284,60.25151818716016,57.06064108439729,62.469538946112934
36.5,67.73663575667187,55.66632597758202,65.06535641678131,61.49042468662999,58.37020737298376,63.66002072722337
37.5,68.8022846139602,56.876343372043024,66.21747098033431,62.67796869651012,59.599943664419655,64.77903640117718
38.7,69.9022846139602,58.21274735416664,67.34027721773568,63.92909885938853,60.892416386760246,65.92395259458748
40.0,71.06845083805432,59.460215210312995,68.54027721773566,65.14914943244118,62.17197282902909,67.11629602309706
41.2,72.16845083805434,60.77096325109012,69.64027721773567,66.37622885735125,63.40282813501274,68.24849268304743
42.5,73.23435140868503,62.01987670385897,70.7932152293177,67.57622885735121,64.63212323617033,69.37350815115501
43.7,74.16845083805433,63.169883500368016,71.8101875464817,68.60376534963295,65.75278206276626,70.36387249555831
45.0,75.20076749445562,64.32100182927415,72.8634913579839,69.71650114608268,66.8807044203865,71.42407694363659
46.2,76.13435140868502,65.47324980289027,73.8335626485409,70.77577154074577,67.96353358841516,72.40423852093534
47.5,77.06845083805433,66.53966428643984,74.78711846362178,71.78858957348139,69.01319700859315,73.3684450829114
48.7,77.93435140868502,67.5946681446287,75.68711846362177,72.7447120480323,70.01319700859314,74.27434076028533
50.0,78.80076749445563,68.66506011325957,76.58711846362178,73.68858957348138,70.98278710874992,75.17772490989869
51.5,79.60076749445561,69.67953643779559,77.44056405495338,74.61698177402918,71.92117833430855,76.03128854304977
53.0,80.40076749445561,70.68206819773609,78.31116358052084,75.51698177402916,72.85359321350917,76.88529494295209
54.5,81.2007674944556,71.65840416724977,79.14056405495337,76.41698177402917,73.7643427337192,77.72555901476855
56.0,82.0669218511605,72.72057765478031,80.04056405495338,77.34584442950309,74.74649332354623,78.62966903323378
58.0,82.86692185116051,73.78405461574941,80.86486758736102,78.24584442950311,75.64649332354624,79.47345611141208
60.0,83.53435140868503,74.64885135917305,81.56486758736104,78.97926996034222,76.44485083436967,80.18163660996943
61.5,84.13435140868502,75.51498382011471,82.26486758736102,79.69502156399737,77.1654221601995,80.85236255237676
63.0,84.83435140868504,76.40146480937388,82.96486758736101,80.4593582852507,77.9654221601995,81.5819986087716
65.0,85.63435140868503,77.47089600007291,83.8191435620372,81.39502156399736,78.89562867349004,82.44618358312931
67.0,86.43435140868503,78.54171952330977,84.68959722327554,82.3086942430678,79.86924028927473,83.31659555221934
69.0,87.33435140868504,79.71394942912606,85.64413418390315,83.26209550311212,80.85850289949667,84.26675167457516
71.0,88.23435140868503,80.88759923684219,86.57331304733172,84.26209550311212,81.85850289949667,85.2195555928707
73.0,89.13435140868502,82.04066681957173,87.54413418390314,85.23859894021318,82.87784603883325,86.18138157634068
75.0,89.96845083805432,83.21655819177171,88.49856801893188,86.23859894021318,83.89876405047976,87.120085484839
77.5,90.96845083805432,84.49389595883675,89.52805359620257,87.36898851802917,85.02372714761755,88.18473092600769
80.0,91.76845083805432,85.64090753602632,90.46955890952815,88.32634308817582,86.02372714761755,89.0996081510203
82.5,92.3022846139602,86.49664781293231,91.05357235970978,88.96898851802916,86.6766683255001,89.70712451966854
85.0,92.66845083805433,87.17757950460712,91.52426011337566,89.44265817057054,87.22687005709793,90.16932240937378
87.5,92.83663575667187,87.73469773360898,91.85357235970979,89.84265817057054,87.57097723914868,90.47939892012461
90.0,92.80306957104251,88.05999961744989,91.87953122614621,89.91959460544717,87.6807428607515,90.53537210583234
92.5,92.77150800786939,88.41792789764851,91.97953122614621,90.05714752724947,87.85341938925646,90.63588324688747
95.0,92.70690501035459,88.7026545034034,92.03470304047653,90.17372413812488,87.96322452703754,90.6973254811215
97.5,92.54044167945491,88.96194867563764,92.03470304047653,90.20822398724904,88.02633752470523,90.69211525902405
100.0,92.4760917544922,89.28888547155003,92.09044363353324,90.32498802844181,88.116448656567,90.76387815470879
103.0,92.2457671943847,89.48888547155003,92.03470304047653,90.32498802844181,88.11035446921926,90.71045556694547
106.0,92.01227178315618,89.67662798253905,91.99044363353322,90.23987465325563,88.08448459369374,90.64395955905994
109.0,91.78219967332303,89.9096325668162,91.9193140378802,90.23987465325563,88.04168303957822,90.59663874118249
112.0,91.45260953202218,90.03752777300028,91.84608542591296,90.19958940970146,87.99592036904092,90.50224161086253
115.0,91.08982856673471,90.17082970284298,91.74608542591297,90.13987465325563,87.87078441995915,90.38654729018425
118.0,90.89897445130926,90.39897445130926,91.74608542591297,90.13987465325563,87.87030189949971,90.38716288985133
122.0,90.77082970284299,90.69897445130925,91.84608542591296,90.23987465325563,87.94324092833558,90.47515999701913
125.0,90.60963256681619,90.89897445130926,91.84608542591296,90.25690409354567,87.93361498936254,90.48652635490043
128.0,90.34898359150841,91.12758719283592,91.90229476693692,90.25690409354567,87.88653297141903,90.49636002832999
132.0,90.1950645803583,91.36096514237182,91.97331062323637,90.33987465325563,87.8770026154504,90.55676157738698
136.0,89.93546263134682,91.46096514237183,91.97331062323637,90.32498802844181,87.80042113247539,90.5235926012668
140.0,89.72526453928849,91.66096514237182,92.00229476693693,90.30528533731918,87.71399864909434,90.53376007033063
145.0,89.7672655885961,91.86096514237182,92.20229476693693,90.45082539686449,87.73971497070278,90.6795435536967
150.0,89.70982855556755,92.06096514237184,92.34675150375354,90.5508253968645,87.74292074858825,90.78399504708345
155.0,89.66136837622763,92.23257218046557,92.44675150375355,90.59986737502547,87.65794882158764,90.85288263577611
160.0,89.66136837622763,92.33257218046558,92.57525122642456,90.61959460544718,87.57490190641555,90.91374856812301
165.0,89.60497668676807,92.33257218046558,92.57525122642456,90.53186948969389,87.3588444798421,90.86935114808709
170.0,89.60497668676807,92.37082970284297,92.61998423401444,90.55486813212617,87.20899883296723,90.88454872601714
175.0,89.60497668676807,92.27082970284299,92.61998423401444,90.38173448818911,86.95091408235113,90.80298563495774
180.0,89.50497668676807,92.1096325668162,92.49366590096783,90.21857627552951,86.55381914954036,90.64251450046505
185.0,89.40497668676808,91.84314826109434,92.32386986096213,89.94629640271651,86.10495106589339,90.41692224031304
190.0,89.22875610128314,91.42179738688895,92.0392427572199,89.53305078972382,85.54213774647654,90.06913425202953
195.0,89.05295536787777,90.9950645803583,91.79817545090704,89.20404121344599,84.99293950311142,89.7522461715544
200.0,88.80982855556756,90.49506458035829,91.46982625839041,88.77186516183143,84.36007412168101,89.35545509450769
206.0,88.54258273663014,89.9094224842602,91.1136394060688,88.33104045744886,83.72551355063997,88.92464091744586
212.0,88.30982855556755,89.38382334167595,90.78847217927516,87.91541918620564,83.11730702628803,88.5347854258873
218.0,88.10982855556756,88.92526453928849,90.56005936857912,87.58390434937648,82.5991851257406,88.22270500846868
224.0,87.98538710465897,88.64258273663013,90.4351604799582,87.38589437139116,82.19931915974313,88.03388115396005
230.0,87.90497668676807,88.48538710465898,90.4351604799582,87.28589437139117,81.89710446704099,87.94952045735418
236.0,87.85865724017869,88.4377673428554,90.4351604799582,87.25908458595732,81.67445755692351,87.91418004265338
240.0,87.84852015458806,88.48161208533422,90.61068966302629,87.28918864511192,81.51856984779855,87.98349874411956
250.0,87.95098823501219,88.90330383828929,90.98242230727827,87.57776797377451,81.62967100037491,88.28993745285972
258.0,87.90432912249857,89.1033038382893,91.158217088195,87.69732805410683,81.52542672211733,88.40966110213614
265.0,87.6948466445546,89.34852015458806,91.32683455312959,87.72159933269735,81.39541930333542,88.49522842109138
272.0,87.39265755490996,89.50473949550548,91.43443179205894,87.68809839117904,81.17891599796542,88.51335147891773
280.0,86.98681963215333,89.60473949550547,91.45086213388187,87.59425817254557,80.87477030625753,88.45880880251477
290.0,86.48201452057556,89.65098823501219,91.42758020744903,87.42624810286752,80.53265801818192,88.3540116176656
300.0,85.86534188731521,89.72990957385143,91.34441901451352,87.15874105113359,80.08755712205902,88.20906406528498
307.0,85.29398241754959,89.65098823501219,91.25378373474547,86.81604352410119,79.61358200324872,88.01777928419645
315.0,84.79089068747821,89.65098823501219,91.12076211162325,86.52552012318641,79.10530742464483,87.85225212058204
325.0,84.46396636452283,89.55098823501218,91.02076211162324,86.1954406303331,78.54540386899322,87.68521887336091
335.0,84.3025820173835,89.55098823501218,90.89888657798579,85.93770757451311,78.02354057138335,87.56928023781698
345.0,84.33123550783965,89.55098823501218,90.79888657798578,85.65109895042967,77.53635266662413,87.48019068937539
355.0,84.62515007718615,89.52990957385144,90.69888657798577,85.42936305344601,77.10301292534284,87.42331571161833
365.0,85.01326997082846,89.42990957385145,90.55990168395998,85.21854274638677,76.68827564474155,87.3415549890314
375.0,85.519032343648,89.37695775614917,90.48147278830731,85.09783673929677,76.36303294155711,87.33467338964196
387.0,85.99083949114905,89.25648313414827,90.38147278830732,85.00679875748189,76.06633235539206,87.30601030907265
400.0,86.50937829065056,89.05648313414828,90.28147278830731,84.92396632343475,75.789993070331,87.27216583411719
412.0,86.91719474435358,88.73638088039144,90.12076211162325,84.77985464381405,75.4997528393623,87.16594533844932
425.0,87.27757950460712,88.22457993687897,89.98147278830733,84.57786290999954,75.1732903294464,87.01447067485547
437.0,87.53469773360898,87.62990957385144,89.89888657798578,84.43487715979695,74.98359968563757,86.87065468777728
450.0,87.73469773360898,86.86268190818897,89.87740200741135,84.23133085291822,74.72490835600279,86.7134575336542
462.0,87.82875610128315,86.01719474435357,89.88969515549682,83.9906746653934,74.44285032372538,86.55068387521426
475.0,87.92602452356691,85.44583147157397,89.94124799874557,83.70796066043646,74.16906778648259,86.47040144578129
487.0,88.07695775614917,85.40263350538771,90.01913795500015,83.45284144409729,73.92743888923657,86.5123113587534
500.0,88.47625435142638,86.10497668676807,90.19963940497851,83.28841874967586,73.75739638648666,86.8050875002722
515.0,88.94010271092209,87.20473949550548,90.35268458216537,83.17337689498089,73.65264452670147,87.20037954121864
530.0,89.34010271092207,88.18888863538652,90.48049974400134,83.05129572700999,73.58294543012762,87.57357547858871
545.0,89.7412772730039,88.95959385611933,90.53377777961884,82.82269558264316,73.48171834017356,87.88699323979047
560.0,89.98256065499534,89.35800804769342,90.61526553589033,82.63186548938471,73.30853272155927,88.08279002989282
580.0,90.10901938277,89.3730120924441,90.5876285233883,82.32566347932587,73.05185970840016,88.0981539196355
600.0,89.98382992528653,88.90722706905574,90.53416418708973,82.14059265119758,72.6104853459368,87.90517140417745
615.0,89.80464912211595,88.05905592381313,90.50669169661842,82.01574947331277,72.07085636756806,87.62608741163874
630.0,89.59562483724393,87.01145938100322,90.44329663334435,82.09003878613468,71.52715683683307,87.3192567483659
650.0,89.40199903162157,85.88067853625088,90.398717831455,82.13007569813925,70.97821761664265,87.04265783099721
670.0,89.23012177221655,84.94465953615897,90.30125067607754,82.07817117425115,70.40856521110938,86.80146662266452
690.0,89.01124970721759,84.33131741555754,90.12056937983725,81.72158326917966,69.7889985652238,86.53948157734875
710.0,88.61124970721758,83.8149838201147,89.84514490518248,81.0461994439054,68.92116899515337,86.16378478126319
730.0,87.97825745704101,83.2824675314633,89.58759779267656,79.87550647005062,67.76891723899494,85.68977625926497
750.0,87.10807851055698,82.83308937677077,89.32839496623626,78.2381489583346,66.31732213205616,85.14142740034241
775.0,86.55657014803855,83.01664590330462,89.18195732853336,76.80789438670139,65.47295733753255,84.86465644374488
800.0,86.75507704354388,83.89040221489246,89.1517191601239,76.66796667158903,65.63768251051529,85.02780454741044
825.0,87.35904530613341,84.77450358348686,89.21333764110483,77.29074534446461,66.25203860747727,85.40764885497497
850.0,87.88614403123408,85.32802377249942,89.33611160323942,77.83708876651441,66.63297180041512,85.75024221809115
875.0,87.77334521843885,85.2765793831768,89.48612065272343,77.7900117326332,66.47049761527357,85.77228796773204
900.0,87.01145938100322,84.77937331174563,89.61412477986056,76.96809356950047,65.79274114936992,85.49396876852525
925.0,86.03401118403296,84.14817574255784,89.77046678586122,76.02679950232444,65.33264712251143,85.19338434400795
950.0,85.16512257895552,83.4509546478162,89.88290999663099,75.57089741562349,65.41165545064102,84.9492836124741
975.0,84.67877178285868,82.44602921038015,89.80863371425973,76.03961161927988,65.77852390768395,84.68396139665582
1000.0,84.01811326656116,81.37761243527618,89.5363545817401,76.62002047954824,65.58003706807885,84.2743552571425
1030.0,82.70068275262052,80.60982853822803,89.15401993500396,76.67281892034914,64.51675664238026,83.70560658323161
1060.0,80.48854399594792,80.64529584952335,88.78953481035983,75.94867131390531,62.3815363052811,83.12071783365171
1090.0,78.53639559608382,80.69510629801796,88.62133325062372,74.82187325188671,60.36687979401243,82.77925920219842
1120.0,78.03753193576905,80.13405701957056,88.64794849226782,74.3108174937024,59.76528467976668,82.68197138901412
1150.0,78.6124664126148,79.4066036400777,88.73847259356945,74.48258392431836,59.80318621143242,82.72683312668691
1180.0,79.30867690275419,79.24599086996884,88.71512397457946,74.47754354101612,59.4526208165599,82.75155696955248
1220.0,79.23546882744073,79.185478090719,88.4855751700934,74.24537472793557,58.831269393114425,82.55126968219952
1250.0,77.86007882976877,78.13183686097929,88.33571235575516,74.7374889475786,58.65813089531578,82.24431174369793
1280.0,76.5397909960955,76.060540531536,88.45069772723146,76.00326210195927,58.84488384153427,82.18015612869597
1320.0,77.1471445695912,74.93477854745447,88.51452666854726,77.26189421066783,58.841069684442246,82.29074838630109
1360.0,80.08448379734035,76.7100380033532,88.33688247598171,78.15425096757751,58.78196487065547,82.5373896911162
1400.0,82.64721006692119,79.14705630209765,88.20148951326061,78.60455850044615,59.18329760685866,83.01201885951585
1450.0,83.62566228536352,80.51466429362961,88.30464230157249,78.63942026318715,59.94841488050271,83.4001721344999
1500.0,83.93510550729972,80.81701653235827,88.40889249225579,78.7865324004468,60.962873377827194,83.5727974436398
1550.0,84.63976520486288,80.84475297190879,88.62545872374143,79.06443508998564,62.41891401370701,83.88665341663112
1600.0,84.84511953779135,80.41550659235185,89.03994111360889,79.18403165046128,63.26927825528118,84.1559101592695
1650.0,84.77245501472855,80.08143621591468,89.01834507968503,79.11653663861402,62.49161490243954,84.09269285488973
1700.0,85.02773304031628,80.1496837787603,88.69026564240023,78.840041864146,60.63650499664014,83.94146525128652
1750.0,84.75299799878154,79.39621152732023,88.0095816454601,77.2470196137527,59.950212187966585,83.31288135618844
1800.0,83.98594782122285,77.79470218621026,86.89451307609542,76.33191310803853,60.661818513441105,82.2729900813291
1850.0,83.58421880005267,75.86996121118247,86.74859021673817,77.47503380727153,60.73561274926671,82.02480816168513
1900.0,83.45191955907843,75.6687693989117,87.19533011879314,78.29767903700734,60.43025222957304,82.31068949265313
1950.0,83.56331557371242,77.65126502581491,87.24263796464538,78.70142626966803,60.6094999812659,82.50750930381383
2000.0,83.5174296708461,78.31210644697299,86.93799913471905,78.42330713469826,61.589324144387305,82.34339930247425
2060.0,83.25863630136402,78.73115197647014,86.37882082893721,77.45349964569027,63.54390011055257,81.9241313989073
2120.0,82.72905723867778,80.09365387530114,86.03829207391358,76.4189379194491,64.78070264909029,81.69157188854528
2180.0,82.58932381424366,80.74609975902821,86.17387680437503,76.67525919031478,63.6798821239564,81.8382620914982
2240.0,83.14587099790293,80.18715219471243,86.56536647166519,78.34938606955065,61.351130584161,82.22169633948005
2300.0,82.8133554064957,78.72361409713277,86.91126307878349,79.62414128540915,61.632872199544366,82.30390000747663
2360.0,82.4370245814502,78.42347011397298,87.17918507500055,79.62062302440577,62.495242183364084,82.35798846541718
2400.0,82.76665411820049,78.7319029199664,87.26838550433597,79.37446825873305,62.71768738842577,82.48149107310444
2500.0,82.89265755490995,78.51233995893783,86.69039971816265,78.50394420399934,62.33161844476287,82.06784328912123
2580.0,82.45420299035379,78.67186175887042,86.49353505976812,76.87490256160002,60.507219209851755,81.7345057892961
2650.0,82.12330268140093,79.2837535461989,87.53132394747354,77.94104265379569,59.92063045934087,82.44271352810959
2720.0,83.26583719580027,77.98656646311248,88.39673529639256,79.79144472052181,61.814004237139486,83.27629752241846
2800.0,84.44088832086909,76.2599996174499,88.53423105325534,79.92357288853687,62.32491729360247,83.55568943105585
2900.0,83.73937186872666,76.44752518744494,88.30103303134234,78.66251616750024,61.11574175833478,83.14591986181128
3000.0,81.31556202963556,75.77076275725436,87.24887644442624,76.95309699938767,60.004026765667746,81.78673575557865
3070.0,79.94035168096843,74.80153110593811,85.63235147635757,75.93814140471618,58.43827042257887,80.29046394707332
3150.0,80.09214086059582,74.47960410596292,84.7044063017586,76.32535169199646,55.59092668860147,79.7209780040387
3250.0,80.1200526472089,74.88866490030831,85.51213742947975,77.62677050223998,55.24656430038924,80.39545908238743
3350.0,80.53862722572576,74.8727562533873,86.24022011439888,77.7069400066142,57.06279179212616,80.96318224503162
