Freq "Ceiling Bounce"
22.4 31.273254362031366
23.0 32.7242529409981
23.6 34.193130258129145
24.0 35.61174366183954
25.0 37.02045201940027
25.8 38.480175362258365
26.5 39.9422470214995
27.2 41.31820761005412
28.0 42.73031973423252
29.0 44.20782715355446
30.0 45.586237611458756
30.7 47.07577144153166
31.5 48.50026691542598
32.5 49.91505453119959
33.5 51.41505453119959
34.5 52.940470780049935
35.5 54.34047078004994
36.5 55.666325977582034
37.5 56.87634337204298
38.7 58.21274735416665
40.0 59.46021521031298
41.2 60.77096325109014
42.5 62.019876703858955
43.7 63.16988350036803
45.0 64.32100182927417
46.2 65.47324980289028
47.5 66.53966428643986
48.7 67.59466814462868
50.0 68.66506011325959
51.5 69.67953643779559
53.0 70.6820681977361
54.5 71.65840416724978
56.0 72.72057765478031
58.0 73.78405461574941
60.0 74.64885135917305
61.5 75.51498382011471
63.0 76.40146480937388
65.0 77.47089600007291
67.0 78.54171952330977
69.0 79.71394942912605
71.0 80.88759923684219
73.0 82.04066681957173
75.0 83.21655819177171
77.5 84.49389595883676
80.0 85.64090753602632
82.5 86.49664781293231
85.0 87.17757950460712
87.5 87.73469773360898
90.0 88.0599996174499
92.5 88.41792789764851
95.0 88.7026545034034
97.5 88.96194867563764
100.0 89.28888547155003
103.0 89.48888547155002
106.0 89.67662798253905
109.0 89.90963256681619
112.0 90.03752777300028
115.0 90.17082970284298
118.0 90.39897445130926
122.0 90.69897445130925
125.0 90.89897445130924
128.0 91.12758719283593
132.0 91.36096514237184
136.0 91.46096514237183
140.0 91.66096514237182
145.0 91.86096514237182
150.0 92.06096514237181
155.0 92.23257218046558
160.0 92.33257218046558
165.0 92.33257218046558
170.0 92.37082970284297
175.0 92.27082970284299
180.0 92.1096325668162
185.0 91.84314826109434
190.0 91.42179738688895
195.0 90.9950645803583
200.0 90.49506458035829
206.0 89.9094224842602
212.0 89.38382334167594
218.0 88.92526453928849
224.0 88.64258273663015
230.0 88.48538710465897
236.0 88.4377673428554
240.0 88.4816120853342
250.0 88.90330383828929
258.0 89.10330383828929
265.0 89.34852015458806
272.0 89.50473949550548
280.0 89.60473949550547
290.0 89.65098823501219
300.0 89.72990957385143
307.0 89.65098823501219
315.0 89.65098823501219
325.0 89.5509882350122
335.0 89.5509882350122
345.0 89.5509882350122
355.0 89.52990957385144
365.0 89.42990957385143
375.0 89.37695775614917
387.0 89.25648313414828
400.0 89.05648313414828
412.0 88.73638088039144
425.0 88.22457993687897
437.0 87.62990957385142
450.0 86.86268190818897
462.0 86.01719474435359
475.0 85.44583147157397
487.0 85.40263350538771
500.0 86.10497668676807
515.0 87.20473949550546
530.0 88.18888863538652
545.0 88.95959385611934
560.0 89.35800804769342
580.0 89.3730120924441
600.0 88.90722706905572
615.0 88.05905592381313
630.0 87.01145938100322
650.0 85.88067853625088
670.0 84.94465953615895
690.0 84.33131741555754
710.0 83.8149838201147
730.0 83.2824675314633
750.0 82.83308937677077
775.0 83.01664590330464
800.0 83.89040221489246
825.0 84.77450358348685
850.0 85.32802377249942
875.0 85.2765793831768
900.0 84.77937331174563
925.0 84.14817574255784
950.0 83.4509546478162
975.0 82.44602921038015
1000.0 81.37761243527618
1030.0 80.60982853822804
1060.0 80.64529584952334
1090.0 80.69510629801796
1120.0 80.13405701957058
1150.0 79.40660364007772
1180.0 79.24599086996884
1220.0 79.185478090719
1250.0 78.13183686097929
1280.0 76.06054053153602
1320.0 74.93477854745447
1360.0 76.7100380033532
1400.0 79.14705630209765
1450.0 80.51466429362961
1500.0 80.81701653235828
1550.0 80.8447529719088
1600.0 80.41550659235185
1650.0 80.08143621591466
1700.0 80.1496837787603
1750.0 79.39621152732023
1800.0 77.79470218621026
1850.0 75.86996121118247
1900.0 75.6687693989117
1950.0 77.6512650258149
2000.0 78.31210644697299
2060.0 78.73115197647014
2120.0 80.09365387530114
2180.0 80.74609975902821
2240.0 80.18715219471241
2300.0 78.72361409713277
2360.0 78.42347011397298
2400.0 78.7319029199664
2500.0 78.51233995893783
2580.0 78.67186175887042
2650.0 79.28375354619891
2720.0 77.98656646311248
2800.0 76.25999961744989
2900.0 76.44752518744494
3000.0 75.77076275725436
3070.0 74.80153110593811
3150.0 74.47960410596293
3250.0 74.88866490030833
3350.0 74.8727562533873
3450.0 74.44004927841026
3550.0 74.17262964845304
3650.0 73.56567940610034
3750.0 74.00498017525766
3870.0 74.23557346045843
4000.0 74.33433788090704
4120.0 75.11355929945651
4250.0 74.53936765015179
4370.0 74.55676201263394
4500.0 75.5360619348566
4620.0 75.57332303610622
4750.0 75.36443680503089
4870.0 74.73913968958946
5000.0 73.98581962276414
5150.0 73.71498007819316
5300.0 72.86823375051505
5450.0 71.90322505318122
5600.0 72.5573970739063
5800.0 74.587954987743
6000.0 76.01248611872856
6150.0 75.9421550156115
6300.0 75.04915539895498
6500.0 73.58788684692405
6700.0 71.24142414074042
6900.0 71.31182730008753
7100.0 72.03966428643986
7300.0 72.37025678575769
7500.0 72.18285822899762
7750.0 71.40330511748405
8000.0 71.39430925610404
8250.0 71.1478696572974
8500.0 72.2986252174199
8750.0 73.26921334597704
9000.0 73.07245501472855
9250.0 73.0703393963307
9500.0 73.3159421074571
9750.0 73.41688126276276
10000.0 72.95153961443573
10300.0 72.19898971134477
10600.0 71.7567153621151
10900.0 72.1733385459683
11200.0 73.07168717690078
11500.0 73.46974421031867
11800.0 72.68334000991779
12200.0 71.39095599166443
12500.0 70.15291140018437
12800.0 68.95556502286216
13200.0 68.01496244492466
13600.0 67.67601464091808
14000.0 68.37107339625237
14500.0 69.90237277382612
15000.0 71.51845254529692
15500.0 72.47244993229336
16000.0 72.6124664126148
16500.0 71.88637896901463
17000.0 70.28687453695433
17500.0 68.48836336106191
18000.0 66.98519555329946
18500.0 65.34919334155171
19000.0 63.74672542368114
19500.0 62.3685904593392
