Freq "Floor Bounce"
22.4 45.84044167945491
23.0 47.140441679454895
23.6 48.474493510304384
24.0 49.74044167945489
25.0 51.0404416794549
25.8 52.340441679454884
26.5 53.640441679454895
27.2 54.940441679454906
28.0 56.20531806766469
29.0 57.47150800786936
30.0 58.77150800786937
30.7 60.036635756671856
31.5 61.33663575667187
32.5 62.63663575667185
33.5 64.0030695710425
34.5 65.33663575667187
35.5 66.56845083805435
36.5 67.73663575667187
37.5 68.8022846139602
38.7 69.9022846139602
40.0 71.06845083805432
41.2 72.16845083805434
42.5 73.23435140868503
43.7 74.16845083805433
45.0 75.20076749445562
46.2 76.13435140868502
47.5 77.06845083805433
48.7 77.93435140868502
50.0 78.80076749445563
51.5 79.60076749445561
53.0 80.40076749445561
54.5 81.2007674944556
56.0 82.0669218511605
58.0 82.86692185116051
60.0 83.53435140868503
61.5 84.13435140868502
63.0 84.83435140868504
65.0 85.63435140868503
67.0 86.43435140868503
69.0 87.33435140868504
71.0 88.23435140868503
73.0 89.13435140868502
75.0 89.96845083805432
77.5 90.96845083805432
80.0 91.76845083805432
82.5 92.3022846139602
85.0 92.66845083805433
87.5 92.83663575667187
90.0 92.80306957104251
92.5 92.77150800786939
95.0 92.70690501035459
97.5 92.54044167945491
100.0 92.4760917544922
103.0 92.2457671943847
106.0 92.01227178315618
109.0 91.78219967332303
112.0 91.45260953202218
115.0 91.08982856673471
118.0 90.89897445130926
122.0 90.77082970284299
125.0 90.60963256681619
128.0 90.34898359150841
132.0 90.1950645803583
136.0 89.93546263134682
140.0 89.72526453928849
145.0 89.7672655885961
150.0 89.70982855556755
155.0 89.66136837622763
160.0 89.66136837622763
165.0 89.60497668676807
170.0 89.60497668676807
175.0 89.60497668676807
180.0 89.50497668676807
185.0 89.40497668676808
190.0 89.22875610128314
195.0 89.05295536787777
200.0 88.80982855556756
206.0 88.54258273663014
212.0 88.30982855556755
218.0 88.10982855556756
224.0 87.98538710465897
230.0 87.90497668676807
236.0 87.85865724017869
240.0 87.84852015458806
250.0 87.95098823501219
258.0 87.90432912249857
265.0 87.6948466445546
272.0 87.39265755490996
280.0 86.98681963215333
290.0 86.48201452057556
300.0 85.86534188731521
307.0 85.29398241754959
315.0 84.79089068747821
325.0 84.46396636452283
335.0 84.3025820173835
345.0 84.33123550783965
355.0 84.62515007718615
365.0 85.01326997082846
375.0 85.519032343648
387.0 85.99083949114905
400.0 86.50937829065056
412.0 86.91719474435358
425.0 87.27757950460712
437.0 87.53469773360898
450.0 87.73469773360898
462.0 87.82875610128315
475.0 87.92602452356691
487.0 88.07695775614917
500.0 88.47625435142638
515.0 88.94010271092209
530.0 89.34010271092207
545.0 89.7412772730039
560.0 89.98256065499534
580.0 90.10901938277
600.0 89.98382992528653
615.0 89.80464912211595
630.0 89.59562483724393
650.0 89.40199903162157
670.0 89.23012177221655
690.0 89.01124970721759
710.0 88.61124970721758
730.0 87.97825745704101
750.0 87.10807851055698
775.0 86.55657014803855
800.0 86.75507704354388
825.0 87.35904530613341
850.0 87.88614403123408
875.0 87.77334521843885
900.0 87.01145938100322
925.0 86.03401118403296
950.0 85.16512257895552
975.0 84.67877178285868
1000.0 84.01811326656116
1030.0 82.70068275262052
1060.0 80.48854399594792
1090.0 78.53639559608382
1120.0 78.03753193576905
1150.0 78.6124664126148
1180.0 79.30867690275419
1220.0 79.23546882744073
1250.0 77.86007882976877
1280.0 76.5397909960955
1320.0 77.1471445695912
1360.0 80.08448379734035
1400.0 82.64721006692119
1450.0 83.62566228536352
1500.0 83.93510550729972
1550.0 84.63976520486288
1600.0 84.84511953779135
1650.0 84.77245501472855
1700.0 85.02773304031628
1750.0 84.75299799878154
1800.0 83.98594782122285
1850.0 83.58421880005267
1900.0 83.45191955907843
1950.0 83.56331557371242
2000.0 83.5174296708461
2060.0 83.25863630136402
2120.0 82.72905723867778
2180.0 82.58932381424366
2240.0 83.14587099790293
2300.0 82.8133554064957
2360.0 82.4370245814502
2400.0 82.76665411820049
2500.0 82.89265755490995
2580.0 82.45420299035379
2650.0 82.12330268140093
2720.0 83.26583719580027
2800.0 84.44088832086909
2900.0 83.73937186872666
3000.0 81.31556202963556
3070.0 79.94035168096843
3150.0 80.09214086059582
3250.0 80.1200526472089
3350.0 80.53862722572576
3450.0 81.72537960901012
3550.0 82.5620885674724
3650.0 82.63214299286734
3750.0 81.89827545986182
3870.0 81.74938524417941
4000.0 82.22621393128959
4120.0 81.96463261459789
4250.0 81.57780895720774
4370.0 81.89690549973098
4500.0 82.07498304575402
4620.0 81.71140161591431
4750.0 80.87417580323537
4870.0 80.00782715355446
5000.0 79.47117608287158
5150.0 79.35592043373774
5300.0 79.0954735506012
5450.0 79.00010099674695
5600.0 79.35206943845488
5800.0 78.29393943395048
6000.0 77.43131741555754
6150.0 77.4972089706332
6300.0 77.70663873427829
6500.0 77.64882433806491
6700.0 77.09591151369098
6900.0 77.19368239329897
7100.0 77.4552895775185
7300.0 77.43112342273669
7500.0 77.00588302564897
7750.0 77.11041005081631
8000.0 77.43522024477353
8250.0 77.70460793981965
8500.0 78.60797077657875
8750.0 78.50018750585744
9000.0 76.82642039424591
9250.0 77.90236263830585
9500.0 79.2900847276415
9750.0 78.86096625209682
10000.0 78.74202600290928
10300.0 78.82053466065243
10600.0 78.88558171302573
10900.0 79.24113351361486
11200.0 80.10175479267208
11500.0 80.78591413862914
11800.0 80.85784612709638
12200.0 80.7449910581303
12500.0 80.32469957833841
12800.0 79.31577528226275
13200.0 77.39909446490924
13600.0 75.13712108259996
14000.0 74.7206882502147
14500.0 76.3723238639022
15000.0 78.3087822760463
15500.0 79.2390253815133
16000.0 79.3646544214929
16500.0 78.56824359680664
17000.0 76.86005632206404
17500.0 75.03540970379534
18000.0 72.98912766676847
18500.0 70.70036736655678
19000.0 69.27190213361665
19500.0 68.03794838955001
