Freq "Side Wall Bounce"
22.4 38.49194998785626
23.0 39.933768426754625
23.6 41.39032065042616
24.0 42.803092159329395
25.0 44.222621417201424
25.8 45.633913718750534
26.5 47.044194059670986
27.2 48.45740193741224
28.0 49.88130647925263
29.0 51.26117495273729
30.0 52.6611749527373
30.7 54.0858616212289
31.5 55.51097888162741
32.5 56.942385398042774
33.5 58.39244354155596
34.5 59.86801545302865
35.5 61.25025236437534
36.5 62.48915886384518
37.5 63.676702873725304
38.7 64.92783303660372
40.0 66.14788360965636
41.2 67.37496303456643
42.5 68.5749630345664
43.7 69.60249952684813
45.0 70.71523532329786
46.2 71.77450571796095
47.5 72.78732375069657
48.7 73.74344622524748
50.0 74.68732375069656
51.5 75.61571595124437
53.0 76.51571595124435
54.5 77.41571595124435
56.0 78.34457860671827
58.0 79.24457860671829
60.0 79.9780041375574
61.5 80.69375574121256
63.0 81.45809246246588
65.0 82.39375574121254
67.0 83.30742842028299
69.0 84.2608296803273
71.0 85.2608296803273
73.0 86.23733311742836
75.0 87.23733311742836
77.5 88.36772269524435
80.0 89.325077265391
82.5 89.96772269524435
85.0 90.44139234778572
87.5 90.84139234778573
90.0 90.91832878266236
92.5 91.05588170446465
95.0 91.17245831534007
97.5 91.20695816446423
100.0 91.32372220565699
103.0 91.32372220565699
106.0 91.23860883047081
109.0 91.23860883047081
112.0 91.19832358691664
115.0 91.13860883047082
118.0 91.13860883047082
122.0 91.23860883047081
125.0 91.25563827076085
128.0 91.25563827076085
132.0 91.33860883047082
136.0 91.32372220565699
140.0 91.30401951453436
145.0 91.44955957407967
150.0 91.54955957407968
155.0 91.59860155224065
160.0 91.61832878266236
165.0 91.53060366690907
170.0 91.55360230934136
175.0 91.3804686654043
180.0 91.2173104527447
185.0 90.9450305799317
190.0 90.531784966939
195.0 90.20277539066117
200.0 89.77059933904661
206.0 89.32977463466405
212.0 88.91415336342082
218.0 88.58263852659167
224.0 88.38462854860634
230.0 88.28462854860635
236.0 88.25781876317251
240.0 88.2879228223271
250.0 88.5765021509897
258.0 88.69606223132202
265.0 88.72033350991254
272.0 88.68683256839422
280.0 88.59299234976075
290.0 88.4249822800827
300.0 88.15747522834877
307.0 87.81477770131637
315.0 87.5242543004016
325.0 87.19417480754828
335.0 86.9364417517283
345.0 86.64983312764485
355.0 86.4280972306612
365.0 86.21727692360196
375.0 86.09657091651195
387.0 86.00553293469707
400.0 85.92270050064994
412.0 85.77858882102923
425.0 85.57659708721472
437.0 85.43361133701214
450.0 85.2300650301334
462.0 84.98940884260858
475.0 84.70669483765164
487.0 84.45157562131247
500.0 84.28715292689104
515.0 84.17211107219607
530.0 84.05002990422517
545.0 83.82142975985835
560.0 83.63059966659989
580.0 83.32439765654105
600.0 83.13932682841276
615.0 83.01448365052795
630.0 83.08877296334987
650.0 83.12880987535443
670.0 83.07690535146634
690.0 82.72031744639484
710.0 82.04493362112058
730.0 80.87424064726581
750.0 79.23688313554979
775.0 77.80662856391658
800.0 77.66670084880421
825.0 78.2894795216798
850.0 78.8358229437296
875.0 78.78874590984839
900.0 77.96682774671565
925.0 77.02553367953962
950.0 76.56963159283868
975.0 77.03834579649507
1000.0 77.61875465676343
1030.0 77.67155309756433
1060.0 76.94740549112049
1090.0 75.8206074291019
1120.0 75.30955167091759
1150.0 75.48131810153355
1180.0 75.4762777182313
1220.0 75.24410890515075
1250.0 75.73622312479378
1280.0 77.00199627917445
1320.0 78.26062838788302
1360.0 79.1529851447927
1400.0 79.60329267766133
1450.0 79.63815444040233
1500.0 79.78526657766199
1550.0 80.06316926720082
1600.0 80.18276582767646
1650.0 80.1152708158292
1700.0 79.83877604136119
1750.0 78.24575379096788
1800.0 77.33064728525372
1850.0 78.47376798448671
1900.0 79.29641321422253
1950.0 79.70016044688322
2000.0 79.42204131191345
2060.0 78.45223382290546
2120.0 77.41767209666429
2180.0 77.67399336752996
2240.0 79.34812024676583
2300.0 80.62287546262434
2360.0 80.61935720162096
2400.0 80.37320243594823
2500.0 79.50267838121452
2580.0 77.87363673881521
2650.0 78.93977683101087
2720.0 80.790178897737
2800.0 80.92230706575205
2900.0 79.66125034471543
3000.0 77.95183117660285
3070.0 76.93687558193136
3150.0 77.32408586921164
3250.0 78.62550467945516
3350.0 78.70567418382939
3450.0 78.66062038447784
3550.0 78.42423368077105
3650.0 76.61555902977577
3750.0 75.49409090141015
3870.0 76.77930424170444
4000.0 77.86674915738121
4120.0 77.57987283229674
4250.0 77.13492231748074
4370.0 76.93131472419108
4500.0 76.64531218576496
4620.0 76.20233415233236
4750.0 75.44695387037244
4870.0 74.90659107545093
5000.0 74.90244353797227
5150.0 74.83501387325082
5300.0 74.11662529049299
5450.0 73.4870873535827
5600.0 73.97333184816097
5800.0 74.69284135302932
6000.0 75.36502481094273
6150.0 75.16862374632588
6300.0 73.92212255989313
6500.0 72.62882113385513
6700.0 72.05084888038546
6900.0 73.14937137169028
7100.0 73.75754493850258
7300.0 73.65716397589246
7500.0 72.35419735336978
7750.0 70.73023869953467
8000.0 69.92789378507436
8250.0 70.04343586015956
8500.0 70.91202716332026
8750.0 71.1185977189288
9000.0 70.73331316034125
9250.0 71.24035452297262
9500.0 73.0331286013932
9750.0 73.94822760007298
10000.0 72.4084903172907
10300.0 71.35429347054836
10600.0 71.9177941940964
10900.0 72.31537594204801
11200.0 72.80494137935301
11500.0 72.10150913322312
11800.0 70.43751035933167
12200.0 69.89102912059954
12500.0 70.32585883047494
12800.0 72.0911313714281
13200.0 74.69177170752948
13600.0 76.21721324799329
14000.0 76.48002853486724
14500.0 75.92166774211591
15000.0 74.14808718699469
15500.0 71.10277429673587
16000.0 68.41026958115964
16500.0 66.55454281481533
17000.0 64.76890815305444
17500.0 63.90029309623583
18000.0 63.50120967757945
18500.0 62.29360936962752
19000.0 60.67452835180276
19500.0 58.80800344326303
