Freq "Rear Wall Bounce"
22.4 34.51898063159287
23.0 35.79068216167822
23.6 37.04692484298944
24.0 38.692500722892916
25.0 40.25736930245445
25.8 42.0111892800261
26.5 43.56972979959865
27.2 45.18824068649825
28.0 46.69666561702557
29.0 48.456669012293546
30.0 50.06901486823146
30.7 51.699702888700514
31.5 53.187288363552696
32.5 54.5155445949609
33.5 55.803244927131615
34.5 57.03607626893027
35.5 58.31401852824807
36.5 59.2610317357112
37.5 60.03631113187292
38.7 60.79144019525991
40.0 61.51513724553273
41.2 62.28196041292695
42.5 62.90412621851283
43.7 63.48523871304006
45.0 64.13371031319093
46.2 64.76274147999044
47.5 65.22313093590417
48.7 65.68448135794148
50.0 66.10088858891017
51.5 66.41045010797934
53.0 66.56841744299255
54.5 66.80789026653234
56.0 66.90634216927803
58.0 66.95851965110226
60.0 67.02693584086255
61.5 66.96926643674975
63.0 66.78997029830249
65.0 66.56474227170305
67.0 66.32255958504858
69.0 66.0792545730212
71.0 65.57145535725809
73.0 65.13285890378732
75.0 64.72677067719685
77.5 64.61972273357777
80.0 64.88631817607943
82.5 65.6685501841554
85.0 66.93890647075558
87.5 68.58497718763168
90.0 70.38944500675187
92.5 72.38344328844941
95.0 74.23564554586322
97.5 75.94204200614861
100.0 77.48539079858286
103.0 78.82592413597625
106.0 79.85153519503525
109.0 80.64058847522196
112.0 81.21438326565145
115.0 81.52286773094683
118.0 81.7651544980228
122.0 81.83614290234578
125.0 81.81458938166608
128.0 81.74587901771811
132.0 81.92497744089684
136.0 81.96021064100393
140.0 82.08598575943087
145.0 82.29430212389686
150.0 82.3897608867565
155.0 82.5662183503781
160.0 82.70814472420255
165.0 82.76856611717916
170.0 82.84006282627307
175.0 82.86249790094875
180.0 82.86572568678368
185.0 82.81932351905657
190.0 82.88006326161603
195.0 82.69318984705811
200.0 82.55511465343152
206.0 82.35335829464105
212.0 81.92062784430605
218.0 81.46533772851754
224.0 80.6356078514798
230.0 80.20281458059506
236.0 80.34163552891835
240.0 80.67040040092209
250.0 80.71145359573104
258.0 80.62989754441924
265.0 80.32663165443957
272.0 79.91147818847314
280.0 79.64532337589952
290.0 79.68955912366164
300.0 79.82674382448856
307.0 80.06397972260429
315.0 80.39338118719682
325.0 80.70484685647186
335.0 81.67270874287775
345.0 81.96791673501971
355.0 82.05694986176687
365.0 82.40337915629071
375.0 82.83134322297217
387.0 82.76253175979006
400.0 82.85162383752974
412.0 82.18035067122848
425.0 83.66661944443054
437.0 83.6532502887649
450.0 83.0620188081375
462.0 83.02532751395678
475.0 82.04796778039807
487.0 81.14236361996474
500.0 80.68075480813495
515.0 82.01236595642689
530.0 80.00974053469132
545.0 78.47411974474687
560.0 78.54134082759046
580.0 77.40525520857916
600.0 76.19457598459043
615.0 74.70849444938565
630.0 73.48777308933386
650.0 72.76268248173768
670.0 70.96627355754137
690.0 70.78268487240798
710.0 71.69195810245633
730.0 71.14156781467173
750.0 70.40520773405645
775.0 68.56088544488254
800.0 67.13871481376147
825.0 66.72083193906218
850.0 67.16415733245101
875.0 68.13032194653437
900.0 67.38190468195837
925.0 65.42676778068952
950.0 62.8431364062635
975.0 62.02699702898262
1000.0 65.54143731456156
1030.0 68.17365194800014
1060.0 69.60833860280545
1090.0 67.98825616713454
1120.0 68.2178156068081
1150.0 69.42100113729288
1180.0 70.53509581757241
1220.0 70.33664380676669
1250.0 70.43966376541798
1280.0 69.98292124907393
1320.0 67.47795271789197
1360.0 64.69373189785145
1400.0 62.1686556857145
1450.0 58.28510836885049
1500.0 59.35912395791921
1550.0 57.50793751522353
1600.0 56.48799388958544
1650.0 60.71046182651729
1700.0 57.04712438271896
1750.0 60.27420049357464
1800.0 62.00289095652148
1850.0 61.207626465779626
1900.0 64.50957157498246
1950.0 59.42475399365806
2000.0 60.69512280375484
2060.0 56.523393786486295
2120.0 58.25731335959408
2180.0 55.60868787391895
2240.0 53.359097552392385
2300.0 51.32360740358398
2360.0 49.952226025501446
2400.0 54.688958689078405
2500.0 58.522309056341825
2580.0 58.09466205941662
2650.0 62.68419284988262
2720.0 57.12808934796625
2800.0 54.41649901649102
2900.0 54.597917829983814
3000.0 50.793538428675944
3070.0 52.620834490936105
3150.0 55.29402515794298
3250.0 55.68088260489871
3350.0 54.96812617090775
3450.0 54.409285326832546
3550.0 53.497004204160746
3650.0 53.8337825609717
3750.0 54.19181924654238
3870.0 52.132055753869864
4000.0 52.300722936111114
4120.0 55.18895424084313
4250.0 57.62095676785886
4370.0 57.25672155050064
4500.0 53.431606137955
4620.0 50.662923704007525
4750.0 51.873433123009775
4870.0 53.40043279398263
5000.0 53.47648640604713
5150.0 53.136914676103075
5300.0 51.09454652424215
5450.0 47.434255863171146
5600.0 49.75903380642687
5800.0 56.3872508526389
6000.0 53.48240533796725
6150.0 53.41619100544885
6300.0 50.48170350850701
6500.0 48.85050447498885
6700.0 50.84530364587458
6900.0 51.204970972032285
7100.0 50.74697597399749
7300.0 50.28508943632271
7500.0 51.19931441533082
7750.0 51.21627490941721
8000.0 47.980838449215085
8250.0 50.798150430880284
8500.0 51.82842117832361
8750.0 45.41018548506655
9000.0 47.93148367686656
9250.0 50.49347603453175
9500.0 47.39704112197508
9750.0 51.95208674600265
10000.0 51.498142767447845
10300.0 47.475963181151386
10600.0 49.29889980389551
10900.0 47.71769776123931
11200.0 51.96338833539302
11500.0 46.18199752848851
11800.0 45.4711740292167
12200.0 50.15964259504652
12500.0 48.97231528303804
12800.0 41.490001156687285
13200.0 42.25318810102486
13600.0 46.24948600723688
14000.0 43.498967010260415
14500.0 42.632437145711336
15000.0 42.79638604305357
15500.0 48.697883593079624
16000.0 46.04170066333727
16500.0 44.10148270021337
17000.0 39.9153342288992
17500.0 41.40217615692761
18000.0 37.511757295171336
18500.0 35.848268502043865
19000.0 34.14522520974036
19500.0 32.322092509583555
