Freq "Rear Wall Bounce"
22.4 36.65695531513717
23.0 37.92865684522252
23.6 39.18489952653374
24.0 40.830475406437216
25.0 42.39534398599875
25.8 44.1491639635704
26.5 45.70770448314295
27.2 47.32621537004255
28.0 48.83464030056987
29.0 50.594643695837846
30.0 52.20698955177576
30.7 53.837677572244814
31.5 55.325263047096996
32.5 56.6535192785052
33.5 57.941219610675915
34.5 59.17405095247457
35.5 60.45199321179237
36.5 61.3990064192555
37.5 62.17428581541722
38.7 62.92941487880421
40.0 63.65311192907703
41.2 64.41993509647125
42.5 65.04210090205713
43.7 65.62321339658436
45.0 66.27168499673523
46.2 66.90071616353474
47.5 67.36110561944847
48.7 67.82245604148578
50.0 68.23886327245447
51.5 68.54842479152364
53.0 68.70639212653685
54.5 68.94586495007664
56.0 69.04431685282233
58.0 69.09649433464656
60.0 69.16491052440685
61.5 69.10724112029405
63.0 68.92794498184679
65.0 68.70271695524735
67.0 68.46053426859288
69.0 68.2172292565655
71.0 67.70943004080239
73.0 67.27083358733162
75.0 66.86474536074115
77.5 66.75769741712207
80.0 67.02429285962373
82.5 67.8065248676997
85.0 69.07688115429988
87.5 70.72295187117598
90.0 72.52741969029617
92.5 74.52141797199371
95.0 76.37362022940752
97.5 78.08001668969291
100.0 79.62336548212716
103.0 80.96389881952055
106.0 81.98950987857955
109.0 82.77856315876626
112.0 83.35235794919575
115.0 83.66084241449113
118.0 83.9031291815671
122.0 83.97411758589008
125.0 83.95256406521038
128.0 83.88385370126241
132.0 84.06295212444114
136.0 84.09818532454823
140.0 84.22396044297517
145.0 84.43227680744116
150.0 84.5277355703008
155.0 84.7041930339224
160.0 84.84611940774685
165.0 84.90654080072346
170.0 84.97803750981737
175.0 85.00047258449305
180.0 85.00370037032798
185.0 84.95729820260087
190.0 85.01803794516033
195.0 84.83116453060241
200.0 84.69308933697582
206.0 84.49133297818535
212.0 84.05860252785035
218.0 83.60331241206184
224.0 82.7735825350241
230.0 82.34078926413936
236.0 82.47961021246265
240.0 82.80837508446639
250.0 82.84942827927534
258.0 82.76787222796354
265.0 82.46460633798387
272.0 82.04945287201744
280.0 81.78329805944382
290.0 81.82753380720594
300.0 81.96471850803286
307.0 82.20195440614859
315.0 82.53135587074112
325.0 82.84282154001616
335.0 83.81068342642205
345.0 84.10589141856401
355.0 84.19492454531117
365.0 84.54135383983501
375.0 84.96931790651647
387.0 84.90050644333436
400.0 84.98959852107404
412.0 84.31832535477278
425.0 85.80459412797484
437.0 85.7912249723092
450.0 85.1999934916818
462.0 85.16330219750108
475.0 84.18594246394237
487.0 83.28033830350904
500.0 82.81872949167925
515.0 84.15034063997119
530.0 82.14771521823562
545.0 80.61209442829117
560.0 80.67931551113476
580.0 79.54322989212346
600.0 78.33255066813473
615.0 76.84646913292995
630.0 75.62574777287816
650.0 74.90065716528198
670.0 73.10424824108567
690.0 72.92065955595228
710.0 73.82993278600063
730.0 73.27954249821603
750.0 72.54318241760075
775.0 70.69886012842684
800.0 69.27668949730577
825.0 68.85880662260648
850.0 69.30213201599531
875.0 70.26829663007867
900.0 69.51987936550267
925.0 67.56474246423382
950.0 64.9811110898078
975.0 64.16497171252692
1000.0 67.67941199810586
1030.0 70.31162663154444
1060.0 71.74631328634975
1090.0 70.12623085067884
1120.0 70.3557902903524
1150.0 71.55897582083718
1180.0 72.67307050111671
1220.0 72.47461849031099
1250.0 72.57763844896228
1280.0 72.12089593261823
1320.0 69.61592740143627
1360.0 66.83170658139575
1400.0 64.3066303692588
1450.0 60.42308305239479
1500.0 61.49709864146351
1550.0 59.64591219876783
1600.0 58.62596857312974
1650.0 62.84843651006159
1700.0 59.18509906626326
1750.0 62.41217517711894
1800.0 64.14086564006578
1850.0 63.345601149323926
1900.0 66.64754625852676
1950.0 61.56272867720236
2000.0 62.83309748729914
2060.0 58.661368470030595
2120.0 60.39528804313838
2180.0 57.74666255746325
2240.0 55.497072235936685
2300.0 53.46158208712828
2360.0 52.090200709045746
2400.0 56.826933372622705
2500.0 60.660283739886125
2580.0 60.23263674296092
2650.0 64.82216753342692
2720.0 59.26606403151055
2800.0 56.55447370003532
2900.0 56.735892513528114
3000.0 52.931513112220244
3070.0 54.758809174480405
3150.0 57.43199984148728
3250.0 57.81885728844301
3350.0 57.10610085445205
3450.0 56.547260010376846
3550.0 55.634978887705046
3650.0 55.971757244516
3750.0 56.32979393008668
3870.0 54.270030437414164
4000.0 54.438697619655414
4120.0 57.32692892438743
4250.0 59.75893145140316
4370.0 59.39469623404494
4500.0 55.5695808214993
4620.0 52.800898387551825
4750.0 54.011407806554075
4870.0 55.53840747752693
5000.0 55.61446108959143
5150.0 55.274889359647375
5300.0 53.23252120778645
5450.0 49.572230546715446
5600.0 51.89700848997117
5800.0 58.5252255361832
6000.0 55.62038002151155
6150.0 55.55416568899315
6300.0 52.61967819205131
6500.0 50.98847915853315
6700.0 52.98327832941888
6900.0 53.342945655576585
7100.0 52.88495065754179
7300.0 52.42306411986701
7500.0 53.33728909887512
7750.0 53.35424959296151
8000.0 50.118813132759385
8250.0 52.936125114424584
8500.0 53.96639586186791
8750.0 47.54816016861085
9000.0 50.06945836041086
9250.0 52.63145071807605
9500.0 49.53501580551938
9750.0 54.09006142954695
10000.0 53.636117450992145
10300.0 49.613937864695686
10600.0 51.43687448743981
10900.0 49.85567244478361
11200.0 54.10136301893732
11500.0 48.31997221203281
11800.0 47.609148712761
12200.0 52.29761727859082
12500.0 51.11028996658234
12800.0 43.627975840231585
13200.0 44.39116278456916
13600.0 48.38746069078118
14000.0 45.636941693804715
14500.0 44.770411829255636
15000.0 44.93436072659787
15500.0 50.835858276623924
16000.0 48.17967534688157
16500.0 46.23945738375767
17000.0 42.0533089124435
17500.0 43.54015084047191
18000.0 39.649731978715636
18500.0 37.986243185588165
19000.0 36.28319989328466
19500.0 34.460067193127855
