Freq "Side Wall Bounce"
22.4 35.74788956593855
23.0 37.46257915759895
23.6 39.23524991239452
24.0 41.47658486383514
25.0 43.48608152627929
25.8 45.497533165232426
26.5 47.29902744636286
27.2 49.05867656475672
28.0 50.71394288640542
29.0 52.62978188794423
30.0 54.32978188794422
30.7 56.00749894542207
31.5 57.52867752964971
32.5 58.86860395594127
33.5 60.12769961205464
34.5 61.32769961205466
35.5 62.54530758594703
36.5 63.46689628227688
37.5 64.26732320705973
38.7 65.0250209785694
40.0 65.72323509382974
41.2 66.50192533173927
42.5 67.12092273791711
43.7 67.64027700418481
45.0 68.28099912966005
46.2 68.96230546621311
47.5 69.40328677559997
48.7 69.90192533173926
50.0 70.34395925345173
51.5 70.64395925345174
53.0 70.8250625684179
54.5 71.068834844177
56.0 71.19473096826061
58.0 71.2511506586771
60.0 71.24980413931284
61.5 71.16993441587528
63.0 70.9284595323029
65.0 70.66614167856116
67.0 70.36614167856115
69.0 70.06614167856115
71.0 69.52470754268812
73.0 69.08529591422482
75.0 68.78574106844147
77.5 68.7511506586771
80.0 69.07648040932153
82.5 69.8225191232215
85.0 70.80520300013379
87.5 71.98569144116662
90.0 73.22649672492699
92.5 74.58569144116663
95.0 75.88486996863318
97.5 77.08659062125513
100.0 78.38526496877044
103.0 79.67568480637917
106.0 80.98970759538405
109.0 82.18190346591592
112.0 83.29139480132177
115.0 84.17847239066339
118.0 84.96580687311457
122.0 85.46580687311457
125.0 85.81347820970606
128.0 86.08530104219997
132.0 86.51402387195576
136.0 86.67619358114963
140.0 86.87899935198362
145.0 87.09284281567048
150.0 87.20942811246978
155.0 87.32349476385446
160.0 87.44034650278255
165.0 87.42349476385445
170.0 87.42349476385445
175.0 87.49284281567049
180.0 87.5524983986856
185.0 87.57899935198363
190.0 87.81903142337197
195.0 87.80942811246979
200.0 87.72928453690265
206.0 87.5432871241359
212.0 87.14328712413591
218.0 86.77899935198363
224.0 86.4158751725277
230.0 86.31402387195575
236.0 86.47355657867546
240.0 86.8011687183607
250.0 86.8464022914693
258.0 86.65212494264995
265.0 86.09576442272646
272.0 85.98095583294281
280.0 86.24844957286594
290.0 86.73238774583739
300.0 87.16087669585458
307.0 87.6809558329428
315.0 88.16087669585458
325.0 88.6097830489698
335.0 89.70978304896981
345.0 90.02261276693355
355.0 90.13570220928986
365.0 90.47924358391833
375.0 90.94322040135725
387.0 90.84322040135726
400.0 90.9842710862608
412.0 90.33575866774041
425.0 91.6934203507068
437.0 91.37752428739839
450.0 90.38782115728975
462.0 90.17226750474785
475.0 89.35928797008141
487.0 88.88990874202497
500.0 88.60940140554696
515.0 89.83731768640831
530.0 87.55006643908199
545.0 85.76580687311457
560.0 86.45957401624166
580.0 85.87634294733441
600.0 85.21350639232844
615.0 84.35723861631968
630.0 83.41781892627377
650.0 82.69803900376434
670.0 80.48101893111516
690.0 79.28427711378212
710.0 79.21170057559239
730.0 77.97770184529068
750.0 76.48721248337192
775.0 74.83166095844548
800.0 75.29703579947032
825.0 76.09793192735489
850.0 76.57561526906383
875.0 79.71941087734069
900.0 79.69793516530433
925.0 79.87410994139304
950.0 76.4141808312689
975.0 76.59659262799372
1000.0 76.23068541207812
1030.0 79.49469427144588
1060.0 84.28244832879616
1090.0 82.7819902411857
1120.0 78.90125395059874
1150.0 78.73637751710497
1180.0 82.42223784765164
1220.0 82.9411842506006
1250.0 78.88000117125287
1280.0 79.02083114432466
1320.0 81.35384865201613
1360.0 76.85343423787731
1400.0 71.11650693546659
1450.0 71.9922684994854
1500.0 71.45846411349868
1550.0 67.80081525959633
1600.0 70.84293811737274
1650.0 72.411835660237
1700.0 68.92690081212865
1750.0 73.71413651798052
1800.0 72.53701084783081
1850.0 70.87823547174534
1900.0 72.35730353156222
1950.0 72.47164185264964
2000.0 73.8811706613234
2060.0 74.10904912836749
2120.0 73.59050261074933
2180.0 73.34326108658053
2240.0 72.93420441755816
2300.0 70.11071054408961
2360.0 70.71018893520838
2400.0 65.0324718605703
2500.0 68.6510401177591
2580.0 67.08686265653172
2650.0 73.53059022890103
2720.0 73.0967135945398
2800.0 71.6044527033593
2900.0 75.5709027061782
3000.0 74.31815482219477
3070.0 71.51237921440318
3150.0 74.08278437723496
3250.0 74.53185419605369
3350.0 73.05144208362216
3450.0 72.50661693981388
3550.0 74.12008594641998
3650.0 76.1151927961252
3750.0 75.10834293259174
3870.0 72.7116852169652
4000.0 71.33815348619017
4120.0 71.4284028047412
4250.0 69.59447645175618
4370.0 70.45734999428058
4500.0 70.2263107970525
4620.0 70.13314713643531
4750.0 70.4910101607282
4870.0 72.53661046919044
5000.0 73.0183394768305
5150.0 70.2255530204773
5300.0 69.09725015240701
5450.0 67.23666677822551
5600.0 69.89965321194113
5800.0 70.28319818908695
6000.0 68.82626486493723
6150.0 72.40142814119979
6300.0 72.06964195598349
6500.0 73.86220371902843
6700.0 72.96763995603948
6900.0 74.44085139283214
7100.0 71.96604008577454
7300.0 72.56417635453997
7500.0 72.50958248291839
7750.0 72.77741028756112
8000.0 74.10635095236616
8250.0 76.49108443755296
8500.0 73.93810331565315
8750.0 70.11295738735605
9000.0 70.29609612400134
9250.0 73.30402672203331
9500.0 74.86047180946358
9750.0 78.41490017379513
10000.0 75.18344270210017
10300.0 75.65227676456225
10600.0 76.79925082000238
10900.0 74.52089138978047
11200.0 79.34563270006983
11500.0 71.66652837209975
11800.0 74.32725892749811
12200.0 75.86562487588625
12500.0 73.98434534824275
12800.0 66.75363935341561
13200.0 69.03067624464006
13600.0 72.87483245855756
14000.0 70.04256897891506
14500.0 69.70255080518238
15000.0 71.76750921184954
15500.0 76.81159313564629
16000.0 73.73010232656424
16500.0 71.46456207655869
17000.0 67.45846537423154
17500.0 68.14230880477946
18000.0 63.397861884588224
18500.0 60.082753624312716
19000.0 59.50559862915591
19500.0 62.28515019462222
