Freq "Sound Power"
22.4 16.7912975151675
23.0 16.06746767209161
23.6 15.827230070741152
24.0 16.216505513799845
25.0 17.022143656011608
25.8 18.095245152670643
26.5 19.418329596824904
27.2 20.906143191355895
28.0 22.678474896665804
29.0 24.857512432718565
30.0 27.79959663413827
30.7 31.634678641640775
31.5 35.634760141289135
32.5 38.75247094183767
33.5 40.90669684151764
34.5 42.63323633459815
35.5 44.19372439862819
36.5 45.717581948074965
37.5 47.128939867558
38.7 48.20274945653266
40.0 48.733842482272834
41.2 49.370303866573195
42.5 51.51357296381691
43.7 54.581663590698255
45.0 56.83790209874114
46.2 58.12486764440429
47.5 59.316802221451596
48.7 60.902629479208215
50.0 62.68637607289919
51.5 64.50612081508997
53.0 66.40214543325544
54.5 68.41184881992999
56.0 70.22811200513836
58.0 71.6226728801647
60.0 73.14864765609957
61.5 75.07473317579753
63.0 76.9891371820254
65.0 78.87996250084045
67.0 80.72796446738624
69.0 82.28644974215263
71.0 83.24133652502233
73.0 83.47775987622511
75.0 83.17162720188948
77.5 82.75146131707568
80.0 82.35661515463948
82.5 81.67962297640236
85.0 81.1984407159311
87.5 81.19472635607211
90.0 81.351011179113
92.5 81.71398913825153
95.0 82.24354912974323
97.5 82.64933252692721
100.0 82.89444562475414
103.0 83.10066757981576
106.0 83.23986195741121
109.0 83.49410469385977
112.0 83.7139279681512
115.0 83.5249272231307
118.0 83.02565130836855
122.0 82.96788781594867
125.0 84.02972262052309
128.0 84.61592894666214
132.0 84.07396645569754
136.0 83.88189256367998
140.0 83.95336882491439
145.0 83.66984017165724
150.0 83.69528909742955
155.0 83.80029844272255
160.0 83.61043059417015
165.0 83.16564780314823
170.0 83.03814384649047
175.0 83.44925541457866
180.0 83.57166479107532
185.0 83.29089764651273
190.0 83.67434986533034
195.0 84.08195003627424
200.0 83.63375408171545
206.0 83.27533909388768
212.0 83.03859391010981
218.0 82.62899710834579
224.0 82.45578597314862
230.0 82.21235342785808
236.0 81.78088490920945
240.0 81.65480752537682
250.0 81.65935505275873
258.0 81.403817007813
265.0 81.55398749809915
272.0 81.75153673444808
280.0 81.69102987049332
290.0 81.77376647645276
300.0 81.86900815426252
307.0 81.84469655297356
315.0 81.70488078173693
325.0 81.50566337932868
335.0 81.07080861801057
345.0 80.27427837200064
355.0 79.27854424039263
365.0 78.62225873593941
375.0 78.40792991765545
387.0 78.44329041623834
400.0 78.82001604736483
412.0 79.13330596254147
425.0 79.05628477251652
437.0 78.79720676470713
450.0 78.52243893210853
462.0 78.3421744196644
475.0 78.36597339095876
487.0 78.49100564367747
500.0 78.6403379104688
515.0 78.6586093396147
530.0 78.59229611906319
545.0 78.48693126065409
560.0 78.41004091272917
580.0 78.47460377435885
600.0 78.59871053144145
615.0 78.72533118261315
630.0 78.76598028124108
650.0 78.77098703438863
670.0 78.81430158264045
690.0 78.89605810606102
710.0 78.98813924965486
730.0 79.08338081060977
750.0 79.17328168156298
775.0 79.23612744691148
800.0 79.28948538234293
825.0 79.26219951855235
850.0 79.15927547490267
875.0 78.94559847788018
900.0 78.6406759228477
925.0 78.2169133375098
950.0 77.73151576268965
975.0 77.26529630599218
1000.0 76.93208508138444
1030.0 76.85630554934234
1060.0 77.05930251430071
1090.0 77.49678369435298
1120.0 78.00947254980085
1150.0 78.46971902184218
1180.0 78.78164487725307
1220.0 78.94679779838644
1250.0 78.96367729793151
1280.0 78.86842842112034
1320.0 78.79454931362997
1360.0 78.76737964423099
1400.0 78.81412990687438
1450.0 78.86314096829993
1500.0 78.79478337770298
1550.0 78.58843708224104
1600.0 78.2433874874262
1650.0 77.91122113906954
1700.0 77.64239242992224
1750.0 77.40987869258684
1800.0 77.11657190734171
1850.0 76.55600550146279
1900.0 75.75988296807223
1950.0 74.90824491780991
2000.0 74.23136661940661
2060.0 73.90008784481519
2120.0 73.78257088493913
2180.0 73.6998003709367
2240.0 73.8033640230875
2300.0 74.16586869920629
2360.0 74.50113342240734
2400.0 74.45367422623117
2500.0 74.254340872599
2580.0 74.21237890114513
2650.0 74.18154615199147
2720.0 74.11028691020594
2800.0 74.18786125842874
2900.0 74.2695218247407
3000.0 74.10971793749579
3070.0 73.91039220494616
3150.0 73.94319331869282
3250.0 74.12379662578674
3350.0 74.3064872892834
3450.0 74.56177963363142
3550.0 75.03294504682977
3650.0 75.62859511207532
3750.0 75.97644925786003
3870.0 76.08793069390205
4000.0 75.87371043383298
4120.0 75.61046111112678
4250.0 75.16125567015091
4370.0 74.20074312505739
4500.0 73.4182816860388
4620.0 73.50522979892663
4750.0 74.03354668616596
4870.0 74.54220956929832
5000.0 75.02615040368352
5150.0 75.35777481113558
5300.0 75.28770201625959
5450.0 74.70491262928458
5600.0 74.07271568232335
5800.0 73.62387148782884
6000.0 73.25258994456159
6150.0 72.90014987541893
6300.0 72.7145250751246
6500.0 72.55317349823014
6700.0 72.58367197191099
6900.0 73.07840802026014
7100.0 73.74619103511341
7300.0 74.26851737351411
7500.0 74.50341301864155
7750.0 74.54646578493448
8000.0 74.47787986780394
8250.0 74.613762892889
8500.0 74.90217419322767
8750.0 74.78933369215976
9000.0 74.34919810518765
9250.0 74.03495302924681
9500.0 73.92904481777552
9750.0 73.79435088891249
10000.0 73.73453147040425
10300.0 73.92393909755144
10600.0 74.00957889443777
10900.0 73.79455729751709
11200.0 73.26645491442035
11500.0 73.07237601097397
11800.0 73.19669562480733
12200.0 73.12602243298433
12500.0 73.6478443225928
12800.0 74.08344446926897
13200.0 73.48928137376069
13600.0 72.09385183232028
14000.0 70.67192389560756
14500.0 70.39416314381258
15000.0 71.2042858562367
15500.0 70.89181704609975
16000.0 69.48242925023341
16500.0 70.13118825045238
17000.0 72.32394393123731
17500.0 72.26163427335709
18000.0 69.11863764897073
18500.0 66.68124746461513
19000.0 65.12365422310442
19500.0 61.66613600401236
