Freq "Estimated In-Room Response"
20.5078 58.60534031205535
21.9727 60.25978905754903
23.4375 61.90511798882949
24.9023 63.95908337869278
26.3672 65.2424074589543
27.832 66.7874648542792
29.2969 68.30285455731781
30.7617 69.7781348446903
32.2266 71.12604199918815
33.6914 72.37420537314695
35.1562 73.64838901772782
36.6211 74.82297350332419
38.0859 75.89587653290629
39.5508 76.85833821699133
41.0156 77.76264955398308
42.4805 78.59269368225915
43.9453 79.32779687081073
45.4102 79.95857754786796
46.875 80.49054968306655
48.3398 81.00349996464861
51.2695 81.91587228853848
52.7344 82.30351059146855
54.1992 82.58943273740502
55.6641 82.82828202901133
58.5938 83.33844992960995
60.0586 83.54370236017289
62.9883 83.90326385431639
64.4531 84.0624390563765
67.3828 84.3273602885337
68.8477 84.42803459905369
71.7773 84.59590105666564
74.707 84.76707513178401
77.6367 84.90475389660786
79.1016 84.92333113486976
82.0312 84.97435774079945
84.9609 85.04313827298665
87.8906 85.08418327181495
90.8203 85.2008360699508
95.2148 85.28276576310151
98.1445 85.2696516159362
101.074 85.27511945591675
105.469 85.21820955093098
108.398 85.1597751543961
112.793 85.055365629336
117.188 84.86039069693025
120.117 84.84791137820974
124.512 84.97200314564033
128.906 84.82519216515499
133.301 84.62701098107604
139.16 84.4588294709141
143.555 84.47183488463142
147.949 84.63311790280221
153.809 84.70133384524217
159.668 84.36933195962797
165.527 84.24005838484663
171.387 84.14661885002344
177.246 83.98230498680499
183.105 83.79002020664372
188.965 83.74899031310278
196.289 83.60028226676386
203.613 83.37230928135538
210.938 83.31847148993823
218.262 82.97511153915528
225.586 82.64251550469957
232.91 82.32543091754536
241.699 81.93133885456355
250.488 82.47232158164843
259.277 83.5686648331903
268.066 82.83318893193416
276.855 82.55965690067477
287.109 82.37690017469394
297.363 82.06196459500441
307.617 82.00897822505888
319.336 81.50495576649494
329.59 81.66929373663184
341.309 81.71713698036511
353.027 81.22218710626834
366.211 80.88005844852218
379.395 81.25807951032579
392.578 81.74856006653233
405.762 81.60642824937568
420.41 81.38026760918875
435.059 81.37776235036426
451.172 81.31841109180051
465.82 81.80269269413157
483.398 82.22821340888441
499.512 81.82634138168476
517.09 81.57122614187661
536.133 81.99410000757288
555.176 82.56024893311297
574.219 82.36168487796931
594.727 82.83358300736904
615.234 82.86504644939781
637.207 83.26723010470708
659.18 83.2481013840263
682.617 82.13656445379256
707.52 81.92307259132309
732.422 81.88317374490593
757.324 82.29726908051039
785.156 82.47796746626099
811.523 81.48381766509942
840.82 81.56817525197835
870.117 82.36988029180328
900.879 81.93715066107855
933.105 81.61101548293675
965.332 81.6062054633466
1000.49 82.28552810596324
1035.64 82.10668087266603
1072.27 82.15958344216834
1108.89 82.55310449453758
1148.44 82.35138766151682
1189.45 81.53624718040793
1230.47 80.46556210960723
1274.41 79.11319843542111
1319.82 78.49789405944486
1366.7 78.88236540447188
1413.57 79.08170974561278
1463.38 79.69913777769172
1516.11 79.92810473201031
1568.85 79.67569468176798
1624.51 79.60113153256974
1681.64 79.69477365393021
1741.7 80.17105240736393
1803.22 80.46273004919476
1866.21 80.21187984691876
1932.13 80.36343089419894
1999.51 80.55370215684886
2069.82 81.03259958075208
2143.07 80.50993769976537
2219.24 80.48524203100015
2296.88 81.05553083287113
2378.91 80.93325898266858
2462.4 80.98547958959647
2548.83 81.3050789716913
2639.65 81.84105079643804
2731.93 81.67835963009047
2828.61 82.02141028519158
2928.22 82.13058285783124
3030.76 82.5012114911666
3137.7 82.32093732594629
3249.02 82.39215367700785
3363.28 82.12225108691732
3481.93 81.88213609034234
3604.98 81.90020694620357
3732.42 81.98342056569825
3864.26 81.87559575679478
4000.49 81.9799308637546
4141.11 82.3887791790749
4287.6 82.31763049151283
4438.48 82.74359958290259
4595.21 82.79417827573269
4756.35 82.65426325379858
4924.8 82.33179583592332
5097.66 81.79951897862901
5277.83 81.55706804019046
5463.87 81.2491573075571
5657.23 81.11799962838398
5856.45 81.02529319858289
6062.99 80.92897337035524
6276.86 80.98203453711997
6498.05 80.85109132722093
6726.56 80.8163523735927
6963.87 80.6187584389532
7209.96 80.34427575187394
7464.84 80.01147811637928
7727.05 79.2794238884241
7999.51 78.53465004870083
8282.23 78.25910318051609
8573.73 78.22985067918322
8876.95 78.15484346936393
9188.96 77.88924661064432
9514.16 77.71931650365471
9849.61 77.77608622354425
10196.8 77.83175068548572
10555.7 77.75731940180324
10927.7 77.87502336867968
11313.0 78.02337123341502
11712.9 78.04923678826596
12126.0 78.37460178436154
12553.7 78.91373172885606
12996.1 79.5719493324751
13454.6 80.02636601814007
13929.2 80.18436347494107
14419.9 79.94125884168388
14928.2 79.57795820284095
15455.6 79.0293377084597
16000.5 78.27765674286346
16564.5 77.49856365253535
17148.9 76.59983786996992
17752.4 75.63213211309268
18379.4 74.79495051332783
19026.9 73.67555347305374
19697.8 72.32701155967877
19999.5 72.00970424051852
