Freq "Ceiling Bounce"
20.0 22.27788489009771
20.2909 26.073851178013342
20.586 28.814523370322718
20.8855 30.988842685501112
21.1893 32.764489810216986
21.4975 34.32113698751161
21.8102 35.71545640463637
22.1274 36.98177587181905
22.4492 38.14577587181904
22.7758 39.225095389063824
23.1071 40.23406229004087
23.4432 41.18338193337681
23.7841 42.07834906492755
24.1301 42.92866883437807
24.4811 43.740668834378084
24.8372 44.515636196524014
25.1984 45.25895609211267
25.5649 45.97092368487526
25.9368 46.65457138449486
26.3141 47.30757138449485
26.6968 47.93385933410471
27.0851 48.5321795080028
27.4791 49.10182739057501
27.8788 49.64082000616534
28.2843 50.15178829090641
28.6957 50.63043630389669
29.1131 51.077077206725335
29.5365 51.48939773335624
29.9661 51.86636647952312
30.402 52.20268713243274
30.8442 52.49430443568687
31.2929 52.74129771793858
31.748 52.94094609623406
32.2098 53.092915458538016
32.6783 53.186884975469695
33.1536 53.23352714139614
33.6359 53.238175781071675
34.1251 53.21049696531267
34.6215 53.18278825451236
35.125 53.19310961536584
35.6359 53.3240799009796
36.1543 53.63905034125406
36.6802 54.206371904758726
37.2137 55.061342575921685
37.755 56.143986006112385
38.3041 57.40495698443024
38.8613 58.743600768129795
39.4265 60.10389940512343
40.0 61.43622142436601
40.5818 62.714187783746695
41.1721 63.9174868384392
41.771 65.04548182790268
42.3785 66.0841034904011
42.9949 67.03642593966819
43.6203 67.90539822763901
44.2548 68.68437067033722
44.8985 69.3760160251142
45.5515 69.98533877799362
46.2141 70.5133116044457
46.8863 70.96360754157482
47.5683 71.34060754157481
48.2602 71.65958075389561
48.9621 71.93887728000567
49.6743 72.20387728000567
50.3968 72.4891741640218
51.1299 72.83582088673128
51.8736 73.28079486894438
52.6281 73.85044546657248
53.3936 74.547092595719
54.1702 75.34841623589156
54.9581 76.21806696394417
55.7575 77.10671444757486
56.5685 77.97736528002193
57.3914 78.79568912349278
58.2261 79.5430130173851
59.073 80.19633696170301
59.9323 80.75298792457916
60.804 81.21231194536588
61.6884 81.56963601658846
62.5857 81.84063601658846
63.496 82.03728708385663
64.4196 82.18528708385662
65.3566 82.31861123156071
66.3073 82.47528431035758
67.2717 82.68961123156072
68.2502 82.98428431035757
69.2429 83.35596013825099
70.2501 83.78628431035757
71.2719 84.23663324331223
72.3086 84.67030909725112
73.3603 85.0573090972511
74.4274 85.3783340389907
75.5099 85.63066095645061
76.6083 85.8210100198524
77.7226 85.97135913557496
78.8531 86.11071130067262
80.0 86.26706052080655
81.1636 86.45641293966821
82.3442 86.67743857530333
83.5419 86.90946436575949
84.757 87.11816682539357
85.9899 87.27086604922224
87.2406 87.33989605081257
88.5096 87.31292261335305
89.797 87.19694933069447
91.1031 87.01233024742315
92.4282 86.79770756137883
93.7726 86.59208957772927
95.1366 86.42779475166247
96.5204 86.3105002833399
97.9243 86.22255680323838
99.3486 86.13794106442893
100.794 86.03767693052774
102.26 85.92038435473457
103.747 85.80912178353229
105.256 85.7305087720658
106.787 85.70259956307075
108.34 85.72663640553077
109.916 85.77905004817814
111.515 85.8324713889269
113.137 85.86486220002777
114.783 85.86960607807477
116.452 85.8573509291694
118.146 85.84374397977689
119.865 85.85752401418193
121.608 85.9159188201698
123.377 86.02034847349839
125.171 86.15142602203207
126.992 86.27617694806212
128.839 86.36761041823222
130.713 86.42200943591425
132.615 86.46444529552937
134.543 86.52984593509059
136.5 86.63028418302552
138.486 86.73204117653412
140.5 86.8194442247934
142.544 86.86653095953262
144.617 86.88293549715043
146.721 86.9146960248466
148.855 86.99878563743914
151.02 87.12819245035213
153.217 87.26124416881217
155.445 87.35000804451425
157.706 87.3790608139906
160.0 87.36647012021722
162.327 87.36485235017031
164.688 87.40257805223044
167.084 87.4646326892533
169.514 87.50635912204217
171.98 87.53105807799471
174.481 87.60642858118864
177.019 87.77179928301592
179.594 87.96817018344268
182.206 88.06218462476318
184.856 88.01419921417627
187.545 87.93157060694477
190.273 87.89289969669076
193.041 87.89955802870885
195.849 87.93257313706067
198.697 88.0049024540119
201.587 88.06290245401188
204.52 88.018561240494
207.494 87.9088907100329
210.512 87.86986379271623
213.574 87.90719339104918
216.681 87.90816670945028
219.833 87.87849643659995
223.03 87.88514018564719
226.274 87.8847839874993
229.565 87.86075770134296
232.905 87.8980876114343
236.292 87.94973157298043
239.729 87.91470560241315
243.216 87.85634969658433
246.754 87.83834969658434
250.343 87.81232396364305
253.984 87.79167978964256
257.678 87.76865413467014
261.426 87.74965413467015
265.229 87.80698435662275
269.087 87.81198435662274
273.001 87.76867037434975
276.972 87.81667037434977
281.0 87.83235644167172
285.088 87.84535644167173
289.234 87.85472872508356
293.441 87.87508459985347
297.709 88.05944052740682
302.04 87.9928131119958
306.433 87.81085553612726
310.89 87.83454197805199
315.412 87.80925430282727
320.0 87.85598373119576
324.655 87.79435711614576
329.377 87.74208714788463
334.168 87.7734871465939
339.028 87.74957460232727
343.959 87.706305778892
348.962 87.61108172541216
354.038 87.59517101927422
359.188 87.52563651350795
364.412 87.51777298026622
369.713 87.42895708767921
375.09 87.34147406696283
380.546 87.38502167230409
386.081 87.32028163117891
391.697 87.2282943410241
397.394 87.13302608612906
403.175 87.09012847204113
409.039 87.04401867013704
414.989 86.95536705519433
421.025 86.86619434383789
427.149 86.80350470315634
433.362 86.69228650004655
439.665 86.56501473934865
446.06 86.40869428089351
452.548 86.25986975092471
459.131 86.08842520389479
465.809 85.9476054946259
472.584 85.81636412831728
479.458 85.68193744012561
486.432 85.59395460548211
493.507 85.5304087454897
500.686 85.4937334396877
507.968 85.49884860264007
515.357 85.52760492596646
522.853 85.58256806707249
530.458 85.65394053719658
538.174 85.72974088399425
546.002 85.80684331544623
553.943 85.88238105366364
562.001 85.95188124700782
570.175 86.00986202782605
578.469 86.05165096780433
586.883 86.07344139919398
595.419 86.07195791300002
604.08 86.04613206452211
612.866 85.99382649800927
621.78 85.91309471920191
630.824 85.80393965563303
640.0 85.67161254734607
649.309 85.51894634964381
658.753 85.34799423663824
668.335 85.1602747954348
678.056 84.97061851240888
687.919 84.7842810317433
697.925 84.61150115497908
708.077 84.46536224046348
718.376 84.350572481828
728.825 84.275820048567
739.426 84.24406269559675
750.181 84.25466874213093
761.093 84.30484609216967
772.163 84.38418493992508
783.394 84.4846472651041
794.789 84.59822427955237
806.349 84.71220877463914
818.078 84.81922585897794
829.977 84.91527655935995
842.05 84.99593412313118
854.298 85.06165164292456
866.724 85.11259266951575
879.33 85.1540377370972
892.12 85.18926048589793
905.097 85.22231412890086
918.262 85.25640639247925
931.618 85.29251212708432
945.169 85.32731071797355
958.917 85.35440030298969
972.864 85.3667529005245
987.015 85.35030115861343
1001.37 85.29337537157798
1015.94 85.18226814954463
1030.71 85.00711229481597
1045.71 84.75631950074816
1060.92 84.42416084922962
1076.35 84.02584531562626
1092.0 83.58067320001305
1107.89 83.12774837467218
1124.0 82.74481079841676
1140.35 82.51957421602722
1156.94 82.5268166536817
1173.77 82.78669747439093
1190.84 83.24415623106175
1208.16 83.80234141073493
1225.73 84.37029151236538
1243.56 84.87200749138893
1261.65 85.25144281896218
1280.0 85.48026538001947
1298.62 85.5430227886015
1317.51 85.43381623276429
1336.67 85.15160615308756
1356.11 84.71431772418883
1375.84 84.15369826266611
1395.85 83.54050503272767
1416.15 82.99681993266232
1436.75 82.66625967462676
1457.65 82.65913638795578
1478.85 82.98245423600929
1500.36 83.53280122545922
1522.19 84.1813113007754
1544.33 84.82430593804477
1566.79 85.39673039229159
1589.58 85.86671376917535
1612.7 86.2161177237443
1636.16 86.43876634252236
1659.95 86.5272921313562
1684.1 86.47424896229734
1708.6 86.27657653070096
1733.45 85.94611176651716
1758.66 85.50672237316712
1784.24 85.02466168967986
1810.19 84.59377571591206
1836.52 84.30163676953359
1863.24 84.18968550693026
1890.34 84.20545617280915
1917.83 84.23401724267386
1945.73 84.15778702384847
1974.03 83.8970615455438
2002.74 83.43068489537247
2031.87 82.80302189647921
2061.43 82.13640020512464
2091.41 81.60216073003215
2121.83 81.34541461290985
2152.69 81.38109309982988
2184.01 81.58834626991592
2215.77 81.83047981852584
2248.0 82.0257865497806
2280.7 82.16540725172165
2313.87 82.28416933379022
2347.53 82.43217987051445
2381.68 82.62652826437628
2416.32 82.82641974132964
2451.46 82.94384024157245
2487.12 82.90512310120519
2523.3 82.72559145716275
2560.0 82.54488927495602
2597.24 82.53725095157692
2635.01 82.70451058026849
2673.34 82.83013949103636
2712.23 82.69317077750686
2751.68 82.3007558645933
2791.7 81.98891029280057
2832.31 82.13355023159141
2873.5 82.59549053014304
2915.3 82.88879202444087
2957.7 82.75335456113461
3000.72 82.33428618887898
3044.37 82.02117130051148
3088.65 82.00664604076914
3133.58 82.12815317369146
3179.16 82.27486035860471
3225.4 82.54755669503872
3272.31 82.92911573509294
3319.91 83.20766938505653
3368.2 83.28577239732631
3417.19 83.28005397632255
3466.89 83.31458866593452
3517.32 83.45172813762738
3568.48 83.81983862957107
3620.39 84.37774650486367
3673.05 84.72856370896443
3726.47 84.61775256122948
3780.67 84.41441714133335
3835.67 84.69034082637722
3891.46 85.2604775685132
3948.06 85.64358622642416
4005.49 85.83545757978762
4063.75 85.89739409004383
4122.86 85.6644989179581
4182.82 85.3432775821353
4243.66 85.53545566788247
4305.39 86.03580975195855
4368.01 86.10596598132814
4431.55 85.69628397957368
4496.01 85.38781617713794
4561.4 85.51099008818076
4627.75 85.87583283015522
4695.06 86.19747663596355
4763.35 86.07654014477276
4832.64 85.31201322370065
4902.93 84.5623598700977
4974.24 84.50052448303019
5046.6 84.52460448263088
5120.0 84.39782331190096
5194.47 84.24387119377498
5270.03 83.74953935036471
5346.68 83.27018193155865
5424.45 83.14807128269152
5503.35 83.07414769913862
5583.4 82.98682868531483
5664.61 82.71735773571571
5747.01 82.79848907264656
5830.6 83.2201050587168
5915.41 82.9003789255497
6001.45 82.33823232808349
6088.74 82.59986496100672
6177.3 82.66663557844667
6267.15 82.39205212995185
6358.31 82.30571114994595
6450.8 82.49408118910426
6544.62 82.73651525748019
6639.82 82.80487381298775
6736.4 83.01718852797813
6834.38 83.00994691146019
6933.79 82.99251425474083
7034.64 82.88742982755984
7136.96 82.9623755785602
7240.77 82.84917129954925
7346.09 82.80168480582819
7452.94 83.00103216568607
7561.35 83.3573721913583
7671.33 83.06380728719483
7782.91 82.82343613861329
7896.12 82.47106012042161
8010.97 81.80395695842185
8127.49 81.33871844784032
8245.71 81.90526955835365
8365.65 81.58846088581159
8487.33 81.3096360263572
8610.78 81.30523477233872
8736.03 80.90080515438882
8863.09 80.47416002935023
8992.01 81.00050557695504
9122.8 80.43853622012529
9255.5 80.19180631441607
9390.12 79.47148968313088
9526.7 78.66235040855571
9665.27 78.34609891958907
9805.86 78.1367168514652
9948.49 77.75306378735027
10093.2 77.66299937994677
10240.0 77.27063691109238
10388.9 77.54375548191412
10540.1 77.75818228046673
10693.4 77.91370481580606
10848.9 77.58636100588237
11006.7 77.44649540223838
11166.8 77.738636789782
11329.2 78.53950355001243
11494.0 79.26797037702397
11661.2 79.74843887876368
11830.8 80.25539051401772
12002.9 80.74131578731061
12177.5 81.4012311487383
12354.6 81.84096077732636
12534.3 81.77738568840148
12716.6 81.21120894233015
12901.6 81.05604550055888
13089.2 81.86205100430641
13279.6 82.30119750459781
13472.8 81.80890205469447
13668.8 80.6758053550148
13867.6 80.27462571346436
14069.3 80.80929668768034
14273.9 81.43005072686378
14481.5 81.1106152079625
14692.2 80.94052172451804
14905.9 80.85499694727494
15122.7 81.00101846093084
15342.7 80.73499895429224
15565.8 80.50569644483443
15792.2 81.10967567269633
16021.9 81.70689111612765
16255.0 81.76152251880052
16491.4 81.45168339387682
16731.3 81.23711478622846
16974.7 80.85941078297586
17221.6 80.55979711250271
17472.1 80.79383926121955
17726.2 81.13478581345339
17984.0 81.14679262024646
18245.6 80.10245531577519
18511.0 79.27814402243514
18780.2 79.260443111109
19053.4 78.96705512395965
19330.5 77.82899809449918
19611.7 77.02272883445312
19897.0 76.20672490152
