Freq "Ceiling Bounce"
20.0 22.871293695129154
20.2909 26.667259983044787
20.586 29.407932175354162
20.8855 31.582251490532556
21.1893 33.35789861524843
21.4975 34.91454579254305
21.8102 36.308865209667815
22.1274 37.5751846768505
22.4492 38.739184676850485
22.7758 39.81850419409527
23.1071 40.82747109507231
23.4432 41.77679073840825
23.7841 42.671757869958995
24.1301 43.52207763940952
24.4811 44.33407763940953
24.8372 45.10904500155546
25.1984 45.85236489714411
25.5649 46.564332489906704
25.9368 47.2479801895263
26.3141 47.900980189526294
26.6968 48.527268139136154
27.0851 49.12558831303424
27.4791 49.695236195606455
27.8788 50.234228811196786
28.2843 50.745197095937854
28.6957 51.22384510892813
29.1131 51.67048601175678
29.5365 52.082806538387686
29.9661 52.45977528455457
30.402 52.79609593746419
30.8442 53.087713240718315
31.2929 53.33470652297002
31.748 53.5343549012655
32.2098 53.68632426356946
32.6783 53.78029378050114
33.1536 53.82693594642758
33.6359 53.83158458610312
34.1251 53.803905770344116
34.6215 53.776197059543804
35.125 53.786518420397286
35.6359 53.91748870601104
36.1543 54.23245914628551
36.6802 54.79978070979017
37.2137 55.65475138095313
37.755 56.73739481114383
38.3041 57.99836578946169
38.8613 59.33700957316124
39.4265 60.69730821015487
40.0 62.029630229397455
40.5818 63.30759658877814
41.1721 64.51089564347065
41.771 65.63889063293412
42.3785 66.67751229543255
42.9949 67.62983474469964
43.6203 68.49880703267046
44.2548 69.27777947536866
44.8985 69.96942483014564
45.5515 70.57874758302506
46.2141 71.10672040947715
46.8863 71.55701634660626
47.5683 71.93401634660626
48.2602 72.25298955892706
48.9621 72.53228608503711
49.6743 72.79728608503711
50.3968 73.08258296905325
51.1299 73.42922969176273
51.8736 73.87420367397583
52.6281 74.44385427160393
53.3936 75.14050140075044
54.1702 75.941825040923
54.9581 76.81147576897561
55.7575 77.7001232526063
56.5685 78.57077408505337
57.3914 79.38909792852422
58.2261 80.13642182241655
59.073 80.78974576673446
59.9323 81.3463967296106
60.804 81.80572075039733
61.6884 82.1630448216199
62.5857 82.4340448216199
63.496 82.63069588888807
64.4196 82.77869588888807
65.3566 82.91202003659215
66.3073 83.06869311538902
67.2717 83.28302003659216
68.2502 83.57769311538901
69.2429 83.94936894328244
70.2501 84.37969311538902
71.2719 84.83004204834367
72.3086 85.26371790228256
73.3603 85.65071790228255
74.4274 85.97174284402215
75.5099 86.22406976148206
76.6083 86.41441882488384
77.7226 86.5647679406064
78.8531 86.70412010570406
80.0 86.860469325838
81.1636 87.04982174469966
82.3442 87.27084738033477
83.5419 87.50287317079093
84.757 87.71157563042502
85.9899 87.86427485425368
87.2406 87.93330485584401
88.5096 87.9063314183845
89.797 87.79035813572591
91.1031 87.6057390524546
92.4282 87.39111636641027
93.7726 87.18549838276071
95.1366 87.02120355669392
96.5204 86.90390908837135
97.9243 86.81596560826982
99.3486 86.73134986946037
100.794 86.63108573555918
102.26 86.51379315976601
103.747 86.40253058856374
105.256 86.32391757709725
106.787 86.29600836810219
108.34 86.32004521056221
109.916 86.37245885320958
111.515 86.42588019395835
113.137 86.45827100505922
114.783 86.46301488310621
116.452 86.45075973420084
118.146 86.43715278480833
119.865 86.45093281921338
121.608 86.50932762520124
123.377 86.61375727852983
125.171 86.74483482706351
126.992 86.86958575309356
128.839 86.96101922326366
130.713 87.01541824094569
132.615 87.05785410056082
134.543 87.12325474012204
136.5 87.22369298805697
138.486 87.32544998156557
140.5 87.41285302982484
142.544 87.45993976456407
144.617 87.47634430218187
146.721 87.50810482987805
148.855 87.59219444247059
151.02 87.72160125538358
153.217 87.85465297384361
155.445 87.9434168495457
157.706 87.97246961902205
160.0 87.95987892524866
162.327 87.95826115520175
164.688 87.99598685726188
167.084 88.05804149428475
169.514 88.09976792707361
171.98 88.12446688302616
174.481 88.19983738622008
177.019 88.36520808804737
179.594 88.56157898847412
182.206 88.65559342979462
184.856 88.60760801920772
187.545 88.52497941197622
190.273 88.4863085017222
193.041 88.4929668337403
195.849 88.52598194209212
198.697 88.59831125904334
201.587 88.65631125904332
204.52 88.61197004552544
207.494 88.50229951506435
210.512 88.46327259774768
213.574 88.50060219608062
216.681 88.50157551448173
219.833 88.47190524163139
223.03 88.47854899067863
226.274 88.47819279253075
229.565 88.4541665063744
232.905 88.49149641646575
236.292 88.54314037801187
239.729 88.5081144074446
243.216 88.44975850161578
246.754 88.43175850161579
250.343 88.4057327686745
253.984 88.385088594674
257.678 88.36206293970159
261.426 88.3430629397016
265.229 88.4003931616542
269.087 88.40539316165419
273.001 88.3620791793812
276.972 88.41007917938121
281.0 88.42576524670316
285.088 88.43876524670317
289.234 88.448137530115
293.441 88.46849340488491
297.709 88.65284933243827
302.04 88.58622191702725
306.433 88.40426434115871
310.89 88.42795078308343
315.412 88.40266310785871
320.0 88.44939253622721
324.655 88.3877659211772
329.377 88.33549595291608
334.168 88.36689595162534
339.028 88.34298340735872
343.959 88.29971458392345
348.962 88.2044905304436
354.038 88.18857982430566
359.188 88.11904531853939
364.412 88.11118178529766
369.713 88.02236589271065
375.09 87.93488287199428
380.546 87.97843047733554
386.081 87.91369043621036
391.697 87.82170314605554
397.394 87.72643489116051
403.175 87.68353727707257
409.039 87.63742747516848
414.989 87.54877586022577
421.025 87.45960314886933
427.149 87.39691350818778
433.362 87.285695305078
439.665 87.1584235443801
446.06 87.00210308592496
452.548 86.85327855595615
459.131 86.68183400892623
465.809 86.54101429965735
472.584 86.40977293334872
479.458 86.27534624515705
486.432 86.18736341051356
493.507 86.12381755052114
500.686 86.08714224471915
507.968 86.09225740767151
515.357 86.1210137309979
522.853 86.17597687210393
530.458 86.24734934222802
538.174 86.3231496890257
546.002 86.40025212047767
553.943 86.47578985869508
562.001 86.54529005203926
570.175 86.60327083285749
578.469 86.64505977283578
586.883 86.66685020422543
595.419 86.66536671803146
604.08 86.63954086955356
612.866 86.58723530304071
621.78 86.50650352423335
630.824 86.39734846066447
640.0 86.26502135237752
649.309 86.11235515467526
658.753 85.94140304166969
668.335 85.75368360046625
678.056 85.56402731744032
687.919 85.37768983677475
697.925 85.20490996001053
708.077 85.05877104549492
718.376 84.94398128685944
728.825 84.86922885359844
739.426 84.8374715006282
750.181 84.84807754716238
761.093 84.89825489720111
772.163 84.97759374495652
783.394 85.07805607013555
794.789 85.19163308458381
806.349 85.30561757967058
818.078 85.41263466400939
829.977 85.5086853643914
842.05 85.58934292816262
854.298 85.655060447956
866.724 85.7060014745472
879.33 85.74744654212864
892.12 85.78266929092938
905.097 85.8157229339323
918.262 85.8498151975107
931.618 85.88592093211577
945.169 85.92071952300499
958.917 85.94780910802113
972.864 85.96016170555595
987.015 85.94370996364488
1001.37 85.88678417660942
1015.94 85.77567695457607
1030.71 85.60052109984741
1045.71 85.3497283057796
1060.92 85.01756965426107
1076.35 84.6192541206577
1092.0 84.1740820050445
1107.89 83.72115717970362
1124.0 83.33821960344821
1140.35 83.11298302105867
1156.94 83.12022545871315
1173.77 83.38010627942238
1190.84 83.8375650360932
1208.16 84.39575021576637
1225.73 84.96370031739683
1243.56 85.46541629642037
1261.65 85.84485162399362
1280.0 86.07367418505092
1298.62 86.13643159363295
1317.51 86.02722503779573
1336.67 85.745014958119
1356.11 85.30772652922028
1375.84 84.74710706769756
1395.85 84.13391383775911
1416.15 83.59022873769376
1436.75 83.2596684796582
1457.65 83.25254519298723
1478.85 83.57586304104073
1500.36 84.12621003049067
1522.19 84.77472010580685
1544.33 85.41771474307622
1566.79 85.99013919732303
1589.58 86.46012257420679
1612.7 86.80952652877575
1636.16 87.0321751475538
1659.95 87.12070093638765
1684.1 87.06765776732878
1708.6 86.86998533573241
1733.45 86.53952057154861
1758.66 86.10013117819857
1784.24 85.6180704947113
1810.19 85.1871845209435
1836.52 84.89504557456503
1863.24 84.7830943119617
1890.34 84.7988649778406
1917.83 84.8274260477053
1945.73 84.75119582887991
1974.03 84.49047035057525
2002.74 84.02409370040391
2031.87 83.39643070151065
2061.43 82.72980901015609
2091.41 82.1955695350636
2121.83 81.9388234179413
2152.69 81.97450190486133
2184.01 82.18175507494736
2215.77 82.42388862355729
2248.0 82.61919535481205
2280.7 82.75881605675309
2313.87 82.87757813882166
2347.53 83.02558867554589
2381.68 83.21993706940772
2416.32 83.41982854636109
2451.46 83.53724904660389
2487.12 83.49853190623664
2523.3 83.3190002621942
2560.0 83.13829807998746
2597.24 83.13065975660837
2635.01 83.29791938529993
2673.34 83.4235482960678
2712.23 83.28657958253831
2751.68 82.89416466962474
2791.7 82.58231909783201
2832.31 82.72695903662286
2873.5 83.18889933517448
2915.3 83.48220082947232
2957.7 83.34676336616606
3000.72 82.92769499391042
3044.37 82.61458010554293
3088.65 82.60005484580059
3133.58 82.7215619787229
3179.16 82.86826916363616
3225.4 83.14096550007017
3272.31 83.52252454012438
3319.91 83.80107819008798
3368.2 83.87918120235776
3417.19 83.873462781354
3466.89 83.90799747096597
3517.32 84.04513694265883
3568.48 84.41324743460251
3620.39 84.97115530989511
3673.05 85.32197251399587
3726.47 85.21116136626092
3780.67 85.00782594636479
3835.67 85.28374963140867
3891.46 85.85388637354464
3948.06 86.2369950314556
4005.49 86.42886638481906
4063.75 86.49080289507528
4122.86 86.25790772298954
4182.82 85.93668638716674
4243.66 86.12886447291392
4305.39 86.62921855699
4368.01 86.69937478635958
4431.55 86.28969278460512
4496.01 85.98122498216938
4561.4 86.1043988932122
4627.75 86.46924163518666
4695.06 86.790885440995
4763.35 86.66994894980421
4832.64 85.90542202873209
4902.93 85.15576867512914
4974.24 85.09393328806163
5046.6 85.11801328766232
5120.0 84.99123211693241
5194.47 84.83727999880642
5270.03 84.34294815539616
5346.68 83.8635907365901
5424.45 83.74148008772296
5503.35 83.66755650417007
5583.4 83.58023749034628
5664.61 83.31076654074715
5747.01 83.391897877678
5830.6 83.81351386374824
5915.41 83.49378773058115
6001.45 82.93164113311494
6088.74 83.19327376603816
6177.3 83.26004438347812
6267.15 82.9854609349833
6358.31 82.8991199549774
6450.8 83.08748999413571
6544.62 83.32992406251164
6639.82 83.3982826180192
6736.4 83.61059733300958
6834.38 83.60335571649163
6933.79 83.58592305977227
7034.64 83.48083863259129
7136.96 83.55578438359164
7240.77 83.4425801045807
7346.09 83.39509361085963
7452.94 83.59444097071751
7561.35 83.95078099638974
7671.33 83.65721609222628
7782.91 83.41684494364473
7896.12 83.06446892545306
8010.97 82.3973657634533
8127.49 81.93212725287177
8245.71 82.4986783633851
8365.65 82.18186969084303
8487.33 81.90304483138864
8610.78 81.89864357737017
8736.03 81.49421395942026
8863.09 81.06756883438167
8992.01 81.59391438198648
9122.8 81.03194502515673
9255.5 80.78521511944751
9390.12 80.06489848816233
9526.7 79.25575921358715
9665.27 78.93950772462051
9805.86 78.73012565649664
9948.49 78.34647259238172
10093.2 78.25640818497821
10240.0 77.86404571612383
10388.9 78.13716428694556
10540.1 78.35159108549817
10693.4 78.5071136208375
10848.9 78.17976981091381
11006.7 78.03990420726983
11166.8 78.33204559481345
11329.2 79.13291235504387
11494.0 79.86137918205542
11661.2 80.34184768379512
11830.8 80.84879931904916
12002.9 81.33472459234206
12177.5 81.99463995376975
12354.6 82.4343695823578
12534.3 82.37079449343292
12716.6 81.80461774736159
12901.6 81.64945430559033
13089.2 82.45545980933785
13279.6 82.89460630962925
13472.8 82.40231085972592
13668.8 81.26921416004625
13867.6 80.8680345184958
14069.3 81.40270549271179
14273.9 82.02345953189523
14481.5 81.70402401299394
14692.2 81.53393052954948
14905.9 81.44840575230639
15122.7 81.59442726596228
15342.7 81.32840775932368
15565.8 81.09910524986587
15792.2 81.70308447772777
16021.9 82.3002999211591
16255.0 82.35493132383196
16491.4 82.04509219890826
16731.3 81.8305235912599
16974.7 81.4528195880073
17221.6 81.15320591753415
17472.1 81.38724806625099
17726.2 81.72819461848484
17984.0 81.7402014252779
18245.6 80.69586412080663
18511.0 79.87155282746659
18780.2 79.85385191614044
19053.4 79.5604639289911
19330.5 78.42240689953063
19611.7 77.61613763948456
19897.0 76.80013370655145
