Freq "Listening Window"
20.5078 38.93736185579577
21.9727 39.540905499973675
23.4375 42.00587481153714
24.9023 43.44109497368724
26.3672 44.98198094608058
27.832 46.81767403632692
29.2969 48.66677205552851
30.7617 50.324452242869384
32.2266 52.01665607403491
33.6914 53.77573370601279
35.1563 55.32750552559283
36.6211 57.015478365554074
38.0859 58.382391889113975
39.5508 59.983362686901316
41.0156 61.91799251357982
42.4805 62.97572778526292
43.9453 64.17569358732284
45.4102 65.50057143189127
46.875 66.80396513629198
48.3398 68.04680884232948
51.2695 70.2186827618709
52.7344 71.33919674262572
54.1992 72.33910621628208
55.6641 73.29277329718751
58.5938 75.10022068389615
60.0586 76.04336845271989
62.9883 77.73064684612618
64.4531 78.37489139541081
67.3828 79.32265293518061
68.8477 79.6886938202088
71.7773 80.5961491717381
74.707 80.95696478990938
77.6367 80.93883350002798
79.1016 81.1007818620128
82.0313 81.45465940711632
84.9609 81.3448257848137
87.8906 81.37681461801688
90.8203 81.14622453368337
95.2148 81.37260079994034
98.1445 81.18670843559129
101.074 81.36918846522751
105.469 81.1902744693443
108.398 81.24481659712656
112.793 81.70192071864871
117.188 81.54095871887155
120.117 82.00914233776858
124.512 81.90326917969658
128.906 81.87660276126556
133.301 82.00034456497482
139.16 82.00540435787045
143.555 82.11154177616677
147.949 82.02628983697494
153.809 82.38238592611899
159.668 82.67173321019908
165.527 82.70860161659141
171.387 82.68634086943347
177.246 82.63872290494625
183.105 82.6049377411451
188.965 82.70575684306745
196.289 82.87121638562692
203.613 82.8022660848007
210.938 82.82068160988074
218.262 82.78365978797031
225.586 82.77072409805668
232.91 82.8137687775447
241.699 82.77756070218437
250.488 82.73804196299963
259.277 82.92719443019281
268.066 82.3866722975795
276.855 82.44995568082643
287.109 82.75687887908055
297.363 82.74419000962544
307.617 82.41666612879708
319.336 81.9049159107587
329.59 81.8618155779347
341.309 81.41568099966682
353.027 81.6626953455607
366.211 82.20626634355811
379.395 83.09062727957394
392.578 82.87294896490035
405.762 82.45173689853688
420.41 82.95208364199142
435.059 82.47441536556836
451.172 82.75981701873204
465.82 82.60507902100609
483.398 82.31366753175172
499.512 82.3617233509784
517.09 82.4418116676266
536.133 81.84841836373309
555.176 82.56340364868704
574.219 82.37912617153493
594.727 81.67527580336288
615.234 81.0657549302717
637.207 81.51482182198038
659.18 82.29912861533107
682.617 82.39097661502142
707.52 82.82711880418431
732.422 82.98034797851984
757.324 83.15457877125525
785.156 83.54018092103412
811.523 83.31134656076426
840.82 83.55903716039155
870.117 83.54151761407323
900.879 84.05903605279147
933.105 84.02334527996807
965.332 84.18390703066864
1000.49 84.07952385499887
1035.64 83.53323116708167
1072.27 83.1060512830058
1108.89 82.77209415845188
1148.44 82.68113974064993
1189.45 83.38418193499938
1230.47 83.44080423252014
1274.41 83.32253671752323
1319.82 83.03844534332679
1366.7 82.89650087819265
1413.57 82.47619708152945
1463.38 82.4902809451119
1516.11 83.17593906816181
1568.85 83.761976735429
1624.51 83.41319868654195
1681.64 82.57145276861583
1741.7 83.26398845019845
1803.22 83.21941383736986
1866.21 83.17551957574527
1932.13 82.79881510581306
1999.51 82.82233526314876
2069.82 83.73252400703696
2143.07 83.10383401629905
2219.24 82.55464522014933
2296.88 82.77398169794529
2378.91 83.59819851526844
2462.4 82.80213847698893
2548.83 82.3229919550662
2639.65 82.77824399364432
2731.93 82.82422606567268
2828.61 82.80751567226594
2928.22 82.87160804170423
3030.76 82.59919877985199
3137.7 82.78386319180797
3249.02 82.41706249316123
3363.28 82.32305440889202
3481.93 82.13647569123978
3604.98 82.09782093551344
3732.42 81.99243736133447
3864.26 81.86196817583992
4000.49 81.99958101505517
4141.11 82.58243402186265
4287.6 82.39668193634007
4438.48 82.23367129441824
4595.21 82.37614529845725
4756.35 82.08221688698691
4924.8 82.1191507255117
5097.66 82.01424115548623
5277.83 82.065251198323
5463.87 81.50019238882574
5657.23 81.65775389137505
5856.45 81.65669604966018
6062.99 81.59619617861897
6276.86 81.68466914240133
6498.05 81.67384495114928
6726.56 81.78630771431763
6963.87 81.29126378488569
7209.96 80.80066888608448
7464.84 80.26944518130588
7727.05 80.12636467822021
7999.51 80.4766278104734
8282.23 81.12412966207258
8573.73 81.4970601547079
8876.95 81.46584742262444
9188.96 81.29606159148685
9514.16 81.25848232958622
9849.61 81.41203614227646
10196.8 81.67130686972425
10555.7 81.78354381528044
10927.7 81.608253068049
11313.0 81.31570494842433
11712.9 80.92218010781797
12126.0 80.7033953159926
12553.7 80.7742353759562
12996.1 80.61269818677125
13454.6 80.4491475955124
13929.2 80.26103065062166
14419.9 80.07729904353786
14928.2 80.10476137515909
15455.6 80.50222486531483
16000.5 80.51827587296607
16564.5 79.86728805594899
17148.9 78.31201323460205
17752.4 80.06425290742946
18379.4 79.5445015577181
19026.9 78.03142780358128
19697.8 77.05252136066743
19999.5 76.52604079295713
