Freq "Sound Power"
20.5078 41.9852662247137
21.9727 44.115581928560474
23.4375 44.97564829586004
24.9023 46.83786605974022
26.3672 48.38688284384348
27.832 49.77152156212826
29.2969 51.354845198284025
30.7617 52.758711896961344
32.2266 54.334304684669476
33.6914 55.76463941552497
35.1563 57.266601285387495
36.6211 58.683697966781054
38.0859 60.02388029539013
39.5508 61.57332012341389
41.0156 63.00619743953942
42.4805 64.13910955687568
43.9453 65.29835535384565
45.4102 66.63695524363546
46.875 67.84534450317658
48.3398 68.97252354129712
51.2695 71.16342189657442
52.7344 72.21940402169065
54.1992 73.17791695654708
55.6641 74.10506383750115
58.5938 75.86704864466267
60.0586 76.77258559646059
62.9883 78.47547222304524
64.4531 79.13099052427121
67.3828 80.06161176809219
68.8477 80.4121272116909
71.7773 81.35045574745786
74.707 81.71247246283939
77.6367 81.66272695746677
79.1016 81.83877075768181
82.0313 82.15600831357409
84.9609 81.95502840757932
87.8906 82.00238887868528
90.8203 82.14238387494929
95.2148 81.93543092965082
98.1445 81.89832866545036
101.074 82.07369969179365
105.469 81.94836043343001
108.398 81.9524804957306
112.793 82.33651033989202
117.188 82.17047741500697
120.117 82.603476478372
124.512 82.5399672808197
128.906 82.42203327922573
133.301 82.51789590638572
139.16 82.63153283613539
143.555 82.72343045010405
147.949 82.68463767426253
153.809 82.8041157882301
159.668 82.99935313744149
165.527 83.08890546642324
171.387 83.06465071128632
177.246 82.99467872205274
183.105 82.91088011190003
188.965 82.90881909539283
196.289 83.0082027782659
203.613 82.81522849171053
210.938 82.75927850861213
218.262 82.72943855802369
225.586 82.6534990441914
232.91 82.51132833904099
241.699 82.414107725411
250.488 82.23438370868449
259.277 82.42949097098628
268.066 81.95736854227711
276.855 81.8116260074252
287.109 81.8904339851199
297.363 81.7345007368485
307.617 81.8089502560949
319.336 81.41447566938625
329.59 81.22058298786392
341.309 80.88585950912518
353.027 80.42049294454988
366.211 80.56945878449035
379.395 81.3872697973523
392.578 81.17603379512818
405.762 80.613003469088
420.41 80.81882313124792
435.059 80.70716590998397
451.172 80.41127014084488
465.82 80.30059441340062
483.398 80.02302061567437
499.512 80.04553853073968
517.09 80.10475998131608
536.133 79.46408494604205
555.176 79.42176481279438
574.219 79.61289398904523
594.727 79.31776828760721
615.234 79.22206606662154
637.207 79.31533229157331
659.18 79.23117547354377
682.617 79.31512934506
707.52 79.58849616399169
732.422 79.67471526334312
757.324 79.95811441477362
785.156 80.14186312141395
811.523 79.82092027622635
840.82 79.80984601144165
870.117 79.563178620534
900.879 79.7843683759436
933.105 79.69984688436817
965.332 79.65479099933978
1000.49 79.39821978087447
1035.64 79.11641379156778
1072.27 78.71534479643857
1108.89 78.54070635673001
1148.44 78.41828049833896
1189.45 78.56417576785145
1230.47 78.6786195957028
1274.41 78.58816178473232
1319.82 78.4814096277847
1366.7 78.32592067603548
1413.57 78.00223871542994
1463.38 77.82208550245137
1516.11 77.94800964676239
1568.85 78.12344432357885
1624.51 78.20410786071594
1681.64 78.15111221420868
1741.7 77.92951541621147
1803.22 77.81264684555725
1866.21 77.48782291090048
1932.13 77.11715549113178
1999.51 77.17612667683517
2069.82 77.67477950324194
2143.07 77.0735319888533
2219.24 76.53221760787217
2296.88 76.7025195032926
2378.91 77.03105159866116
2462.4 76.74622667720602
2548.83 76.61244387942008
2639.65 77.15323327495817
2731.93 77.47790272883346
2828.61 78.11055982657822
2928.22 78.54974755802414
3030.76 78.63373752080665
3137.7 79.1714067588113
3249.02 79.13694263706479
3363.28 79.18336260182092
3481.93 78.88475200219186
3604.98 78.369718028046
3732.42 77.77734278936398
3864.26 77.56932105747462
4000.49 77.22002471318194
4141.11 77.24939215645924
4287.6 76.80495273426905
4438.48 76.92812717274029
4595.21 76.80598095923885
4756.35 76.76073598315772
4924.8 76.79008732101012
5097.66 76.6378439193838
5277.83 76.2383374991782
5463.87 75.8088859695482
5657.23 75.94850197380457
5856.45 75.850452815516
6062.99 75.7596729637066
6276.86 75.59324898353634
6498.05 75.5397227833234
6726.56 75.5530951461996
6963.87 75.22905019337448
7209.96 74.86840198263116
7464.84 74.34340097245395
7727.05 74.25443872524754
7999.51 74.31157792836726
8282.23 74.47348171487602
8573.73 74.57162009697602
8876.95 74.3306335321847
9188.96 74.0669161600073
9514.16 73.85256550314315
9849.61 73.74217691485936
10196.8 73.76113693453125
10555.7 73.72311684560752
10927.7 73.50133632923014
11313.0 73.2698537176869
11712.9 72.8712375188523
12126.0 72.47744751473176
12553.7 72.20624443128123
12996.1 71.96315730777147
13454.6 71.54530441707986
13929.2 71.18026288316108
14419.9 70.87958101503527
14928.2 70.75988747483541
15455.6 70.93561275201597
16000.5 70.71939722639098
16564.5 69.76292955729811
17148.9 68.10681305838752
17752.4 69.48008433643312
18379.4 68.44624732245333
19026.9 66.64701396992373
19697.8 65.28466829056529
19999.5 64.63206937200124
