Freq "On Axis"
20.5078 54.098600000000005
21.2402 55.44800000000001
21.9727 56.45689999999999
22.7051 57.3117
23.4375 58.863699999999994
24.1699 60.0022
25.6348 62.12299999999999
26.3672 62.6374
27.0996 63.696499999999986
27.832 64.52590000000001
29.2969 65.7859
30.0293 66.76999999999998
31.4941 68.2263
32.2266 68.7373
33.6914 69.7584
34.4238 70.3471
35.8887 71.2831
37.3535 72.1625
38.8184 72.9727
39.5508 73.3098
41.0156 73.92079999999999
42.4805 74.5523
43.9453 75.1346
45.4102 75.6562
47.6074 76.3118
49.0723 76.696
50.5371 77.15
52.7344 77.7151
54.1992 77.9939
56.3965 78.52009999999999
58.5938 79.0589
60.0586 79.3349
62.2559 79.8588
64.4531 80.1244
66.6504 80.4924
69.5801 80.9505
71.7773 81.2353
73.9746 81.4634
76.9043 81.784
79.834 82.05339999999998
82.7637 82.259
85.6934 82.6053
88.623 82.8134
91.5527 82.93790000000001
94.4824 83.0573
98.1445 83.1611
101.807 83.2254
105.469 83.25490000000002
109.131 83.2414
112.793 83.2475
116.455 83.2029
120.85 83.32740000000001
125.244 83.4703
129.639 83.4387
134.033 83.35399999999998
138.428 83.19729999999998
143.555 83.2296
148.682 83.2939
153.809 83.1234
159.668 82.92599999999999
164.795 82.8241
170.654 82.7583
176.514 82.69629999999998
183.105 82.5974
189.697 82.35410000000002
196.289 82.1265
202.881 82.024
210.205 81.9228
217.529 81.6969
225.586 81.4037
232.91 81.2727
241.699 81.1998
249.756 81.5676
258.545 81.3562
268.066 81.0035
277.588 80.70939999999999
287.109 80.348
297.363 80.0726
307.617 78.6707
318.604 82.195
329.59 82.3663
341.309 81.55090000000001
353.76 81.3681
366.211 81.5455
378.662 81.8423
392.578 81.9014
405.762 81.46689999999998
420.41 81.22900000000001
435.059 80.8818
450.439 80.3949
466.553 81.2022
482.666 81.0596
500.244 80.8394
517.822 80.2662
536.133 79.9718
554.443 79.8033
574.219 80.1892
594.727 79.91140000000001
615.234 80.5372
637.207 81.2202
659.912 81.8304
683.35 81.4012
706.787 81.1716
731.689 82.23500000000001
758.057 82.2295
784.424 81.5861
812.256 81.9362
840.82 82.7003
870.85 82.3942
901.611 82.8169
933.105 83.004
966.064 82.5934
999.756 82.2243
1034.91 81.80700000000002
1071.53 81.58509999999998
1109.62 81.8735
1148.44 82.0772
1189.45 81.7329
1231.2 83.2341
1274.41 83.2054
1319.82 83.2633
1365.97 82.4321
1414.31 82.32900000000001
1464.11 82.94460000000001
1515.38 83.32489999999999
1568.85 82.9666
1624.51 82.39189999999999
1681.64 82.1706
1740.97 82.4963
1802.49 82.4213
1866.21 81.74269999999999
1932.13 81.01919999999998
2000.24 80.7612
2070.56 80.2027
2143.8 79.24790000000002
2219.24 79.4658
2297.61 80.8087
2378.17 80.95069999999998
2462.4 80.3288
2548.83 82.18859999999998
2638.92 82.4273
2731.93 81.0614
2828.61 81.44840000000002
2928.22 82.3018
3031.49 82.0738
3138.43 82.1142
3249.02 83.32830000000001
3363.28 82.7868
3481.93 82.6937
3604.98 82.0929
3732.42 83.1184
3863.53 83.18209999999999
3999.76 84.15880000000001
4141.11 84.2279
4286.87 84.2749
4438.48 85.2883
4594.48 84.5326
4757.08 84.0778
4924.8 83.2722
5098.39 83.2494
5277.83 82.6833
5463.87 82.1333
5656.49 82.9917
5856.45 82.65689999999998
6062.99 82.57989999999998
6276.86 81.7786
6498.05 81.57749999999999
6727.29 81.5673
6964.6 80.9127
7209.96 80.424
7464.11 80.3119
7727.78 81.01649999999998
8000.24 81.4158
8282.23 81.5507
8574.46 81.8951
8876.22 81.9636
9189.7 81.7073
9513.43 81.7571
9848.88 82.2507
10196.8 82.4065
10556.4 82.4851
10928.5 82.6239
11313.7 82.6573
11712.9 82.8998
12126.0 82.93089999999998
12553.7 82.9531
12996.1 83.3132
13454.6 83.5574
13928.5 83.5027
14419.9 83.4828
14928.2 83.42860000000002
15454.8 83.56709999999998
15999.8 83.55099999999999
16564.5 83.28549999999998
17148.2 83.33429999999998
17753.2 83.5337
18379.4 83.57410000000002
19027.6 83.6191
19698.5 83.6045
19999.5 83.4943
