Freq "On Axis"
22.4 15.002531645569604
23.0 16.40253164556961
23.6 17.802531645569616
24.0 20.1025316455696
25.0 22.20253164556962
25.8 24.002531645569604
26.5 25.6025316455696
27.2 27.502531645569604
28.0 29.1025316455696
29.0 30.502531645569604
30.0 32.1025316455696
30.7 33.90253164556961
31.5 35.40253164556961
32.5 36.70253164556962
33.5 39.002531645569604
34.5 41.302531645569616
35.5 43.70253164556962
36.5 45.1025316455696
37.5 45.90253164556961
38.7 46.802531645569616
40.0 48.70253164556962
41.2 50.40253164556961
42.5 52.6025316455696
43.7 54.802531645569616
45.0 56.70253164556961
46.2 57.70253164556959
47.5 58.20253164556961
48.7 59.70253164556961
50.0 61.40253164556961
51.5 63.20253164556961
53.0 64.80253164556962
54.5 66.6025316455696
56.0 68.20253164556961
58.0 69.90253164556961
60.0 71.5025316455696
61.5 73.10253164556961
63.0 74.80253164556962
65.0 76.30253164556959
67.0 77.60253164556963
69.0 78.70253164556962
71.0 79.5025316455696
73.0 79.90253164556961
75.0 80.0025316455696
77.5 80.0025316455696
80.0 79.90253164556961
82.5 79.80253164556962
85.0 79.70253164556961
87.5 79.60253164556961
90.0 79.40253164556961
92.5 79.20253164556961
95.0 79.0025316455696
97.5 79.0025316455696
100.0 78.90253164556961
103.0 78.80253164556959
106.0 78.70253164556962
109.0 78.70253164556962
112.0 78.70253164556962
115.0 78.70253164556962
118.0 78.80253164556959
122.0 78.90253164556961
125.0 78.90253164556961
128.0 78.80253164556959
132.0 78.70253164556962
136.0 78.70253164556962
140.0 78.80253164556959
145.0 79.0025316455696
150.0 79.20253164556961
155.0 79.20253164556961
160.0 79.20253164556961
165.0 79.1025316455696
170.0 79.1025316455696
175.0 79.20253164556961
180.0 79.3025316455696
185.0 79.40253164556961
190.0 79.3025316455696
195.0 79.3025316455696
200.0 79.40253164556961
206.0 79.5025316455696
212.0 79.5025316455696
218.0 79.40253164556961
224.0 79.3025316455696
230.0 79.1025316455696
236.0 78.80253164556959
240.0 78.60253164556961
250.0 78.5025316455696
258.0 78.60253164556961
265.0 78.80253164556959
272.0 79.1025316455696
280.0 79.40253164556961
290.0 79.80253164556962
300.0 80.10253164556963
307.0 80.3025316455696
315.0 80.2025316455696
325.0 79.90253164556961
335.0 79.20253164556961
345.0 78.3025316455696
355.0 77.90253164556961
365.0 78.20253164556961
375.0 78.80253164556959
387.0 79.20253164556961
400.0 79.20253164556961
412.0 79.0025316455696
425.0 78.90253164556961
437.0 78.80253164556959
450.0 78.70253164556962
462.0 78.3025316455696
475.0 78.20253164556961
487.0 78.60253164556961
500.0 79.0025316455696
515.0 79.1025316455696
530.0 78.80253164556959
545.0 78.80253164556959
560.0 78.80253164556959
580.0 78.70253164556962
600.0 78.80253164556959
615.0 79.3025316455696
630.0 79.40253164556961
650.0 79.1025316455696
670.0 79.1025316455696
690.0 79.5025316455696
710.0 79.5025316455696
730.0 79.20253164556961
750.0 79.20253164556961
775.0 79.5025316455696
800.0 79.80253164556962
825.0 79.60253164556961
850.0 78.60253164556961
875.0 79.0025316455696
900.0 80.2025316455696
925.0 80.8025316455696
950.0 80.5025316455696
975.0 80.10253164556963
1000.0 79.90253164556961
1030.0 79.0025316455696
1060.0 78.3025316455696
1090.0 78.90253164556961
1120.0 78.90253164556961
1150.0 78.90253164556961
1180.0 78.5025316455696
1220.0 78.90253164556961
1250.0 79.5025316455696
1280.0 79.70253164556961
1320.0 80.0025316455696
1360.0 79.70253164556961
1400.0 79.40253164556961
1450.0 79.3025316455696
1500.0 78.40253164556961
1550.0 77.5025316455696
1600.0 77.8025316455696
1650.0 78.3025316455696
1700.0 77.90253164556961
1750.0 78.0025316455696
1800.0 78.60253164556961
1850.0 78.10253164556961
1900.0 78.5025316455696
1950.0 78.70253164556962
2000.0 78.90253164556961
2060.0 78.70253164556962
2120.0 78.5025316455696
2180.0 78.60253164556961
2240.0 79.40253164556961
2300.0 79.80253164556962
2360.0 79.70253164556961
2400.0 78.10253164556961
2500.0 77.60253164556963
2580.0 77.5025316455696
2650.0 76.8025316455696
2720.0 77.40253164556961
2800.0 78.3025316455696
2900.0 78.40253164556961
3000.0 78.60253164556961
3070.0 78.0025316455696
3150.0 79.80253164556962
3250.0 80.0025316455696
3350.0 79.80253164556962
3450.0 79.60253164556961
3550.0 79.3025316455696
3650.0 80.3025316455696
3750.0 81.0025316455696
3870.0 80.40253164556961
4000.0 80.0025316455696
4120.0 79.70253164556961
4250.0 79.70253164556961
4370.0 80.0025316455696
4500.0 80.2025316455696
4620.0 80.2025316455696
4750.0 80.5025316455696
4870.0 81.20253164556962
5000.0 81.30253164556959
5150.0 80.5025316455696
5300.0 80.0025316455696
5450.0 79.5025316455696
5600.0 79.90253164556961
5800.0 79.1025316455696
6000.0 78.70253164556962
6150.0 79.20253164556961
6300.0 79.5025316455696
6500.0 79.20253164556961
6700.0 78.60253164556961
6900.0 78.10253164556961
7100.0 77.10253164556961
7300.0 76.6025316455696
7500.0 76.40253164556961
7750.0 76.8025316455696
8000.0 77.10253164556961
8250.0 78.10253164556961
8500.0 79.3025316455696
8750.0 80.40253164556961
9000.0 81.20253164556962
9250.0 81.10253164556961
9500.0 80.5025316455696
9750.0 80.70253164556961
10000.0 81.0025316455696
10300.0 79.80253164556962
10600.0 78.10253164556961
10900.0 78.60253164556961
11200.0 80.3025316455696
11500.0 79.5025316455696
11800.0 77.5025316455696
12200.0 77.40253164556961
12500.0 77.7025316455696
12800.0 78.60253164556961
13200.0 80.40253164556961
13600.0 79.3025316455696
14000.0 77.40253164556961
14500.0 77.8025316455696
15000.0 78.80253164556959
15500.0 79.80253164556962
16000.0 79.70253164556961
16500.0 77.0025316455696
17000.0 75.60253164556961
17500.0 77.7025316455696
18000.0 78.3025316455696
18500.0 76.40253164556961
19000.0 76.8025316455696
19500.0 72.5025316455696
