Freq "Front Wall Bounce"
20.5078 75.44477933370982
21.9727 77.48705496651888
23.4375 81.66871866684303
24.9023 86.1945130248677
26.3672 90.32797845821423
27.832 94.21903137077325
29.2969 97.8419980559201
30.7617 100.97682733174784
32.2266 103.2084729165662
33.6914 104.63447646025857
35.1562 105.27240693246057
36.6211 105.74358375344194
38.0859 106.02596979302041
39.5508 106.20959701176554
41.0156 106.30017102774977
42.4805 106.42479694542392
43.9453 106.44808037006266
45.4102 106.52297927190503
46.875 106.58550844547773
48.3398 106.63819971925304
51.2695 106.6820844901112
52.7344 106.72493430998234
54.1992 106.60945056008262
55.6641 106.58669624854122
58.5938 106.57863547217768
60.0586 106.53032961040584
62.9883 106.48413940872695
64.4531 106.44770207604799
67.3828 106.3068644159018
68.8477 106.23783006898418
71.7773 106.2655742724569
74.707 106.34572806640374
77.6367 106.3291744562026
79.1016 106.27333671259484
82.0312 106.1881192356085
84.9609 106.20856820477982
87.8906 106.05881553012165
90.8203 106.06462524844916
95.2148 106.13238323939106
98.1445 106.04980359233116
101.074 105.83318564627098
105.469 106.05537728997848
108.398 106.3395980326852
112.793 106.27474562222277
117.188 106.43840324686973
120.117 106.6245983081777
124.512 106.66188939826921
128.906 106.57902156646793
133.301 106.59785796325654
139.16 106.6551116054228
143.555 106.47679492259596
147.949 106.37089750175014
153.809 106.49413004671041
159.668 106.57559109568311
165.527 106.46106692337655
171.387 106.39136739333354
177.246 106.19000333875866
183.105 105.76256700304948
188.965 105.70549615971845
196.289 105.6428943011035
203.613 105.44969936513698
210.938 105.30968745326015
218.262 104.8108830636801
225.586 105.28523164864954
232.91 105.27130367846209
241.699 105.13992594319897
250.488 105.19597202105975
259.277 105.80727281500754
268.066 105.57926047083649
276.855 105.66884998176364
287.109 105.78983212721316
297.363 106.73894313282293
307.617 106.93942178892391
319.336 107.31602844543403
329.59 107.05992992740103
341.309 106.62974438324612
353.027 106.22318200841681
366.211 106.14436162542111
379.395 106.81555554356522
392.578 106.41608240680101
405.762 106.9193050552452
420.41 106.5261193666225
435.059 105.99126030100311
451.172 106.1157636359817
465.82 106.36905025566747
483.398 106.0556404132483
499.512 106.48437698356285
517.09 106.62068079472104
536.133 106.4880272548134
555.176 106.13583290776734
574.219 107.04610496210191
594.727 107.04357964781126
615.234 106.16804826224077
637.207 106.93847286757948
659.18 106.26013289353973
682.617 106.24711385513594
707.52 106.3393351437749
732.422 106.02468748508396
757.324 105.58690011553188
785.156 106.22009152495389
811.523 106.1411732840025
840.82 106.01757481456805
870.117 106.36207469269637
900.879 106.38900905917606
933.105 106.57853364693082
965.332 106.50604381403754
1000.49 106.9365256473672
1035.64 106.86115170096566
1072.27 106.30550739894322
1108.89 106.31889578708973
1148.44 106.52029561388252
1189.45 106.44272908060027
1230.47 106.68805839557483
1274.41 106.74578927251706
1319.82 107.40026257367484
1366.7 107.67055054044295
1413.57 107.62670925788419
1463.38 107.42713750778852
1516.11 107.2423858004658
1568.85 106.75072559182274
1624.51 106.38562744889299
1681.64 106.344934495545
1741.7 106.78241765495818
1803.22 107.23589452022271
1866.21 106.88406134139777
1932.13 106.26794359613245
1999.51 105.670803230649
2069.82 105.55270632053963
2143.07 105.55827472190145
2219.24 105.27770640860427
2296.88 105.55547397760446
2378.91 105.3022643916579
2462.4 106.14415933059358
2548.83 106.6060809207831
2639.65 106.64726109669412
2731.93 105.70955781497527
2828.61 105.59263457684666
2928.22 105.98042136358775
3030.76 105.89477264661278
3137.7 105.61452639890821
3249.02 105.25494741642181
3363.28 105.30602570772692
3481.93 105.73738687611925
3604.98 105.50723431351894
3732.42 105.71456482672494
3864.26 105.6270367496913
4000.49 105.28290894913636
4141.11 105.56642391496035
4287.6 105.9054014469971
4438.48 105.71234362136298
4595.21 105.73865516005266
4756.35 105.91889634545132
4924.8 105.67216680759175
5097.66 105.5456329875553
5277.83 106.0407678244808
5463.87 106.07122803630233
5657.23 106.170647303402
5856.45 105.67119074462455
6062.99 105.74978584642106
6276.86 106.02708272400729
6498.05 105.75416719048978
6726.56 105.70705983932308
6963.87 105.88753544142894
7209.96 105.5865184757129
7464.84 105.71774967829057
7727.05 105.5758483895015
7999.51 105.41581559568812
8282.23 105.73163764446765
8573.73 105.82950061029771
8876.95 105.66286483560144
9188.96 105.79503228015403
9514.16 105.81626911097223
9849.61 105.89560039111991
10196.8 105.97028170740515
10555.7 106.29382044930973
10927.7 106.30228495887394
11313.0 106.3582245193867
11712.9 106.30249670766621
12126.0 106.1431707842748
12553.7 106.11254094324971
12996.1 105.98542279643095
13454.6 105.93003731014579
13929.2 105.66187520135419
14419.9 105.84230224191965
14928.2 105.86964406295864
15455.6 105.52427299524628
16000.5 105.24199543557391
16564.5 104.77036437109307
17148.9 104.26235042747282
17752.4 103.94433476424355
18379.4 103.70940205667215
19026.9 103.34830361504089
19697.8 102.94904768478933
19999.5 102.85923489711779
