Freq "Listening Window"
20.0 27.84659071229798
20.2909 28.305360062753024
20.586 28.748234997671645
20.8855 29.17889018072232
21.1893 29.602213449334457
21.4975 30.02731962826401
21.8102 30.46665186398222
22.1274 30.923877380690826
22.4492 31.40032842586784
22.7758 31.893559972857034
23.1071 32.39867761496099
23.4432 32.91056904930004
23.7841 33.4225633158736
24.1301 33.9289985863757
24.4811 34.42721161042182
24.8372 34.91509482042831
25.1984 35.394758459868726
25.5649 35.870092217978865
25.9368 36.34431643755447
26.3141 36.819983843553885
26.6968 37.2978727362342
27.0851 37.77753783906461
27.4791 38.257756931570626
27.8788 38.73775550426957
28.2843 39.21731072494394
28.6957 39.69642154195667
29.1131 40.17542194927147
29.5365 40.654755913244585
29.9661 41.13442399161734
30.402 41.61297984158618
30.8442 42.08920250942022
31.2929 42.561534371572336
31.748 43.02930934864024
32.2098 43.49286327206683
32.6783 43.95564040823909
33.1536 44.42230855718579
33.6359 44.89831399491116
34.1251 45.386547768654154
34.6215 45.88900052949025
35.125 46.40399772788244
35.6359 46.926877207616386
36.1543 47.4528726925531
36.6802 47.97787200171017
37.2137 48.49876236817663
37.755 49.014877842260105
38.3041 49.52721154077534
38.8613 50.03687320116288
39.4265 50.54586973272565
40.0 51.05553552325058
40.5818 51.56620297329336
41.1721 52.07742774888375
41.771 52.58776020530276
42.3785 53.094313667293164
42.9949 53.593755152691145
43.6203 54.08386580335848
44.2548 54.56386467778711
44.8985 55.03597512237327
45.5515 55.50264168877237
46.2141 55.9678647309414
46.8863 56.435311879471314
47.5683 56.90620320408729
48.2602 57.381426779726226
48.9621 57.86009475478008
49.6743 58.340428948546716
50.3968 58.82042774888373
51.1299 59.29809462995087
51.8736 59.77198395929267
52.6281 60.2407602324581
53.3936 60.70420422598494
54.1702 61.162092818657484
54.9581 61.61431542934814
55.7575 62.06087188164827
56.5685 62.501650627230816
57.3914 62.936985006657565
58.2261 63.36509835822066
59.073 63.78487726797495
59.9323 64.19410106324295
60.804 64.59198954860166
61.6884 64.9795460184618
62.5857 65.35754583888692
63.496 65.72587818485302
64.4196 66.08165738917309
65.3566 66.42254678380289
66.3073 66.7515471684291
67.2717 67.07077077875756
68.2502 67.38266157962775
69.2429 67.68821689177933
70.2501 67.98366324089142
71.2719 68.26132870887058
72.3086 68.51666137913399
73.3603 68.75177175447303
74.4274 68.96977175447302
75.5099 69.1754390672924
76.6083 69.37255159009034
77.7226 69.5598863097491
78.8531 69.7362205456125
80.0 69.89988947454712
81.1636 70.05122493572993
82.3442 70.19122829945339
83.5419 70.31967805507438
84.757 70.43579380450473
85.9899 70.54057760690722
87.2406 70.6346907861413
88.5096 70.71991550677076
89.797 70.7992500996743
91.1031 70.87447272793968
92.4282 70.94791882448077
93.7726 71.01658548544792
95.1366 71.07936327216277
96.5204 71.13658526573708
97.9243 71.1864746332174
99.3486 71.22925343581767
100.794 71.26558744082023
102.26 71.29614529434436
103.747 71.3237030764576
105.256 71.3501494291002
106.787 71.37759546460535
108.34 71.4029280490587
109.916 71.42170415020612
111.515 71.43214744897537
113.137 71.43348021866525
114.783 71.42892639731606
116.452 71.42348208979773
118.146 71.41859310505318
119.865 71.41226098735397
121.608 71.402042121024
123.377 71.38693460808229
125.171 71.36949438090132
126.992 71.35138935703252
128.839 71.33584079376156
130.713 71.3234019121182
132.615 71.31285209615139
134.543 71.30096938050988
136.5 71.2860882755017
138.486 71.26876553127533
140.5 71.25066336771313
142.544 71.23244911848569
144.617 71.21545331829229
146.721 71.20045805778709
148.855 71.1860165117337
151.02 71.17090832371038
153.217 71.15435534279798
155.445 71.13602614151536
157.706 71.11469593662797
160.0 71.08736323187989
162.327 71.05581252475825
164.688 71.02270622604668
167.084 70.99193423249665
169.514 70.96927558392453
171.98 70.9546164438803
174.481 70.94473944956202
177.019 70.93653238704113
179.594 70.92643510449412
182.206 70.91300446396286
184.856 70.89756929603557
187.545 70.88069032933777
190.273 70.86292066348089
193.041 70.84459842055122
195.849 70.82760823687936
198.697 70.81339966238826
201.587 70.8016411785729
204.52 70.78877145966005
207.494 70.77213034720151
210.512 70.75683196376134
213.574 70.75087587662408
216.681 70.76347956439734
219.833 70.7969688829883
223.03 70.84045554262146
226.274 70.87592630534442
229.565 70.88837918210208
232.905 70.87639108454427
236.292 70.85050611072977
239.729 70.82429940615172
243.216 70.80865476761889
246.754 70.8074620719794
250.343 70.8155031495895
253.984 70.82777128740878
257.678 70.84882848325229
261.426 70.88209287283408
265.229 70.9191292436321
269.087 70.94804617790662
273.001 70.96096053406572
276.972 70.95198288992096
281.0 70.93323959652339
285.088 70.92629030936624
289.234 70.93990645055958
293.441 70.97128972769177
297.709 71.00578585869285
302.04 71.0271588652896
306.433 71.0326540726215
310.89 71.02783584097811
315.412 71.02266958516147
320.0 71.03062723319172
324.655 71.05115815781608
329.377 71.07325692100223
334.168 71.091238352177
339.028 71.09563016262923
343.959 71.08512096045379
348.962 71.07654142374041
354.038 71.07742601946272
359.188 71.07820264729997
364.412 71.08218574995429
369.713 71.08937654320512
375.09 71.08709755362557
380.546 71.08002587611998
386.081 71.07595647154409
391.697 71.072449603055
397.394 71.05973747726436
403.175 71.0274719991489
409.039 70.990233671848
414.989 70.97055912651687
421.025 70.97188458083278
427.149 70.99826715140337
433.362 71.04371447652868
439.665 71.08455506711711
446.06 71.10627260778132
452.548 71.10611133335769
459.131 71.08251639936363
465.809 71.04507647309278
472.584 71.01476819416865
479.458 70.99738608976831
486.432 70.98680251455212
493.507 70.98272051884784
500.686 70.99451295502806
507.968 71.02134678737748
515.357 71.04989329178045
522.853 71.08291781398493
530.458 71.12743621363626
538.174 71.18083074881538
546.002 71.24456277112692
553.943 71.30813943812568
562.001 71.36648575238345
570.175 71.41592834948389
578.469 71.43494447836999
586.883 71.43039809348524
595.419 71.42190244664579
604.08 71.4034162285741
612.866 71.37699813167184
621.78 71.35389129829731
630.824 71.34212187951479
640.0 71.3532312875808
649.309 71.39274948069274
658.753 71.43814542147216
668.335 71.46094451828053
678.056 71.45441693510584
687.919 71.42190175927566
697.925 71.40438667637322
708.077 71.4563796732604
718.376 71.52210278853754
728.825 71.48179028189166
739.426 71.41158643013232
750.181 71.41337530973574
761.093 71.45841745173986
772.163 71.50516539663563
783.394 71.5428385762633
794.789 71.54670495640647
806.349 71.51297683044008
818.078 71.46144453424643
829.977 71.4015987510864
842.05 71.36663537684154
854.298 71.38276325107536
866.724 71.43235284518768
879.33 71.50224904258336
892.12 71.58224326838022
905.097 71.6316346268953
918.262 71.61962287456079
931.618 71.56658687641857
945.169 71.51006746123403
958.917 71.46946013849366
972.864 71.46424966324444
987.015 71.47827847770692
1001.37 71.47918073418369
1015.94 71.46158687967959
1030.71 71.41713878792099
1045.71 71.352325068916
1060.92 71.29267587367416
1076.35 71.23331053482167
1092.0 71.13646306219641
1107.89 71.01863275562036
1124.0 70.93837503254342
1140.35 70.90835432403208
1156.94 70.93888805957751
1173.77 71.02564515582782
1190.84 71.08328551390473
1208.16 71.07618509119887
1225.73 71.04287295918492
1243.56 70.98425975423535
1261.65 70.91803199580067
1280.0 70.88657981037902
1298.62 70.86209758119311
1317.51 70.8593574891958
1336.67 70.86689069064086
1356.11 70.8383513367149
1375.84 70.81914640776604
1395.85 70.80409410697733
1416.15 70.78051971779159
1436.75 70.78442457595328
1457.65 70.79511695367778
1478.85 70.83295191321825
1500.36 70.91054963694948
1522.19 71.02607762595375
1544.33 71.20279451905985
1566.79 71.37973475342066
1589.58 71.52219841986533
1612.7 71.61240941900721
1636.16 71.62983496991397
1659.95 71.61830082087567
1684.1 71.56252275020033
1708.6 71.48076527133247
1733.45 71.38556083872228
1758.66 71.25584141409388
1784.24 71.11534660047154
1810.19 71.00329488163796
1836.52 70.93352912559773
1863.24 70.92929973238276
1890.34 70.98609128447683
1917.83 71.11380822711598
1945.73 71.25557663723202
1974.03 71.36018592276771
2002.74 71.38716909511385
2031.87 71.29515822792206
2061.43 71.12229420138023
2091.41 70.92200934963063
2121.83 70.71142716557647
2152.69 70.55040565206119
2184.01 70.4489194305516
2215.77 70.39333276309837
2248.0 70.37134151225123
2280.7 70.38864797781454
2313.87 70.46878340325803
2347.53 70.54528763526234
2381.68 70.59734153294582
2416.32 70.64129463892604
2451.46 70.65753343390338
2487.12 70.66581391415609
2523.3 70.70781919648486
2560.0 70.78360839736962
2597.24 70.87224408162045
2635.01 70.948221203161
2673.34 70.9895348215007
2712.23 70.96325527535978
2751.68 70.88133331893162
2791.7 70.79703068169341
2832.31 70.72308978212313
2873.5 70.690069663706
2915.3 70.74437811027059
2957.7 70.83487452002045
3000.72 70.92654447834674
3044.37 70.96109282788684
3088.65 70.86943684893055
3133.58 70.7112169579381
3179.16 70.74628440011155
3225.4 70.65483360731436
3272.31 70.50560564378262
3319.91 70.40156127107988
3368.2 70.39806008696688
3417.19 70.50054018141664
3466.89 70.64494207802814
3517.32 70.75352468726372
3568.48 70.77773320821126
3620.39 70.7122618663741
3673.05 70.61125360715887
3726.47 70.53670521950478
3780.67 70.53862810713787
3835.67 70.59948443050214
3891.46 70.66138582944514
3948.06 70.6760345810815
4005.49 70.64165050804009
4063.75 70.58201005069313
4122.86 70.53276559335082
4182.82 70.49037780922136
4243.66 70.43609615636184
4305.39 70.35580771317196
4368.01 70.26792199807484
4431.55 70.19682791104553
4496.01 70.14286225958463
4561.4 70.094524244515
4627.75 70.02066977734478
4695.06 69.89928893849682
4763.35 69.76978337052485
4832.64 69.66962311981295
4902.93 69.62468399723285
4974.24 69.64023658925105
5046.6 69.68752899830876
5120.0 69.73543540588798
5194.47 69.7657106997315
5270.03 69.78391046157144
5346.68 69.78756614051069
5424.45 69.78171737152326
5503.35 69.78942803112575
5583.4 69.81022897951412
5664.61 69.84756344986575
5747.01 69.88909216932306
5830.6 69.92537227094877
5915.41 69.97469370915067
6001.45 70.03203908147104
6088.74 70.07841717057813
6177.3 70.10006943795015
6267.15 70.1083388971735
6358.31 70.12524998498894
6450.8 70.16765526467941
6544.62 70.22806722177461
6639.82 70.28579038308582
6736.4 70.34696358732799
6834.38 70.3877623200044
6933.79 70.38602941389671
7034.64 70.39600474326453
7136.96 70.3826906120183
7240.77 70.3280029524264
7346.09 70.32184508650217
7452.94 70.30595719026026
7561.35 70.2658604775633
7671.33 70.27467476954378
7782.91 70.26374163426713
7896.12 70.22463216437878
8010.97 70.18633416702937
8127.49 70.12779250929289
8245.71 70.08460879596686
8365.65 70.03140950867308
8487.33 69.9527375035226
8610.78 69.88971079913422
8736.03 69.85643357572305
8863.09 69.86153759465957
8992.01 69.89780703997404
9122.8 69.97027610677615
9255.5 70.10469940103891
9390.12 70.23080390961694
9526.7 70.32279965513611
9665.27 70.41323596969316
9805.86 70.47951170355898
9948.49 70.49896599236814
10093.2 70.52826169822839
10240.0 70.58908236565274
10388.9 70.69732203921502
10540.1 70.80962747953389
10693.4 70.92766803397929
10848.9 71.02087989061334
11006.7 71.0488206882919
11166.8 71.01389565832285
11329.2 70.93946397789298
11494.0 70.80667832523305
11661.2 70.63450765492372
11830.8 70.47282885873274
12002.9 70.32378530987135
12177.5 70.19755435931313
12354.6 70.19241805199793
12534.3 70.28332306252149
12716.6 70.45464599669711
12901.6 70.6155750282514
13089.2 70.58317365965073
13279.6 70.54319272083204
13472.8 70.55254788131985
13668.8 70.56571657132936
13867.6 70.62476121607527
14069.3 70.64934520956432
14273.9 70.6708874523488
14481.5 70.68499903583191
14692.2 70.66859619483056
14905.9 70.6633977763308
15122.7 70.6444899810912
15342.7 70.65039428646152
15565.8 70.68290844940276
15792.2 70.7397229843993
16021.9 70.83896550469753
16255.0 70.94542844798279
16491.4 71.06348247167541
16731.3 71.18027457825089
16974.7 71.28206480921413
17221.6 71.37814584289355
17472.1 71.44819385444397
17726.2 71.49319251320054
17984.0 71.50732622601213
18245.6 71.49190439486893
18511.0 71.46951225914077
18780.2 71.45115814227272
19053.4 71.45754730452072
19330.5 71.51672207335223
19611.7 71.6294506588618
19897.0 71.82094317684164
