Freq "Ceiling Bounce"
20.507813 57.491486840329955
21.972656 57.81075131266347
23.4375 60.56677503071086
24.902344 61.792149372758445
26.367188 63.57400791449574
27.832031 65.08639460662287
29.296875 66.43128650276189
30.761719 67.67379592175588
32.226563 68.94016064890366
33.691406 70.29860639658929
35.15625 71.55839884890597
36.621094 72.73994054521732
38.085938 73.90381379956416
39.550781 74.93495013486073
41.015625 76.04551028098383
42.480469 77.0447535358752
43.945313 77.98111569565997
45.410156 78.85204478661025
46.875 79.64960727414089
48.339844 80.37483316249792
51.269531 81.51861272942908
52.734375 81.94300297674125
54.199219 82.25589677078005
55.664063 82.49486327669806
58.59375 82.7559235905637
60.058594 82.79325859713657
62.988281 82.77119778075922
64.453125 82.73522169367645
67.382813 82.77872264766968
68.847656 82.77397817397849
71.777344 82.67562231545817
74.707031 82.615678201415
77.636719 82.57991979554441
79.101563 82.51442428569524
82.03125 82.38148209662877
84.960938 82.32601450240617
87.890625 82.23622364685723
90.820313 82.13246420454281
95.214844 82.10437835361957
98.144531 82.10067352314776
101.07422 82.05554120575168
105.46875 81.990907189771
108.39844 81.95186231031421
112.79297 81.96645529158577
117.1875 81.979247933318
120.11719 81.91827094197428
124.51172 81.82656150397032
128.90625 81.71486541463322
133.30078 81.81104327445898
139.16016 81.8704851742833
143.55469 81.70551256437103
147.94922 81.5495467292328
153.80859 81.44199409479612
159.66797 81.60185988365673
165.52734 81.54328664907291
171.38672 81.63236961918093
177.24609 81.33173049902426
183.10547 81.12768899661116
188.96484 81.27687309017129
196.28906 81.55792296653748
203.61328 81.28137267490884
210.9375 81.01236229056097
218.26172 81.01565898623245
225.58594 80.7969635704699
232.91016 81.28884925819472
241.69922 80.68851510343214
250.48828 80.89311885370005
259.27734 80.96720715797075
268.06641 80.81084952579161
276.85547 80.13431158721994
287.10938 80.44803393197127
297.36328 80.70363919141505
307.61719 79.87067854729878
319.33594 79.78775529509831
329.58984 79.23862194415211
341.30859 79.201391973492
353.02734 78.75257747714727
366.21094 78.0015725954624
379.39453 78.68179417934168
392.57813 78.97029329443605
405.76172 78.94450476845272
420.41016 78.6614100823528
435.05859 78.99717959264665
451.17188 78.35614242201494
465.82031 78.53900350334732
483.39844 78.51868372319775
499.51172 78.76683059820544
517.08984 78.3691870761739
536.13281 78.05724479955747
555.17578 78.25786592851779
574.21875 78.55392336180805
594.72656 78.29260558646297
615.23438 78.33761472848015
637.20703 77.43197776880942
659.17969 77.8680718496346
682.61719 77.87019096066503
707.51953 78.02429602877746
732.42188 77.6056639954946
757.32422 78.32933870632395
785.15625 77.84868350762888
811.52344 78.15985263494069
840.82031 78.00221096135658
870.11719 77.06277864648725
900.87891 77.48736001914865
933.10547 77.49320550855974
965.33203 77.53781276149837
1000.4883 77.67329674075758
1035.6445 78.52023229221876
1072.2656 78.49256076699022
1108.8867 78.49662571359312
1148.4375 77.79992779868374
1189.4531 77.53888553685434
1230.4688 77.88445226022624
1274.4141 77.78229998687762
1319.8242 78.01264550036036
1366.6992 78.62200370257209
1413.5742 78.15481039812995
1463.3789 77.63369351136149
1516.1133 77.34798667305284
1568.8477 76.4022051831371
1624.5117 76.15238423240471
1681.6406 76.60934416044016
1741.6992 75.82270836946923
1803.2227 75.18015166340307
1866.2109 74.3237217194808
1932.1289 73.45033682487957
1999.5117 72.04709100418995
2069.8242 71.92554771838648
2143.0664 70.42204614265033
2219.2383 69.7996352599003
2296.875 71.77771673686671
2378.9063 73.91780461027602
2462.4023 75.07735275597985
2548.8281 75.56000164485923
2639.6484 76.71178623382005
2731.9336 77.42161040057974
2828.6133 78.37000421592492
2928.2227 79.05163802220027
3030.7617 79.52668875100807
3137.6953 79.51601066890849
3249.0234 79.45305582375714
3363.2813 78.9375608504633
3481.9336 78.04773064639103
3604.9805 76.98730440743513
3732.4219 76.65833121710152
3864.2578 76.68306225491746
4000.4883 76.45657104546189
4141.1133 76.4176554824391
4287.5977 76.28790221794496
4438.4766 76.66998008490629
4595.2148 77.06486241676097
4756.3477 77.18888601671794
4924.8047 77.34154193706864
5097.6563 77.42129372817936
5277.832 77.34662155235604
5463.8672 77.32400921755328
5657.2266 77.09301380389968
5856.4453 76.93072837641536
6062.9883 76.66269494968559
6276.8555 76.62247627261512
6498.0469 76.51631097301332
6726.5625 76.46456135466867
6963.8672 76.24622015006886
7209.9609 76.03094815776628
7464.8438 75.78227626044277
7727.0508 75.44427990808757
7999.5117 74.9140166872732
8282.2266 74.53379206721407
8573.7305 74.506294085667
8876.9531 74.33016176028163
9188.9648 74.1261525530201
9514.1602 73.96610273120923
9849.6094 73.56986807547456
10196.777 73.30355634561046
10555.664 73.0179854079028
10927.734 72.64174068290409
11312.988 72.27168638118657
11712.891 71.89043409581775
12125.977 71.302994194314
12553.711 70.63906918331242
12996.094 69.99518843988771
13454.59 69.9566478532876
13929.199 70.2804620525493
14419.922 70.52450307014423
14928.223 70.52014992221467
15455.566 70.22516857607839
16000.488 69.93949147348806
16564.453 69.68157812210032
17148.926 69.46520228882424
17752.441 69.19955013803529
18379.395 69.00710026503934
19026.855 68.50071433950662
19697.754 68.25938256699645
19999.512 67.90511603954181
