Freq "Front Wall Bounce"
20.507813 58.985891180173695
21.972656 59.07800627790063
23.4375 61.10745179868765
24.902344 62.103459980645695
26.367188 63.41193813667111
27.832031 65.13046650383659
29.296875 66.49351377776654
30.761719 67.66793287725847
32.226563 68.92425182095174
33.691406 70.28164118909199
35.15625 71.5583435025306
36.621094 72.776048690803
38.085938 73.96430006558207
39.550781 75.01761752657451
41.015625 76.13922884488657
42.480469 77.15581737394912
43.945313 78.1178538275749
45.410156 79.00759952265612
46.875 79.82049088025099
48.339844 80.55659891131958
51.269531 81.72780698332929
52.734375 82.16178833133803
54.199219 82.48123025001807
55.664063 82.72694990823992
58.59375 83.00718501243944
60.058594 83.05792156526421
62.988281 83.05670265423919
64.453125 83.02576184374037
67.382813 83.07576169374771
68.847656 83.07444702651127
71.777344 82.97813681676037
74.707031 82.9289367770263
77.636719 82.89633778844426
79.101563 82.83382941779932
82.03125 82.70417155527278
84.960938 82.65795476358697
87.890625 82.58445075382797
90.820313 82.49254482332874
95.214844 82.49065494961202
98.144531 82.49739139132606
101.07422 82.44850493355374
105.46875 82.35441379247139
108.39844 82.33155505669949
112.79297 82.37353012195702
117.1875 82.40745776156814
120.11719 82.35564615175554
124.51172 82.30855546648444
128.90625 82.25950978744713
133.30078 82.42639673952407
139.16016 82.44979983415114
143.55469 82.23261634875007
147.94922 82.09494135463454
153.80859 82.12916807001024
159.66797 82.2859584226551
165.52734 82.2929508237914
171.38672 82.30283862519896
177.24609 82.02378686984419
183.10547 81.88592242684601
188.96484 82.03526486399848
196.28906 82.31916907843858
203.61328 82.04538297183747
210.9375 81.7845193831271
218.26172 81.86073616553712
225.58594 81.77521570003516
232.91016 82.21809104568969
241.69922 81.71716372784758
250.48828 82.10023849174628
259.27734 82.13434887982567
268.06641 81.77613291797611
276.85547 81.27745406031393
287.10938 81.58810295123594
297.36328 81.58345026144143
307.61719 81.08474733446059
319.33594 80.87242027460327
329.58984 80.8826662594709
341.30859 80.87502640101073
353.02734 80.87212783166852
366.21094 80.7162621434643
379.39453 81.65973719740828
392.57813 81.68153546536524
405.76172 80.99701701155293
420.41016 81.20934561248752
435.05859 81.36748448409966
451.17188 80.71418250128075
465.82031 81.29336489818782
483.39844 81.21419210335844
499.51172 80.91935118265476
517.08984 80.8180989201099
536.13281 80.75559243311044
555.17578 81.5262830593869
574.21875 82.27715997553096
594.72656 81.24840161732386
615.23438 81.27931324132825
637.20703 81.10255885617647
659.17969 81.44181179850956
682.61719 81.12405844308837
707.51953 81.69492790268485
732.42188 81.51846980618815
757.32422 81.4993332253185
785.15625 81.21103724208552
811.52344 80.85948363991237
840.82031 80.98539297434014
870.11719 80.84720065208295
900.87891 81.20581646121472
933.10547 81.69854932532583
965.33203 81.35143870863098
1000.4883 81.15949585974322
1035.6445 80.95704755291769
1072.2656 81.21272587358912
1108.8867 81.61821584680823
1148.4375 81.92880798282418
1189.4531 82.26509986101603
1230.4688 82.30943692760802
1274.4141 82.42045258283662
1319.8242 82.06564351742912
1366.6992 82.09198051903543
1413.5742 81.99634383555444
1463.3789 82.4631174031856
1516.1133 82.07776033537336
1568.8477 81.56804236749073
1624.5117 81.4751796097225
1681.6406 81.47499809264231
1741.6992 81.59470392784166
1803.2227 81.10498163284136
1866.2109 80.40374136056333
1932.1289 80.62079539176257
1999.5117 81.16203889260149
2069.8242 80.88803145657458
2143.0664 80.01660315310797
2219.2383 80.41238669813332
2296.875 81.19085462944375
2378.9063 80.83373460007039
2462.4023 80.82424033155874
2548.8281 81.08279892540743
2639.6484 80.87219193916901
2731.9336 81.18457374126352
2828.6133 81.63424611181767
2928.2227 80.7001058639295
3030.7617 80.96766897324865
3137.6953 81.32410434915015
3249.0234 81.09258551430405
3363.2813 81.19817422553757
3481.9336 81.24863807944719
3604.9805 81.36923419357564
3732.4219 80.79424933695643
3864.2578 81.13504443512264
4000.4883 80.78982854169443
4141.1133 80.56764956563161
4287.5977 80.2189966507648
4438.4766 80.32687112118245
4595.2148 79.5947395770667
4756.3477 79.90489008212273
4924.8047 79.06932763066222
5097.6563 79.29717422606345
5277.832 79.5698860347183
5463.8672 79.5604179532422
5657.2266 79.83261306900944
5856.4453 80.04804855831533
6062.9883 79.63775227705065
6276.8555 80.05362354661226
6498.0469 80.0485117697976
6726.5625 80.54117411368476
6963.8672 80.35003586444232
7209.9609 80.28883880327692
7464.8438 80.52058009220535
7727.0508 80.27339418570298
7999.5117 80.27779430450445
8282.2266 80.59625926395137
8573.7305 80.67205300449004
8876.9531 80.48853785233139
9188.9648 80.38386959978637
9514.1602 80.28243914952193
9849.6094 80.21704398833579
10196.777 80.14537717722071
10555.664 80.28478672507796
10927.734 80.30081876736736
11312.988 80.27962047228239
11712.891 80.2195036946182
12125.977 80.18705419544627
12553.711 80.13498318767205
12996.094 80.03861505579759
13454.59 79.85360527048077
13929.199 79.49132591146274
14419.922 79.0008228795869
14928.223 78.81156517700022
15455.566 78.95537644149427
16000.488 78.9779791803968
16564.453 78.94651690048552
17148.926 78.9745548299124
17752.441 79.1659359839482
18379.395 79.25727265043635
19026.855 79.15999185898491
19697.754 79.07505701252198
19999.512 79.47325554825811
