Freq "Rear Wall Bounce"
20.507813 63.17038654028711
21.972656 65.01048968138996
23.4375 66.4308498752567
24.902344 67.48063832211567
26.367188 69.2258667740139
27.832031 69.96432962522523
29.296875 70.97834501142535
30.761719 71.99253973243339
32.226563 72.98055551822766
33.691406 74.00269121231129
35.15625 74.99383044093568
36.621094 75.92040607016108
38.085938 76.85467832142858
39.550781 77.71606255368496
41.015625 78.62533015650969
42.480469 79.46159745345156
43.945313 80.23162706006138
45.410156 80.95383970021008
46.875 81.61196245216337
48.339844 82.2163778468069
51.269531 83.13664507546754
52.734375 83.46256408824867
54.199219 83.69275172491072
55.664063 83.84361360394855
58.59375 83.94780926195558
60.058594 83.92463889748934
62.988281 83.77836938924219
64.453125 83.70616648905276
67.382813 83.65681043661083
68.847656 83.61665085653273
71.777344 83.46689007945679
74.707031 83.36239598955693
77.636719 83.26937920157982
79.101563 83.17721788337018
82.03125 82.99309111217148
84.960938 82.90431753010915
87.890625 82.7775614011018
90.820313 82.63502388596216
95.214844 82.5820294165347
98.144531 82.5234713126845
101.07422 82.46070985937024
105.46875 82.40213335916805
108.39844 82.30056667240304
112.79297 82.24537002535546
117.1875 82.18440455218945
120.11719 82.14537093044338
124.51172 82.09734138708431
128.90625 81.82805448600972
133.30078 81.70121556816412
139.16016 81.76441055575089
143.55469 81.69139508256458
147.94922 81.50587420942543
153.80859 81.3829987004611
159.66797 81.4834601960362
165.52734 81.26474358820728
171.38672 81.33196296314657
177.24609 81.16072707809612
183.10547 80.83947144474901
188.96484 80.72371436718741
196.28906 80.94806069309199
203.61328 80.68396625347474
210.9375 80.33974486429598
218.26172 80.13702059872206
225.58594 79.66433252916703
232.91016 79.95705249320163
241.69922 79.84343220191496
250.48828 79.50850400379053
259.27734 79.58633376395683
268.06641 79.81833330095019
276.85547 79.33285228274066
287.10938 78.63834002117049
297.36328 79.01156605481113
307.61719 78.2045017206317
319.33594 78.44449700412136
329.58984 78.07988123346661
341.30859 78.76364887011162
353.02734 79.09238899555618
366.21094 78.42004533893827
379.39453 77.07194267916711
392.57813 76.8989510989518
405.76172 76.93083461804018
420.41016 76.70182345551353
435.05859 75.73229372981292
451.17188 76.41766745098373
465.82031 75.24878791907413
483.39844 75.72965280201865
499.51172 75.10060528345018
517.08984 75.50051620522432
536.13281 75.41346767124716
555.17578 74.81549107043556
574.21875 74.39963302655899
594.72656 75.19087112142961
615.23438 74.84370922963548
637.20703 75.00242611156055
659.17969 75.31968058737799
682.61719 74.38980216526213
707.51953 74.5348291246927
732.42188 74.043238703113
757.32422 74.18788093645698
785.15625 72.80725310983946
811.52344 72.58545459130119
840.82031 73.09655889104661
870.11719 71.66591022546449
900.87891 72.23927475762424
933.10547 72.86474387975778
965.33203 71.9682335254541
1000.4883 71.97422235074795
1035.6445 71.38366123140621
1072.2656 70.72028930457633
1108.8867 70.66024396723661
1148.4375 70.58984177585732
1189.4531 70.9703551398478
1230.4688 70.99263543066783
1274.4141 70.84408526763474
1319.8242 70.64897457736107
1366.6992 70.16448195160712
1413.5742 69.818943098471
1463.3789 69.61613583372241
1516.1133 69.49095967187257
1568.8477 68.81209850940067
1624.5117 68.30155823016186
1681.6406 68.289469467041
1741.6992 68.61033381805431
1803.2227 68.3733433193981
1866.2109 67.7460894278201
1932.1289 67.17172944301463
1999.5117 68.19829744421591
2069.8242 68.53865067355581
2143.0664 68.45304652346378
2219.2383 68.52279624674306
2296.875 69.05563102705251
2378.9063 69.07824536982312
2462.4023 69.46642240982275
2548.8281 69.07911310137364
2639.6484 68.82878875262129
2731.9336 69.35059150225449
2828.6133 69.07641651828811
2928.2227 68.95810689249056
3030.7617 68.20926381737515
3137.6953 68.72472158712013
3249.0234 68.93761867701178
3363.2813 67.59440224017864
3481.9336 68.2198830869858
3604.9805 68.3474676250761
3732.4219 67.51881336795675
3864.2578 67.69898056072597
4000.4883 67.04600675430513
4141.1133 66.93032724489265
4287.5977 65.4446924622345
4438.4766 66.30742082561284
4595.2148 65.63166688203883
4756.3477 65.74585554387467
4924.8047 66.81239179234338
5097.6563 65.33387499396734
5277.832 66.357284244606
5463.8672 65.2037801256164
5657.2266 64.86457206926218
5856.4453 64.84221360810133
6062.9883 65.067730756107
6276.8555 63.976506547913786
6498.0469 64.01338789179685
6726.5625 63.40202809292427
6963.8672 62.464560017043965
7209.9609 62.30382264740604
7464.8438 61.35820408058608
7727.0508 60.40045419448097
7999.5117 60.078674742258144
8282.2266 60.04308947189749
8573.7305 59.53354674505482
8876.9531 59.05806896603474
9188.9648 59.20252357630913
9514.1602 58.98195371142076
9849.6094 58.637781958556104
10196.777 57.78989964244208
10555.664 56.69676905559787
10927.734 56.367070217225844
11312.988 55.39436939384383
11712.891 55.631981449770095
12125.977 56.43871914266414
12553.711 55.96565300106296
12996.094 55.92173971323923
13454.59 56.03543447897523
13929.199 55.249359017368405
14419.922 54.03025913431809
14928.223 53.571358470116806
15455.566 54.015667264104295
16000.488 54.331516184741744
16564.453 54.084266579427364
17148.926 53.32707791160122
17752.441 52.46978241581631
18379.395 51.4219788397037
19026.855 51.11206342219292
19697.754 51.912100408947126
19999.512 52.023352668855026
