Freq "Total Early Reflection"
20.507813 59.83974533200339
21.972656 60.80526210047701
23.4375 62.64296509851367
24.902344 63.70473673838832
26.367188 65.3402281946371
27.832031 66.553635753379
29.296875 67.76776864969987
30.761719 68.89487749322134
32.226563 70.0478527821946
33.691406 71.27904398710733
35.15625 72.44872077358677
36.621094 73.5574802908725
38.085938 74.65605135765493
39.550781 75.64445437577332
41.015625 76.6960940370327
42.480469 77.65583497995142
43.945313 78.55562918652258
45.410156 79.39352014113419
46.875 80.15874766428043
48.339844 80.85640511050646
51.269531 81.95456499555222
52.734375 82.3583269975177
54.199219 82.65385648790173
55.664063 82.87365148624696
58.59375 83.1056835813189
60.058594 83.13648351322978
62.988281 83.0961829188342
64.453125 83.05564417013103
67.382813 83.08005606957009
68.847656 83.0693055594304
71.777344 82.96139907595771
74.707031 82.89922795369691
77.636719 82.85147740843996
79.101563 82.78136865460458
82.03125 82.63795499797253
84.960938 82.58087754267615
87.890625 82.49261407355478
90.820313 82.38671575557784
95.214844 82.3692476039666
98.144531 82.35710268051113
101.07422 82.30590999583474
105.46875 82.22199949620061
108.39844 82.17511500883938
112.79297 82.18680441513081
117.1875 82.19306627736579
120.11719 82.14751819717536
124.51172 82.08936219515991
128.90625 81.97278566931458
133.30078 82.06011616417429
139.16016 82.10415172902094
143.55469 81.92804867227217
147.94922 81.7719382191983
153.80859 81.74908715066168
159.66797 81.88081242294325
165.52734 81.82738445349862
171.38672 81.86224462361805
177.24609 81.6031798023322
183.10547 81.40121631488431
188.96484 81.4743892464747
196.28906 81.75057561736247
203.61328 81.47565123875219
210.9375 81.19893842602072
218.26172 81.19796011388401
225.58594 81.01676247959533
232.91016 81.46958304420234
241.69922 81.00414978134442
250.48828 81.23216635337043
259.27734 81.28928521727693
268.06641 81.07701987999154
276.85547 80.50335095339774
287.10938 80.63603295259634
297.36328 80.76744661264001
307.61719 80.17465296179238
319.33594 80.00320467052272
329.58984 79.8407637979564
341.30859 79.91363723016882
353.02734 79.85542009923908
366.21094 79.43595244412072
379.39453 80.01354548487541
392.57813 80.13732452516119
405.76172 79.66427638353986
420.41016 79.6842786894185
435.05859 79.8016893261942
451.17188 79.28548377424937
465.82031 79.55839642626194
483.39844 79.52168063065905
499.51172 79.36554480702577
517.08984 79.21814592863186
536.13281 79.00226000940707
555.17578 79.46508314740218
574.21875 80.08135333235066
594.72656 79.42233446975594
615.23438 79.36107624216135
637.20703 79.10047197038669
659.17969 79.33210308486555
682.61719 78.88297315793304
707.51953 79.31738498254096
732.42188 78.96812407338628
757.32422 79.02016931194103
785.15625 78.65343720823971
811.52344 78.25791804361866
840.82031 78.32748307858363
870.11719 77.97936494693508
900.87891 78.23429480596873
933.10547 78.74512868985401
965.33203 78.41724259933143
1000.4883 78.34312118264783
1035.6445 78.2456363779533
1072.2656 78.361408833214
1108.8867 78.52763382500511
1148.4375 78.61187531021471
1189.4531 78.7717237439088
1230.4688 78.82826539389147
1274.4141 78.9195855369555
1319.8242 78.72135080999895
1366.6992 78.87854620764827
1413.5742 78.73987352244619
1463.3789 78.88722934257508
1516.1133 78.55187823409649
1568.8477 77.95310817635192
1624.5117 77.7523851456475
1681.6406 77.9394790516467
1741.6992 77.90623397061238
1803.2227 77.37857126391502
1866.2109 76.7658503269754
1932.1289 76.75445622826543
1999.5117 76.99853496592793
2069.8242 76.79988622600007
2143.0664 76.1600900129702
2219.2383 76.41495299537775
2296.875 77.07502234575814
2378.9063 77.10201861047115
2462.4023 77.21065014668729
2548.8281 77.397884640334
2639.6484 77.44654283402056
2731.9336 77.87914006957274
2828.6133 78.29264388268379
2928.2227 78.0276098147704
3030.7617 78.21814469853697
3137.6953 78.58194578121332
3249.0234 78.4307433632042
3363.2813 78.29246264873915
3481.9336 78.17664744750465
3604.9805 78.07823265497119
3732.4219 77.72102711779311
3864.2578 77.83069113904368
4000.4883 77.63740624408447
4141.1133 77.48961850403496
4287.5977 77.26362999460561
4438.4766 77.41889952383836
4595.2148 77.23259143490444
4756.3477 77.39176490213804
4924.8047 77.14119576440386
5097.6563 77.30790927917825
5277.832 77.38086191656967
5463.8672 77.44772209267182
5657.2266 77.42522088133528
5856.4453 77.35322517951015
6062.9883 77.1785392413632
6276.8555 77.21376227723079
6498.0469 77.08953026374454
6726.5625 77.26231983162053
6963.8672 77.01888714504102
7209.9609 76.85987645587984
7464.8438 76.80928880355437
7727.0508 76.57563502759784
7999.5117 76.53260053293279
8282.2266 76.66164816986374
8573.7305 76.73406579250796
8876.9531 76.65815706600198
9188.9648 76.53790333978512
9514.1602 76.41593306162456
9849.6094 76.28851606536286
10196.777 76.17330580945146
10555.664 76.21531891249816
10927.734 76.11097567948823
11312.988 76.05789355086468
11712.891 75.902327204846
12125.977 75.75564705469777
12553.711 75.500957021841
12996.094 75.26559286864803
13454.59 75.07775986622356
13929.199 74.79480788319498
14419.922 74.4034107354272
14928.223 74.19966092600703
15455.566 74.24641772682749
16000.488 74.2710311016581
16564.453 74.22440459330097
17148.926 74.22503971760811
17752.441 74.31108931568197
18379.395 74.35877864579099
19026.855 74.26415068576041
19697.754 74.13762308176392
19999.512 74.41535408400405
