Freq "Early Reflections"
20.5078 56.99784403651917
21.2402 58.518993645217606
21.9727 58.86563920438995
22.7051 59.45026183605195
23.4375 60.15330931650324
24.1699 61.10039222736289
25.6348 62.25137256923499
26.3672 63.43340851102788
27.0996 63.905935815354255
27.832 64.46368338899926
29.2969 65.52322676114066
30.0293 66.32968478842463
31.4941 68.20443132304206
32.2266 68.86526324205144
33.6914 70.37779063181394
34.4238 71.03415081731887
35.8887 72.48679510892158
37.3535 73.90010844516654
38.8184 75.07140472914777
39.5508 75.63459704872271
41.0156 76.94316205744867
42.4805 78.14529759844298
43.9453 79.06307140430427
45.4102 79.87195032344071
47.6074 80.88280679929369
49.0723 81.44818545215747
50.5371 81.89402419571884
52.7344 82.46603231846602
54.1992 82.8001962417854
56.3965 83.18947444044663
58.5938 83.56966758066376
60.0586 83.74748898860142
62.2559 84.07882292334827
64.4531 84.35088193560189
66.6504 84.57720008544831
69.5801 84.95132539777966
71.7773 85.19540847167677
73.9746 85.38457760455607
76.9043 85.7034211364776
79.834 86.02786494112773
82.7637 86.2702678584666
85.6934 86.51955712813971
88.623 86.83941525618918
91.5527 87.13638061252571
94.4824 87.41279908323467
98.1445 87.72904217751811
101.807 87.94181726969977
105.469 88.11872150179424
109.131 88.27232107019641
112.793 88.38384700666911
116.455 88.61118933320176
120.85 88.88272385528786
125.244 89.19759236102729
129.639 89.29529599523448
134.033 89.18753056264221
138.428 89.23100996616058
143.555 89.40363714534178
148.682 89.48720942926562
153.809 89.45195197073572
159.668 89.3201472124163
164.795 89.38843022982007
170.654 89.55501176315384
176.514 89.3724881965393
183.105 89.02233862178313
189.697 88.9851895247542
196.289 88.70312677709815
202.881 88.8170918624651
210.205 88.57881438950382
217.529 88.3859507542175
225.586 88.17107390249157
232.91 88.23505946028403
241.699 87.83185542434049
249.756 88.22374992536216
258.545 88.21702182142674
268.066 88.04363378615166
277.588 87.87650704262319
287.109 87.85303243557983
297.363 87.4815337353918
307.617 87.57201953982938
318.604 87.47759414707109
329.59 87.83363149154205
341.309 87.37515942439566
353.76 87.26070567607432
366.211 86.97734769224716
378.662 86.98519102543979
392.578 86.92090570275722
405.762 86.78267992260386
420.41 86.9481029759525
435.059 87.07638164099967
450.439 86.58090266548125
466.553 86.30278517885982
482.666 86.78326258838999
500.244 86.0451801631878
517.822 86.32115927176059
536.133 86.35714030375611
554.443 86.34325647656605
574.219 86.4273140616622
594.727 86.21505227349307
615.234 86.03694314665873
637.207 86.21587568986659
659.912 85.52425993388093
683.35 85.73699199351333
706.787 85.3452757141037
731.689 85.63234993967622
758.057 85.55823697764059
784.424 85.54817373503732
812.256 85.20574717369631
840.82 85.68257233946349
870.85 85.51731950655807
901.611 85.79227065932058
933.105 85.72596604091146
966.064 85.83701660588035
999.756 85.68790872633672
1034.91 85.66551932070361
1071.53 85.80181538113615
1109.62 85.39129811137026
1148.44 85.29948459410569
1189.45 85.23176919468747
1231.2 85.04143702333943
1274.41 84.53602531848146
1319.82 83.94918832638676
1365.97 83.3191940509849
1414.31 83.0471131455494
1464.11 83.07671793886621
1515.38 82.89964426124703
1568.85 82.7287078303803
1624.51 82.660262420625
1681.64 83.30273411338383
1740.97 83.97761407174876
1802.49 84.35772914626473
1866.21 84.04357161467014
1932.13 83.44025269801175
2000.24 83.52359765348645
2070.56 83.42571570536572
2143.8 83.22479705582104
2219.24 83.47541171240066
2297.61 83.74064059414779
2378.17 83.57282390338767
2462.4 83.46929121865203
2548.83 83.6803238237143
2638.92 83.95255676678904
2731.93 83.5715397388204
2828.61 83.67066981439471
2928.22 83.85230635934883
3031.49 84.36829090749758
3138.43 84.5937854259977
3249.02 84.79683944665756
3363.28 85.2487814611824
3481.93 85.78441965124024
3604.98 85.78122172780725
3732.42 85.75235529261244
3863.53 85.73883545616481
3999.76 85.88423970825288
4141.11 85.40479635905659
4286.87 85.37569968898367
4438.48 84.84132567514101
4594.48 84.95403643979428
4757.08 85.32110378673109
4924.8 85.38219550170656
5098.39 85.71658154683821
5277.83 85.81542921525333
5463.87 85.92634468510808
5656.49 86.25644341190177
5856.45 86.1236143797697
6062.99 86.09921011622599
6276.86 85.88294946886062
6498.05 85.93136261899527
6727.29 85.50992787015409
6964.6 85.68007341008935
7209.96 85.41726347536415
7464.11 85.55108158136696
7727.78 85.68417536583695
8000.24 85.61484608338127
8282.23 85.8063435324523
8574.46 85.78160848153344
8876.22 85.6424431699397
9189.7 85.69624109039988
9513.43 85.79965280874792
9848.88 85.95831997263146
10196.8 85.9724392976946
10556.4 86.00332160888833
10928.5 85.91852230724946
11313.7 85.6003658911191
11712.9 85.37195470050273
12126.0 86.051599383605
12553.7 86.0646345960879
12996.1 85.35865034160045
13454.6 85.35048537817455
13928.5 85.15503161984351
14419.9 85.56075749937354
14928.2 86.60800980959203
15454.8 85.91269213210968
15999.8 87.84246941547444
16564.5 88.02450018850028
17148.2 87.01384133948217
17753.2 85.39454619885542
18379.4 84.0360174458992
19027.6 82.80391423646923
19698.5 82.08928256173427
19999.5 81.62742565507655
