Freq "Front Wall Bounce"
22.4 64.80649216293325
23.0 65.40649216293325
23.6 66.03557571658078
24.0 66.60649216293325
25.0 67.20649216293326
25.8 67.7778812166511
26.5 68.37788121665109
27.2 68.92008757941134
28.0 69.52008757941135
29.0 70.04908053325741
30.0 70.62008757941135
30.7 71.1628565811149
31.5 71.72008757941136
32.5 72.2628565811149
33.5 72.83395575492517
34.5 73.33395575492516
35.5 73.93395575492517
36.5 74.50552575718095
37.5 75.03395575492516
38.7 75.60552575718094
40.0 76.20552575718095
41.2 76.7769084225681
42.5 77.34810126582279
43.7 77.94810126582279
45.0 78.54810126582281
46.2 79.1912406611606
47.5 79.8197640197417
48.7 80.41976401974169
50.0 81.04810126582281
51.5 81.64810126582279
53.0 82.2481012658228
54.5 82.8197640197417
56.0 83.34810126582279
58.0 83.84810126582279
60.0 84.3197640197417
61.5 84.7197640197417
63.0 85.06252872922025
65.0 85.34810126582279
67.0 85.59124066116061
69.0 85.7197640197417
71.0 85.8197640197417
73.0 85.83428577084227
75.0 85.79124066116061
77.5 85.66318440826163
80.0 85.53428577084229
82.5 85.36318440826163
85.0 85.16318440826164
87.5 84.87789626338183
90.0 84.66318440826163
92.5 84.37789626338184
95.0 84.1355905647432
97.5 83.85039603275972
100.0 83.6355905647432
103.0 83.40845438405474
106.0 83.17985640444185
109.0 82.97985640444186
112.0 82.82335249224735
115.0 82.652996259559
118.0 82.52335249224735
122.0 82.352996259559
125.0 82.22335249224734
128.0 82.06808549983724
132.0 81.92658604729294
136.0 81.76808549983723
140.0 81.56808549983724
145.0 81.44176716679061
150.0 81.32658604729296
155.0 81.19676083947074
160.0 81.12658604729295
165.0 81.06808549983724
170.0 81.06808549983724
175.0 81.06808549983724
180.0 81.06808549983724
185.0 81.12658604729295
190.0 81.25299625955901
195.0 81.36808549983724
200.0 81.55299625955901
206.0 81.66808549983723
212.0 81.752996259559
218.0 81.72335249224736
224.0 81.57985640444186
230.0 81.27985640444186
236.0 80.80845438405474
240.0 80.27985640444184
250.0 79.82335249224737
258.0 79.57985640444186
265.0 79.57985640444186
272.0 79.75299625955901
280.0 79.952996259559
290.0 80.06808549983722
300.0 80.24176716679061
307.0 80.4133884258183
315.0 80.5873440230427
325.0 80.7873440230427
335.0 80.80301886967568
345.0 80.77750803273906
355.0 80.77750803273906
365.0 80.75243227544948
375.0 80.80816063440189
387.0 80.93657344509795
400.0 81.23657344509796
412.0 81.70816063440189
425.0 82.13657344509795
437.0 82.5617406718916
450.0 82.86174067189161
462.0 82.93657344509793
475.0 82.4617406718916
487.0 81.53657344509794
500.0 81.1081606344019
515.0 81.52778663274258
530.0 81.97493581895237
545.0 82.00631835401778
560.0 81.78253305788174
580.0 81.44752419764478
600.0 81.07568147327181
615.0 80.83089771743813
630.0 80.77568147327182
650.0 80.87568147327181
670.0 81.04752419764478
690.0 81.82450183629852
710.0 81.60188500056826
730.0 79.71901181367123
750.0 78.22957405413011
775.0 77.4800551242659
800.0 77.37643349916165
825.0 77.25558136473869
850.0 77.53510669661163
875.0 77.8533162885296
900.0 77.68710173635978
925.0 77.36723922082294
950.0 77.5200482133987
975.0 78.25440410278648
1000.0 79.4547929624412
1030.0 80.43654625975118
1060.0 80.15636945008157
1090.0 79.41223658641367
1120.0 79.79543432024828
1150.0 79.8991730559755
1180.0 80.13581688860178
1220.0 80.34035723784908
1250.0 80.24573041689688
1280.0 81.32656047684979
1320.0 83.11925166508225
1360.0 82.63294246657725
1400.0 79.31925166508225
1450.0 78.2742728188257
1500.0 79.60510354187169
1550.0 80.56222604568335
1600.0 80.67490506376093
1650.0 79.83400693363475
1700.0 80.24923939687771
1750.0 80.35436259977234
1800.0 79.4166844314246
1850.0 79.02122600336087
1900.0 78.62091777034279
1950.0 77.49186567254888
2000.0 76.33304989610964
2060.0 74.27935807227236
2120.0 73.91255618664825
2180.0 75.1962659616464
2240.0 75.68129542091303
2300.0 76.23070042663979
2360.0 78.27443753572767
2400.0 79.35384558755275
2500.0 78.81981026717885
2580.0 77.50560252751617
2650.0 77.99609083549966
2720.0 79.61606196569456
2800.0 80.46870593810111
2900.0 81.26650009992055
3000.0 80.64210545001357
3070.0 79.19223024545784
3150.0 79.05375427098677
3250.0 79.86246032704305
3350.0 80.39252120998644
3450.0 80.57276148013617
3550.0 81.74735149579753
3650.0 81.84735149579754
3750.0 82.83445025642423
3870.0 83.19252120998644
4000.0 83.70747398182438
4120.0 83.62237544782039
4250.0 82.90747398182438
4370.0 81.82237544782039
4500.0 81.2223754478204
4620.0 81.2223754478204
4750.0 80.43445025642423
4870.0 80.82237544782039
5000.0 81.94735149579753
5150.0 81.52237544782041
5300.0 81.64735149579752
5450.0 82.6223754478204
5600.0 82.04735149579753
5800.0 81.70747398182438
6000.0 80.84735149579754
6150.0 80.74735149579753
6300.0 81.26246032704306
6500.0 81.52237544782041
6700.0 83.5806070031941
6900.0 83.14735149579752
7100.0 82.92237544782039
7300.0 82.04735149579753
7500.0 82.43445025642421
7750.0 82.92237544782039
8000.0 83.12237544782039
8250.0 82.42237544782039
8500.0 82.74735149579753
8750.0 80.49252120998644
9000.0 79.94735149579755
9250.0 81.63445025642422
9500.0 81.84735149579754
9750.0 81.52237544782041
10000.0 81.94735149579753
10300.0 82.24735149579753
10600.0 82.0223754478204
10900.0 81.64735149579752
11200.0 82.24735149579753
11500.0 83.02237544782038
11800.0 82.32237544782039
12200.0 81.72237544782038
12500.0 81.94735149579753
12800.0 80.52237544782038
13200.0 82.44735149579755
13600.0 81.2223754478204
14000.0 81.82237544782039
14500.0 81.12237544782039
15000.0 80.54735149579753
15500.0 80.42237544782039
16000.0 79.62237544782039
16500.0 82.0223754478204
17000.0 81.94735149579753
17500.0 83.74735149579753
18000.0 85.92237544782039
18500.0 85.82237544782039
19000.0 87.0223754478204
19500.0 84.23445025642421
