Freq,Floor Bounce,Ceiling Bounce,Front Wall Bounce,Side Wall Bounce,Rear Wall Bounce,Total Early Reflection
20.5078,62.47187444281654,62.32095793025145,62.46154070271503,62.26218992709438,61.677306464092325,62.24832464785494
21.9727,64.27528132578253,64.004957872882,64.2066639291519,64.03227103547952,63.558187132451806,64.02256571012542
23.4375,65.15450351085529,65.02054193155786,65.14275225227802,64.96688026663001,64.49867322218363,64.96315057297053
24.9023,65.9161831436264,65.7663061124662,65.90960629139815,65.71724775841096,65.22495278167018,65.71407913606065
26.3672,66.6621078238649,66.52600353488008,66.65466044566823,66.47523462089528,66.01426496260792,66.47280475551445
27.832,67.49134350529252,67.32944482211187,67.48027816436093,67.29334464074209,66.82100679582072,67.28980094582118
29.2969,68.1983297974683,68.07622554732971,68.20486762597753,68.0152645846518,67.53528365715754,68.01281667744794
30.7617,68.99873057387465,68.87622068527861,69.00425129629112,68.81071627002072,68.36219586787159,68.81669604398719
32.2266,69.46157484482475,69.33582053169003,69.47131945118183,69.26807093404791,68.78662760218893,69.27177390622747
33.6914,69.83138048509295,69.72323412056261,69.84814511054894,69.65325715530649,69.18886347386376,69.6555107034518
35.1562,70.90213618523738,70.80658988575372,70.92877885992043,70.72081005428329,70.2327263010082,70.72544154018436
36.6211,71.15273986929996,71.05915959148261,71.18148839975159,70.97507049432399,70.4913898618285,70.97905765871822
38.0859,71.61479756709795,71.49592235085915,71.63538259660393,71.42459868331812,70.92866512971771,71.42732890274586
39.5508,72.22633025498604,72.12412013381481,72.25090587910974,72.05238976868829,71.5974010488396,72.05657847618562
41.0156,72.72618698139208,72.67836937569732,72.78365992529204,72.55627443542677,72.03815907521295,72.56469587628055
42.4805,73.23635137571891,73.0905989202313,73.26496292216639,73.00695527794265,72.38319235709655,73.00791604804228
43.9453,73.8212650160913,73.7110482191443,73.85402106962879,73.63395831461425,73.09865453056314,73.6322155937434
45.4102,74.30849959857284,74.18855149416349,74.33139773031478,74.13139381938215,73.65778167946978,74.1302499545837
46.875,74.73640382600631,74.58974123831571,74.75511571880213,74.54390786544538,74.07847703396038,74.54750064517638
48.3398,75.075145307979,74.91448361156465,75.09352425498749,74.87298399599676,74.39945312518638,74.8782300981116
51.2695,75.93492384999134,75.78176984443976,75.9584913179358,75.74186892563391,75.27058162957198,75.74446705468942
52.7344,76.41673827747931,76.25193368221375,76.44215424083833,76.21026974012067,75.7039683061204,76.21298948969611
54.1992,76.78543113614614,76.63524286698315,76.82060338297912,76.58388507295957,76.07101633004567,76.58738437329778
55.6641,77.10918943938972,76.95302440015776,77.15947084170054,76.87255441041296,76.27494915316389,76.88507936147559
58.5938,77.8824898834828,77.75904140114085,77.92997532070082,77.70233226041236,77.17151390280377,77.69734571066542
60.0586,78.25966147242163,78.11110712466387,78.30323343620634,78.06412468678047,77.5461425970659,78.06507896820598
62.9883,78.87494322608764,78.7140590191422,78.92645734916981,78.66318528337068,78.09082589158848,78.66385456975956
64.4531,79.1756714902091,79.01965684700751,79.22763986353567,78.97332441834807,78.42748203768456,78.97386262740334
67.3828,79.64838369557177,79.43784147971272,79.67825659136736,79.43858321415503,78.98690491257732,79.44490564384188
68.8477,79.92643516477422,79.70781735727691,79.95305228518465,79.7221470991574,79.29912922341975,79.7279327729663
71.7773,80.58723132642031,80.37895434550082,80.630862210635,80.37833877896765,79.90065627782585,80.38279117085247
74.707,81.20407152614193,80.99332555108246,81.25402197320945,80.99154041235316,80.49733344803077,80.99614875836009
77.6367,81.72630872782845,81.51252849586493,81.7836816993038,81.51301485290391,81.0163853685688,81.51863627447754
79.1016,81.95294542231593,81.74908604770195,82.01875627570823,81.7420609072874,81.24366155294915,81.74964525453093
82.0312,82.41041606850412,82.13055418331132,82.45055197998462,82.1715926111517,81.67699036763786,82.17665026380418
84.9609,82.74861359564879,82.49412550023992,82.79417356335101,82.54139546977537,82.14070643200515,82.54993636609646
87.8906,83.4439694414508,83.33791932726471,83.57062473853891,83.2870267815794,82.79914562957653,83.29553685091867
90.8203,83.76974359781717,83.54606020899884,83.87627789361171,83.5193950905148,82.92948512566718,83.5403063788519
95.2148,84.32500878704226,84.13358962550588,84.43986929926506,84.13172591904281,83.62268704592101,84.1394215358945
98.1445,84.68523302255291,84.51828141348786,84.81764645120856,84.5006690188299,83.98892293832519,84.51111164772507
101.074,84.94944001132069,84.69779287804036,85.04714703605619,84.75865062943508,84.37459556370798,84.77169898041039
105.469,85.64872357083833,85.32970369306862,85.76174741108895,85.38838451972374,84.83678142166418,85.4047308682216
108.398,85.99672491566602,85.69065258523732,86.11962509945506,85.74537025447002,85.19406836775539,85.7608437269848
112.793,86.48753954159304,86.13421171071877,86.6180591844543,86.20985293867365,85.63701834978032,86.23042660014319
117.188,86.86919539455293,86.61526828590054,87.06156483537639,86.59637803573011,85.86811895916262,86.62051900552812
120.117,87.07784155010408,86.78318309754685,87.25700638970774,86.80327589255938,86.09397491040818,86.82069228048583
124.512,87.29844940166429,86.99597819665628,87.48452581931885,87.04453866060366,86.44767719470337,87.06818885513105
128.906,87.55794623122617,87.25973277207132,87.75574853271166,87.31976550749154,86.7406316102263,87.34004820395731
133.301,87.78718705420303,87.47618200346564,87.98666374596023,87.55996672870181,87.01299173049277,87.57687734858304
139.16,88.04183105673538,87.67086306962433,88.26117585609671,87.7745042908639,87.20138905274055,87.80467708968017
143.555,88.19289693983512,87.77305847315473,88.41400900531774,87.90122273873224,87.2949219822595,87.93187537014008
147.949,88.29266079114576,87.86195487193812,88.53710522290449,87.98534623015011,87.3245816218032,88.01964679967737
153.809,88.38160618527384,87.9781518389701,88.66620709738585,88.09566406319755,87.41336545049087,88.12713832374719
159.668,88.47051982214595,88.03153252830727,88.76645024321222,88.16945185926836,87.4873262090278,88.20623960738806
165.527,88.57346810498044,88.03358355725278,88.84977452181177,88.26388541838229,87.71737535451955,88.30574452010404
171.387,88.61102661751751,87.96826314165443,88.89549067547519,88.2357727370677,87.57489432355064,88.28191012410785
177.246,88.4429626580704,87.92150120095565,88.81354494355388,88.08235624029095,87.29283684950515,88.14046990915855
183.105,88.22099686756516,87.78887256996767,88.65158067337838,87.8921693447282,87.13721075479945,87.96680213377087
188.965,88.21664218888272,87.66927310481283,88.63863672638486,87.84039947024989,86.94634256361003,87.89870517179311
196.289,88.16239093365193,87.43929661237331,88.57494340603276,87.72768094597232,86.81507738903883,87.7854257112787
203.613,88.07032231512444,87.23992716017055,88.48959488967837,87.56796588055137,86.43642983650045,87.61712483503571
210.938,87.80179816464914,86.99318502007202,88.2520952416457,87.36533110402776,86.23154725307377,87.3829796332705
218.262,87.43555641915682,86.747221877349,87.97180871830791,87.10409535102566,86.26714679862745,87.14412262747643
225.586,87.37890168804104,86.72122646494087,87.97789650212522,86.98174637755965,86.08699101676872,87.0755410970932
232.91,87.27125782808032,86.55293213518462,87.87643337517274,86.84578115725799,85.62105069775627,86.89744378872977
241.699,86.8453433745752,85.91206922680995,87.41767348091908,86.42879269676637,85.13266249205459,86.41676150862972
250.488,86.65332300861095,85.39790950710336,87.18704939688189,86.08677563459423,84.83598258420209,86.11340689818186
259.277,86.44144288431882,85.0816090376441,87.04351099262814,85.88232441370123,85.17670436960267,85.99006156690866
268.066,86.171463910715,84.83379600256937,86.87754198494972,85.56619304999315,84.42375780673282,85.66541824367182
276.855,85.98303621651331,84.710043361102,86.68237732570104,85.40392997154514,84.23994407218446,85.49177017526985
287.109,85.72692371411891,84.50956490073416,86.75101571522954,84.93876792985867,85.65932011781223,85.58573978597418
297.363,87.313464918899,86.01869041336755,88.42188424372783,86.19821323098238,84.95158957658684,86.7454329773482
307.617,87.18058782458915,85.39443049903845,88.08979050114691,86.17008482671088,83.74955853935505,86.36290983440308
319.336,86.23348720807958,84.4617610324661,87.22006951927803,85.40952706183536,83.3607195676145,85.54127220581212
329.59,85.99688308609625,84.39264842282016,87.00420498254583,85.27024776743595,82.747247770287,85.31281567184891
341.309,85.60519189138077,83.9354840541146,86.73655575025829,84.92391244250905,82.63651566311837,84.98841921046392
353.027,85.83648722519621,84.10078004323574,86.91072333138968,84.92703311564601,81.96163828669599,85.0502158877733
366.211,85.89714368979783,83.80612063775281,86.987873445212,85.10105761171977,81.50188272721573,85.03460598604964
379.395,85.64932513308743,83.69768323577355,86.88891572398082,85.1966204426973,81.7198462982065,84.96795554423143
392.578,85.2830233356618,83.32162035577845,86.52050616689708,84.80957936424174,81.2987825194594,84.59001322657475
405.762,84.88786995101542,82.47911038078631,86.23331112465578,84.54020285404202,81.33998066806883,84.23516084757982
420.41,84.89046904811362,82.83682864080932,86.47357481006732,84.89367648739788,80.99791571896576,84.405649338933
435.059,84.01317889941804,81.62352267688287,85.59255009831396,84.11747849470238,80.84745231396965,83.57691046872517
451.172,84.5135310749933,81.56342191265087,86.08172621090604,84.12245640583241,79.64184927787737,83.73711939949983
465.82,84.36717657814903,81.71552008206346,86.13579931138113,84.16804246863228,79.60932410701427,83.7476198706164
483.398,84.14123561320702,81.56940911888965,85.92438806590124,84.48563157782648,79.81314827468225,83.695695969758
499.512,83.64760517317185,80.53291530273658,85.57912947756606,84.30961896438475,80.26093743712961,83.3523612193222
517.09,82.43789735647864,79.45914342445523,84.67316788834553,83.7513633424721,79.96327296184215,82.52011111505287
536.133,83.06818884553387,79.12929036658147,85.30464809731151,82.91601822799574,79.52339844926202,82.59610773221758
555.176,83.16903930044965,79.65841883309086,85.53903532065269,83.44747054626801,78.55346609331998,82.79096626385517
574.219,81.98940732721474,78.10188710745506,84.90896189418372,83.53817099297923,79.52024236183183,82.29300112949308
594.727,82.35708539463256,78.54134227516845,85.1777794283157,82.27193331759509,78.5483095307987,82.11281382960188
615.234,82.4553358715228,78.09545952606841,85.56235673924652,82.864962221687,76.94809349963377,82.27059483673459
637.207,82.56838949473931,76.70641671818093,85.54146532435334,83.72247971772632,77.72946517211614,82.45825951765076
659.18,81.34599703312234,74.8639436353953,84.85539642018641,82.86742020912519,78.95368589551232,81.73168446736689
682.617,81.36160796302669,74.67380792247118,85.2694344948859,82.37407758838692,79.11571887371069,81.80096966925008
707.52,81.61807201223331,75.07517140941552,85.3497208828211,82.25555113660297,76.80667206336501,81.67966273865092
732.422,81.50859153687676,74.05539697977154,85.45992807847321,82.77739942421816,77.41990716007301,81.83721289968231
757.324,80.60438729242838,72.40639676603503,85.16916510912101,82.43246631585464,77.45794542340663,81.41073163663431
785.156,79.46189712293462,68.99780796958699,84.41449507251325,82.17608774852015,76.6584723735006,80.67446810716086
811.523,80.4860368510037,69.8503466197423,84.61262489964406,81.05388702756684,74.64023550750447,80.54857175799906
840.82,79.47605003523923,68.82108618718533,84.86917905568912,82.62065303574711,79.45268797852412,81.29753539522032
870.117,82.91023535582595,71.35165306464899,87.95397358400238,82.47209969058908,80.44659631099853,83.50605047406047
900.879,81.55814233867515,74.71391207517634,88.03218172936177,83.76528641059869,78.10658494346461,83.46764154331318
933.105,81.06094023693231,75.67741687770038,87.96662974783477,83.95637412984087,79.81391375740927,83.56119158018048
965.332,78.3413645799484,75.7282148265512,87.56780293372296,84.70472146722892,76.0787422311923,83.06562972085466
1000.49,78.58547176862942,78.43822778657929,87.6425515362691,83.72741682512284,78.03402798144789,83.10736483683606
1035.64,79.34419897150686,78.88144321019588,87.86384743060619,83.06041686227508,77.2574761473722,83.13978071598514
1072.27,78.0612422302297,79.80100308624866,87.59439969741123,83.66606092491456,76.39293976089324,83.05519128986484
1108.89,78.20583756166764,81.21254999179342,87.38214499604733,84.0667891019408,75.78006991387186,83.17469080357918
1148.44,78.8520274973974,82.15110891911033,87.81364715584223,84.44112234676119,76.13146838558558,83.67134557243185
1189.45,78.99939590400332,83.70176358259262,87.81938507520839,83.83841318563368,77.4339631150513,83.86176034149496
1230.47,80.14062015374385,83.79573525313363,88.312987956135,83.49102700825084,77.14192145171717,84.13715500333737
1274.41,80.6972843466994,84.34672051035115,88.06088393743279,82.79087000110987,77.26225068296237,84.0576637972561
1319.82,81.62728531169527,83.77520238157008,87.96493183143141,82.55219964598211,75.56380732361974,83.89463856206751
1366.7,82.4026476527879,84.41625627565514,87.72399998705198,82.36125347943197,77.37889872746842,84.04619194054261
1413.57,82.02774928703037,84.681427050708,87.51676123541046,81.1875041634787,74.49064908319181,83.71973465566958
1463.38,81.78953325177226,83.92026320280986,87.26294011013384,81.09465051273325,73.25444137531946,83.34414406896916
1516.11,81.83333678104611,83.55374661464231,87.12756422526502,81.62683647403695,75.34269750803988,83.32425626232548
1568.85,80.33050902262246,82.07613607314825,86.91091075976965,82.21322916909551,74.21861147208466,82.8016439959149
1624.51,81.20465610306638,81.36457587811633,86.95107842803858,82.44579951939035,72.83155674929552,82.82972382695154
1681.64,81.041319982557,80.79014523301525,87.22828218550143,81.77566632111304,72.77388324682555,82.76340944636051
1741.7,81.13891394780035,81.00068096126644,87.84126393273169,81.36184214756184,74.57773909536776,83.13754423366666
1803.22,80.8091868807488,81.38106379451061,87.95765367341455,82.1313041698062,73.48754771080552,83.29776588204544
1866.21,79.49351281391799,79.67933474629218,87.88310104612417,81.19986435518858,74.3142224382588,82.80987925554614
1932.13,78.5548988450026,79.07331995429699,87.96352079498932,81.89790517246395,74.18880233690028,82.82940092369722
1999.51,79.58414134004798,77.4729269714113,87.95363976831098,82.8475071723998,72.56326234712562,82.9300734562232
2069.82,80.172918718472,77.55152993188915,87.60637486185384,82.92043260402168,74.87836012379853,82.85064601400832
2143.07,79.22382835437186,78.5831247072807,87.90884477130783,83.5108034777878,74.31721926968385,83.11796507919665
2219.24,78.35357621153817,78.85536362308066,88.0445380231634,82.9366794066503,74.59336759801674,83.04565608825918
2296.88,77.50963903871076,79.58188498785641,88.0610917496179,84.23640720610601,75.10263849576405,83.36338150680878
2378.91,79.12450949092836,79.85108922218738,87.45936849419554,84.71161134018848,74.82373764540655,83.27053564190648
2462.4,80.23980374554925,82.13933016549556,87.73762734951939,84.6455440579021,74.28616910920424,83.7349101163443
2548.83,80.83379741927617,83.71912109209033,87.86215245816992,84.0300266186096,74.7853061242278,83.98251457999397
2639.65,81.13748362762017,84.22459610275779,87.83488630848431,84.30254332872876,73.4996904818117,84.1282276417136
2731.93,81.14207740272785,82.86353502481282,87.368281265325,83.94689165350736,72.66009788099922,83.56240638609707
2828.61,82.05576942782434,82.89058410667451,87.4848055309827,84.4471418866616,73.56474356678652,83.8618831675177
2928.22,83.23439547308386,83.15567131240891,87.95792018863416,84.42455321367105,74.93410662012158,84.3149344076486
3030.76,84.13062775661014,84.04523773773903,87.82983222017923,84.01637132903228,74.2637804811096,84.46605356621929
3137.7,83.85643075658699,84.5276287976907,87.57174576766947,84.00824476977917,73.85076397632638,84.39112276812735
3249.02,84.51549603183102,84.05551682493275,87.51198435994894,84.49651549588408,74.01252385315061,84.49621817013353
3363.28,84.92385346077116,84.07725788766133,87.44815442599617,84.67232593544308,72.65060988978239,84.57504441190095
3481.93,85.37012405620246,84.65705524451145,88.21346424263164,84.55124254222592,71.50126139223711,85.04779212363202
3604.98,86.31563687812886,85.12126591348212,88.45706827510944,84.40550888967017,69.69687002819599,85.41424587965452
3732.42,86.79032038323247,85.09119441600542,88.99819767971304,84.08799306003691,71.28602795385626,85.71540576634652
3864.26,85.88770169084266,84.60818271456186,89.3658728655243,84.72472584441779,72.28222317541588,85.69317105635442
4000.49,85.44259297947652,82.95968728735018,88.88489542667016,84.51028934095054,72.10812456486867,85.10583675591066
4141.11,86.12399625236652,83.77755616763925,88.75150010048883,84.2745172225841,72.00811355122151,85.26828844377364
4287.6,86.31477879074812,83.21809730896165,88.73098457556017,84.45008920472608,71.51737710419955,85.25628707267113
4438.48,86.71939104745611,83.13034992548546,88.63945800751091,84.33233289486374,70.9034774734675,85.28906170120491
4595.21,86.76910277661888,84.02261568665268,87.88815831253565,84.07258457737214,71.44873929454435,85.08404440833877
4756.35,87.91964881213936,85.21096647025416,87.3877040397405,84.09500682811023,70.09201027762424,85.48095655804934
4924.8,88.28633209057999,86.0779014827907,87.46492357947396,83.56157506677533,68.9958274105524,85.733575280183
5097.66,87.74462486966917,84.63427821111458,87.92172670115808,83.59891153049689,69.56966038757726,85.42423855522591
5277.83,87.9818498161179,84.38329938485514,88.09182624804009,83.55342110375032,69.98342278326733,85.52360744765751
5463.87,88.15924210072812,84.3989856562193,88.01159320926043,82.6299943723724,68.06717956693228,85.44604630583375
5657.23,88.0435852427269,84.62540570446906,87.60856305925957,82.54572972494196,66.97191864870435,85.2857791740837
5856.45,87.68441798958776,85.26823573135043,87.3310866091344,81.59006423385439,66.97432273030381,85.08716933070423
6062.99,88.248328668151,85.84731118669087,87.06224660530701,81.2076506642246,66.55263150878872,85.308250150145
6276.86,87.92489486517474,84.90694222063364,86.26284929017488,81.10473372148277,65.26573286927693,84.72737971895309
6498.05,87.87174763553783,84.49290942436753,85.55623664509403,80.10369098910311,66.05513561080012,84.34524625340424
6726.56,87.29175439394875,84.78336677277673,85.57500700105327,79.82387735334255,64.42129299812275,84.13850087620877
6963.87,86.91105704840832,84.00860156637283,86.32340225854635,79.92404623613808,62.39594377289144,84.05380812247513
7209.96,86.762665793444,84.14118758517402,86.78475047678077,79.9339087022958,63.60123982555298,84.18882956757977
7464.84,86.42156724214809,84.35684528947355,86.90507206166252,79.75568385252829,63.72497783651856,84.14514500398121
7727.05,86.9829587337387,84.04692360356147,86.1645139101448,79.16186019818456,62.26282051398108,83.98201111222298
7999.51,86.77212005775067,83.91039389374683,85.71808694405233,78.42281848545552,60.248439047139286,83.67474675061486
8282.23,86.50400208356979,83.37218413110973,86.53484878928316,77.91970347967833,59.72688732392065,83.72041088420947
8573.73,86.84317332149298,83.53273512108335,87.52932465208787,77.50920446353271,59.52783287374881,84.25657936057489
8876.95,86.99007470252369,83.37750271859191,87.85557059577499,77.01975321458738,58.87159343300998,84.40634115171171
9188.96,86.30822209727319,83.65488294697423,87.52036166714709,76.20829210959515,58.990720305064045,84.03783067237522
9514.16,86.67957543939971,82.78602050258235,87.36852912406974,74.5228829103432,59.69789744514837,83.91045562146262
9849.61,86.72532162265811,82.50080543924801,87.50240813601222,73.89589574136978,61.319425139444334,83.93351701959276
