Freq "Front Wall Bounce"
20.5078 62.46154070271503
21.9727 64.2066639291519
23.4375 65.14275225227802
24.9023 65.90960629139815
26.3672 66.65466044566823
27.832 67.48027816436093
29.2969 68.20486762597753
30.7617 69.00425129629112
32.2266 69.47131945118183
33.6914 69.84814511054894
35.1562 70.92877885992043
36.6211 71.18148839975159
38.0859 71.63538259660393
39.5508 72.25090587910974
41.0156 72.78365992529204
42.4805 73.26496292216639
43.9453 73.85402106962879
45.4102 74.33139773031478
46.875 74.75511571880213
48.3398 75.09352425498749
51.2695 75.9584913179358
52.7344 76.44215424083833
54.1992 76.82060338297912
55.6641 77.15947084170054
58.5938 77.92997532070082
60.0586 78.30323343620634
62.9883 78.92645734916981
64.4531 79.22763986353567
67.3828 79.67825659136736
68.8477 79.95305228518465
71.7773 80.630862210635
74.707 81.25402197320945
77.6367 81.7836816993038
79.1016 82.01875627570823
82.0312 82.45055197998462
84.9609 82.79417356335101
87.8906 83.57062473853891
90.8203 83.87627789361171
95.2148 84.43986929926506
98.1445 84.81764645120856
101.074 85.04714703605619
105.469 85.76174741108895
108.398 86.11962509945506
112.793 86.6180591844543
117.188 87.06156483537639
120.117 87.25700638970774
124.512 87.48452581931885
128.906 87.75574853271166
133.301 87.98666374596023
139.16 88.26117585609671
143.555 88.41400900531774
147.949 88.53710522290449
153.809 88.66620709738585
159.668 88.76645024321222
165.527 88.84977452181177
171.387 88.89549067547519
177.246 88.81354494355388
183.105 88.65158067337838
188.965 88.63863672638486
196.289 88.57494340603276
203.613 88.48959488967837
210.938 88.2520952416457
218.262 87.97180871830791
225.586 87.97789650212522
232.91 87.87643337517274
241.699 87.41767348091908
250.488 87.18704939688189
259.277 87.04351099262814
268.066 86.87754198494972
276.855 86.68237732570104
287.109 86.75101571522954
297.363 88.42188424372783
307.617 88.08979050114691
319.336 87.22006951927803
329.59 87.00420498254583
341.309 86.73655575025829
353.027 86.91072333138968
366.211 86.987873445212
379.395 86.88891572398082
392.578 86.52050616689708
405.762 86.23331112465578
420.41 86.47357481006732
435.059 85.59255009831396
451.172 86.08172621090604
465.82 86.13579931138113
483.398 85.92438806590124
499.512 85.57912947756606
517.09 84.67316788834553
536.133 85.30464809731151
555.176 85.53903532065269
574.219 84.90896189418372
594.727 85.1777794283157
615.234 85.56235673924652
637.207 85.54146532435334
659.18 84.85539642018641
682.617 85.2694344948859
707.52 85.3497208828211
732.422 85.45992807847321
757.324 85.16916510912101
785.156 84.41449507251325
811.523 84.61262489964406
840.82 84.86917905568912
870.117 87.95397358400238
900.879 88.03218172936177
933.105 87.96662974783477
965.332 87.56780293372296
1000.49 87.6425515362691
1035.64 87.86384743060619
1072.27 87.59439969741123
1108.89 87.38214499604733
1148.44 87.81364715584223
1189.45 87.81938507520839
1230.47 88.312987956135
1274.41 88.06088393743279
1319.82 87.96493183143141
1366.7 87.72399998705198
1413.57 87.51676123541046
1463.38 87.26294011013384
1516.11 87.12756422526502
1568.85 86.91091075976965
1624.51 86.95107842803858
1681.64 87.22828218550143
1741.7 87.84126393273169
1803.22 87.95765367341455
1866.21 87.88310104612417
1932.13 87.96352079498932
1999.51 87.95363976831098
2069.82 87.60637486185384
2143.07 87.90884477130783
2219.24 88.0445380231634
2296.88 88.0610917496179
2378.91 87.45936849419554
2462.4 87.73762734951939
2548.83 87.86215245816992
2639.65 87.83488630848431
2731.93 87.368281265325
2828.61 87.4848055309827
2928.22 87.95792018863416
3030.76 87.82983222017923
3137.7 87.57174576766947
3249.02 87.51198435994894
3363.28 87.44815442599617
3481.93 88.21346424263164
3604.98 88.45706827510944
3732.42 88.99819767971304
3864.26 89.3658728655243
4000.49 88.88489542667016
4141.11 88.75150010048883
4287.6 88.73098457556017
4438.48 88.63945800751091
4595.21 87.88815831253565
4756.35 87.3877040397405
4924.8 87.46492357947396
5097.66 87.92172670115808
5277.83 88.09182624804009
5463.87 88.01159320926043
5657.23 87.60856305925957
5856.45 87.3310866091344
6062.99 87.06224660530701
6276.86 86.26284929017488
6498.05 85.55623664509403
6726.56 85.57500700105327
6963.87 86.32340225854635
7209.96 86.78475047678077
7464.84 86.90507206166252
7727.05 86.1645139101448
7999.51 85.71808694405233
8282.23 86.53484878928316
8573.73 87.52932465208787
8876.95 87.85557059577499
9188.96 87.52036166714709
9514.16 87.36852912406974
9849.61 87.50240813601222
10196.8 87.3991899664371
10555.7 87.28679349059097
10927.7 87.12856249025849
11313.0 86.78321793395394
11712.9 86.07799272887836
12126.0 85.2650383521815
12553.7 84.72491642071897
12996.1 84.97172404371626
13454.6 84.68976292420463
13929.2 86.10018512209392
14419.9 88.29360325722091
14928.2 90.21622900844449
15455.6 91.24179712713494
16000.5 89.90355918318855
16564.5 87.58893948015334
17148.9 85.45761546548584
17752.4 83.69217701876906
18379.4 82.2697752856181
19026.9 80.51649091583984
19697.8 78.42984373735725
19999.5 77.35322257823553
