Freq "Side Wall Bounce"
20.5078 62.26218992709438
21.9727 64.03227103547952
23.4375 64.96688026663001
24.9023 65.71724775841096
26.3672 66.47523462089528
27.832 67.29334464074209
29.2969 68.0152645846518
30.7617 68.81071627002072
32.2266 69.26807093404791
33.6914 69.65325715530649
35.1562 70.72081005428329
36.6211 70.97507049432399
38.0859 71.42459868331812
39.5508 72.05238976868829
41.0156 72.55627443542677
42.4805 73.00695527794265
43.9453 73.63395831461425
45.4102 74.13139381938215
46.875 74.54390786544538
48.3398 74.87298399599676
51.2695 75.74186892563391
52.7344 76.21026974012067
54.1992 76.58388507295957
55.6641 76.87255441041296
58.5938 77.70233226041236
60.0586 78.06412468678047
62.9883 78.66318528337068
64.4531 78.97332441834807
67.3828 79.43858321415503
68.8477 79.7221470991574
71.7773 80.37833877896765
74.707 80.99154041235316
77.6367 81.51301485290391
79.1016 81.7420609072874
82.0312 82.1715926111517
84.9609 82.54139546977537
87.8906 83.2870267815794
90.8203 83.5193950905148
95.2148 84.13172591904281
98.1445 84.5006690188299
101.074 84.75865062943508
105.469 85.38838451972374
108.398 85.74537025447002
112.793 86.20985293867365
117.188 86.59637803573011
120.117 86.80327589255938
124.512 87.04453866060366
128.906 87.31976550749154
133.301 87.55996672870181
139.16 87.7745042908639
143.555 87.90122273873224
147.949 87.98534623015011
153.809 88.09566406319755
159.668 88.16945185926836
165.527 88.26388541838229
171.387 88.2357727370677
177.246 88.08235624029095
183.105 87.8921693447282
188.965 87.84039947024989
196.289 87.72768094597232
203.613 87.56796588055137
210.938 87.36533110402776
218.262 87.10409535102566
225.586 86.98174637755965
232.91 86.84578115725799
241.699 86.42879269676637
250.488 86.08677563459423
259.277 85.88232441370123
268.066 85.56619304999315
276.855 85.40392997154514
287.109 84.93876792985867
297.363 86.19821323098238
307.617 86.17008482671088
319.336 85.40952706183536
329.59 85.27024776743595
341.309 84.92391244250905
353.027 84.92703311564601
366.211 85.10105761171977
379.395 85.1966204426973
392.578 84.80957936424174
405.762 84.54020285404202
420.41 84.89367648739788
435.059 84.11747849470238
451.172 84.12245640583241
465.82 84.16804246863228
483.398 84.48563157782648
499.512 84.30961896438475
517.09 83.7513633424721
536.133 82.91601822799574
555.176 83.44747054626801
574.219 83.53817099297923
594.727 82.27193331759509
615.234 82.864962221687
637.207 83.72247971772632
659.18 82.86742020912519
682.617 82.37407758838692
707.52 82.25555113660297
732.422 82.77739942421816
757.324 82.43246631585464
785.156 82.17608774852015
811.523 81.05388702756684
840.82 82.62065303574711
870.117 82.47209969058908
900.879 83.76528641059869
933.105 83.95637412984087
965.332 84.70472146722892
1000.49 83.72741682512284
1035.64 83.06041686227508
1072.27 83.66606092491456
1108.89 84.0667891019408
1148.44 84.44112234676119
1189.45 83.83841318563368
1230.47 83.49102700825084
1274.41 82.79087000110987
1319.82 82.55219964598211
1366.7 82.36125347943197
1413.57 81.1875041634787
1463.38 81.09465051273325
1516.11 81.62683647403695
1568.85 82.21322916909551
1624.51 82.44579951939035
1681.64 81.77566632111304
1741.7 81.36184214756184
1803.22 82.1313041698062
1866.21 81.19986435518858
1932.13 81.89790517246395
1999.51 82.8475071723998
2069.82 82.92043260402168
2143.07 83.5108034777878
2219.24 82.9366794066503
2296.88 84.23640720610601
2378.91 84.71161134018848
2462.4 84.6455440579021
2548.83 84.0300266186096
2639.65 84.30254332872876
2731.93 83.94689165350736
2828.61 84.4471418866616
2928.22 84.42455321367105
3030.76 84.01637132903228
3137.7 84.00824476977917
3249.02 84.49651549588408
3363.28 84.67232593544308
3481.93 84.55124254222592
3604.98 84.40550888967017
3732.42 84.08799306003691
3864.26 84.72472584441779
4000.49 84.51028934095054
4141.11 84.2745172225841
4287.6 84.45008920472608
4438.48 84.33233289486374
4595.21 84.07258457737214
4756.35 84.09500682811023
4924.8 83.56157506677533
5097.66 83.59891153049689
5277.83 83.55342110375032
5463.87 82.6299943723724
5657.23 82.54572972494196
5856.45 81.59006423385439
6062.99 81.2076506642246
6276.86 81.10473372148277
6498.05 80.10369098910311
6726.56 79.82387735334255
6963.87 79.92404623613808
7209.96 79.9339087022958
7464.84 79.75568385252829
7727.05 79.16186019818456
7999.51 78.42281848545552
8282.23 77.91970347967833
8573.73 77.50920446353271
8876.95 77.01975321458738
9188.96 76.20829210959515
9514.16 74.5228829103432
9849.61 73.89589574136978
10196.8 72.74705353425541
10555.7 73.10199879899194
10927.7 73.80371132549874
11313.0 74.521055020964
11712.9 76.16305946429372
12126.0 76.80270682640605
12553.7 77.29591125873966
12996.1 78.1387018893443
13454.6 79.47121667059132
13929.2 80.3300631568075
14419.9 82.73559573558947
14928.2 84.70624534362173
15455.6 84.09996356848369
16000.5 82.47961676573715
16564.5 78.0334451000457
17148.9 74.57133627717043
17752.4 70.976403540583
18379.4 67.9877094239206
19026.9 67.15431525607963
19697.8 67.37212103075409
19999.5 67.76210051727743
