Freq "Estimated In-Room Response"
20.0 61.28934266050197
20.2909 61.9715470956838
20.586 62.63972957822759
20.8855 63.16173677462487
21.1893 63.86173677462486
21.4975 64.34165021822571
21.8102 64.85668838231763
22.1274 65.26868475850827
22.4492 65.6314707308278
22.7758 65.96838424127805
23.1071 66.16579474266538
23.4432 66.26447237726808
23.7841 66.37115154676758
24.1301 66.49023564349591
24.4811 66.88467034767939
24.8372 67.69281770750965
25.1984 68.7116729384648
25.5649 69.84044482083632
25.9368 70.92691278216654
26.3141 71.64031645958403
26.6968 72.16581659576983
27.0851 72.46012693433642
27.4791 72.6774969109278
27.8788 72.70093659839637
28.2843 73.01808539736862
28.6957 73.69759697936823
29.1131 74.55711252565484
29.5365 75.38205965265139
29.9661 76.20229073957252
30.402 76.62270203073858
30.8442 76.94099715137801
31.2929 77.00596047995627
31.748 77.18338270562592
32.2098 77.4175382455203
32.6783 77.73889438156885
33.1536 78.16454336035446
33.6359 78.5096507004938
34.1251 78.90419535197292
34.6215 79.17928901812336
35.125 79.55990183401076
35.6359 79.86255228757454
36.1543 80.21873557994188
36.6802 80.53492250704295
37.2137 80.70058316209375
37.755 80.890280907084
38.3041 81.05924173018471
38.8613 81.2413706638714
39.4265 81.55596707111351
40.0 81.58767243815953
40.5818 81.80137080456362
41.1721 82.1191115192438
41.771 82.24611562768852
42.3785 82.56399940716511
42.9949 82.73990398831485
43.6203 82.998012625328
44.2548 83.21320906293539
44.8985 83.52814591098817
45.5515 83.63412551536908
46.2141 83.85121148636281
46.8863 84.05961760601669
47.5683 84.25847320382894
48.2602 84.27850070745325
48.9621 84.45781886669563
49.6743 84.65537189445664
50.3968 84.85119325453023
51.1299 85.05045088785701
51.8736 85.24935531819744
52.6281 85.53242926671135
53.3936 85.8052847861729
54.1702 85.99264780569203
54.9581 86.05086069371848
55.7575 86.33988932842203
56.5685 86.51358360169553
57.3914 86.58376169803712
58.2261 86.63892486724744
59.073 86.79886644385141
59.9323 87.05077416571018
60.804 87.10105687238192
61.6884 87.39569199765609
62.5857 87.79167443771881
63.496 87.96624739928126
64.4196 88.1609448666783
65.3566 88.52184631812437
66.3073 88.70214111463122
67.2717 88.91750552076164
68.2502 89.0617562504227
69.2429 89.23067612546464
70.2501 89.51196747717488
71.2719 89.70671917138526
72.3086 89.88757282303109
73.3603 90.05817515284126
74.4274 90.35639950042336
75.5099 90.7096489634664
76.6083 90.94215375285027
77.7226 91.08274211995787
78.8531 91.16283508762525
80.0 91.54973159708105
81.1636 91.73311232802166
82.3442 91.97574316224609
83.5419 92.0050746248135
84.757 92.28178500480442
85.9899 92.4616282566343
87.2406 92.75657384224064
88.5096 93.06203317768205
89.797 93.34266168994918
91.1031 93.5852127227981
92.4282 93.7562546070858
93.7726 93.93068422559381
95.1366 94.22942552637858
96.5204 94.2327191147069
97.9243 94.33309026183537
99.3486 94.4039686167181
100.794 94.24043345567678
102.26 94.27626486072657
103.747 94.36729750798168
105.256 94.53000382501811
106.787 94.63092736805696
108.34 94.71951429238213
109.916 94.648451810957
111.515 94.86859030223822
113.137 94.73992382435239
114.783 94.68786318559384
116.452 94.61560395620543
118.146 94.53487024800621
119.865 94.45041872403027
121.608 94.33718522967146
123.377 94.39982448838552
125.171 94.26106773484206
126.992 94.22536782082264
128.839 93.95449481653584
130.713 93.958745096355
132.615 93.76402554466438
134.543 93.63737734051736
136.5 93.49162531235592
138.486 93.3353936182931
140.5 93.09133554933452
142.544 92.84768419644747
144.617 92.6156915656952
146.721 92.43959079255413
148.855 92.2723083698779
151.02 92.02000910326004
153.217 91.83544939257145
155.445 91.68157020542918
157.706 91.53568034342213
160.0 91.36996531664569
162.327 91.17875126895588
164.688 90.99260021044338
167.084 90.9024235192246
169.514 90.89557411614959
171.98 90.8921157028844
174.481 90.85316000184568
177.019 90.89715576519164
179.594 90.94645950268576
182.206 91.1352372171386
184.856 91.27647619749067
187.545 91.4628043051177
190.273 91.66355112767624
193.041 91.91414560908369
195.849 92.0905321164787
198.697 92.20219858731187
201.587 92.35753913698451
204.52 92.4893577887813
207.494 92.57368039562641
210.512 92.64071500786386
213.574 92.69608210632582
216.681 92.72777609590516
219.833 92.7246247109741
223.03 92.69788533707323
226.274 92.65552148469726
229.565 92.63126446395223
232.905 92.5722993460831
236.292 92.48336462877317
239.729 92.45209358677027
243.216 92.40185052669005
246.754 92.3090346316292
250.343 92.20742888384336
253.984 92.10780961469226
257.678 92.01015208336361
261.426 91.92107902459492
265.229 91.86814137604796
269.087 91.82594086491648
273.001 91.73572765562821
276.972 91.66419622296254
281.0 91.58724174416405
285.088 91.49828916356333
289.234 91.43031564469834
293.441 91.40135645950315
297.709 91.37962660292493
302.04 91.33256396352859
306.433 91.26820803388294
310.89 91.2190349886264
315.412 91.16293312022843
320.0 91.15464249690608
324.655 91.14305566683208
329.377 91.09852164241151
334.168 91.01797968715442
339.028 90.93894370951398
343.959 90.85618985831081
348.962 90.81023966628317
354.038 90.74725434908507
359.188 90.65819663044569
364.412 90.56906223233202
369.713 90.51750649520922
375.09 90.50647633571818
380.546 90.565868493446
386.081 90.67004947300659
391.697 90.77745649053274
397.394 90.90756158643251
403.175 91.05025993951753
409.039 91.21638636791032
414.989 91.41908555872105
421.025 91.5835682195195
427.149 91.70813662658378
433.362 91.80648776107421
439.665 91.89334896434436
446.06 92.00430513472975
452.548 92.07126725439124
459.131 92.08105589751851
465.809 92.04534867786306
472.584 91.97431451911885
479.458 91.93113687878818
486.432 91.83827557969104
493.507 91.665236810588
500.686 91.46201277515036
507.968 91.24872081843174
515.357 91.04597134406414
522.853 90.88902717108874
530.458 90.68443102275803
538.174 90.42105148089871
546.002 90.19022266420697
553.943 89.95722203286628
562.001 89.72788758029549
570.175 89.53541080598664
578.469 89.42087140309481
586.883 89.43384926363093
595.419 89.55501985388008
604.08 89.73880899962363
612.866 89.93544754962726
621.78 90.09422123273079
630.824 90.17014462565535
640.0 90.19682827767323
649.309 90.21295466291392
658.753 90.26539553912794
668.335 90.39970512514023
678.056 90.59645999346333
687.919 90.80185973974314
697.925 90.962940155229
708.077 91.0710273984975
718.376 91.11650024699196
728.825 91.09696944879829
739.426 91.0938495127406
750.181 91.18668451885893
761.093 91.29129539501459
772.163 91.39266113163818
783.394 91.4964439644285
794.789 91.49092018183785
806.349 91.43128657970817
818.078 91.32850359165494
829.977 91.20614232701452
842.05 91.08070433436075
854.298 90.9426548426325
866.724 90.82234764364676
879.33 90.73232492027694
892.12 90.68600280805923
905.097 90.60834561286967
918.262 90.49851860236114
931.618 90.31825591857951
945.169 90.08877366889965
958.917 89.89398792761445
972.864 89.82425938756747
987.015 89.87715093940461
1001.37 89.97091955232078
1015.94 89.98960660937192
1030.71 89.89319400583166
1045.71 89.70503150064914
1060.92 89.49977788182323
1076.35 89.34353664411886
1092.0 89.20241401420203
1107.89 89.08695014107289
1124.0 88.96903660196946
1140.35 88.84705829900975
1156.94 88.73184565948374
1173.77 88.53928738758269
1190.84 88.27186730410827
1208.16 87.96508386119316
1225.73 87.69287753897399
1243.56 87.52002009796465
1261.65 87.46331566597166
1280.0 87.47314225186122
1298.62 87.58979077105266
1317.51 87.7638862120094
1336.67 87.92938933472497
1356.11 88.05227793110339
1375.84 88.18153693518127
1395.85 88.3074837220943
1416.15 88.34549749957026
1436.75 88.34700529168074
1457.65 88.3859538061527
1478.85 88.43291083182534
1500.36 88.48613288664222
1522.19 88.53978001243814
1544.33 88.64511533321168
1566.79 88.74860386540495
1589.58 88.80065142155051
1612.7 88.83188743803044
1636.16 88.96679260993133
1659.95 89.07801949580038
1684.1 89.10356821549763
1708.6 89.18849093462231
1733.45 89.28647021750966
1758.66 89.28524197732384
1784.24 89.27943906717458
1810.19 89.34044184070102
1836.52 89.31697418392899
1863.24 89.25061746025455
1890.34 89.15611706833738
1917.83 89.04132591371265
1945.73 88.9485741501235
1974.03 88.96496446911831
2002.74 88.98971102789244
2031.87 88.99562536712767
2061.43 88.9552038403611
2091.41 88.8183143292159
2121.83 88.56091449851925
2152.69 88.41940946400601
2184.01 88.43008995053404
2215.77 88.4742802893528
2248.0 88.51939809329511
2280.7 88.56238263012551
2313.87 88.59872581843595
2347.53 88.68876487275006
2381.68 88.83711896220939
2416.32 88.92524098814084
2451.46 88.93188221098204
2487.12 88.92904868183786
2523.3 88.90273452079364
2560.0 88.81939534039076
2597.24 88.7516606041392
2635.01 88.65056962942819
2673.34 88.624681534042
2712.23 88.69929209260061
2751.68 88.7706077286813
2791.7 88.76985938724138
2832.31 88.65371616086091
2873.5 88.53921230833815
2915.3 88.54239304890007
2957.7 88.6189780656585
3000.72 88.58943376292227
3044.37 88.35045223857746
3088.65 88.11658693977645
3133.58 88.055090107063
3179.16 88.0824272458542
3225.4 88.05222169121177
3272.31 88.00869879166885
3319.91 87.99211367481533
3368.2 88.07294139137267
3417.19 88.24710181519762
3466.89 88.41919430263829
3517.32 88.37924190410217
3568.48 88.2660744044949
3620.39 88.35295136504425
3673.05 88.4521348611938
3726.47 88.34584949806566
3780.67 88.20206092880153
3835.67 88.21734771998264
3891.46 88.24047275636232
3948.06 88.20493621339727
4005.49 88.20307766010006
4063.75 88.24018968610554
4122.86 88.29633073022566
4182.82 88.40432114184973
4243.66 88.48118280210835
4305.39 88.53164030338687
4368.01 88.58547496766673
4431.55 88.64379303931078
4496.01 88.58214101127851
4561.4 88.51214816029444
4627.75 88.54458700691491
4695.06 88.5113523639691
4763.35 88.40963597184437
4832.64 88.3673743269881
4902.93 88.33950738564599
4974.24 88.20331850234109
5046.6 88.1293868061788
5120.0 88.09453860477606
5194.47 87.9706069995114
5270.03 87.85747890369757
5346.68 87.82741035992485
5424.45 87.7331460412891
5503.35 87.68480473520299
5583.4 87.72943310267767
5664.61 87.73992416620491
5747.01 87.69157129374653
5830.6 87.72167587393767
5915.41 87.59968235834253
6001.45 87.5106189532192
6088.74 87.50616904911959
6177.3 87.36768140486464
6267.15 87.3164064215939
6358.31 87.27047163077434
6450.8 87.15659920821506
6544.62 87.19985795613765
6639.82 87.17479244733732
6736.4 87.34551155258245
6834.38 87.40994636311635
6933.79 87.53673685315053
7034.64 87.60705288965548
7136.96 87.68510519069142
7240.77 87.72467206902517
7346.09 87.76416926109131
7452.94 87.76920255632149
7561.35 87.78618149967338
7671.33 87.76343169253894
7782.91 87.78685198966741
7896.12 87.83312647528926
8010.97 87.91824252863852
8127.49 88.05188358084533
8245.71 88.16100266829886
8365.65 88.14214232095433
8487.33 88.05963566092272
8610.78 87.96247750006727
8736.03 87.90712811492395
8863.09 87.98543741782501
8992.01 88.098255482801
9122.8 88.16760406215575
9255.5 88.12915387528332
9390.12 88.02385026361189
9526.7 88.07547051808905
9665.27 88.18339431538595
9805.86 88.35316818641871
9948.49 88.39959830682236
10093.2 88.34920870178922
10240.0 88.30409628408592
10388.9 88.34468013243054
10540.1 88.45533265337102
10693.4 88.55137709110606
10848.9 88.6609806706661
11006.7 88.66863971593713
11166.8 88.49447224573721
11329.2 87.54973511814151
11494.0 86.84769047828836
11661.2 87.90754352603031
11830.8 88.63901404341361
12002.9 88.90808238756519
12177.5 88.9129414901499
12354.6 88.6384257154973
12534.3 88.13955176381211
12716.6 87.26677688116708
12901.6 86.23612268143202
13089.2 85.8392393447715
13279.6 86.0999694892594
13472.8 86.45622313829872
13668.8 86.68123414420461
13867.6 86.75420986656337
14069.3 86.72065665516354
14273.9 86.58394247756712
14481.5 86.15831782776951
14692.2 85.4884331675484
14905.9 85.12964176713186
15122.7 85.21508809687612
15342.7 85.37330099638434
15565.8 85.57084231270133
15792.2 85.92268636094636
16021.9 86.28538596670452
16255.0 86.48990918793434
16491.4 86.61382807946428
16731.3 86.64486067508133
16974.7 86.52376816328936
17221.6 86.43123867581988
17472.1 86.06423297464443
17726.2 85.3436227168018
17984.0 84.79973850836272
18245.6 84.9307209516146
18511.0 85.50121625507647
18780.2 86.29358772987646
19053.4 87.02729734774672
19330.5 87.34260283891051
19611.7 86.96807727209601
19897.0 86.0400860669669
