Freq,On Axis,Listening Window,Sound Power,Early Reflections,Early Reflections DI,Sound Power DI,DI offset
20.5078,53.71459999999999,53.825049270276054,60.70538649385688,55.82149605228477,38.00355321799128,33.119662776419176,40
21.2402,52.3751,52.52566544016514,60.815198801314835,55.21711794153893,37.30854749862621,31.710466638850306,40
21.9727,54.89840000000001,55.014430604214596,61.91439039740095,57.09417735157891,37.92025325263569,33.100040206813645,40
22.7051,56.1713,56.25694092945798,62.44470614787724,58.002084330174455,38.25485659928353,33.81223478158074,40
23.4375,57.646799999999985,57.70871495440784,63.04638777394342,59.0512151045661,38.65749984984174,34.662327180464416,40
24.1699,59.169899999999984,59.24337339855214,64.16118094752724,60.53579429112605,38.707579107426085,35.082192451024895,40
25.6348,61.84780000000001,61.895038799100774,65.76758773545271,62.79689032036572,39.098148478735055,36.12745106364807,40
26.3672,62.71090000000001,62.75717520396003,66.45097702900092,63.614250108593154,39.14292509536688,36.30619817495911,40
27.0996,64.1396,64.19331955266043,67.66800648095088,65.03108134784742,39.16223820481301,36.52531307170955,40
27.832,65.98339999999999,66.042022848321,69.28497555813041,66.85278112225059,39.18924172607041,36.757047290190584,40
29.2969,67.95490000000001,67.99615176382102,70.55623002431167,68.58770365769246,39.40844810612856,37.439921739509344,40
30.0293,68.84990000000002,68.88324362546474,71.21629406367211,69.38661037217142,39.496633253293325,37.666949561792634,40
31.4941,70.6975,70.72558769472097,72.71193164698303,71.13086798392085,39.59471971080012,38.01365604773794,40
32.2266,71.81569999999999,71.84281424645994,73.67607794066657,72.21151946858728,39.631294777872654,38.166736305793364,40
33.6914,73.7929,73.8175595534286,75.46027208061628,74.13655664121835,39.681002912210246,38.35728747281232,40
34.4238,74.8539,74.87470024947758,76.36773783712172,75.1473614170605,39.72733883241709,38.50696241235586,40
35.8887,76.316,76.33699947912604,77.76350597083635,76.60073716932379,39.73626230980224,38.57349350828969,40
37.3535,77.5391,77.55635736907324,78.77722190560348,77.7670752914935,39.78928207757974,38.77913546346976,40
38.8184,78.7961,78.81020267611189,79.87410326776634,78.97166739625402,39.838535279857865,38.93609940834554,40
39.5508,79.4854,79.5015744787867,80.55012586439412,79.678800225355,39.82277425343169,38.951448614392575,40
41.0156,80.5798,80.59262483953825,81.49238728009908,80.73263430488413,39.859990534654116,39.100237559439165,40
42.4805,81.8691,81.87552511922841,82.61275325038119,81.95934917754502,39.91617594168339,39.262771868847224,40
43.9453,82.8095,82.8162643584989,83.50931596843006,82.89080393373597,39.92546042476293,39.30694839006884,40
45.4102,83.5436,83.54845365969334,84.16387804014444,83.60119535087375,39.947258308819585,39.3845756195489,40
47.6074,84.53189999999998,84.53351349591256,85.03284413495759,84.5512142159856,39.98229927992696,39.50066936095497,40
49.0723,85.0525,85.05226649118812,85.48268669103665,85.0503941770551,40.001872314133024,39.56957980015147,40
50.5371,85.4772,85.47509594545276,85.84628729280311,85.45416820288398,40.02092774256879,39.62880865264965,40
52.7344,86.04249999999999,86.03791091190982,86.31911512567768,85.98962433596475,40.04828657594507,39.718795786232135,40
54.1992,86.3927,86.38645065805906,86.61671964035526,86.32093834322981,40.06551231482925,39.769731017703805,40
56.3965,86.8144,86.80548787936843,86.95409799959188,86.71271806142863,40.092769817939796,39.85138987977655,40
58.5938,87.2055,87.19394702208207,87.25947636980281,87.0755555399305,40.118391482151566,39.93447065227926,40
60.0586,87.3342,87.32208927619246,87.36277604200193,87.19833620489605,40.123753071296406,39.95931323419053,40
62.2559,87.6163,87.60523824239792,87.64810161299366,87.49097987417397,40.11425836822394,39.95713662940426,40
64.4531,87.8869,87.87426294592204,87.87626441528491,87.74855567400489,40.12570727191715,39.99799853063713,40
66.6504,88.14759999999998,88.13361884679358,88.0957175734929,87.99451149784971,40.13910734894387,40.037901273300676,40
69.5801,88.4068,88.39177986178603,88.35328186069125,88.25617771802024,40.135602143765794,40.03849800109478,40
71.7773,88.54410000000001,88.52680689978538,88.45761461896745,88.37652400393584,40.15028289584954,40.06919228081793,40
73.9746,88.7191,88.69834290574427,88.56630573220752,88.51980049273968,40.17854241300459,40.132037173536744,40
76.9043,88.9189,88.89318315077703,88.67279656721716,88.67593122204607,40.21725192873096,40.22038658355987,40
79.834,89.0593,89.03152755645431,88.72725385638228,88.78334303036851,40.248184526085794,40.30427370007203,40
82.7637,89.0957,89.06837564840114,88.77822386329103,88.8244114876949,40.24396416070624,40.29015178511011,40
85.6934,89.28060000000002,89.24736702966737,88.88539149495665,88.97468584048917,40.2726811891782,40.36197553471072,40
88.623,89.5695,89.52942499729104,88.98524205407813,89.1756676949647,40.35375730232634,40.54418294321292,40
91.5527,89.4925,89.45590958220276,88.96917408131759,89.12624400711223,40.32966557509053,40.486735500885175,40
94.4824,89.52950000000001,89.4923292583417,88.98834969379291,89.15852935873659,40.33379989960511,40.503979564548786,40
98.1445,89.34910000000002,89.31275591821674,88.85261570604573,89.00007325851811,40.31268265969862,40.46014021217101,40
101.807,89.23400000000001,89.19266326914286,88.67848618519733,88.85331660803396,40.33934666110889,40.514177083945526,40
105.469,89.16389999999998,89.11602416996294,88.47962817928125,88.72766659596518,40.388357573997766,40.63639599068169,40
109.131,88.9846,88.93663050574052,88.27748701012757,88.54074821258038,40.39588229316014,40.65914349561295,40
112.793,88.8121,88.76077958906458,88.06645133946944,88.34398259928469,40.4167969897799,40.694328249595145,40
116.455,88.7509,88.69435415448646,87.8717823488563,88.22511004947683,40.469244105009636,40.82257180563016,40
120.85,88.7573,88.70122218988448,87.90914460680202,88.23041452116301,40.47080766872146,40.79207758308246,40
125.244,88.711,88.65189238630063,87.8542801753542,88.17944166644803,40.4724507198526,40.797612210946426,40
129.639,88.66919999999999,88.6005052886507,87.70886839257605,88.07815029928025,40.52235498937044,40.891636896074644,40
134.033,88.5209,88.45064258028466,87.42030921667568,87.87298247721677,40.5776601030679,41.03033336360899,40
138.428,88.5632,88.48669164205437,87.32982157592,87.85904929205482,40.62764234999955,41.156870066134374,40
143.555,88.4099,88.32876734487559,87.05119670898446,87.65159096311324,40.67717638176235,41.277570635891124,40
148.682,88.2459,88.16932745447171,86.96048292966042,87.52242812705711,40.6468993274146,41.2088445248113,40
153.809,88.1706,88.08814416887786,86.86012333304288,87.41304750344919,40.67509666542867,41.22802083583498,40
159.668,87.9546,87.86093126243068,86.53786922716321,87.14126240302934,40.71966885940134,41.32306203526747,40
164.795,87.8512,87.74681202328344,86.25291619010038,86.93855520991838,40.80825681336506,41.49389583318306,40
170.654,88.0278,87.91923923542902,86.1953254949655,87.01664232815006,40.90259690727896,41.723913740463516,40
176.514,87.9431,87.81955195123206,85.95296706351024,86.79901386148468,41.020538089747376,41.866584887721814,40
183.105,87.7498,87.663221083811,85.67674353185578,86.6151108753298,41.04811020848119,41.98647755195522,40
189.697,88.1037,87.99663650736224,85.76581281925588,86.8818424318758,41.114794075486444,42.230823688106355,40
196.289,87.9438,87.83724146501346,85.63817656798267,86.74885994070706,41.0883815243064,42.199064897030794,40
202.881,87.3475,87.23189554212911,85.14668812760863,86.24663263413207,40.98526290799704,42.08520741452048,40
210.205,87.81030000000001,87.71674864234646,85.51728760012334,86.7123948878532,41.004353754493266,42.19946104222312,40
217.529,87.9093,87.81599156717425,85.76523881247037,86.85837983223338,40.95761173494087,42.05075275470388,40
225.586,88.0204,87.91715525267134,85.94885497010641,87.00142773424939,40.915727518421946,41.968300282564925,40
232.91,88.40639999999999,88.28231395337781,85.92229003074343,87.19995168724859,41.08236226612922,42.36002392263438,40
241.699,88.4648,88.35029801157162,85.90578346584968,87.23795240675332,41.1123456048183,42.444514545721944,40
249.756,88.1249,88.00436250980293,85.58478802576735,86.87217833440793,41.132184175395,42.41957448403558,40
258.545,88.7006,88.56273718267327,85.38261475543493,87.15083983406902,41.411897348604256,43.180122427238345,40
268.066,88.9088,88.81989875712843,85.61190071341979,87.46590494285132,41.3539938142771,43.20799804370864,40
277.588,88.7979,88.66989451596035,85.48125997802603,87.25341220744265,41.4164823085177,43.18863453793432,40
287.109,88.99959999999999,88.87757128858597,85.5247006680915,87.42978285559276,41.44778843299321,43.35287062049447,40
297.363,89.0416,88.95392200911948,85.80272259804845,87.6355132405948,41.31840876852468,43.15119941107103,40
307.617,89.24520000000001,89.10100797015618,85.51879665834434,87.55497188245778,41.5460360876984,43.58221131181183,40
318.604,89.1694,89.06048555164483,85.53162993818202,87.53029285605697,41.53019269558786,43.52885561346281,40
329.59,89.3147,89.19039932697788,85.55745237283125,87.56205780585121,41.62834152112667,43.63294695414663,40
341.309,89.4244,89.3165566298978,85.78752474181248,87.75549916272962,41.56105746716818,43.52903188808533,40
353.76,88.9065,88.80880278383833,85.56081600798565,87.37301652978219,41.43578625405614,43.24798677585268,40
366.211,88.72230000000002,88.57562321594546,85.2556307193351,87.03013632474085,41.545486891204604,43.319992496610354,40
378.662,89.1284,89.00973450634794,85.42365384521338,87.4542518247245,41.555482681623445,43.58608066113456,40
392.578,89.05019999999999,88.84258632341546,85.22879416147632,87.12224415325139,41.72034217016407,43.613792161939145,40
405.762,89.2536,89.06375840448452,85.2112416241646,87.28979218974925,41.77396621473527,43.85251678031992,40
420.41,88.9571,88.65158371947454,84.99243787890691,86.8566473107997,41.79493640867484,43.65914584056763,40
435.059,89.3265,89.03811157209938,85.03255214780069,87.13930219527656,41.898809376822825,44.005559424298696,40
450.439,89.1126,88.80226577249044,84.59066468795545,86.39994088239322,42.40232489009722,44.21160108453499,40
466.553,89.3104,89.05586385598868,84.38188710720728,86.79708065001488,42.2587832059738,44.6739767487814,40
482.666,88.82679999999999,88.56926915166747,84.2855376160583,86.55980885296353,42.00946029870394,44.283731535609164,40
500.244,88.8451,88.57028271123123,84.11283812052945,86.45224311358766,42.11803959764357,44.45744459070178,40
517.822,89.0908,88.73856067535155,84.14045827115957,86.40489259644899,42.33366807890256,44.59810240419198,40
536.133,89.482,89.15104757053494,83.9947564046538,86.59394004984685,42.55710752068809,45.15629116588114,40
554.443,89.1762,88.89825196007128,84.17342300824677,86.64144500864064,42.25680695143063,44.724828951824506,40
574.219,89.2374,88.89303506707923,83.77383828547889,86.32261886948238,42.57041619759684,45.11919678160034,40
594.727,89.1824,88.93101969256558,83.82160548571159,86.53872552475154,42.39229416781404,45.109414206854,40
615.234,88.9169,88.62751170919499,83.5809594875202,86.18652255143118,42.44098915776381,45.04655222167479,40
637.207,89.5531,89.28072308921794,84.24542928524463,86.68122368540767,42.59949940381027,45.03529380397332,40
659.912,89.749,89.43602468672647,84.47334048528876,86.92004963433897,42.5159750523875,44.96268420143771,40
683.35,90.12379999999999,89.71477775854154,84.37524929857413,86.99091720077173,42.72386055776981,45.33952845996741,40
706.787,89.9148,89.59862604475188,83.99316303168322,86.90667412492716,42.69195191982472,45.60546301306866,40
731.689,88.9952,88.70114670876585,83.57484187734566,86.2558155282989,42.44533118046695,45.126304831420185,40
758.057,88.5379,88.20811074554437,83.13554860085854,85.75729441751943,42.45081632802494,45.07256214468583,40
784.424,88.1674,87.79730358400462,82.50622312704749,85.22779870048215,42.56950488352247,45.29108045695713,40
812.256,87.8335,87.53828219551639,82.56623998601385,85.24110356928293,42.29717862623346,44.97204220950253,40
840.82,88.1799,87.76578249775667,82.48562196845671,85.14761000402436,42.61817249373232,45.28016052929996,40
870.85,88.4141,87.9278401437873,83.33464994623495,85.4486873313714,42.47915281241589,44.593190197552346,40
901.611,88.7893,88.28986781064046,82.62891642802578,85.4433018562564,42.84656595438406,45.660951382614684,40
933.105,88.7425,88.25063401187965,82.50733290120817,85.37709099588194,42.87354301599771,45.74330111067148,40
966.064,88.88390000000001,88.15310456960836,82.1823060738327,84.7980916272267,43.35501294238166,45.970798495775654,40
999.756,87.8778,87.45751611809587,81.93993480301742,84.81375651124827,42.643759606847595,45.517581315078445,40
1034.91,87.45260000000002,86.96724416610736,81.39028841371452,84.01721330734759,42.950030858759774,45.57695575239285,40
1071.53,87.5895,87.12061013815318,81.71148441095032,84.25786371019886,42.86274642795432,45.40912572720286,40
1109.62,87.4591,87.07782252840518,82.15149245343781,84.83948491102504,42.23833761738014,44.92633007496737,40
1148.44,87.66750000000002,87.19805533358061,82.04222729518956,84.73788220674246,42.46017312683816,45.15582803839105,40
1189.45,87.8089,87.31807636366602,81.9271374040711,84.45358706434638,42.864489299319644,45.39093895959492,40
1231.2,87.6588,87.1407384687959,81.61428555898924,84.23053167274455,42.910206796051355,45.526452909806665,40
1274.41,87.5588,87.04403361992324,81.50182648100767,84.08594867478507,42.95808494513817,45.54220713891557,40
1319.82,87.5916,87.01780116805382,81.16457258699376,83.75472206624688,43.26307910180694,45.853228581060065,40
1365.97,87.60139999999998,86.95553452865606,81.41811866791798,83.94759542859984,43.00793910005622,45.53741586073808,40
1414.31,87.29739999999998,86.81515552920789,81.31984867172048,83.5852385128768,43.229917016331086,45.49530685748741,40
1464.11,87.9404,87.16412584689778,80.95312320187777,83.39738540622506,43.76674044067272,46.21100264502,40
1515.38,88.085,87.26194169399659,81.27893105737031,83.88757450597585,43.37436718802074,45.983010636626275,40
1568.85,87.71869999999998,86.98443521266714,81.05351905026558,83.59967711138297,43.38475810128416,45.93091616240156,40
1624.51,87.062,86.41002663816465,80.8808498207514,83.40192829245278,43.00809834571187,45.52917681741326,40
1681.64,86.9031,86.2375846403307,80.66893286966544,83.21719602543392,43.020388614896774,45.568651770665255,40
1740.97,87.3674,86.45881559902523,80.55840190886306,83.26513733096324,43.19367826806199,45.90041369016217,40
1802.49,87.6452,86.91809954927231,80.78683335650827,83.54121734594888,43.37688220332343,46.131266192764045,40
1866.21,87.9843,87.11105253506972,80.96871332087152,83.6309902290183,43.48006230605142,46.1423392141982,40
1932.13,86.9591,86.2973097071018,80.42784764929853,83.01451680854706,43.282792898554746,45.869462057803275,40
2000.24,86.6967,86.06494598700115,80.0355338692666,82.58353390442392,43.481412082577236,46.02941211773455,40
2070.56,87.5649,86.73976872324603,80.3033293050848,82.75850569164665,43.98126303159938,46.43643941816123,40
2143.8,87.3664,86.74136260664157,80.12295229418558,82.5026079579501,44.23875464869147,46.61841031245599,40
2219.24,86.4701,86.02931567246529,79.69272511618878,81.73617259908568,44.29314307337961,46.336590556276505,40
2297.61,87.063,86.26504488485693,79.6086120733341,81.81804498475617,44.446999900100764,46.65643281152283,40
2378.17,87.3757,86.50108505772461,79.62208775806164,81.92714809290715,44.57393696481746,46.87899729966297,40
2462.4,86.56,85.82848224151365,79.09403185851616,81.29949681243049,44.528985429083164,46.734450382997494,40
2548.83,86.4019,85.67879066498004,78.84656662656036,81.1644588537612,44.51433181121884,46.83222403841968,40
2638.92,87.1516,86.47002939634405,79.33957280429183,81.84947011249837,44.62055928384568,47.13045659205221,40
2731.93,86.5283,85.96022421121111,79.1481859955323,81.60303517906218,44.35718903214894,46.81203821567881,40
2828.61,86.0093,85.44541361331866,78.72773769272786,81.46032270954902,43.985090903769645,46.71767592059081,40
2928.22,86.1891,85.69285307187619,78.83229950012657,81.77212305117767,43.920730020698514,46.86055357174962,40
3031.49,86.2566,85.94085393458998,78.94477365589972,81.99478128981998,43.94607264477,46.99608027869026,40
3138.43,86.1785,86.03411616698688,79.23373395233298,82.2102782975181,43.823837869468775,46.800382214653894,40
3249.02,85.96279999999999,85.86845957736537,79.34246531211443,82.23500839070866,43.633451186656714,46.525994265250944,40
3363.28,86.3121,86.03216152796652,79.42830167155752,82.40404294255711,43.62811858540941,46.603859856409,40
3481.93,86.5351,86.34581416587405,79.42610960633972,82.65440539610269,43.69140876977136,46.919704559534324,40
3604.98,86.8577,86.4957259154355,79.35396299739106,82.63085979153615,43.86486612389935,47.141762918044435,40
3732.42,86.0162,85.93808153563359,79.22901313051642,82.344686965595,43.59339457003858,46.709068405117165,40
3863.53,86.5153,86.04298049842231,79.47224395706581,82.40895559272583,43.63402490569648,46.570736541356496,40
3999.76,86.1968,85.64286958097152,79.29087156256746,82.29452986727738,43.348339713694145,46.35199801840406,40
4141.11,85.8842,85.15758038240688,79.03419279494037,82.08984943510004,43.06773094730684,46.12338758746651,40
4286.87,85.61939999999998,84.48641926050773,78.50440106152477,81.78809862896297,42.69832063154476,45.982018198982956,40
4438.48,85.65550000000002,84.66577930383556,78.83200681878607,81.91725812979513,42.748521174040434,45.833772485049494,40
4594.48,86.0827,85.27691290402092,79.67848531816075,82.85336671047754,42.42354619354337,45.598427585860165,40
4757.08,87.279,86.55875899184511,81.48267275606614,84.40941750318028,42.14934148866483,45.07608623577897,40
4924.8,88.9268,87.60266159219556,82.45289993895014,85.42587552238105,42.17678606981451,45.14976165324542,40
5098.39,88.4898,87.48598715002055,82.6562376980897,85.64781297476786,41.83817417525269,44.82974945193085,40
5277.83,89.2262,87.90728590106386,82.803135406704,85.78430336554399,42.12298253551987,45.10415049435986,40
5463.87,88.9727,87.63140491819883,82.7451619320891,85.75823423500809,41.873170683190736,44.88624298610972,40
5656.49,88.39590000000001,87.60484008413552,82.70455636709376,85.82621583288966,41.77862425124586,44.90028371704176,40
5856.45,87.9756,87.41412155035457,82.4083674711768,85.64483990890636,41.7692816414482,45.00575407917776,40
6062.99,87.7842,87.37897759323158,82.0649388083623,85.35585573482723,42.02312185840435,45.31403878486928,40
6276.86,87.5058,87.16202079364054,81.9979722675195,85.31919359880165,41.84282719483889,45.164048526121036,40
6498.05,87.0238,87.02620488670559,81.67421323162502,85.15056933673168,41.87563554997391,45.35199165508057,40
6727.29,86.5676,87.07951467048426,81.59556378715567,84.95520406252311,42.12431060796115,45.48395088332859,40
6964.6,87.4145,87.64336502615214,81.69717082461244,85.11087399113332,42.53249103501882,45.9461942015397,40
7209.96,87.1745,87.4284162958916,81.55215382516592,84.8541823130517,42.5742339828399,45.87626247072568,40
7464.11,87.6891,87.66769973830453,81.6706929262221,84.86642290417723,42.80127683412731,45.99700681208243,40
7727.78,87.4081,87.27560370298265,81.69970621954054,84.81030717909408,42.46529652388857,45.575897483442105,40
8000.24,87.17950000000002,87.42484607976363,82.3385124155853,85.2140607091278,42.21078537063582,45.086333664178326,40
8282.23,88.167,87.91106293714432,83.03717245568441,85.9831954569474,41.92786748019692,44.87389048145991,40
8574.46,88.72739999999999,88.00536228164408,83.4223546801763,86.61614891939679,41.38921336224729,44.583007601467784,40
8876.22,88.2868,88.17618142012138,83.71020878185925,86.85771578727983,41.31846563284155,44.46597263826213,40
9189.7,88.23430000000002,88.55533079285658,83.6321263467359,86.9685522980493,41.58677849480728,44.92320444612068,40
9513.43,88.2603,88.57316941899691,83.30589105967891,86.94007048283004,41.633098936166874,45.267278359318,40
9848.88,88.76,88.72671825819947,83.14120448409076,86.79142675830536,41.935291499894106,45.585513774108705,40
