Freq,On Axis,Listening Window,Sound Power,Early Reflections,Early Reflections DI,Sound Power DI,DI offset
22.4,-40.100000000000016,-44.06279727391031,-39.118524377035406,-37.923587156167905,3.860789882257592,5.055727103125093,10
23.0,-41.300000000000004,-43.782425456508996,-38.752357850473366,-37.15025296360334,3.367827507094347,4.9699323939643705,10
23.6,-44.600000000000016,-44.00912358576908,-38.674436765215425,-36.682339205185194,2.673215619416112,4.665313179446343,10
24.0,-40.99999999999999,-39.46781967493123,-34.945748136817876,-33.01424254872517,3.5464228737939436,5.477928461886648,10
25.0,-37.49999999999999,-35.92784949397758,-32.48582504361371,-30.80847441226134,4.8806249182837576,6.557975549636126,10
25.8,-34.800000000000004,-33.03786622099425,-30.635081324470086,-29.217404127709095,6.179537906714842,7.597215103475833,10
26.5,-32.49999999999999,-30.460102167839857,-28.670678741379895,-27.59526675726891,7.135164589429053,8.210576573540038,10
27.2,-31.100000000000016,-29.03720261900812,-27.304842108145316,-26.306910964887884,7.2697083458797636,8.267639489137196,10
28.0,-29.800000000000004,-28.121691478785884,-26.363981554622306,-25.441826978589738,7.320135499803854,8.242290075836422,10
29.0,-28.600000000000016,-27.09909427230823,-25.342635904769814,-24.49781604792414,7.398721775615911,8.243541632461586,10
30.0,-24.19999999999998,-23.115729631774165,-21.435779118047087,-20.612989235520324,7.4972596037461585,8.320049486272922,10
30.7,-18.499999999999993,-18.252077924248162,-16.905351644974523,-15.927949338420653,7.675871414172491,8.65327372072636,10
31.5,-15.100000000000016,-15.669389526414612,-14.175113435804086,-13.237422184547817,7.568032658133205,8.505723909389474,10
32.5,-12.199999999999982,-13.465695982690981,-10.114636017317615,-10.0609527939095,6.595256811218519,6.648940034626634,10
33.5,-8.199999999999982,-8.55255593135589,-4.9351084017508455,-5.781898461385815,7.229342530029925,6.382552470394955,10
34.5,-5.100000000000016,-4.051565548118639,-1.244869979207344,-2.465495505744137,8.413929957625498,7.1933044310887055,10
35.5,-2.6000000000000156,0.18134919433675378,2.079090128790291,0.8047822279560606,9.376566966380693,8.102259065546463,10
36.5,0.39999999999998437,4.308165050152219,4.975200246240981,4.541371477553476,9.766793572598743,9.332964803911239,10
37.5,2.7999999999999616,9.513674348439885,9.54613309745654,9.702495007835672,9.811179340604212,9.967541250983345,10
38.7,5.199999999999996,15.26597486612642,14.776525435337938,15.203079659663878,10.062895206462542,10.489449430788483,10
40.0,7.79999999999999,16.748796273260616,15.180302989448627,15.759853482745179,10.988942790515438,11.56849328381199,10
41.2,10.100000000000001,18.245429966161176,15.718545974300191,16.4180421292457,11.827387836915477,12.526883991860984,10
42.5,12.699999999999996,17.042849248678188,15.315761074605383,15.760098966312349,11.28275028236584,11.727088174072804,10
43.7,15.199999999999996,15.106922297269058,16.577760351972707,16.604402417814278,8.50251987945478,8.529161945296352,10
45.0,17.500000000000007,14.630653973898013,19.724968220130314,19.581481153791664,5.0491728201063495,4.905685753767699,10
46.2,20.1,16.858207683312976,21.18931131724583,21.16079434981112,5.697413333501856,5.668896366067145,10
47.5,22.399999999999984,20.721863122177048,23.630446349177056,23.54559577694699,7.176267345230059,7.091416772999992,10
48.7,24.80000000000002,24.313662030156145,25.495672214085324,24.939063846320785,9.37459818383536,8.81798981607082,10
50.0,27.000000000000007,26.696339944297655,27.618881022106116,26.96417657793973,9.732163366357923,9.07745892219154,10
51.5,29.399999999999984,29.45517593903333,29.985272664652605,29.586140771287553,9.869035167745778,9.469903274380727,10
53.0,31.6,33.219267637040055,32.81113148351566,33.35498339544237,9.864284241597687,10.408136153524396,10
54.5,33.79999999999999,35.39913438703041,33.563912915335386,34.146025459006445,11.253108928023963,11.835221471695021,10
56.0,36.00000000000001,36.83500833205601,35.26715076703696,35.282028165833374,11.552980166222639,11.567857565019054,10
58.0,38.199999999999996,38.671918031311016,37.44715229297318,37.561541866138164,11.110376165172852,11.224765738337837,10
60.0,40.29999999999999,40.807843818769335,39.5696425170072,39.90977741961442,10.898066399154914,11.238201301762132,10
61.5,42.50000000000001,43.23750780552147,41.51352976430905,42.2137051317279,11.023802673793568,11.723978041212419,10
63.0,44.6,44.92596751599944,43.65483116807696,44.05492390421512,10.871043611784316,11.271136347922479,10
65.0,46.699999999999996,46.66472197464454,45.82070783473883,45.890921871312976,10.773800103331567,10.84401413990571,10
67.0,48.699999999999996,48.37956267466904,47.93643211536054,48.15087388797631,10.228688786692729,10.4431305593085,10
69.0,50.6,50.30166510946393,49.82935189674523,50.11544294634232,10.186222163121613,10.472313212718703,10
71.0,52.4,52.23793981775544,51.581678545659294,51.8588454908738,10.379094326881642,10.656261272096145,10
73.0,54.00000000000001,54.00767491543905,53.35004987176807,53.62494588867737,10.38272902676168,10.657625043670976,10
75.0,55.6,55.7234519411379,55.24599185401983,55.3772303997472,10.346221541390705,10.477460087118075,10
77.5,57.1,57.26874443251912,57.009317354219725,56.986143396867284,10.282601035651837,10.259427078299396,10
80.0,58.50000000000001,58.45609215500938,58.326566597089375,58.32438541326426,10.13170674174512,10.129525557920005,10
82.5,59.699999999999996,59.66770121715174,59.58661384688579,59.52972486329303,10.137976353858704,10.081087370265948,10
85.0,60.6,60.622422059205185,60.55414848327859,60.49235389498683,10.130068164218358,10.068273575926597,10
87.5,60.9,61.011735857115845,61.01508123989195,60.93624423428401,10.075491622831834,9.996654617223896,10
90.0,60.9,60.912744777990376,60.9962950955669,60.86214202843485,10.050602749555523,9.916449682423476,10
92.5,60.699999999999996,60.65635648403188,60.72746517026551,60.6147306556723,10.041625828359585,9.928891313766371,10
95.0,60.50000000000001,60.44965199808468,60.63462092692428,60.49254587225662,9.957106125828062,9.815031071160405,10
97.5,60.399999999999984,60.379004551866764,60.49952565888544,60.38388359221562,9.995120959651146,9.879478892981325,10
100.0,60.50000000000001,60.60353485787528,60.63760061355041,60.56440458933245,10.039130268542834,9.96593424432487,10
103.0,60.6,60.622422059205185,60.54244548155717,60.58713090127649,10.035291157928697,10.079976577648011,10
106.0,60.9,60.94626000712473,60.72662508538679,60.81434849570055,10.131911511424178,10.219634921737935,10
109.0,61.1,61.31274477799037,61.09978083390963,61.22323675567976,10.08950802231061,10.212963944080741,10
112.0,61.29999999999999,61.46843923875051,61.239193491921476,61.41031710229944,10.058122136451075,10.229245746829037,10
115.0,61.50000000000001,61.65686156553041,61.317035213383924,61.56480860544878,10.09205296008163,10.339826352146488,10
118.0,61.6,61.558124417025375,61.257266617086835,61.46040410195122,10.097720315074156,10.300857799938541,10
122.0,61.6,61.65583957685775,61.094675935130546,61.3917460099098,10.264093566947949,10.561163641727205,10
125.0,61.50000000000001,61.680003548920105,60.92820472361871,61.309259481078264,10.37074406784184,10.751798825301393,10
128.0,61.40000000000001,61.45583957685776,61.03515485221731,61.24877323622291,10.207066340634853,10.420684724640452,10
132.0,61.40000000000001,61.29028438086775,61.09280959113219,61.226728074678284,10.063556306189469,10.197474789735566,10
136.0,61.40000000000001,61.29003378352642,61.19661292088589,61.27384402017501,10.016189763351406,10.093420862640528,10
140.0,61.40000000000001,61.39182905277011,61.24375240186175,61.3315323387265,10.060296714043616,10.148076650908365,10
145.0,61.40000000000001,61.37849019712912,61.14180908978641,61.2403161298327,10.138174067296418,10.236681107342704,10
150.0,61.29999999999999,61.423955071810035,61.15284115526517,61.29598153558562,10.127973536224417,10.271113916544863,10
155.0,61.199999999999996,61.256620933986234,60.9935635592254,61.13014243031113,10.126478503675102,10.263057374760834,10
160.0,61.1,61.134870879614134,60.82022284226165,60.957573255207144,10.17729762440699,10.314648037352484,10
165.0,61.00000000000001,60.95662093398625,60.65237448246402,60.781228510215165,10.175392423771086,10.304246451522232,10
170.0,60.9,60.80051167804047,60.4862991814142,60.63866886139112,10.161842816649354,10.314212496626268,10
175.0,60.79999999999999,60.77797591781377,60.50355832263006,60.64871599989896,10.129259917914808,10.274417595183706,10
180.0,60.6,60.56692185116051,60.31189792782168,60.419394627407776,10.147527223752732,10.255023923338825,10
185.0,60.50000000000001,60.389771360397056,60.22653950696937,60.26315089832935,10.126620462067706,10.163231853427689,10
190.0,60.29999999999999,60.15686156553041,60.00297909107076,59.98185184976686,10.17500971576355,10.15388247445965,10
195.0,60.00000000000001,60.001778966342464,59.77069903263551,59.758425868447226,10.243353097895238,10.231079933706951,10
200.0,59.699999999999996,59.580763154848476,59.294672514931,59.32243518331919,10.258327971529283,10.286090639917475,10
206.0,59.4,59.138919572990595,58.486150529832635,58.73366235229343,10.405257220697166,10.65276904315796,10
212.0,59.00000000000001,58.81300581665409,57.664984419372836,58.17153364777213,10.641472168881961,11.148021397281255,10
218.0,58.50000000000001,58.335620684085704,56.72195683718501,57.50262918832387,10.832991495761831,11.613663846900693,10
224.0,58.00000000000001,57.8805001709246,55.96801610540316,56.933220717415445,10.947279453509154,11.91248406552144,10
230.0,57.4,57.20487841330927,55.58261058716051,56.34358105165948,10.86129736164979,11.622267826148757,10
236.0,56.79999999999999,56.551369204004466,55.22588792635276,55.82180472801644,10.729564475988028,11.325481277651704,10
240.0,56.1,55.84011918350047,54.37488766333177,54.985392792159395,10.854726391341075,11.4652315201687,10
250.0,55.399999999999984,55.15032180608254,53.49610536470127,54.17307102424889,10.977250781833646,11.654216441381266,10
258.0,54.6,54.42621015383258,52.74577677991889,53.52878911600272,10.897421037829858,11.680433373913687,10
265.0,53.90000000000001,53.6810261228485,52.18570041918998,52.919813990431585,10.761212132416915,11.495325703658523,10
272.0,53.199999999999996,53.12371840225861,52.06468473234444,52.59519946429109,10.528518937967519,11.059033669914172,10
280.0,52.79999999999999,52.75737848808179,51.985180742496645,52.36295617465243,10.39442231342936,10.772197745585146,10
290.0,52.6,52.60051167804047,51.65646311756961,52.14982035498823,10.45069132305224,10.944048560470861,10
300.0,52.79999999999999,52.86845670446245,51.77551448941504,52.3363202755876,10.53213642887485,11.092942215047415,10
307.0,53.199999999999996,53.31199101325601,51.9472835202156,52.64399569505185,10.667995318204163,11.364707493040413,10
315.0,53.699999999999996,53.68925841531061,52.23841100323873,52.99259641050839,10.69666200480222,11.45084741207188,10
325.0,54.199999999999996,54.169979827013144,52.606934535800484,53.39041940484061,10.779560422172537,11.56304529121266,10
335.0,54.6,54.52471255399875,52.82826360813376,53.66883759507562,10.855874958923124,11.696448945864987,10
345.0,55.00000000000001,55.05811839967209,53.20859973681774,54.135337427726974,10.922780971945116,11.84951866285435,10
355.0,55.50000000000001,55.337627760137714,53.32313328829665,54.37042253238399,10.967205227753723,12.014494471841061,10
365.0,56.00000000000001,55.8249728743346,53.61069791389048,54.82113966896224,11.00383320537236,12.214274960444115,10
375.0,56.50000000000001,56.39203245257183,54.11043495647956,55.359686407638456,11.032346044933377,12.281597496092274,10
387.0,57.00000000000001,56.859163642117316,54.44658124878833,55.76289787537417,11.096265766743144,12.41258239332899,10
400.0,57.50000000000001,57.05612445317488,54.20782118570384,55.76364018132795,11.29248427184693,12.848303267471039,10
412.0,57.79999999999999,57.384171072518974,54.392065016162,56.035627265082404,11.34854380743657,12.992106056356974,10
425.0,57.899999999999984,57.47495903054179,54.554891089436914,56.13122297487934,11.343736055662447,12.920067941104875,10
437.0,57.899999999999984,57.48848397296758,54.40031742820383,55.99837561429228,11.4901083586753,13.088166544763752,10
450.0,57.79999999999999,57.525119216035385,54.54895784757071,56.08055898444017,11.444560231595219,12.976161368464673,10
462.0,57.699999999999996,57.39869761853985,54.37403138800827,55.907911772156815,11.490785846383034,13.02466623053158,10
475.0,57.79999999999999,57.601213866196694,54.09058172671306,55.90034208390521,11.700871782291486,13.510632139483633,10
487.0,58.29999999999999,58.20659233452081,54.598970175753344,56.5512214927498,11.655370841771017,13.60762215876747,10
500.0,59.1,58.98180908610636,55.497775436584554,57.39710808544876,11.584701000657603,13.484033649521805,10
515.0,59.79999999999999,59.41481005368298,56.05048835447858,57.87056334474283,11.54424670894015,13.364321699204396,10
530.0,60.399999999999984,59.95067659692116,56.470978530262876,58.266511497934694,11.684165098986469,13.479698066658287,10
545.0,60.50000000000001,60.222313313224596,56.40036765119539,58.488178402813155,11.734134910411441,13.821945662029208,10
560.0,60.199999999999996,60.018552760471245,55.963240738933244,58.26722598348896,11.751326776982282,14.055312021538,10
580.0,59.699999999999996,59.56090170960878,55.582986659544,57.88837522642698,11.672526483181798,13.97791505006478,10
600.0,59.1,58.884051597956194,55.342712337179414,57.41689960011929,11.467151997836908,13.54133926077678,10
615.0,58.90000000000001,58.67249207870491,55.33077965656461,57.25687205108425,11.415620027620662,13.341712422140304,10
630.0,58.90000000000001,58.72948833002332,55.402413786949616,57.271809505142976,11.457678824880347,13.327074543073707,10
650.0,59.00000000000001,58.68570554034756,55.052872348227176,57.12981749097367,11.555888049373891,13.632833192120387,10
670.0,58.90000000000001,58.37304334183364,54.290397684124194,56.55538132556989,11.817662016263753,14.082645657709449,10
690.0,58.4,57.78682400884147,53.87552760408068,55.97897190584671,11.807852102994758,13.91129640476079,10
710.0,57.899999999999984,57.277449247209965,52.95745498069909,55.140976794985654,12.13647245222431,14.319994266510875,10
730.0,57.699999999999996,57.13200765265413,52.24876592759535,54.77794901397909,12.354058638675042,14.883241725058781,10
750.0,58.00000000000001,57.38043639999626,52.225515082086,55.01694280517892,12.363493594817342,15.154921317910265,10
775.0,58.29999999999999,57.650707755998205,52.53393848574073,55.30097707637339,12.349730679624813,15.116769270257478,10
800.0,58.199999999999996,57.772485161257954,52.52674793417982,55.406848547158596,12.365636614099358,15.245737227078138,10
825.0,58.00000000000001,57.70691764576522,52.69714590804323,55.50158979733926,12.205327848425966,15.00977173772199,10
850.0,58.00000000000001,57.63006777916224,52.736165165948314,55.447855059729356,12.182212719432883,14.893902613213925,10
875.0,58.50000000000001,57.86011817423179,52.65769497645912,55.45275384639384,12.407364327837954,15.202423197772674,10
900.0,58.699999999999996,58.006408483737296,52.35203256061258,55.43708349945336,12.569324984283938,15.654375923124718,10
925.0,58.29999999999999,57.54069660471149,51.647811578407136,54.83658900154257,12.704107603168922,15.892885026304356,10
950.0,57.4,56.51001748736288,50.40732389310866,53.643981852270095,12.866035635092786,16.10269359425422,10
975.0,57.199999999999996,56.486228768332985,50.467283768906306,53.746522003104566,12.73970676522842,16.01894499942668,10
1000.0,58.4,57.63890627670191,51.68503187725825,55.008774681892966,12.630131594808944,15.953874399443663,10
1030.0,59.50000000000001,58.62728064253373,53.158875229104105,56.15121426080196,12.47606638173177,15.468405413429622,10
1060.0,59.9,58.99562337576793,53.953796313707535,56.78057727761068,12.215046098157245,15.041827062060392,10
1090.0,59.699999999999996,58.9774579538656,53.302728418202285,56.43824079956162,12.539217154303984,15.674729535663317,10
1120.0,59.79999999999999,58.872293298849364,52.50671812030259,55.89342393674709,12.978869362102273,16.365575178546777,10
1150.0,60.399999999999984,59.610003674764975,52.999776364084376,56.59028635119959,13.019717323565388,16.6102273106806,10
1180.0,60.9,60.14246301328921,53.9656363195942,57.33770487382859,12.804758139460617,16.176826693695006,10
1220.0,60.9,60.33303667315574,54.6036232754979,57.69307228518998,12.639964387965762,15.729413397657837,10
1250.0,60.79999999999999,60.159472265114864,54.46228249481894,57.430835772911756,12.728636492203108,15.697189770295921,10
1280.0,60.699999999999996,60.27254584704364,54.74822053611306,57.469265978138786,12.803279868904852,15.524325310930578,10
1320.0,60.6,60.06719057658109,53.982826335146406,57.147507292677496,12.919683283903595,16.084364241434685,10
1360.0,60.699999999999996,60.16173999347337,54.15919870152093,57.342462615161914,12.819277378311455,16.00254129195244,10
1400.0,61.199999999999996,60.603290843894705,54.30317625703908,57.589758396626486,13.013532447268219,16.300114586855628,10
1450.0,61.29999999999999,60.46330534790486,53.6882029067642,57.31585589034477,13.147449457560086,16.77510244114066,10
1500.0,60.9,59.93313348444028,53.36117191270571,56.97974610743274,12.953387377007545,16.571961571734576,10
1550.0,60.50000000000001,59.67004505747655,53.292674567775016,56.76294990535934,12.907095152117208,16.377370489701534,10
1600.0,60.1,59.54834538598393,53.38995155424433,56.77428833925051,12.774057046733418,16.158393831739602,10
1650.0,59.79999999999999,59.71138612071383,54.04073104184693,57.15255110113464,12.558835019579192,15.6706550788669,10
1700.0,60.199999999999996,60.1113530459802,54.23430289464461,57.407211558474565,12.704141487505638,15.877050151335595,10
1750.0,60.399999999999984,60.61830484554006,54.184971348388764,57.734759467341824,12.883545378198235,16.433333497151295,10
1800.0,60.399999999999984,60.3581183996721,54.23362118105171,57.84512489333385,12.512993506338248,16.12449721862039,10
1850.0,60.1,59.80566304039889,54.20581039200301,57.4739795745462,12.331683465852691,15.599852648395881,10
1900.0,59.699999999999996,59.43211963372264,53.45211178812004,56.62818430729333,12.803935326429311,15.9800078456026,10
1950.0,59.6,58.87920947658261,52.43325771104822,56.02808097497306,12.851128501609551,16.44595176553439,10
2000.0,61.1,60.47179977344154,53.583140138649334,57.20743650260109,13.264363270840448,16.888659634792205,10
2060.0,61.6,61.35889346762023,54.76683087600566,58.06466984326109,13.294223624359134,16.592062591614564,10
2120.0,59.9,60.06037362184761,54.16354815213641,57.086140360764425,12.974233261083185,15.896825469711203,10
2180.0,59.00000000000001,59.44591325750583,53.797956468401104,56.673984276494885,12.771928981010944,15.647956789104725,10
2240.0,58.79999999999999,59.14009692580846,52.860329732930374,56.058374257071044,13.081722668737413,16.279767192878083,10
2300.0,58.1,58.54882947058366,52.158216555403364,55.5009279348667,13.04790153571696,16.3906129151803,10
2360.0,57.50000000000001,57.696623862206415,51.73575225481006,54.93808331507085,12.758540547135567,15.960871607396356,10
2400.0,58.29999999999999,57.997893424557965,51.346913959400815,54.6718542253411,13.326039199216865,16.65097946515715,10
2500.0,59.4,58.686149449493875,51.331024442288374,55.095292453663696,13.59085699583018,17.3551250072055,10
2580.0,60.00000000000001,58.98939011571567,51.93721440077464,55.569176258865134,13.420213856850538,17.05217571494103,10
2650.0,60.399999999999984,59.269235838078636,52.67617521673761,55.908053098451724,13.361182739626912,16.593060621341024,10
2720.0,60.399999999999984,59.64787355687913,53.88455588615614,56.75659128988975,12.891282266989379,15.763317670722984,10
2800.0,59.9,59.069688822560686,53.68297302068205,56.6899351597196,12.379753662841082,15.386715801878637,10
2900.0,59.199999999999996,58.52064834578258,55.03422375896378,57.86181086144661,10.658837484335976,13.4864245868188,10
