Freq "Listening Window"
22.4 -44.0627972739103
23.0 -43.78242545650895
23.6 -44.00912358576904
24.0 -39.46781967493124
25.0 -35.9278494939776
25.8 -33.03786622099427
26.5 -30.460102167839842
27.2 -29.037202619008106
28.0 -28.12169147878587
29.0 -27.09909427230827
30.0 -23.115729631774123
30.7 -18.252077924248177
31.5 -15.669389526414598
32.5 -13.465695982690995
33.5 -8.552555931355933
34.5 -4.051565548118624
35.5 0.18134919433671115
36.5 4.308165050152233
37.5 9.5136743484399
38.7 15.265974866126406
40.0 16.748796273260574
41.2 18.24542996616116
42.5 17.042849248678202
43.7 15.106922297269044
45.0 14.630653973898
46.2 16.85820768331299
47.5 20.721863122177034
48.7 24.31366203015613
50.0 26.69633994429767
51.5 29.455175939033317
53.0 33.21926763704007
54.5 35.39913438703041
56.0 36.83500833205603
58.0 38.67191803131103
60.0 40.807843818769335
61.5 43.23750780552144
63.0 44.92596751599945
65.0 46.66472197464454
67.0 48.37956267466904
69.0 50.30166510946395
71.0 52.237939817755425
73.0 54.00767491543905
75.0 55.7234519411379
77.5 57.268744432519135
80.0 58.45609215500938
82.5 59.66770121715174
85.0 60.6224220592052
87.5 61.01173585711586
90.0 60.912744777990376
92.5 60.65635648403187
95.0 60.4496519980847
97.5 60.379004551866764
100.0 60.603534857875296
103.0 60.6224220592052
106.0 60.94626000712474
109.0 61.31274477799038
112.0 61.46843923875051
115.0 61.65686156553041
118.0 61.55812441702536
122.0 61.655839576857765
125.0 61.680003548920105
128.0 61.45583957685775
132.0 61.29028438086775
136.0 61.29003378352645
140.0 61.3918290527701
145.0 61.37849019712912
150.0 61.423955071810035
155.0 61.25662093398625
160.0 61.134870879614134
165.0 60.95662093398625
170.0 60.80051167804047
175.0 60.777975917813784
180.0 60.56692185116051
185.0 60.38977136039704
190.0 60.15686156553043
195.0 60.00177896634249
200.0 59.580763154848476
206.0 59.138919572990595
212.0 58.813005816654105
218.0 58.335620684085704
224.0 57.88050017092457
230.0 57.204878413309295
236.0 56.55136920400448
240.0 55.84011918350047
250.0 55.15032180608254
258.0 54.42621015383258
265.0 53.68102612284853
272.0 53.123718402258596
280.0 52.75737848808179
290.0 52.60051167804048
300.0 52.86845670446245
307.0 53.311991013256026
315.0 53.689258415310626
325.0 54.169979827013144
335.0 54.52471255399875
345.0 55.058118399672104
355.0 55.3376277601377
365.0 55.8249728743346
375.0 56.39203245257182
387.0 56.859163642117316
400.0 57.05612445317488
412.0 57.38417107251899
425.0 57.47495903054182
437.0 57.48848397296759
450.0 57.525119216035385
462.0 57.39869761853985
475.0 57.601213866196694
487.0 58.20659233452081
500.0 58.98180908610636
515.0 59.41481005368299
530.0 59.95067659692119
545.0 60.22231331322458
560.0 60.01855276047126
580.0 59.56090170960879
600.0 58.884051597956194
615.0 58.67249207870494
630.0 58.72948833002334
650.0 58.68570554034755
670.0 58.37304334183366
690.0 57.78682400884147
710.0 57.277449247209965
730.0 57.13200765265412
750.0 57.38043639999626
775.0 57.650707755998205
800.0 57.77248516125794
825.0 57.70691764576521
850.0 57.63006777916225
875.0 57.86011817423181
900.0 58.006408483737296
925.0 57.54069660471149
950.0 56.51001748736288
975.0 56.486228768332985
1000.0 57.63890627670191
1030.0 58.62728064253373
1060.0 58.99562337576793
1090.0 58.9774579538656
1120.0 58.872293298849364
1150.0 59.61000367476496
1180.0 60.14246301328921
1220.0 60.33303667315574
1250.0 60.15947226511488
1280.0 60.27254584704364
1320.0 60.067190576581105
1360.0 60.16173999347338
1400.0 60.60329084389473
1450.0 60.46330534790484
1500.0 59.93313348444028
1550.0 59.670045057476564
1600.0 59.54834538598393
1650.0 59.71138612071385
1700.0 60.11135304598023
1750.0 60.61830484554006
1800.0 60.35811839967209
1850.0 59.805663040398905
1900.0 59.43211963372263
1950.0 58.87920947658261
2000.0 60.47179977344154
2060.0 61.35889346762023
2120.0 60.06037362184761
2180.0 59.44591325750583
2240.0 59.14009692580847
2300.0 58.54882947058366
2360.0 57.696623862206415
2400.0 57.99789342455795
2500.0 58.686149449493875
2580.0 58.98939011571567
2650.0 59.26923583807862
2720.0 59.64787355687913
2800.0 59.069688822560686
2900.0 58.5206483457826
3000.0 56.6396598147141
3070.0 56.698113845253296
3150.0 59.19523383339166
3250.0 61.179491514608195
3350.0 61.55785592578007
3450.0 61.87173524152056
3550.0 61.49797373898952
3650.0 61.28311301902952
3750.0 61.102173133673055
3870.0 60.00114403286771
4000.0 58.84844845297497
4120.0 59.10284603301229
4250.0 58.612237145849484
4370.0 56.52723092629058
4500.0 57.78623686525244
4620.0 59.04519638797688
4750.0 60.56601417444423
4870.0 61.20171029485555
5000.0 62.14274024986094
5150.0 61.816177575906885
5300.0 59.914162735691384
5450.0 58.61896287993762
5600.0 57.88702950782382
5800.0 59.512722499100356
6000.0 59.320952812895236
6150.0 59.57357512304434
6300.0 59.509222359780146
6500.0 59.776587624776006
6700.0 58.87480807982595
6900.0 59.74421822253557
7100.0 62.1930597701674
7300.0 63.21753348415552
7500.0 64.11319096276483
7750.0 64.73560844375837
8000.0 65.13784849985112
8250.0 64.55256955785049
8500.0 64.04161892994296
8750.0 63.44065815862505
9000.0 62.816273620339054
9250.0 61.763145711338716
9500.0 60.45256881398746
9750.0 58.108559043160746
10000.0 56.023712648310756
10300.0 56.195943843563036
10600.0 55.37803948883374
10900.0 56.04301232765403
11200.0 56.077663373133724
11500.0 57.72287565669978
11800.0 59.072501799381506
12200.0 60.204804790414265
12500.0 59.827068627573816
12800.0 59.611019819696175
13200.0 59.33036222390714
13600.0 59.86340595994444
14000.0 61.577820086491876
14500.0 60.6173748250634
15000.0 60.14021508320058
15500.0 60.8835703960656
16000.0 58.598117095776296
16500.0 55.14435573311314
17000.0 53.56621243569027
17500.0 53.91918732376343
18000.0 51.81973253018284
18500.0 46.75571147877893
19000.0 44.63371910521075
19500.0 47.252228281522925
