Freq "Sound Power"
22.4 -5.836803036614185
23.0 -5.54503200679477
23.6 -4.784120464017207
24.0 -2.1967365927918934
25.0 -0.40480644369230845
25.8 0.8695421293227525
26.5 1.8912840108868352
27.2 2.7632860601200093
28.0 3.521734914708162
29.0 4.253173647825861
30.0 5.531633457488596
30.7 7.649437522282511
31.5 9.205965807227159
32.5 10.417805310251254
33.5 11.40748588941068
34.5 12.204826630502055
35.5 13.164582774057891
36.5 15.421811738291154
37.5 17.22049170811593
38.7 18.58846641752902
40.0 19.730672986431017
41.2 20.861436984219495
42.5 22.88942227689762
43.7 24.93382805446018
45.0 26.572264854589605
46.2 28.038437963489343
47.5 29.600343108845152
48.7 32.1165861581766
50.0 34.176469237931
51.5 35.93809150402049
53.0 37.63237967726019
54.5 39.82285240788195
56.0 41.88059712904737
58.0 43.81210834833189
60.0 45.72370984388172
61.5 47.88837878261981
63.0 49.74192652989814
65.0 51.473868134667356
67.0 53.992676185183626
69.0 56.226218259326515
71.0 58.13353810646481
73.0 60.22371501338806
75.0 62.01299328061582
77.5 63.71532737976088
80.0 65.40202414464358
82.5 67.06734126343119
85.0 68.66469402304868
87.5 70.0756780932925
90.0 71.25984881895616
92.5 72.15365313674658
95.0 72.92928478132956
97.5 73.68193401238035
100.0 74.43967372246942
103.0 74.98722822394599
106.0 75.46999560370737
109.0 76.11698815933437
112.0 76.65866461799044
115.0 77.01706324976358
118.0 77.36131631741425
122.0 77.68750554801936
125.0 77.96437527645342
128.0 78.03654036611889
132.0 78.2605649809238
136.0 78.47593141132512
140.0 78.61784637052767
145.0 78.82897347917793
150.0 78.97897553555549
155.0 79.13620144130492
160.0 79.29831800907765
165.0 79.44156576006279
170.0 79.51638328980843
175.0 79.57381398851078
180.0 79.63325730244155
185.0 79.70066569887219
190.0 79.72455195344143
195.0 79.72356055578481
200.0 79.7171012994155
206.0 79.73599440421683
212.0 79.74375486050921
218.0 79.73044068416846
224.0 79.73090431154861
230.0 79.71932801595162
236.0 79.72384059366124
240.0 79.69010929204097
250.0 79.59239574164033
258.0 79.49519684037527
265.0 79.33941487386424
272.0 79.20522743637723
280.0 79.01357528875397
290.0 78.91232964513182
300.0 78.83120494208698
307.0 78.74823517640331
315.0 78.73687620205278
325.0 78.75481078906158
335.0 78.76299626115471
345.0 78.68985831156022
355.0 78.63787487956253
365.0 78.56658904377068
375.0 78.44845390368263
387.0 78.36750226256106
400.0 78.30351693836943
412.0 78.2913411444139
425.0 78.30861208074515
437.0 78.24949752734415
450.0 78.21417784343298
462.0 78.13156827705444
475.0 78.0730550578288
487.0 77.9968612705557
500.0 77.90642502366016
515.0 77.8396908725985
530.0 77.74799134974995
545.0 77.63473890757525
560.0 77.50887039716582
580.0 77.37790709884531
600.0 77.22639448023114
615.0 77.01824967064128
630.0 76.8714848796501
650.0 76.83666574233067
670.0 76.68075168101964
690.0 76.47110524125519
710.0 76.20463176155796
730.0 75.89742812846077
750.0 75.5850455241029
775.0 75.29659499498592
800.0 75.02784268464544
825.0 74.89154895748052
850.0 74.88219722440934
875.0 74.96094365188509
900.0 75.06830002194843
925.0 75.10320850280007
950.0 75.11119757239743
975.0 75.11784806888437
1000.0 75.07186814694091
1030.0 74.97677176419893
1060.0 74.79089466682832
1090.0 74.5283358262026
1120.0 74.19652183633322
1150.0 73.83178134813905
1180.0 73.5779172029847
1220.0 73.47645760331568
1250.0 73.39026410515254
1280.0 72.95266093985592
1320.0 72.35938042684734
1360.0 71.62347286055156
1400.0 71.14059016168272
1450.0 71.1359953048271
1500.0 71.58570641121347
1550.0 72.13599604438765
1600.0 72.41540226257345
1650.0 72.32018972577825
1700.0 72.01459697414028
1750.0 71.57452199357398
1800.0 71.2237341742661
1850.0 71.04682643363057
1900.0 71.10650181160881
1950.0 71.26505648455623
2000.0 71.44318590734098
2060.0 71.64853006437947
2120.0 71.87877378596747
2180.0 72.04968140786976
2240.0 71.92210196193253
2300.0 71.55634571702768
2360.0 71.18682440007166
2400.0 71.15884683267298
2500.0 71.37020225617397
2580.0 71.4661655847512
2650.0 71.08576114148451
2720.0 70.9571990570882
2800.0 70.99135897066844
2900.0 71.13427146860371
3000.0 71.02814658613755
3070.0 70.47651881005652
3150.0 69.92469333516607
3250.0 69.4578396297461
3350.0 69.35578979412081
3450.0 69.7101251236262
3550.0 69.9625491054673
3650.0 70.04126140091995
3750.0 70.49963404162138
3870.0 70.47631400520356
4000.0 70.23960527604468
4120.0 70.5413866446859
4250.0 70.85667229772399
4370.0 70.96636002833027
4500.0 70.9401894031632
4620.0 70.92710798407765
4750.0 71.06824749357682
4870.0 70.65606125941183
5000.0 70.00868478184775
5150.0 69.61605527457057
5300.0 69.72453471227527
5450.0 70.49459358604858
5600.0 71.37948517385884
5800.0 71.92498491815661
6000.0 71.89608650414927
6150.0 71.83068786039084
6300.0 71.70442090983104
6500.0 71.40140850037704
6700.0 70.86849099108184
6900.0 70.9077431420619
7100.0 71.8513465885717
7300.0 72.69514203467418
7500.0 73.12152397751031
7750.0 73.1732175290875
8000.0 72.96617125778833
8250.0 72.65144367615524
8500.0 72.42152598399483
8750.0 72.12668609387765
9000.0 71.59009825582862
9250.0 71.05906557092251
9500.0 70.94701563921079
9750.0 71.50507625013532
10000.0 72.24965814775958
10300.0 72.6595744350062
10600.0 72.51696679705651
10900.0 72.01158782982972
11200.0 71.7857265406698
11500.0 71.68596108842075
11800.0 71.41798790056686
12200.0 71.12501088996406
12500.0 71.05693937333528
12800.0 71.2331118905048
13200.0 71.19119784804158
13600.0 70.69313247096215
14000.0 70.38111119277059
14500.0 70.27891117868309
15000.0 70.08686849689981
15500.0 69.74031376244527
16000.0 69.0951807419838
16500.0 68.43685100347444
17000.0 68.43012676305473
17500.0 68.64181357313551
18000.0 68.08825578135102
18500.0 66.7913848440586
19000.0 65.53799341661933
19500.0 65.09551003848615
