Freq "Floor Bounce"
22.4 50.21278865033183
23.0 50.48846489709099
23.6 50.63775062714511
24.0 50.4537619189809
25.0 49.775986347
25.8 49.301110459261494
26.5 49.19276279995593
27.2 49.42950563587824
28.0 50.21445040794619
29.0 51.133702069042485
30.0 51.96576027829924
30.7 52.93585587475222
31.5 53.97770864825917
32.5 55.154794694480515
33.5 56.34599552984132
34.5 57.554394149771426
35.5 58.776869582645176
36.5 60.03325403990313
37.5 61.263781652985884
38.7 62.55941486319644
40.0 63.92402502508155
41.2 65.35504599581911
42.5 66.62329980654017
43.7 67.8920504262082
45.0 69.05504599581911
46.2 70.15650251594774
47.5 71.45650251594773
48.7 72.5894869730296
50.0 73.5894869730296
51.5 74.55941486319645
53.0 75.35941486319645
54.5 76.15941486319646
56.0 76.92298238425809
58.0 77.85699264777908
60.0 78.79314211214046
61.5 79.65699264777909
63.0 80.5569926477791
65.0 81.65699264777909
67.0 82.68708147659669
69.0 83.72137293922192
71.0 84.75170870017779
73.0 85.55170870017778
75.0 86.21765686932832
77.5 87.18253325753811
80.0 88.15170870017779
82.5 88.91765686932831
85.0 89.38253325753813
87.5 89.5825332575381
90.0 90.08253325753812
92.5 90.74872319774279
95.0 91.34872319774279
97.5 91.8487231977428
100.0 92.5176568693283
103.0 92.98253325753812
106.0 93.34872319774279
109.0 93.44872319774278
112.0 93.6487231977428
115.0 93.74872319774278
118.0 93.74872319774278
122.0 93.78028476091593
125.0 93.84872319774279
128.0 93.78028476091593
132.0 93.68412020022801
136.0 93.54872319774277
140.0 93.38412020022801
145.0 93.184120200228
150.0 93.15330694436561
155.0 93.15330694436561
160.0 93.05330694436563
165.0 92.95330694436562
170.0 93.0229823842581
175.0 93.0229823842581
180.0 93.15941486319646
185.0 93.25941486319645
190.0 93.32982472189558
195.0 93.29638224490093
200.0 93.29638224490093
206.0 93.12982472189559
212.0 92.86704375660813
218.0 92.56704375660813
224.0 92.40480238270933
230.0 92.33818033224523
236.0 92.37618964118265
240.0 92.3147429628737
250.0 92.21474296287369
258.0 92.08684775668961
265.0 91.98684775668961
272.0 91.89901257676236
280.0 91.79901257676237
290.0 91.73916386551107
300.0 91.5798696932768
307.0 91.45363148719493
315.0 91.42783646997704
325.0 91.46959417797139
335.0 91.45479469448053
345.0 91.20597129115654
355.0 90.74990664309937
365.0 90.47111114871015
375.0 90.29377338164511
387.0 89.89625968772684
400.0 89.3017951267524
412.0 88.75952168944183
425.0 88.40478153133033
437.0 88.11124565902156
450.0 87.82927519472945
462.0 87.81390918796656
475.0 87.8356078552033
487.0 87.77928759322292
500.0 87.64892264856614
515.0 87.67354066877458
530.0 88.05523314301529
545.0 88.55221255107337
560.0 88.98221644527287
580.0 89.1314945027208
600.0 89.1321551023603
615.0 89.01232190988189
630.0 88.97770864825917
650.0 88.94225456578093
670.0 89.07386300280572
690.0 89.18704374544096
710.0 89.3626022945324
730.0 89.46260229453239
750.0 89.51498253272881
775.0 89.43587243005211
800.0 89.19117171075614
825.0 88.93627782644849
850.0 88.7282034248856
875.0 88.52242035086722
900.0 88.429965132017
925.0 88.45952168944183
950.0 88.52171178407049
975.0 88.7534695412998
1000.0 88.95547264691443
1030.0 89.14615135291727
1060.0 89.22706669674038
1090.0 89.22465418074073
1120.0 89.16941566138912
1150.0 88.97284002711733
1180.0 88.72656409157061
1220.0 88.45547264691443
1250.0 88.40418339281571
1280.0 88.53680904599274
1320.0 88.82196816178221
1360.0 89.0219681617822
1400.0 89.00358874658131
1450.0 88.8339286395139
1500.0 88.46785362269559
1550.0 88.16557465809495
1600.0 87.91676771749088
1650.0 87.42250512855585
1700.0 86.67806487046676
1750.0 86.04255707718863
1800.0 86.09121027103465
1850.0 86.77817265972516
1900.0 87.42777185035493
1950.0 87.56603280947469
2000.0 87.23770933649946
2060.0 86.90833861261011
2120.0 86.90881485824917
2180.0 86.9193702054849
2240.0 86.71702455740444
2300.0 86.40505270793386
2360.0 85.98221540591037
2400.0 85.66649585953611
2500.0 85.3776252815935
2580.0 84.99886692146153
2650.0 84.72394157426947
2720.0 84.7761562293984
2800.0 84.7288509837902
2900.0 84.52835137821221
3000.0 84.6896816024882
3070.0 84.93369832402168
3150.0 84.65598633773226
3250.0 84.26559778221245
3350.0 84.24900652183547
3450.0 84.3049482301897
3550.0 84.01416627704266
3650.0 83.40833861261008
3750.0 82.85194659124133
3870.0 83.00648392231592
4000.0 82.97757895164781
4120.0 82.51865260839956
4250.0 82.46810587735159
4370.0 82.41069080060977
4500.0 81.93588403162595
4620.0 81.38044024305462
4750.0 81.19116625705497
4870.0 80.7345507830448
5000.0 80.87486111959082
5150.0 81.1889014927217
5300.0 81.28044024305463
5450.0 81.28234909758163
5600.0 81.65941528701357
5800.0 81.61384853900542
6000.0 81.48482661768692
6150.0 81.37712949490259
6300.0 80.72611096216802
6500.0 80.26641089243209
6700.0 80.57707514815533
6900.0 80.41967471141507
7100.0 79.98762524068972
7300.0 80.03794170516399
7500.0 80.21037459012194
7750.0 80.17807818749903
8000.0 80.52298129911496
8250.0 80.37712949490259
8500.0 80.45909947932698
8750.0 81.23881973700985
9000.0 81.88340405297527
9250.0 81.89346182217373
9500.0 81.37758255643017
9750.0 80.49258526500995
10000.0 81.0595004103628
10300.0 79.62178852916905
10600.0 77.31926799580164
10900.0 76.81411110178134
11200.0 77.14911732349005
11500.0 78.07211944448507
11800.0 80.99039241251482
12200.0 85.25241924121862
12500.0 85.8970808920497
12800.0 84.49803128213335
13200.0 83.02850126736085
13600.0 82.19831053441443
14000.0 81.94260655618463
14500.0 79.35686208512047
15000.0 74.61219392677692
15500.0 71.35026819432723
16000.0 73.22806031613898
16500.0 74.0233953862954
17000.0 71.0765826098551
17500.0 69.26043681098344
18000.0 69.60063438476243
18500.0 68.97484768712597
19000.0 65.66408115851182
19500.0 66.33240191475956
