Freq "Floor Bounce"
20.5078 48.02411533037538
23.4375 51.66294222710577
26.3672 55.02511844965129
29.2969 57.896523202211554
32.2266 60.66799443130661
35.1563 64.54794037403326
38.0859 67.5600781671491
41.0156 70.8532328884963
43.9453 73.49954068070184
46.875 75.91798289302075
49.8047 77.62916386674459
52.7344 78.94718788156955
55.6641 79.87579601669293
58.5938 80.53435822878679
61.5234 81.07286129536296
64.4531 81.53997688706251
67.3828 82.03343788193202
70.3125 82.56078290041806
73.2422 83.05916143486701
76.1719 83.5419205706331
79.1016 83.9061871941538
82.0313 84.28779246315227
84.9609 84.64997060840314
87.8906 84.96508941294817
90.8203 84.73596537375401
93.75 85.04002547115815
96.6797 85.3826901456075
102.539 85.18229991107725
105.469 85.15843719309446
108.398 85.2700143193722
111.328 85.34373157788967
117.188 85.25380863023993
120.117 85.24695140158069
125.977 85.25096402455172
128.906 85.01851030356073
134.766 84.60025147066222
137.695 84.55630316075907
143.555 84.24498090325174
149.414 84.08268331468385
155.273 84.27657219504769
158.203 84.13906355100208
164.063 84.0141546988629
169.922 83.78547878328692
175.781 83.75039640327121
181.641 83.81678622661045
190.43 83.78922472854315
196.289 83.94586183028075
202.148 84.08238145840923
210.938 84.39596393331871
216.797 84.49784266213466
225.586 84.91069963780971
234.375 85.32241826113082
240.234 85.37129833547984
249.023 85.54373726961802
257.813 85.76989675157508
266.602 85.45728158498318
278.32 84.95568349083244
287.109 84.62893772890195
295.898 84.6194605310674
307.617 84.42962919950384
319.336 83.9273759440373
331.055 83.8591164712568
342.773 83.44698524342999
354.492 83.62412474049425
366.211 83.52239549937933
377.93 83.64873562333067
392.578 83.09462076884141
407.227 83.2522395315694
421.875 84.11577553223786
436.523 84.47126895669295
451.172 84.39341480403095
465.82 84.76193897476007
483.398 84.84320625179433
500.977 84.70649227693504
518.555 84.78919550112077
536.133 84.43585482074522
553.711 84.55109173136246
574.219 84.82849710702511
594.727 83.08723323498673
615.234 80.94813191602539
638.672 83.7685208831522
659.18 84.47873552867743
682.617 84.52146595918045
706.055 85.15260587346671
732.422 85.49640001623747
758.789 85.48165807777647
785.156 85.75239938218512
811.523 85.51229923286729
840.82 85.49923983636172
870.117 85.65634072804643
902.344 85.86502246876188
931.641 86.01077446463347
966.797 85.7030630429588
999.023 85.94030693624066
1034.18 85.76033874436324
1072.27 85.7914939111618
1110.35 85.43347334394521
1148.44 85.01944942795792
1189.45 84.75280501195685
1230.47 84.47937087633515
1274.41 84.11832114306912
1318.36 83.87464841123571
1365.23 83.19027787743468
1415.04 82.30495711272675
1464.84 83.18491442424441
1514.65 84.22596642420086
1570.31 84.35206570034605
1623.05 83.99391303496853
1681.64 84.11334341555236
1740.23 83.6518451033441
1801.76 83.61339525041025
1866.21 83.85216243752053
1930.66 83.03434533947951
2000.98 82.52906981237525
2071.29 82.47423061519913
2144.53 82.08790000280287
2217.77 82.03638952994206
2296.88 82.11589339985592
2378.91 83.05773952735902
2460.94 83.22777374369498
2548.83 83.40234845316073
2639.65 83.3991982574335
2733.4 82.6403490915066
2827.15 81.87124291676828
2926.76 82.16593513142168
3032.23 82.58600146759808
3137.7 82.48034120656563
3249.02 82.28173914089967
3363.28 81.9604489759842
3483.4 81.52101370972268
3606.45 81.36550651527533
3732.42 80.87098685920203
3864.26 79.79287442671344
3999.02 79.10995964968002
4139.65 79.2725652064757
4286.13 79.06790413020626
4438.48 77.75251371019333
4593.75 77.47874015523972
4757.81 77.54813572999575
4924.8 77.9613575854736
5097.66 78.35831650457573
5279.3 80.49285687551699
5463.87 80.7366679187918
5657.23 79.87584388290199
5856.45 79.69796721243392
6061.52 79.99991767924227
6275.39 80.14529769255908
6498.05 80.62300994782905
6726.56 80.81155445776638
6963.87 81.0585069451975
7209.96 81.0448644212622
7464.84 80.86166697398632
7728.52 80.78313375228588
8000.98 80.4857392734969
8282.23 80.23440367238618
8575.2 79.88908627741579
8876.95 79.78176429808184
9190.43 79.80933878596358
9512.7 80.13526712230258
9849.61 80.75232843894018
10195.3 80.78784386304645
10555.7 81.58611887557105
10927.7 81.86091839601822
11314.5 82.06170765842452
11712.9 81.77412515268068
12126.0 81.39809920956924
12553.7 81.3799693508272
12996.1 81.21981059649487
13453.1 81.11547505260963
13927.7 80.69628625607179
14419.9 80.10670312841224
14929.7 79.65271181089459
15454.1 79.68302257212945
15999.0 79.27022514697097
16564.5 78.27464863897923
17147.5 75.82798508737962
17753.9 72.91438718454104
18377.9 72.2590794778551
19028.3 72.122354662689
19699.2 72.42847295660542
19998.0 72.28717559454327
