Freq "Front Wall Bounce"
20.5078 47.037785029577506
23.4375 50.87947162253438
26.3672 54.30788695240206
29.2969 57.242388001637735
32.2266 60.10890536157147
35.1563 64.04357221112944
38.0859 67.11265224049525
41.0156 70.42375386820078
43.9453 73.07959965135696
46.875 75.5141061192693
49.8047 77.22703842827902
52.7344 78.55303306318416
55.6641 79.48698420842432
58.5938 80.15409331762203
61.5234 80.69027489873645
64.4531 81.15662748522612
67.3828 81.64559528621125
70.3125 82.17400689239409
73.2422 82.67648079224905
76.1719 83.1594978427763
79.1016 83.50838434060303
82.0313 83.88994328397756
84.9609 84.2614994474915
87.8906 84.60580918357242
90.8203 84.32364608731184
93.75 84.6108036272772
96.6797 85.02383876896029
102.539 84.78789266023736
105.469 84.76268396811531
108.398 84.8539257249052
111.328 84.92718579527907
117.188 84.8572459268981
120.117 84.85322174797444
125.977 84.8731919092378
128.906 84.65178648494758
134.766 84.19760471764378
137.695 84.14405281657406
143.555 83.78940106727421
149.414 83.61359627970262
155.273 83.86083647605979
158.203 83.73744058338521
164.063 83.55051878757361
169.922 83.362132064368
175.781 83.37862415616944
181.641 83.50912825302356
190.43 83.52750699432664
196.289 83.74882488164779
202.148 83.95076480177049
210.938 84.33815269373576
216.797 84.49117533489685
225.586 85.06702158967659
234.375 85.5579861461615
240.234 85.67601987341932
249.023 86.01602880465985
257.813 86.30914559346989
266.602 85.99133360532592
278.32 85.86664190076763
287.109 85.70352954324197
295.898 85.56762330894166
307.617 85.34104570553518
319.336 84.98810887994115
331.055 84.81135562844982
342.773 84.48830293369097
354.492 84.61117562956174
366.211 84.59127764729008
377.93 84.64337045898534
392.578 84.19750184437096
407.227 84.42858696294381
421.875 84.98537249987696
436.523 85.2493079232324
451.172 85.12677382797594
465.82 85.22278892392643
483.398 84.98453944595222
500.977 84.94326933894386
518.555 84.90255175092672
536.133 84.56508450833631
553.711 84.76936875391505
574.219 84.63480292213232
594.727 82.29602154853468
615.234 82.27709917070283
638.672 84.46080746775398
659.18 84.9609198319616
682.617 85.18222728213134
706.055 85.49435307348962
732.422 85.35471958722452
758.789 85.59898215291499
785.156 85.24760151110335
811.523 85.61139969590346
840.82 85.51196678453715
870.117 85.77033619622871
902.344 85.80419668797265
931.641 85.77865154830805
966.797 85.35218407128613
999.023 85.02025714863458
1034.18 84.33169736419325
1072.27 83.66778254572517
1110.35 83.28513916824302
1148.44 83.11855837048925
1189.45 83.21607702183792
1230.47 83.63598205353715
1274.41 83.82437547106782
1318.36 83.5991110972041
1365.23 82.15742967692613
1415.04 81.90072603290254
1464.84 83.32771849061768
1514.65 85.32151898765399
1570.31 85.91985608921757
1623.05 85.09098772560694
1681.64 84.67898533339785
1740.23 84.9623974262028
1801.76 85.5142835346083
1866.21 84.80962340181686
1930.66 84.41137346188296
2000.98 84.89792442090429
2071.29 85.63529668551675
2144.53 84.36111834167549
2217.77 83.6507297591258
2296.88 84.1497566419535
2378.91 84.32979561735206
2460.94 83.17292718912307
2548.83 82.68061960439361
2639.65 82.82745992126463
2733.4 81.62880053881398
2827.15 80.43387823983635
2926.76 80.72323553884476
3032.23 80.98279545727836
3137.7 81.34479149955476
3249.02 81.45875045738053
3363.28 81.42975735800579
3483.4 81.89124120332126
3606.45 82.04586834987971
3732.42 81.61129029718248
3864.26 81.78480279740803
3999.02 81.76225492448835
4139.65 81.55000433168351
4286.13 81.74773300727101
4438.48 80.92217124714985
4593.75 80.06155657153535
4757.81 79.3090526631273
4924.8 79.15464019462998
5097.66 79.82254318692151
5279.3 80.6763816638014
5463.87 81.38351875720973
5657.23 80.64510936314784
5856.45 80.75714420754421
6061.52 81.1871795159575
6275.39 81.58365163841516
6498.05 81.56682269020803
6726.56 81.41748777517525
6963.87 81.28130389009725
7209.96 81.05392246844599
7464.84 80.91918807970309
7728.52 80.6784161285944
8000.98 80.76009953603325
8282.23 80.94809253204477
8575.2 80.66910738630845
8876.95 79.49770263478702
9190.43 79.04708714663356
9512.7 79.77769696126157
9849.61 80.93881134846829
10195.3 82.08404066241836
10555.7 84.2534632397438
10927.7 84.90823779850696
11314.5 85.27687092711477
11712.9 84.989202972001
12126.0 85.09472413336384
12553.7 85.25529877118309
12996.1 85.14988826278451
13453.1 84.8571679459454
13927.7 84.55807415628881
14419.9 84.49034427939254
14929.7 84.92420890113094
15454.1 85.23039550383461
15999.0 84.53538294965075
16564.5 82.98274292807642
17147.5 80.84234314355685
17753.9 80.74490624449909
18377.9 80.5845053497571
19028.3 79.89038846834116
19699.2 78.40700725880066
19998.0 77.6788458076319
