Freq "Listening Window"
20.5078 63.05599744480091
21.9727 64.14615872842792
23.4375 65.40805332382315
24.9023 66.05004902958916
26.3672 66.97781246300904
27.832 68.0035397674986
29.2969 68.61798605188605
30.7617 69.34405695204035
32.2266 70.11495727831215
33.6914 70.82484071371158
35.1562 71.47292421152079
36.6211 72.14230640755527
38.0859 72.7802936083198
39.5508 73.40510069144284
41.0156 73.93359073177245
42.4805 74.65282602935963
43.9453 75.09709279954384
45.4102 75.68995632914863
46.875 76.10646401261731
48.3398 76.61857920515732
51.2695 77.508640774949
52.7344 78.03774609508116
54.1992 78.50210045579843
55.6641 78.8791429656993
58.5938 79.65619771072367
60.0586 80.08073596817037
62.9883 80.89414870640601
64.4531 81.23556630648648
67.3828 81.94586119140507
68.8477 82.22332695463284
71.7773 82.8568409251333
74.707 83.3969669335389
77.6367 83.86904243448984
79.1016 84.11288182109911
82.0312 84.56156293670293
84.9609 84.99815511513313
87.8906 85.51458677834665
90.8203 85.96933198621718
95.2148 86.41251100860254
98.1445 86.66867950841862
101.074 86.90659495255137
105.469 87.25005206891132
108.398 87.36127796134161
112.793 87.43552109148676
117.188 87.57160560039178
120.117 87.88406673880624
124.512 88.05839120549467
128.906 88.13072205254963
133.301 88.18011912724994
139.16 87.95441818881304
143.555 87.86887562377905
147.949 88.12019352076338
153.809 87.9859677280835
159.668 87.4171410142135
165.527 87.43446330832128
171.387 87.80709450696118
177.246 87.68631630433717
183.105 87.82549864768717
188.965 87.79190329163626
196.289 87.3910256408649
203.613 87.11726601899366
210.938 87.31667496464458
218.262 87.22734113844317
225.586 87.12500894505874
232.91 86.91183624239257
241.699 86.57665175032241
250.488 86.82449497244126
259.277 87.27299933114547
268.066 86.98161049194137
276.855 86.65671982194719
287.109 86.32029865043872
297.363 86.56836857451572
307.617 86.3573692370228
319.336 86.42204337628681
329.59 86.72492931850826
341.309 86.70252376348512
353.027 86.98628047460487
366.211 86.68562947297889
379.395 86.18765426856238
392.578 85.71523296080159
405.762 86.23048166332494
420.41 85.13413691049183
435.059 85.19118929758984
451.172 83.96155601559751
465.82 84.9654563407147
483.398 84.7742363658223
499.512 84.1665437729647
517.09 83.3504418325107
536.133 82.78787122611953
555.176 83.24502392533073
574.219 84.30266001850626
594.727 84.42410997121038
615.234 84.04344211450999
637.207 84.46777772400961
659.18 85.64879339456243
682.617 85.29002693332136
707.52 86.59073779853665
732.422 85.55949034490197
757.324 85.85760031099696
785.156 85.21691423914257
811.523 84.7897484614436
840.82 85.4096583372214
870.117 85.47400619925779
900.879 86.70151171726826
933.105 86.01602171338915
965.332 85.78489085289348
1000.49 85.28057842608409
1035.64 85.65602724130588
1072.27 85.57240592517064
1108.89 86.03699758116863
1148.44 85.48593017827271
1189.45 85.38185388681464
1230.47 84.99632417652933
1274.41 85.2303382191613
1319.82 85.54174002739661
1366.7 85.7692987969384
1413.57 86.1686152146971
1463.38 85.31606499676462
1516.11 84.3623402330416
1568.85 84.57700269708675
1624.51 85.21694284493786
1681.64 85.1227119855296
1741.7 84.60774291702205
1803.22 84.76885805910597
1866.21 85.08217059322651
1932.13 85.13859484253926
1999.51 84.47286980284599
2069.82 85.22890644939883
2143.07 85.44043619916505
2219.24 84.35423072659276
2296.88 83.94005066889665
2378.91 84.76596068968644
2462.4 84.51629558877028
2548.83 85.29799586284005
2639.65 86.4633246818247
2731.93 86.71335509301882
2828.61 86.81436709720724
2928.22 87.57581685541102
3030.76 88.02325473655603
3137.7 88.05430473806106
3249.02 88.40321312397917
3363.28 88.39092344283566
3481.93 88.6427310220948
3604.98 88.43040780274765
3732.42 89.00627210899631
3864.26 88.35184837133869
4000.49 88.6354214984517
4141.11 88.19674414644805
4287.6 88.24125620046144
4438.48 88.43697213940044
4595.21 88.13409879319227
4756.35 88.37105855604179
4924.8 88.4422693008342
5097.66 88.18204134233184
5277.83 88.30863636139901
5463.87 88.54648811676114
5657.23 88.48798128028636
5856.45 88.04459225373029
6062.99 88.0725684959526
6276.86 87.69667978775492
6498.05 87.21966003481151
6726.56 86.96365234790387
6963.87 86.57124857992035
7209.96 86.09669381546146
7464.84 86.18279889803004
7727.05 86.21538534415905
7999.51 86.48228546491409
8282.23 86.72987527776965
8573.73 86.95309583104272
8876.95 87.27518502552468
9188.96 87.34634844886355
9514.16 87.33592938608949
9849.61 87.54234219464648
10196.8 87.63743884718582
10555.7 87.73676913373629
10927.7 87.71892535620469
11313.0 87.61818377438023
11712.9 87.51997188751174
12126.0 87.47634076436646
12553.7 87.66789218234882
12996.1 87.84020420843737
13454.6 87.9578946650972
13929.2 87.86152176554668
14419.9 88.15720473266371
14928.2 88.86623223728212
15455.6 88.62409053522062
16000.5 87.92873362077592
16564.5 86.90128284372182
17148.9 85.55673568390564
17752.4 87.40062590287748
18379.4 86.77093113741668
19026.9 86.1065203675933
19697.8 85.73200369281095
19999.5 85.56941766611388
