Freq "On Axis"
20.5078 61.5219409090909
21.9727 60.6846409090909
23.4375 57.01794090909091
24.9023 59.82264090909091
26.3672 64.84334090909091
27.832 67.00624090909089
29.2969 70.17094090909093
30.7617 74.5503409090909
32.2266 77.64034090909091
33.6914 80.67264090909092
35.1562 83.94154090909092
36.6211 86.93344090909089
38.0859 89.77304090909091
39.5508 92.21184090909091
41.0156 94.05314090909091
42.4805 95.62614090909089
43.9453 96.71764090909092
45.4102 97.37164090909091
46.875 97.82524090909091
48.3398 98.08154090909092
51.2695 98.19624090909092
52.7344 98.13404090909093
54.1992 98.07404090909093
55.6641 98.04724090909092
58.5938 97.8675409090909
60.0586 97.79064090909092
62.9883 97.64424090909093
64.4531 97.59154090909091
67.3828 97.58634090909091
68.8477 97.60624090909091
71.7773 97.64594090909091
74.707 97.65664090909091
77.6367 97.66774090909091
79.1016 97.69984090909091
82.0312 97.8436409090909
84.9609 97.95914090909089
87.8906 97.96064090909091
90.8203 98.0803409090909
95.2148 98.27164090909089
98.1445 98.44834090909093
101.074 98.52174090909092
105.469 98.55114090909092
108.398 98.58534090909093
112.793 98.8367409090909
117.188 98.96674090909092
120.117 99.06374090909091
124.512 99.3206409090909
128.906 99.37274090909091
133.301 99.1316409090909
139.16 98.87244090909091
143.555 99.02684090909091
147.949 99.17344090909091
153.809 99.16494090909092
159.668 99.2245409090909
165.527 99.09024090909091
171.387 98.7716409090909
177.246 98.66734090909091
183.105 99.03754090909091
188.965 98.7283409090909
196.289 98.3671409090909
203.613 98.5434409090909
210.938 98.57014090909091
218.262 98.67784090909092
225.586 98.9687409090909
232.91 99.0631409090909
241.699 99.09644090909092
250.488 99.44474090909091
259.277 99.38074090909092
268.066 99.18614090909092
276.855 99.1017409090909
287.109 98.93824090909091
297.363 99.69274090909092
307.617 99.48974090909091
319.336 99.78974090909091
329.59 99.51274090909091
341.309 99.96174090909089
353.027 99.88274090909091
366.211 99.26964090909091
379.395 99.74574090909091
392.578 98.55614090909091
405.762 98.98864090909092
420.41 98.90334090909091
435.059 98.4493409090909
451.172 99.07874090909091
465.82 98.82924090909091
483.398 99.1042409090909
499.512 99.30984090909091
517.09 98.98964090909091
536.133 99.26834090909091
555.176 99.0631409090909
574.219 99.00404090909092
594.727 98.94034090909092
615.234 98.5143409090909
637.207 98.3966409090909
659.18 97.1161409090909
682.617 97.3771409090909
707.52 98.65144090909091
732.422 99.2130409090909
757.324 98.84664090909091
785.156 97.20454090909091
811.523 97.33084090909092
840.82 97.06724090909091
870.117 97.37244090909091
900.879 97.54074090909091
933.105 101.59974090909093
965.332 102.30874090909091
1000.49 101.73574090909091
1035.64 101.26674090909091
1072.27 100.49874090909091
1108.89 99.1710409090909
1148.44 98.60604090909091
1189.45 98.90124090909092
1230.47 99.49574090909091
1274.41 99.9497409090909
1319.82 100.42774090909091
1366.7 100.5447409090909
1413.57 100.58774090909091
1463.38 100.24974090909092
1516.11 100.69474090909091
1568.85 100.74774090909092
1624.51 100.6727409090909
1681.64 101.5957409090909
1741.7 102.5177409090909
1803.22 101.34774090909092
1866.21 101.95374090909091
1932.13 100.1667409090909
1999.51 101.15174090909092
2069.82 100.5837409090909
2143.07 100.20674090909091
2219.24 100.35974090909092
2296.88 99.90374090909091
2378.91 100.46374090909092
2462.4 101.24574090909091
2548.83 100.4757409090909
2639.65 98.7341409090909
2731.93 97.9072409090909
2828.61 98.89344090909091
2928.22 99.19644090909092
3030.76 98.77474090909091
3137.7 99.50874090909092
3249.02 99.62874090909091
3363.28 99.60074090909093
3481.93 99.53774090909091
3604.98 100.49474090909091
3732.42 101.09174090909092
3864.26 99.79374090909091
4000.49 99.35874090909091
4141.11 100.0747409090909
4287.6 100.18674090909091
4438.48 99.8207409090909
4595.21 98.8523409090909
4756.35 100.16174090909091
4924.8 100.00874090909092
5097.66 99.72474090909093
5277.83 99.92674090909091
5463.87 99.9197409090909
5657.23 99.9877409090909
5856.45 99.95174090909093
6062.99 99.83274090909092
6276.86 99.50774090909091
6498.05 99.39574090909092
6726.56 99.32194090909091
6963.87 99.75274090909092
7209.96 99.72574090909092
7464.84 99.3046409090909
7727.05 99.79274090909091
7999.51 99.18934090909092
8282.23 99.3127409090909
8573.73 99.10864090909091
8876.95 99.54474090909092
9188.96 98.6862409090909
9514.16 99.05764090909092
9849.61 98.58654090909091
10196.8 98.70204090909091
10555.7 98.4403409090909
10927.7 98.17334090909091
11313.0 98.74414090909092
11712.9 98.78484090909092
12126.0 98.74284090909092
12553.7 99.03644090909091
12996.1 99.6237409090909
13454.6 100.15074090909091
13929.2 100.64474090909091
14419.9 101.10274090909091
14928.2 101.39774090909091
15455.6 101.53174090909091
16000.5 101.41574090909093
16564.5 100.99974090909092
17148.9 100.58474090909091
17752.4 99.87874090909092
18379.4 99.21114090909091
19026.9 98.53674090909091
19697.8 97.88364090909091
19999.5 97.59854090909091
