Freq "Early Reflections"
22.4 35.12837830328803
23.0 36.88115478378245
23.6 38.52046570227023
24.0 40.5120059106691
25.0 42.26777582244088
25.8 44.0560646526547
26.5 45.695736137198594
27.2 47.32676052344044
28.0 48.84751176324315
29.0 50.70418678586793
30.0 52.44567204769919
30.7 54.115046151918534
31.5 55.51575722812143
32.5 56.76798935804271
33.5 57.993457085327805
34.5 59.30262548586023
35.5 60.522085183685704
36.5 61.30614796897012
37.5 62.06056673070833
38.7 62.88152735020759
40.0 63.60115953832047
41.2 64.27978656377289
42.5 64.91515259952911
43.7 65.47801104430341
45.0 66.08632875123962
46.2 66.79715029896671
47.5 67.22033754509692
48.7 67.68967561056022
50.0 68.21106326927315
51.5 68.44664407473498
53.0 68.63783480007183
54.5 68.88249571135164
56.0 68.94807055478057
58.0 68.9669683864113
60.0 68.96307082521358
61.5 68.8726532303077
63.0 68.67403885352141
65.0 68.4047576953404
67.0 68.11186008216367
69.0 67.78644280624236
71.0 67.25574034658476
73.0 66.84374013710804
75.0 66.6430833652101
77.5 66.67090242245244
80.0 67.12954150359803
82.5 67.96551769329699
85.0 69.0464681397323
87.5 70.35084316986669
90.0 71.71791323452724
92.5 73.20255731078706
95.0 74.57862362047163
97.5 76.00325599014597
100.0 77.46899878704568
103.0 78.88022243400164
106.0 80.24276314135093
109.0 81.44164121086229
112.0 82.49528655956118
115.0 83.29784811789305
118.0 83.95901731219654
122.0 84.36080419993708
125.0 84.67463375181384
128.0 84.82926451460631
132.0 85.17355124399009
136.0 85.27140516929244
140.0 85.39883162567371
145.0 85.58844146081333
150.0 85.65535676964096
155.0 85.74216617035705
160.0 85.84032863293531
165.0 85.82453501755651
170.0 85.85122952578809
175.0 85.88861650274407
180.0 85.97194645298772
185.0 85.99437088667807
190.0 86.1950007712858
195.0 86.11357551704899
200.0 85.9980422247371
206.0 85.79907417444305
212.0 85.47239516970453
218.0 85.14402245638911
224.0 84.8215697897041
230.0 84.67842280046318
236.0 84.74807569246765
240.0 85.04407728492083
250.0 84.99911760666062
258.0 84.74352507606868
265.0 84.31794902767012
272.0 84.30163765606781
280.0 84.52523287099298
290.0 84.91448151726078
300.0 85.29554280066309
307.0 85.804965198584
315.0 86.32033634501447
325.0 86.78373655022125
335.0 87.87529432511019
345.0 88.1943231919009
355.0 88.28374882317287
365.0 88.62148805806954
375.0 89.08031564185133
387.0 88.96675844720642
400.0 89.10214239698719
412.0 88.43685593521211
425.0 89.81741224223842
437.0 89.55316659773223
450.0 88.75148102208571
462.0 89.10130630680916
475.0 88.57102201378456
487.0 88.0120469366187
500.0 87.52799579288393
515.0 88.72918299394566
530.0 86.5838164241314
545.0 85.12447785112751
560.0 85.8325640175923
580.0 85.4423323110806
600.0 84.77177020416548
615.0 83.60310040549663
630.0 82.53047693019646
650.0 82.0292027745922
670.0 80.49982451780558
690.0 80.2622822399279
710.0 81.09901141559254
730.0 81.0098827940611
750.0 80.8075356917555
775.0 79.74723343304832
800.0 79.49745752303814
825.0 79.42337639647357
850.0 79.2296126286947
875.0 80.63560111998655
900.0 80.26926126928203
925.0 81.27367472825964
950.0 80.47792205208975
975.0 80.41860065635001
1000.0 80.03334595164698
1030.0 80.78903698775174
1060.0 82.05743152118717
1090.0 80.89347654472327
1120.0 79.44202201415396
1150.0 80.32852124228518
1180.0 81.15376989023471
1220.0 81.0193858738152
1250.0 78.67531098184574
1280.0 79.5092133556545
1320.0 81.8786604944692
1360.0 80.63921315277582
1400.0 79.41071486345666
1450.0 79.22569680912588
1500.0 77.01025708451817
1550.0 75.7001306516045
1600.0 76.87763471304356
1650.0 74.85032714732273
1700.0 73.51380107355763
1750.0 74.94994465073789
1800.0 74.07576127499802
1850.0 75.06215062567053
1900.0 77.40341194314284
1950.0 77.6734962665033
2000.0 79.22508796784835
2060.0 77.64545054762641
2120.0 79.72849564180727
2180.0 76.79235501792493
2240.0 77.08146851098073
2300.0 74.52818748151763
2360.0 76.0931878525235
2400.0 73.13257323660906
2500.0 74.49985733045449
2580.0 73.72527821551166
2650.0 74.90130292043008
2720.0 74.67481331645246
2800.0 71.6226040805701
2900.0 74.39473669408194
3000.0 75.6768941435943
3070.0 72.78840419054212
3150.0 73.33026557239778
3250.0 74.671961836863
3350.0 74.82689425568473
3450.0 73.93817246921063
3550.0 74.20779378197803
3650.0 76.62759441039694
3750.0 77.31731067268576
3870.0 77.38965999404397
4000.0 76.75170081424795
4120.0 75.10208439819992
4250.0 74.1508135611615
4370.0 75.1356164984594
4500.0 74.61177985219388
4620.0 74.13569472144681
4750.0 74.52719068411588
4870.0 74.1464231662915
5000.0 73.2086648641302
5150.0 71.7740861152393
5300.0 72.7672548614614
5450.0 71.79999644755267
5600.0 72.21583064518789
5800.0 73.81320422887396
6000.0 75.26914224500777
6150.0 76.23026179741635
6300.0 73.84359507368985
6500.0 75.61470609943393
6700.0 76.624861642241
6900.0 78.05711947524063
7100.0 78.76852869560913
7300.0 76.96693384296468
7500.0 77.85454387887116
7750.0 77.63341183193263
8000.0 77.60602335734762
8250.0 77.44761945102654
8500.0 75.18739642948705
8750.0 74.87814422856721
9000.0 76.3024657031063
9250.0 78.575215197206
9500.0 79.59561241492159
9750.0 79.65691462325098
10000.0 78.7257001150054
10300.0 79.13853540642542
10600.0 80.38935825487988
10900.0 79.89467671141536
11200.0 80.97511712954261
11500.0 75.23488549805323
11800.0 76.30766759898799
12200.0 77.02743284682415
12500.0 75.90349313604236
12800.0 70.93779712130164
13200.0 73.8973897734904
13600.0 75.4986059767316
14000.0 74.49360431392059
14500.0 75.35498337949095
15000.0 77.12469849736111
15500.0 79.82945621832975
16000.0 77.71491945796495
16500.0 74.64300029530733
17000.0 74.43306145555815
17500.0 73.53852030243189
18000.0 69.39160905233749
18500.0 70.49073155388521
19000.0 68.39758711650697
19500.0 65.52610333816746
