Freq "Listening Window"
22.4 38.0933226236362
23.0 39.529419738601035
23.6 40.95456628619101
24.0 42.93820526608266
25.0 44.784945788926194
25.8 46.72917139709102
26.5 48.503112130810194
27.2 50.18813498658511
28.0 51.805277607121155
29.0 53.623072485805665
30.0 55.24636150027203
30.7 56.73447066194851
31.5 58.14438608233655
32.5 59.46597180352225
33.5 60.695846369745595
34.5 61.91696739473326
35.5 63.12775201759746
36.5 63.985011877639266
37.5 64.68654225807424
38.7 65.36552083932649
40.0 66.09764895909741
41.2 66.83975364988677
42.5 67.45123558173916
43.7 67.95022083795047
45.0 68.59585799730796
46.2 69.31798980092293
47.5 69.81774459774154
48.7 70.27410877654498
50.0 70.73975364988678
51.5 71.05123558173916
53.0 71.21672798633432
54.5 71.45022678077268
56.0 71.49457783323433
58.0 71.4953471532392
60.0 71.4634505123918
61.5 71.37359536763
63.0 71.15200087170075
65.0 70.86320193752624
67.0 70.54103829918608
69.0 70.15175164061463
71.0 69.6102032769838
73.0 69.18829648962682
75.0 69.0417823775916
77.5 69.19687403049686
80.0 69.84080048837707
82.5 70.77412073465158
85.0 71.99994529425132
87.5 73.33412183496797
90.0 74.7501910522619
92.5 76.21934905091352
95.0 77.64239035571148
97.5 79.06722979173396
100.0 80.61379794925924
103.0 82.19215599863419
106.0 83.69429968521446
109.0 85.06285001439615
112.0 86.23952604670019
115.0 87.14999945832561
118.0 87.86903837832746
122.0 88.27968295458572
125.0 88.63299588366155
128.0 88.80138699548752
132.0 89.10824835995912
136.0 89.18657866755058
140.0 89.27437425826152
145.0 89.41582889294928
150.0 89.42660452542903
155.0 89.46851544740704
160.0 89.53592013149627
165.0 89.52412882381864
170.0 89.52412882381864
175.0 89.56851544740704
180.0 89.66851544740703
185.0 89.68882624919974
190.0 89.87717790446662
195.0 89.78804974458755
200.0 89.66522580412587
206.0 89.44230565326912
212.0 89.16522580412587
218.0 88.8761275679779
224.0 88.67612756797791
230.0 88.58804974458756
236.0 88.67717790446663
240.0 88.97717790446663
250.0 88.90820026709615
258.0 88.55176366043926
265.0 88.05176366043926
272.0 88.10769087282566
280.0 88.38551228351992
290.0 88.79609308321639
300.0 89.2184748544689
307.0 89.775602443682
315.0 90.35273713503338
325.0 90.8209870125724
335.0 91.95575715120788
345.0 92.26746301356764
355.0 92.37940896698859
365.0 92.80266258063466
375.0 93.34480406825237
387.0 93.32475398129608
400.0 93.51397375059828
412.0 92.92606753851186
425.0 94.3830285750778
437.0 94.18821939044663
450.0 93.1238200117297
462.0 92.86330534761241
475.0 91.9931201685196
487.0 91.550079382898
500.0 91.30148374139884
515.0 92.61180897330989
530.0 90.36242411236226
545.0 88.9997314899534
560.0 90.20000805854511
580.0 90.00824280409212
600.0 89.42151908062019
615.0 88.34534850945607
630.0 87.38651096018091
650.0 86.91920207009746
670.0 85.29201141422766
690.0 84.9668509078606
710.0 85.9081830695549
730.0 86.0437439744788
750.0 86.01363991587273
775.0 85.12881404163804
800.0 84.97140333547406
825.0 84.70976816481227
850.0 84.1663621327316
875.0 85.24538958195589
900.0 84.59341405109888
925.0 85.77116933677924
950.0 85.46949202708667
975.0 86.20110291615168
1000.0 86.41062237051139
1030.0 87.69177978242979
1060.0 88.11875421423994
1090.0 85.89085207414082
1120.0 84.86819702618735
1150.0 86.72986573029583
1180.0 87.26623350088433
1220.0 86.6652594502105
1250.0 84.00387420671083
1280.0 84.4904469813086
1320.0 86.34304046262054
1360.0 84.97007821050211
1400.0 84.02055386461002
1450.0 85.1004073637609
1500.0 84.4879009768092
1550.0 82.8861961507873
1600.0 83.69584621842787
1650.0 81.80420015695239
1700.0 80.27939641483803
1750.0 81.79761756022582
1800.0 78.52410301687438
1850.0 81.1840578363759
1900.0 82.69874711438467
1950.0 82.9881182195311
2000.0 85.3479243525343
2060.0 83.44523648077416
2120.0 86.46576466490781
2180.0 82.60777948553412
2240.0 83.31370198892454
2300.0 79.52307929170341
2360.0 82.2631311747675
2400.0 79.30588174817439
2500.0 80.82830662264435
2580.0 80.59340676519669
2650.0 80.27508851535492
2720.0 80.98177680006958
2800.0 78.5401700753149
2900.0 80.23228342057783
3000.0 82.04848747816878
3070.0 80.46031909331413
3150.0 79.67552915626216
3250.0 80.692872968048
3350.0 81.26575734728803
3450.0 80.04782252700272
3550.0 79.2213114362419
3650.0 81.95743517449692
3750.0 83.34374227660206
3870.0 83.86145061166398
4000.0 83.40304414846928
4120.0 81.62100207790712
4250.0 80.57873749997279
4370.0 81.49817292581646
4500.0 81.0992674576097
4620.0 81.10094477340317
4750.0 80.97699106108283
4870.0 79.67512549835817
5000.0 79.27794147730334
5150.0 79.21455389768366
5300.0 80.94461759189794
5450.0 78.92722924836582
5600.0 78.83044720524249
5800.0 81.19962179253443
6000.0 83.2022629034634
6150.0 83.4965600998078
6300.0 81.16496736453513
6500.0 82.14744699131745
6700.0 84.06644864510376
6900.0 85.56256177784084
7100.0 86.8523947868608
7300.0 85.15230541240109
7500.0 85.29948878618774
7750.0 85.37805177461874
8000.0 84.60226425013934
8250.0 83.51331924856497
8500.0 82.56009586706764
8750.0 81.7905462040264
9000.0 83.04169919712817
9250.0 86.34651255173547
9500.0 86.60983083665604
9750.0 85.97400083706893
10000.0 86.29740034918436
10300.0 86.54899108089887
10600.0 88.09376532796475
10900.0 87.50544766334124
11200.0 88.19242140245217
11500.0 82.92594719953878
11800.0 84.82477927746561
12200.0 84.90124223452035
12500.0 83.47267342530346
12800.0 78.41051935209607
13200.0 81.73560868619434
13600.0 82.64285685652683
14000.0 82.01417534036231
14500.0 83.04661788977494
15000.0 84.78185236251912
15500.0 87.23289145148068
16000.0 85.61270573951215
16500.0 82.527972429455
17000.0 81.93193223309905
17500.0 81.9899838718153
18000.0 77.7924507666344
18500.0 78.34495514293779
19000.0 76.07601996959417
19500.0 73.90243578141104
