Freq "Front Wall Bounce"
20.5078 42.520242330410795
21.9727 44.51231559297712
23.4375 44.689865824310644
24.9023 47.83982584778026
26.3672 50.022830822150226
27.832 50.70096761613563
29.2969 53.19640333054831
30.7617 54.86200748737694
32.2266 56.548377853757486
33.6914 58.19296750594202
35.1562 59.30597816887956
36.6211 60.6115334837143
38.0859 62.141926244313694
39.5508 63.299910234599224
41.0156 64.39001527289047
42.4805 65.62296542280674
43.9453 66.78724135576688
45.4102 67.82651444966773
46.875 68.84699952559777
48.3398 69.99798702868115
51.2695 71.87388424325017
52.7344 72.76607042281516
54.1992 73.62376474674383
55.6641 74.49363547134328
58.5938 75.83753002412077
60.0586 76.60934464921479
62.9883 77.99656260191249
64.4531 78.41122248067911
67.3828 79.17706670820387
68.8477 79.4293394309017
71.7773 80.26003928329867
74.707 80.8379583914889
77.6367 80.89647600149864
79.1016 81.05749117394114
82.0312 81.63562178456343
84.9609 81.74750660909308
87.8906 81.56447121229634
90.8203 81.98462186485752
95.2148 82.11859398778601
98.1445 82.26740453351175
101.074 82.15497693469878
105.469 82.31015989791779
108.398 82.28938160674087
112.793 82.59601993776111
117.188 82.56768516915325
120.117 82.69687597106636
124.512 82.78365736524958
128.906 82.70388957517706
133.301 82.67257153235394
139.16 82.67332843493934
143.555 82.73159477373471
147.949 82.65202875979773
153.809 82.6263520625656
159.668 82.50347501094407
165.527 82.4037169576573
171.387 82.35291919691802
177.246 82.49089561552755
183.105 82.19616315983873
188.965 82.01689272566864
196.289 81.88297287915769
203.613 81.74753930933271
210.938 81.56935126636223
218.262 81.19988591081777
225.586 81.02934840459336
232.91 80.95210289605298
241.699 80.74052649930762
250.488 80.4500657741539
259.277 80.35365552553928
268.066 80.17881462788014
276.855 80.04833082757942
287.109 79.54745784289422
297.363 79.55706891687352
307.617 79.39182103142552
319.336 79.23189606504457
329.59 78.62389869020642
341.309 78.65216432038017
353.027 78.38432125212562
366.211 77.47888635532239
379.395 76.6419882192635
392.578 77.80019545750966
405.762 80.3287025932106
420.41 79.95516388095352
435.059 79.29179005091633
451.172 79.72192792890256
465.82 79.43963338550651
483.398 79.27845537356089
499.512 79.13498050794762
517.09 79.3271611744113
536.133 79.67789473782209
555.176 79.56142143625794
574.219 79.68170577223559
594.727 79.42309907763008
615.234 79.38956294477019
637.207 79.61118489423708
659.18 79.33149756121382
682.617 79.17514205858991
707.52 79.37515694893737
732.422 78.98723289479355
757.324 78.84417806877497
785.156 78.84405426015991
811.523 78.74854110122865
840.82 79.34894320622551
870.117 79.23335094346594
900.879 79.947591280453
933.105 80.21666262880849
965.332 81.6748095480652
1000.49 79.77831670252147
1035.64 81.49084257126772
1072.27 82.32549012364036
1108.89 81.48643532355878
1148.44 82.16023334195418
1189.45 83.152926663053
1230.47 81.93193422341234
1274.41 83.90168609508547
1319.82 81.47624989409255
1366.7 81.718022078544
1413.57 81.86635031210115
1463.38 82.51875267100627
1516.11 81.53253641908233
1568.85 78.81038223750717
1624.51 79.40238156870423
1681.64 80.94386086999775
1741.7 81.1101396952637
1803.22 81.25030697287458
1866.21 80.44821909215645
1932.13 79.71403970770216
1999.51 79.99863781139626
2069.82 80.64786690440077
2143.07 80.74032515888368
2219.24 80.01678977201298
2296.88 79.50889359771283
2378.91 79.71205643524895
2462.4 81.42038270989674
2548.83 82.33389742581734
2639.65 81.89417646940102
2731.93 81.51000578016993
2828.61 82.20323472151831
2928.22 82.98804730170401
3030.76 83.26557969478439
3137.7 83.177324712585
3249.02 82.87836511512185
3363.28 83.26735362305487
3481.93 83.88150442833022
3604.98 84.06218381770775
3732.42 83.7408458807553
3864.26 82.14215194025157
4000.49 81.33030288114877
4141.11 82.03250415474254
4287.6 81.62243587700362
4438.48 81.63203609287065
4595.21 80.60200177227152
4756.35 80.96979810748077
4924.8 81.79420688763106
5097.66 81.50236490261025
5277.83 81.1343963213862
5463.87 80.56298732193254
5657.23 80.45294660603818
5856.45 80.2181979728332
6062.99 81.11249238960916
6276.86 80.36374904281247
6498.05 80.44142612580058
6726.56 80.78855439879666
6963.87 80.77232630145123
7209.96 81.18712783610597
7464.84 80.99487406781795
7727.05 81.15498465514722
7999.51 80.97535472201491
8282.23 80.611692086057
8573.73 79.96839626800471
8876.95 79.61653002029247
9188.96 79.85646954339244
9514.16 79.73792396152986
9849.61 79.52258656978611
10196.8 79.9919624488751
10555.7 80.36803567496797
10927.7 80.31513607452344
11313.0 79.69994314464272
11712.9 79.69959562268916
12126.0 79.62773099832287
12553.7 79.00672244400123
12996.1 79.47015216430346
13454.6 80.3428548002206
13929.2 80.85449045329528
14419.9 81.2527929435031
14928.2 81.40474229154539
15455.6 81.13379750050608
16000.5 81.35912548074212
16564.5 81.57870161403234
17148.9 81.66411942327746
17752.4 80.5203094505856
18379.4 76.22093334531733
19026.9 70.59822691493541
19697.8 65.69415514091685
19999.5 64.34760506974581
