Freq "On Axis"
22.4 35.617721518987324
23.0 36.417721518987335
23.6 37.31772151898731
24.0 38.117721518987324
25.0 38.917721518987335
25.8 39.71772151898732
26.5 40.51772151898733
27.2 41.31772151898731
28.0 42.117721518987324
29.0 42.917721518987335
30.0 43.617721518987324
30.7 44.417721518987335
31.5 45.21772151898732
32.5 45.917721518987335
33.5 46.71772151898732
34.5 47.417721518987335
35.5 48.21772151898732
36.5 49.01772151898733
37.5 49.71772151898732
38.7 50.51772151898733
40.0 51.31772151898734
41.2 52.117721518987324
42.5 52.917721518987335
43.7 53.71772151898732
45.0 54.51772151898733
46.2 55.31772151898731
47.5 56.117721518987324
48.7 57.01772151898733
50.0 57.81772151898731
51.5 58.617721518987324
53.0 59.417721518987335
54.5 60.31772151898731
56.0 61.117721518987324
58.0 61.917721518987335
60.0 62.71772151898732
61.5 63.417721518987335
63.0 64.21772151898732
65.0 65.01772151898733
67.0 65.71772151898733
69.0 66.4177215189873
71.0 67.21772151898733
73.0 67.91772151898732
75.0 68.61772151898732
77.5 69.21772151898732
80.0 69.91772151898734
82.5 70.51772151898733
85.0 71.01772151898733
87.5 71.51772151898733
90.0 72.01772151898733
92.5 72.41772151898734
95.0 72.81772151898731
97.5 73.11772151898732
100.0 73.31772151898733
103.0 73.61772151898732
106.0 73.81772151898734
109.0 73.9177215189873
112.0 73.9177215189873
115.0 73.81772151898734
118.0 73.71772151898733
122.0 73.51772151898733
125.0 73.31772151898733
128.0 73.21772151898733
132.0 73.11772151898732
136.0 73.21772151898733
140.0 73.21772151898733
145.0 73.31772151898733
150.0 73.21772151898733
155.0 73.21772151898733
160.0 73.11772151898732
165.0 73.01772151898733
170.0 72.81772151898731
175.0 72.61772151898732
180.0 72.31772151898733
185.0 72.21772151898733
190.0 72.41772151898734
195.0 72.71772151898735
200.0 73.01772151898733
206.0 73.11772151898732
212.0 73.11772151898732
218.0 73.21772151898733
224.0 73.31772151898733
230.0 73.41772151898732
236.0 73.51772151898733
240.0 73.61772151898732
250.0 73.71772151898733
258.0 73.71772151898733
265.0 73.71772151898733
272.0 73.61772151898732
280.0 73.41772151898732
290.0 73.21772151898733
300.0 73.01772151898733
307.0 72.81772151898731
315.0 72.61772151898732
325.0 72.61772151898732
335.0 72.71772151898735
345.0 72.91772151898732
355.0 73.21772151898733
365.0 73.61772151898732
375.0 74.01772151898733
387.0 74.31772151898733
400.0 74.51772151898733
412.0 74.51772151898733
425.0 74.51772151898733
437.0 74.31772151898733
450.0 74.01772151898733
462.0 73.51772151898733
475.0 73.01772151898733
487.0 72.41772151898734
500.0 71.71772151898732
515.0 71.01772151898733
530.0 70.61772151898732
545.0 70.51772151898733
560.0 70.71772151898733
580.0 70.91772151898732
600.0 71.11772151898732
615.0 71.11772151898732
630.0 71.11772151898732
650.0 71.01772151898733
670.0 70.71772151898733
690.0 70.81772151898733
710.0 71.4177215189873
730.0 72.11772151898732
750.0 72.61772151898732
775.0 72.81772151898731
800.0 72.81772151898731
825.0 72.81772151898731
850.0 72.71772151898735
875.0 72.51772151898733
900.0 72.41772151898734
925.0 72.41772151898734
950.0 72.31772151898733
975.0 71.91772151898732
1000.0 71.61772151898732
1030.0 71.4177215189873
1060.0 71.61772151898732
1090.0 72.41772151898734
1120.0 72.81772151898731
1150.0 72.41772151898734
1180.0 71.4177215189873
1220.0 70.91772151898732
1250.0 70.21772151898735
1280.0 68.61772151898732
1320.0 67.61772151898732
1360.0 68.51772151898733
1400.0 69.71772151898733
1450.0 70.31772151898731
1500.0 71.11772151898732
1550.0 72.41772151898734
1600.0 72.41772151898734
1650.0 70.71772151898733
1700.0 69.41772151898732
1750.0 69.31772151898733
1800.0 69.61772151898732
1850.0 70.11772151898732
1900.0 70.91772151898732
1950.0 71.71772151898732
2000.0 72.61772151898732
2060.0 73.01772151898733
2120.0 73.21772151898733
2180.0 72.71772151898735
2240.0 72.61772151898732
2300.0 72.51772151898733
2360.0 72.31772151898733
2400.0 72.31772151898733
2500.0 72.81772151898731
2580.0 73.11772151898732
2650.0 72.91772151898732
2720.0 73.61772151898732
2800.0 74.01772151898733
2900.0 74.31772151898733
3000.0 75.01772151898733
3070.0 75.21772151898735
3150.0 75.61772151898732
3250.0 75.51772151898733
3350.0 76.11772151898732
3450.0 77.01772151898733
3550.0 77.41772151898734
3650.0 77.01772151898733
3750.0 77.01772151898733
3870.0 76.4177215189873
4000.0 76.4177215189873
4120.0 76.31772151898734
4250.0 76.31772151898734
4370.0 76.11772151898732
4500.0 75.61772151898732
4620.0 75.41772151898732
4750.0 75.91772151898732
4870.0 76.4177215189873
5000.0 76.71772151898732
5150.0 76.81772151898733
5300.0 77.21772151898733
5450.0 76.61772151898732
5600.0 76.51772151898733
5800.0 76.01772151898733
6000.0 74.71772151898733
6150.0 73.71772151898733
6300.0 73.51772151898733
6500.0 75.01772151898733
6700.0 76.01772151898733
6900.0 76.01772151898733
7100.0 75.51772151898733
7300.0 75.41772151898732
7500.0 74.51772151898733
7750.0 75.01772151898733
8000.0 75.71772151898733
8250.0 76.21772151898733
8500.0 76.91772151898732
8750.0 77.41772151898734
9000.0 75.81772151898733
9250.0 73.61772151898732
9500.0 74.01772151898733
9750.0 74.11772151898732
10000.0 71.71772151898732
10300.0 72.61772151898732
10600.0 70.81772151898733
10900.0 71.21772151898733
11200.0 75.41772151898732
11500.0 75.41772151898732
11800.0 75.71772151898733
12200.0 74.41772151898732
12500.0 73.41772151898732
12800.0 71.11772151898732
13200.0 72.01772151898733
13600.0 69.01772151898733
14000.0 65.81772151898733
14500.0 71.01772151898733
15000.0 74.01772151898733
15500.0 69.41772151898732
16000.0 67.31772151898733
16500.0 71.71772151898732
17000.0 68.21772151898733
17500.0 71.11772151898732
18000.0 71.31772151898734
18500.0 63.617721518987324
19000.0 70.01772151898733
19500.0 73.31772151898733
