Freq,On Axis,Listening Window,Sound Power,Early Reflections,Early Reflections DI,Sound Power DI,DI offset
22.4,25.475949367088603,29.104007503705944,25.510858650323186,26.962420024884963,42.14158747882098,43.59314885338276,40
23.0,27.37594936708861,29.59451488658415,26.36344975408177,27.841848033148025,41.752666853436125,43.23106513250238,40
23.6,28.975949367088603,29.719612226406795,27.06562469394173,28.539312423842134,41.18029980256466,42.65398753246507,40
24.0,30.275949367088614,30.178187354878318,28.177422006511918,29.448721315978574,40.729466038899744,42.0007653483664,40
25.0,31.275949367088614,30.72424683794854,29.02941476560177,30.123986600481274,40.60026023746727,41.69483207234677,40
25.8,31.975949367088603,31.07633568881174,29.41208894444624,30.33707988893731,40.73925579987443,41.6642467443655,40
26.5,32.37594936708861,31.43843332334704,29.270064538684622,29.905334707625414,41.53309861572163,42.16836878466242,40
27.2,33.275949367088614,33.02659385270748,31.170426629741613,31.425965827119583,41.600628025587895,41.856167222965865,40
28.0,34.17594936708862,34.96535782287468,33.528421151264226,33.631130512671334,41.334227310203346,41.436936671610454,40
29.0,34.67594936708862,37.17376087002101,35.98484561373665,36.0127707126298,41.16099015739121,41.18891525628436,40
30.0,35.5759493670886,40.21091226295589,38.7700770364532,38.96245564650668,41.248456616449204,41.440835226502685,40
30.7,37.775949367088614,41.70354518925127,40.55113220429867,40.77030479125072,40.93324039800055,41.152412984952605,40
31.5,39.4759493670886,42.670385258124824,42.160194993903914,42.24109998862393,40.429285269500895,40.51019026422091,40
32.5,40.9759493670886,42.98125304479116,43.80130965986045,43.532262673785866,39.448990371005294,39.17994338493071,40
33.5,42.0759493670886,43.79057859249424,44.667293825356595,44.371603287845986,39.41897530464826,39.12328476713765,40
34.5,42.775949367088614,44.2339685668279,45.19326866398667,45.066678726093315,39.16728984073458,39.040699902841226,40
35.5,43.5759493670886,44.120404552894556,45.45552748316068,45.605948348255836,38.51445620463872,38.664877069733876,40
36.5,45.5759493670886,46.06544270968017,46.092339662260414,46.296714721807305,39.768727987872865,39.973103047419755,40
37.5,46.775949367088614,47.682837177579316,46.65128407186249,46.82891676787382,40.853920409705495,41.031553105716824,40
38.7,47.775949367088614,49.05007893678068,47.41818489334467,47.47998089257469,41.57009804420599,41.631894043436006,40
40.0,48.87594936708861,50.76031714924342,49.823245879242265,49.5321626070601,41.22815454218332,40.937071270001155,40
41.2,49.9759493670886,53.56048254548146,53.615314032959745,52.86513813910521,40.69534440637625,39.94516851252172,40
42.5,51.37594936708861,55.29893739896728,55.988077953680786,55.27469280951301,40.02424458945427,39.310859445286496,40
43.7,52.37594936708861,53.750540705587596,54.350477769316896,54.09063893412717,39.659901771460426,39.4000629362707,40
45.0,52.9759493670886,52.50945858463642,52.84545980548195,52.86356285561452,39.6458957290219,39.66399877915447,40
46.2,52.9759493670886,52.76527988917563,52.15862641327452,51.87243478385095,40.89284510532468,40.60665347590111,40
47.5,52.9759493670886,53.54770312220607,52.549650559196195,52.37498848022993,41.17271464197614,40.99805256300988,40
48.7,54.9759493670886,55.93303979330547,56.620916370962576,57.13892797433651,38.79411181896896,39.31212342234289,40
50.0,56.5759493670886,57.992666606469314,59.646580739277255,60.454041242761704,37.53862536370761,38.34608586719206,40
51.5,57.0759493670886,57.765649510680134,59.11690610975354,59.90776117240067,37.857888338279466,38.64874340092659,40
53.0,56.775949367088614,55.48321183096091,56.397596187020426,56.89954815036832,38.58366368059259,39.085615643940486,40
54.5,56.67594936708862,55.69550596775183,54.79099329835775,55.234608855007465,40.46089711274436,40.90451266939408,40
56.0,57.87594936708861,57.31204123227484,55.49192874019529,56.14230309109014,41.169738141184695,41.820112492079545,40
58.0,59.87594936708861,59.73821526827733,57.67957577096182,58.63623418764438,41.10198108063295,42.05863949731551,40
60.0,61.275949367088614,61.25545623720829,59.17658721667742,60.194267612967096,41.0611886242412,42.078869020530874,40
61.5,62.4759493670886,62.34434622740352,60.4115194944732,61.340293819947874,41.004052407455646,41.93282673293032,40
63.0,63.775949367088614,63.323517490492236,61.810678525782606,62.6285161574596,40.695001333032636,41.51283896470963,40
65.0,64.9759493670886,64.4625198309672,63.217272025090466,63.945610575252374,40.51690925571482,41.24524780587673,40
67.0,66.07594936708863,65.98002473022096,64.44885311682306,65.12489830321566,40.8551264270053,41.5311716133979,40
69.0,67.17594936708862,67.13880109451519,65.64421431386216,66.262132220285,40.87666887423019,41.49458678065302,40
71.0,68.37594936708861,68.10410816815211,66.84948375417514,67.38441015708318,40.71969801106893,41.25462441397697,40
73.0,69.37594936708861,69.24565955505624,68.22315026937407,68.61760917197448,40.62805038308176,41.02250928568216,40
75.0,70.57594936708861,70.44519116414686,69.66070764216524,69.94263513735017,40.5025560267967,40.78448352198163,40
77.5,71.6759493670886,71.62170292394723,71.03344723481821,71.23844703465068,40.38325588929655,40.588255689129014,40
80.0,72.9759493670886,72.8118297185062,72.34445510465537,72.49425553599256,40.31757418251364,40.467374613850836,40
82.5,74.1759493670886,74.01107404727053,73.80190080325313,73.82987869015643,40.18119535711409,40.20917324401739,40
85.0,75.37594936708861,75.23281681470273,75.11297621086966,75.09585913477007,40.136957679932664,40.11984060383307,40
87.5,76.57594936708861,76.4549479304631,76.3325247775452,76.32652273653774,40.128425193925366,40.122423152917904,40
90.0,77.6759493670886,77.54312902084855,77.46455389658317,77.44338080310516,40.0997482177434,40.078575124265384,40
92.5,78.57594936708863,78.49888046956924,78.35846532763217,78.33247336185575,40.166407107713496,40.14041514193707,40
95.0,79.27594936708861,79.26520778239923,79.08367049211807,79.10444543989554,40.16076234250369,40.181537290281156,40
97.5,79.87594936708861,79.82067831766584,79.58275685316849,79.6643183426356,40.15635997503024,40.23792146449735,40
100.0,80.27594936708861,80.33178894394638,79.91994833609805,80.10250836916839,40.22928057477799,40.41184060784833,40
103.0,80.57594936708861,80.65392528490239,80.09729337276393,80.38215969662275,40.271765588279635,40.55663191213846,40
106.0,80.77594936708861,80.94312315271516,80.23821354076674,80.61918456229849,40.323938590416674,40.70490961194842,40
109.0,80.9759493670886,81.12093154280062,80.39799555219501,80.79100233168134,40.32992921111928,40.722935990605606,40
112.0,81.07594936708863,81.20979306940961,80.45694984462982,80.88292406238916,40.32686900702045,40.752843224779795,40
115.0,81.07594936708863,81.27722262693413,80.46698483686463,80.91985265927721,40.35736996765692,40.81023779006951,40
118.0,81.17594936708859,81.29888046956924,80.4455351346497,80.90335603834123,40.39552443122801,40.85334533491954,40
122.0,81.17594936708859,81.27646104512908,80.4756822905658,80.91050156363553,40.36595948149355,40.80077875456328,40
125.0,81.27594936708861,81.27594936708861,80.52219580770712,80.91465044478433,40.361298922304286,40.753753559381494,40
128.0,81.27594936708861,81.32067831766584,80.59044814947988,80.94820643070679,40.37247188695905,40.730230168185955,40
132.0,81.37594936708861,81.33178894394636,80.65777725239009,80.96548845706843,40.36630048687793,40.674011691556274,40
136.0,81.37594936708861,81.35392528490239,80.72740565110111,81.00005104178081,40.35387424312158,40.62651963380128,40
140.0,81.37594936708861,81.36520778239922,80.71675758045929,80.99678379921669,40.36842398318254,40.64845020193994,40
145.0,81.4759493670886,81.48768522420447,80.73849305655716,81.05924188194437,40.428443342260096,40.74919216764731,40
150.0,81.6759493670886,81.59862595538972,80.78140813551731,81.14402966145607,40.45459629393365,40.81721781987241,40
155.0,81.77594936708861,81.69888046956926,80.79636514542713,81.19786970344224,40.501010766127024,40.90251532414213,40
160.0,81.87594936708861,81.7774725765904,80.82965661985587,81.27244162902518,40.50503094756522,40.94781595673453,40
165.0,81.9759493670886,81.8103066884242,80.75745700883519,81.2153488575157,40.5949578309085,41.052849679589016,40
170.0,81.87594936708861,81.7115700511743,80.63265042938208,81.09688078277856,40.61468926839575,41.078919621792224,40
175.0,81.87594936708861,81.64618681524523,80.50940169037128,80.9903903752472,40.65579643999803,41.13678512487395,40
180.0,81.9759493670886,81.74592319315231,80.52132006074822,81.0112997610146,40.73462343213771,41.224603132404084,40
185.0,82.07594936708861,81.78053592836287,80.60209598522404,81.06005045714191,40.720485471220954,41.17843994313883,40
190.0,82.17594936708862,81.90345473391251,80.6853845896874,81.12023034966607,40.78322438424644,41.21807014422511,40
195.0,82.17594936708862,81.86298529140264,80.55507935651222,81.0119993818317,40.85098590957094,41.307905934890414,40
200.0,82.27594936708861,81.89504184802054,80.35684808360523,80.93739012427051,40.95765172375003,41.53819376441531,40
206.0,82.37594936708861,82.03985134784904,80.05924181338551,80.86397035240047,41.175880995448566,41.980609534463525,40
212.0,82.4759493670886,82.18653121117713,79.75034684272698,80.87510730439287,41.311423906784256,42.43618436845014,40
218.0,82.4759493670886,82.21632190710895,79.40454247893545,80.78055828293316,41.43576362417579,42.811779428173494,40
224.0,82.37594936708861,82.08626394281863,79.0304853772297,80.58449176807481,41.50177217474382,43.05577856558894,40
230.0,82.27594936708861,81.88680468798945,78.67870766944885,80.2679295157121,41.618875172277356,43.2080970185406,40
236.0,82.27594936708861,81.855420781954,78.4486872114612,80.09833921823805,41.75708156371594,43.40673357049279,40
240.0,82.27594936708861,81.86723022285945,78.18743507801223,79.99242622891836,41.874803993941086,43.67979514484722,40
250.0,82.27594936708861,81.94330292853269,78.08415938682485,80.07384492028253,41.86945800825016,43.85914354170784,40
258.0,82.27594936708861,82.09320424144535,78.25157522238351,80.31145937408526,41.78174486736009,43.84162901906184,40
265.0,82.27594936708861,82.16772548818422,78.61343050529648,80.60767007758812,41.56005541059609,43.55429498288774,40
272.0,82.27594936708861,82.23380942569642,79.0420141734458,80.83305401154195,41.400755414154474,43.191795252250614,40
280.0,82.4759493670886,82.44363284525997,79.71721105136767,81.23078818249576,41.21284466276421,42.7264217938923,40
290.0,82.77594936708861,82.75494207827757,80.29330307376942,81.65164538113594,41.10329669714163,42.46163900450814,40
300.0,82.77594936708861,82.78768522420448,80.44457744813475,81.77383188612541,41.01385333807907,42.34310777606973,40
307.0,82.5759493670886,82.53229408556095,80.0311547875657,81.37469030168819,41.15760378387276,42.50113929799525,40
315.0,82.4759493670886,82.3774725765904,79.79630239733696,81.17723287160007,41.20023970499034,42.58117017925345,40
325.0,82.37594936708861,82.2662219379922,79.71887740914234,81.05185097472302,41.214370963269175,42.54734452884986,40
335.0,82.27594936708861,82.02522969265256,79.48541817554236,80.79553971501959,41.22968997763297,42.539811517110195,40
345.0,82.17594936708862,81.86298529140264,79.14156145115645,80.49739047644611,41.36559481495652,42.72142384024619,40
355.0,82.37594936708861,81.91443371541133,78.68658790939817,80.25968751362285,41.654746201788484,43.227845806013164,40
365.0,82.5759493670886,82.19075320153677,78.43798968743486,80.31624443824215,41.874508763294614,43.7527635141019,40
375.0,82.87594936708861,82.47900763831139,78.45716212156147,80.52771986516314,41.95128777314825,44.02184551674992,40
387.0,82.9759493670886,82.555420781954,78.50774928336472,80.60342594432657,41.951994837627424,44.04767149858928,40
400.0,82.77594936708861,82.38314072049214,78.19471403600825,80.34993239198214,42.03320832851,44.188426684483886,40
412.0,82.4759493670886,81.93685688125991,77.50363459668479,79.7766109187952,42.160245962464714,44.43322228457512,40
425.0,81.9759493670886,81.40713156246485,76.60161138328736,79.04815947603551,42.35897208642935,44.80552017917749,40
437.0,81.77594936708861,81.23685688125991,76.14225267807318,78.78552926965112,42.45132761160879,45.094604203186734,40
450.0,81.87594936708861,81.4644333400562,76.45286094069054,79.14113803755247,42.32329530250374,45.01157239936566,40
462.0,82.17594936708862,81.82398202593419,76.98766460585459,79.59561655973042,42.22836546620377,44.836317420079595,40
475.0,82.17594936708862,81.90812504775667,77.21460401633406,79.82124198046749,42.08688306728918,44.693521031422605,40
487.0,81.27594936708861,81.05116428620235,76.76132806402573,79.16039925010163,41.89076503610072,44.28983622217662,40
500.0,79.1759493670886,78.84330292853271,74.94554321877355,77.12326297948871,41.72003994904399,43.89775970975916,40
515.0,76.4759493670886,76.05009979546882,72.40573284488961,74.36280327381652,41.6872965216523,43.64436695057921,40
530.0,78.37594936708861,77.8263260691282,73.29731622429331,75.47261810303549,42.35370796609271,44.52900984483489,40
545.0,82.9759493670886,82.2129160619904,76.00507312462895,79.0994158891432,43.113500172847196,46.20784293736145,40
560.0,85.87594936708861,85.12492149310604,78.62896978752772,81.90601021362733,43.21891127947872,46.49595170557832,40
580.0,87.07594936708861,86.34609733303786,79.55203574629256,82.99098433048658,43.35511300255128,46.7940615867453,40
600.0,87.27594936708861,86.57839900307506,79.68808498979274,83.20624942236472,43.37214958071034,46.89031401328232,40
615.0,86.57594936708861,86.00353955544244,79.06613632207518,82.64477311214806,43.358766443294385,46.93740323336726,40
630.0,85.37594936708861,84.83768936056198,77.83759099875418,81.53016433998093,43.30752502058105,47.0000983618078,40
650.0,84.1759493670886,83.67677565540194,76.6023331357752,80.42202995784099,43.25474569756095,47.07444251962674,40
670.0,83.4759493670886,82.91880141160907,75.92549091596554,79.77610388497484,43.14269752663422,46.99331049564353,40
690.0,82.87594936708861,82.16335593452698,75.2349452092908,79.06713064789845,43.096225286628524,46.928410725236176,40
710.0,81.77594936708861,80.93344534675315,74.05117579608326,77.83122877558476,43.102216571168384,46.88226955066989,40
730.0,80.77594936708861,79.79096472768306,72.65011685338304,76.46379325941722,43.327171468265846,47.14084787430002,40
750.0,80.6759493670886,79.74631080392535,72.19293274286233,76.15145552137291,43.594855282552444,47.55337806106303,40
775.0,81.17594936708859,80.35382155033517,72.4624936449722,76.59495490536544,43.75886664496973,47.89132790536297,40
800.0,81.4759493670886,80.62077954591855,72.58095477851498,76.82421279013211,43.79656675578644,48.03982476740357,40
825.0,81.57594936708861,80.66738285973257,72.56425718823628,76.82213897629664,43.84524388343593,48.10312567149629,40
850.0,81.87594936708861,80.97106437090606,72.84107886952206,77.09289739917723,43.87816697172883,48.129985501384,40
875.0,82.27594936708861,81.27119547781699,73.07699140062113,77.3385526013175,43.932642876499486,48.19420407719586,40
900.0,82.5759493670886,81.43470329189374,72.8933953018798,77.28810476729767,44.14659852459607,48.541307990013934,40
925.0,82.37594936708861,81.2082160064712,72.38206281770503,76.91380300935158,44.29441299711962,48.82615318876617,40
950.0,81.37594936708861,80.01782471304162,70.64037754778023,75.37440602746105,44.64341868558057,49.37744716526139,40
975.0,81.17594936708859,79.86894358339185,70.27832803525672,75.18733579281,44.68160779058185,49.59061554813513,40
1000.0,83.1759493670886,81.95265303991881,72.56700674674933,77.49309599822197,44.45955704169684,49.385646293169486,40
1030.0,84.4759493670886,83.31252156680272,73.95855304135414,78.88604703135375,44.42647453544896,49.35396852544858,40
1060.0,83.87594936708861,82.53885525727216,73.08648831491641,78.02495051689789,44.51390474037427,49.45236694235575,40
1090.0,82.37594936708861,81.21827489407174,72.50574681411182,77.20435419005902,44.01392070401272,48.712528079959924,40
1120.0,81.77594936708861,80.09797048122213,70.85853994752138,75.31839211256919,44.77957836865295,49.239430533700755,40
1150.0,80.27594936708861,77.95905288869245,69.59618853112003,72.87102732341474,45.08802556527772,48.36286435757242,40
1180.0,77.27594936708861,74.91975867178509,67.85201363150823,70.34335145932658,44.576407212458506,47.06774504027686,40
1220.0,78.27594936708861,76.21565351750583,66.92516016264025,70.9435932366124,45.27206028089343,49.290493354865575,40
1250.0,79.4759493670886,76.91155076144292,68.02348150316728,71.48767455263943,45.42387620880349,48.88806925827565,40
1280.0,78.57594936708863,76.14508975245785,68.90737573572885,71.83139909615186,44.313690656305994,47.237714016729,40
1320.0,78.1759493670886,76.07412479872276,68.9959116497737,72.30652115065043,43.76760364807234,47.07821314894906,40
1360.0,77.9759493670886,76.39498032864583,69.95429811185879,73.37159626957396,43.02338405907187,46.44068221678704,40
1400.0,77.6759493670886,76.47923179505037,69.76745429811136,73.54933253877938,42.929899256270986,46.71177749693901,40
1450.0,78.1759493670886,76.69453616531862,68.50926114191755,72.86673501711945,43.82780114819917,48.185275023401076,40
1500.0,78.1759493670886,76.64157776192174,68.85639231239777,73.06333785967603,43.57823990224571,47.785185449523965,40
1550.0,77.5759493670886,76.70073328028845,69.39100304178908,73.32529271152684,43.375440568761604,47.30973023849937,40
1600.0,78.57594936708863,77.49306017099678,69.52564950945354,73.93607765774875,43.55698251324803,47.96741066154324,40
1650.0,79.9759493670886,78.15841754121364,68.74935943356725,73.51961145913538,44.63880608207826,49.40905810764639,40
1700.0,79.4759493670886,77.16787613240369,66.2375196360691,71.516602641279,45.6512734911247,50.930356496334596,40
1750.0,78.87594936708861,76.5059302755309,65.4662422380673,70.70893429364794,45.79699598188296,51.039688037463605,40
1800.0,79.77594936708861,77.6023187375934,67.06492197066164,72.08905001687677,45.513268720716624,50.53739676693175,40
1850.0,83.07594936708861,80.29193929019826,69.32917638189483,74.55747145361708,45.734467836581175,50.96276290830343,40
1900.0,83.37594936708861,81.10511148078346,70.63521072968729,75.75542767529201,45.34968380549145,50.469900751096176,40
1950.0,82.77594936708861,80.88424548319513,70.81230478078884,75.74209976581695,45.142145717378185,50.071940702406295,40
2000.0,81.77594936708861,79.95975714486693,70.59733362457622,75.16204393166689,44.79771321320004,49.362423520290704,40
2060.0,81.4759493670886,79.76868195985377,71.17697416822034,75.38312854213936,44.385553417714405,48.591707791633425,40
2120.0,81.17594936708859,79.22151948786454,71.37369726668426,75.18347066799231,44.03804881987223,47.84782222118028,40
2180.0,80.57594936708861,77.65157431854944,70.88359745812382,73.83963863996627,43.81193567858317,46.76797686042562,40
2240.0,79.87594936708861,76.6301322361506,71.8336576982968,74.38906167357159,42.24107056257901,44.7964745378538,40
2300.0,77.87594936708861,75.59438686230303,73.11269552876671,75.61046112334931,39.983925738953715,42.48169133353632,40
2360.0,75.37594936708861,73.95377061516209,73.65785848290169,76.28189858103674,37.67187203412534,40.2959121322604,40
2400.0,74.27594936708861,75.86965140645957,73.55461759480555,76.50030989774426,39.36934150871531,42.31503381165402,40
2500.0,72.6759493670886,75.78403380708266,72.99437735952553,76.21268239118523,39.57135141589744,42.789656447557135,40
2580.0,70.0759493670886,74.65799070653782,71.86098327500828,75.25871430285764,39.399276403680176,42.797007431529536,40
2650.0,72.5759493670886,75.45622750116621,71.35772434971851,75.03662623294247,40.419601268223744,44.0985031514477,40
2720.0,75.27594936708861,78.00429507233726,71.99146729940895,76.12539204680171,41.87890302553555,46.012827772928304,40
2800.0,77.4759493670886,79.27081628557829,71.4708752668217,76.01955652168864,43.25125976388965,47.7999410187566,40
