Freq,On Axis,Listening Window,Sound Power,Early Reflections,Early Reflections DI,Sound Power DI,DI offset
22.4,24.10000000000001,27.728058136617378,24.134909283234563,25.58647065779637,42.14158747882101,43.593148853382814,40
23.0,26.000000000000014,28.218565519495556,24.987500386993148,26.46589866605946,41.7526668534361,43.23106513250241,40
23.6,27.60000000000001,28.343662859318172,25.689675326853106,27.16336305675351,41.18029980256466,42.65398753246507,40
24.0,28.89999999999999,28.802237987789724,26.801472639423295,28.072771948890008,40.729466038899716,42.00076534836643,40
25.0,29.89999999999999,29.34829747085992,27.653465398513177,28.74803723339268,40.60026023746724,41.69483207234674,40
25.8,30.60000000000001,29.700386321723144,28.036139577357616,28.961130521848716,40.73925579987443,41.66424674436553,40
26.5,31.000000000000014,30.062483956258447,27.894115171596,28.52938534053682,41.53309861572163,42.16836878466245,40
27.2,31.89999999999999,31.650644485618884,29.794477262653018,30.05001646003099,41.600628025587895,41.856167222965865,40
28.0,32.8,33.58940845578606,32.1524717841756,32.25518114558277,41.33422731020329,41.436936671610454,40
29.0,33.3,35.79781150293242,34.60889624664803,34.63682134554121,41.16099015739121,41.18891525628439,40
30.0,34.2,38.83496289586729,37.39412766936461,37.58650627941806,41.24845661644923,41.440835226502685,40
30.7,36.39999999999999,40.32759582216268,39.175182837210045,39.3943554241621,40.93324039800058,41.15241298495263,40
31.5,38.10000000000001,41.2944358910362,40.78424562681532,40.865150621535335,40.429285269500866,40.51019026422088,40
32.5,39.60000000000001,41.60530367770254,42.42536029277183,42.15631330669724,39.448990371005294,39.17994338493071,40
33.5,40.7,42.41462922540565,43.291344458268,42.99565392075736,39.418975304648285,39.12328476713765,40
34.5,41.39999999999999,42.8580191997393,43.81731929689805,43.69072935900472,39.16728984073458,39.040699902841254,40
35.5,42.2,42.74445518580596,44.079578116072085,44.22999898116724,38.51445620463872,38.664877069733876,40
36.5,44.2,44.68949334259155,44.71639029517182,44.92076535471871,39.768727987872836,39.97310304741973,40
37.5,45.39999999999999,46.30688781049069,45.27533470477387,45.452967400785255,40.85392040970544,41.031553105716824,40
38.7,46.39999999999999,47.674129569692084,46.04223552625608,46.104031525486064,41.57009804420602,41.631894043436006,40
40.0,47.500000000000014,49.384367782154825,48.44729651215364,48.15621323997148,41.22815454218335,40.937071270001184,40
41.2,48.60000000000001,52.18453317839284,52.23936466587112,51.48918877201662,40.69534440637622,39.94516851252172,40
42.5,50.000000000000014,53.92298803187869,54.61212858659219,53.89874344242442,40.02424458945427,39.310859445286496,40
43.7,51.000000000000014,52.37459133849897,52.97452840222827,52.71468956703855,39.659901771460426,39.4000629362707,40
45.0,51.60000000000001,51.1335092175478,51.46951043839336,51.48761348852592,39.64589572902187,39.66399877915444,40
46.2,51.60000000000001,51.389330522087036,50.782677046185896,50.496485416762326,40.89284510532471,40.60665347590114,40
47.5,51.60000000000001,52.17175375511748,51.1737011921076,50.999039113141336,41.17271464197614,40.99805256300988,40
48.7,53.60000000000001,54.557090426216874,55.24496700387395,55.76297860724789,38.794111818968986,39.31212342234292,40
50.0,55.2,56.61671723938072,58.270631372188646,59.078091875673096,37.538625363707624,38.34608586719207,40
51.5,55.7,56.389700143591554,57.74095674266495,58.531811805312074,37.85788833827948,38.648743400926605,40
53.0,55.39999999999999,54.10726246387232,55.02164681993183,55.523598783279695,38.58366368059262,39.085615643940486,40
54.5,55.3,54.319556600663205,53.415043931269125,53.85865948791884,40.46089711274436,40.90451266939408,40
56.0,56.500000000000014,55.936091865186214,54.1159793731067,54.76635372400152,41.169738141184695,41.82011249207952,40
58.0,58.499999999999986,58.36226590118872,56.303626403873196,57.26028482055575,41.10198108063297,42.058639497315525,40
60.0,59.89999999999999,59.879506870119684,57.800637849588796,58.81831824587849,41.0611886242412,42.07886902053089,40
61.5,61.10000000000001,60.96839686031491,59.03557012738459,59.96434445285928,41.00405240745563,41.93282673293032,40
63.0,62.39999999999999,61.94756812340361,60.434729158694,61.25256679037098,40.695001333032636,41.512838964709616,40
65.0,63.60000000000001,63.08657046387859,61.84132265800186,62.56966120816375,40.516909255714836,41.24524780587673,40
67.0,64.7,64.60407536313237,63.07290374973444,63.74894893612705,40.85512642700532,41.53117161339793,40
69.0,65.8,65.76285172742658,64.26826494677356,64.88618285319639,40.87666887423019,41.49458678065302,40
71.0,67.00000000000001,66.7281588010635,65.47353438708653,66.00846078999456,40.71969801106894,41.25462441397697,40
73.0,68.0,67.86971018796763,66.84720090228546,67.24165980488587,40.62805038308176,41.02250928568216,40
75.0,69.2,69.06924179705825,68.28475827507661,68.56668577026156,40.5025560267967,40.78448352198164,40
77.5,70.3,70.24575355685862,69.6574978677296,69.86249766756205,40.383255889296564,40.588255689129014,40
80.0,71.6,71.4358803514176,70.96850573756676,71.11830616890397,40.317574182513624,40.467374613850836,40
82.5,72.8,72.63512468018192,72.42595143616451,72.4539293230678,40.18119535711412,40.20917324401741,40
85.0,74.0,73.8568674476141,73.73702684378104,73.71990976768147,40.136957679932635,40.11984060383307,40
87.5,75.2,75.07899856337448,74.9565754104566,74.95057336944912,40.128425193925366,40.12242315291789,40
90.0,76.3,76.16717965375996,76.08860452949457,76.06743143601656,40.0997482177434,40.078575124265384,40
92.5,77.2,77.12293110248063,76.98251596054357,76.95652399476715,40.16640710771348,40.14041514193707,40
95.0,77.9,77.88925841531062,77.70772112502948,77.72849607280692,40.1607623425037,40.18153729028114,40
97.5,78.49999999999999,78.44472895057721,78.20680748607987,78.28836897554699,40.15635997503023,40.23792146449735,40
100.0,78.9,78.95583957685776,78.54399896900944,78.72655900207977,40.22928057477799,40.41184060784832,40
103.0,79.2,79.27797591781378,78.72134400567532,79.00621032953413,40.27176558827965,40.55663191213846,40
106.0,79.4,79.56717378562654,78.86226417367811,79.24323519520989,40.323938590416645,40.70490961194842,40
109.0,79.59999999999998,79.74498217571202,79.0220461851064,79.41505296459273,40.32992921111929,40.72293599060562,40
112.0,79.7,79.833843702321,79.08100047754121,79.50697469530056,40.32686900702045,40.752843224779795,40
115.0,79.7,79.90127325984552,79.091035469776,79.5439032921886,40.35736996765692,40.81023779006952,40
118.0,79.8,79.92293110248063,79.06958576756111,79.52740667125263,40.395524431228,40.853345334919524,40
122.0,79.8,79.90051167804047,79.09973292347719,79.53455219654693,40.36595948149355,40.80077875456328,40
125.0,79.89999999999999,79.89999999999999,79.1462464406185,79.5387010776957,40.361298922304286,40.753753559381494,40
128.0,79.89999999999999,79.94472895057721,79.21449878239129,79.57225706361818,40.37247188695903,40.730230168185926,40
132.0,80.0,79.95583957685776,79.2818278853015,79.58953908997982,40.36630048687793,40.67401169155626,40
136.0,80.0,79.97797591781378,79.35145628401251,79.6241016746922,40.35387424312158,40.626519633801266,40
140.0,80.0,79.98925841531062,79.34080821337069,79.62083443212808,40.36842398318254,40.64845020193992,40
145.0,80.1,80.11173585711585,79.36254368946855,79.68329251485575,40.428443342260096,40.749192167647294,40
150.0,80.3,80.22267658830113,79.4054587684287,79.76808029436746,40.45459629393366,40.817217819872425,40
155.0,80.4,80.32293110248064,79.42041577833851,79.82192033635364,40.501010766126996,40.90251532414213,40
160.0,80.5,80.4015232095018,79.45370725276726,79.89649226193659,40.50503094756522,40.947815956734544,40
165.0,80.60000000000001,80.4343573213356,79.38150764174658,79.83939949042708,40.59495783090851,41.052849679589016,40
170.0,80.5,80.3356206840857,79.25670106229347,79.72093141568993,40.614689268395765,41.078919621792224,40
175.0,80.5,80.2702374481566,79.13345232328267,79.61444100815858,40.65579643999803,41.13678512487394,40
180.0,80.60000000000001,80.36997382606371,79.14537069365961,79.63535039392599,40.734623432137724,41.2246031324041,40
185.0,80.7,80.40458656127427,79.22614661813542,79.68410109005329,40.72048547122098,41.178439943138855,40
190.0,80.8,80.52750536682392,79.3094352225988,79.74428098257746,40.78322438424645,41.21807014422512,40
195.0,80.8,80.48703592431403,79.17912998942363,79.63605001474308,40.85098590957095,41.3079059348904,40
200.0,80.90000000000002,80.51909248093192,78.98089871651662,79.56144075718188,40.95765172375003,41.5381937644153,40
206.0,80.99999999999999,80.66390198076043,78.68329244629692,79.48802098531185,41.17588099544858,41.98060953446351,40
212.0,81.1,80.8105818440885,78.37439747563836,79.49915793730426,41.31142390678424,42.43618436845014,40
218.0,81.1,80.84037254002034,78.02859311184686,79.40460891584453,41.435763624175806,42.81177942817348,40
224.0,80.99999999999999,80.71031457573002,77.65453601014109,79.2085424009862,41.50177217474382,43.05577856558894,40
230.0,80.90000000000002,80.51085532090084,77.30275830236026,78.89198014862347,41.61887517227737,43.208097018540585,40
236.0,80.90000000000002,80.4794714148654,77.07273784437258,78.72238985114946,41.75708156371594,43.40673357049282,40
240.0,80.90000000000002,80.49128085577082,76.8114857109236,78.61647686182977,41.87480399394106,43.67979514484722,40
250.0,80.90000000000002,80.5673535614441,76.70821001973623,78.69789555319393,41.86945800825016,43.859143541707866,40
258.0,80.90000000000002,80.71725487435673,76.8756258552949,78.93551000699664,41.78174486736009,43.84162901906183,40
265.0,80.90000000000002,80.79177612109562,77.23748113820788,79.2317207104995,41.56005541059612,43.55429498288774,40
272.0,80.90000000000002,80.85786005860781,77.6660648063572,79.45710464445334,41.400755414154474,43.191795252250614,40
280.0,81.1,81.06768347817138,78.34126168427905,79.85483881540716,41.21284466276421,42.72642179389233,40
290.0,81.4,81.37899271118896,78.91735370668081,80.27569601404731,41.103296697141644,42.46163900450814,40
300.0,81.4,81.41173585711586,79.06862808104614,80.39788251903681,41.013853338079045,42.343107776069715,40
307.0,81.2,81.15634471847234,78.65520542047709,79.9987409345996,41.157603783872744,42.50113929799525,40
315.0,81.1,81.0015232095018,78.42035303024834,79.80128350451146,41.20023970499034,42.58117017925346,40
325.0,80.99999999999999,80.89027257090359,78.34292804205374,79.6759016076344,41.21437096326919,42.54734452884985,40
335.0,80.90000000000002,80.64928032556396,78.10946880845374,79.41959034793096,41.229689977633,42.53981151711022,40
345.0,80.8,80.48703592431403,77.76561208406785,79.12144110935752,41.36559481495651,42.721423840246175,40
355.0,80.99999999999999,80.53848434832271,77.31063854230956,78.88373814653424,41.65474620178847,43.22784580601315,40
365.0,81.2,80.81480383444814,77.06204032034624,78.94029507115353,41.874508763294614,43.7527635141019,40
375.0,81.5,81.10305827122276,77.08121275447286,79.15177049807453,41.95128777314824,44.021845516749906,40
387.0,81.6,81.17947141486539,77.13179991627612,79.22747657723797,41.951994837627424,44.04767149858927,40
400.0,81.4,81.00719135340351,76.81876466891966,78.97398302489353,42.033208328509986,44.18842668448386,40
412.0,81.1,80.5609075141713,76.1276852295962,78.40066155170659,42.160245962464714,44.43322228457511,40
425.0,80.60000000000001,80.03118219537626,75.22566201619877,77.67221010894689,42.358972086429375,44.80552017917749,40
437.0,80.4,79.86090751417132,74.76630331098458,77.4095799025625,42.45132761160882,45.094604203186734,40
450.0,80.5,80.0884839729676,75.07691157360195,77.76518867046387,42.32329530250372,45.01157239936565,40
462.0,80.8,80.44803265884556,75.61171523876597,78.21966719264181,42.228365466203755,44.836317420079595,40
475.0,80.8,80.53217568066806,75.83865464924544,78.44529261337887,42.08688306728919,44.69352103142262,40
487.0,79.89999999999999,79.67521491911374,75.38537869693712,77.78444988301302,41.89076503610072,44.28983622217662,40
500.0,77.8,77.46735356144409,73.56959385168494,75.7473136124001,41.72003994904398,43.89775970975914,40
515.0,75.1,74.67415042838022,71.02978347780099,72.98685390672792,41.6872965216523,43.644366950579226,40
530.0,77.00000000000001,76.4503767020396,71.9213668572047,74.09666873594688,42.35370796609273,44.5290098448349,40
545.0,81.6,80.8369666949018,74.62912375754033,77.7234665220546,43.11350017284721,46.20784293736148,40
560.0,84.50000000000001,83.74897212601745,77.2530204204391,80.53006084653873,43.21891127947872,46.49595170557835,40
580.0,85.7,84.97014796594925,78.17608637920397,81.61503496339797,43.35511300255128,46.794061586745286,40
600.0,85.90000000000002,85.20244963598644,78.31213562270415,81.83030005527613,43.372149580710314,46.89031401328229,40
615.0,85.2,84.62759018835385,77.69018695498657,81.26882374505946,43.358766443294385,46.93740323336728,40
630.0,84.0,83.46173999347337,76.46164163166559,80.15421497289233,43.30752502058104,47.00009836180779,40
650.0,82.8,82.30082628831333,75.22638376868657,79.04608059075238,43.25474569756095,47.07444251962676,40
670.0,82.09999999999998,81.54285204452046,74.54954154887692,78.40015451788624,43.14269752663422,46.99331049564354,40
690.0,81.5,80.78740656743837,73.8589958422022,77.69118128080986,43.09622528662851,46.92841072523616,40
710.0,80.4,79.55749597966454,72.67522642899465,76.45527940849614,43.1022165711684,46.88226955066989,40
730.0,79.4,78.41501536059444,71.27416748629444,75.0878438923286,43.32717146826583,47.14084787429999,40
750.0,79.3,78.37036143683675,70.81698337577372,74.77550615428429,43.59485528255246,47.55337806106303,40
775.0,79.8,78.97787218324656,71.08654427788359,75.21900553827685,43.758866644969714,47.89132790536297,40
800.0,80.1,79.24483017882993,71.20500541142637,75.4482634230435,43.79656675578643,48.03982476740356,40
825.0,80.2,79.29143349264395,71.18830782114766,75.44618960920802,43.84524388343593,48.10312567149629,40
850.0,80.5,79.59511500381747,71.46512950243347,75.71694803208861,43.87816697172886,48.129985501384,40
875.0,80.90000000000002,79.8952461107284,71.7010420335325,75.9626032342289,43.9326428764995,48.19420407719589,40
900.0,81.2,80.05875392480513,71.51744593479121,75.91215540020906,44.14659852459607,48.54130799001392,40
925.0,80.99999999999999,79.83226663938258,71.00611345061644,75.53785364226299,44.29441299711959,48.82615318876614,40
950.0,80.0,78.64187534595301,69.26442818069162,73.99845666037245,44.643418685580556,49.37744716526139,40
975.0,79.8,78.49299421630325,68.90237866816813,73.81138642572141,44.681607790581836,49.59061554813512,40
1000.0,81.8,80.57670367283019,71.1910573796607,76.11714663113335,44.45955704169684,49.385646293169486,40
1030.0,83.10000000000001,81.93657219971409,72.58260367426553,77.51009766426516,44.42647453544893,49.353968525448565,40
1060.0,82.5,81.16290589018357,71.7105389478278,76.64900114980927,44.5139047403743,49.452366942355766,40
1090.0,80.99999999999999,79.84232552698312,71.1297974470232,75.82840482297043,44.01392070401269,48.712528079959924,40
1120.0,80.4,78.72202111413353,69.48259058043277,73.94244274548059,44.779578368652935,49.239430533700755,40
1150.0,78.9,76.58310352160386,68.22023916403143,71.49507795632614,45.08802556527772,48.362864357572434,40
1180.0,75.90000000000002,73.54380930469647,66.47606426441962,68.96740209223798,44.57640721245849,47.06774504027685,40
1220.0,76.9,74.8397041504172,65.54921079555164,69.56764386952379,45.27206028089341,49.29049335486556,40
1250.0,78.10000000000001,75.53560139435433,66.64753213607867,70.11172518555084,45.42387620880349,48.888069258275664,40
1280.0,77.2,74.76914038536925,67.53142636864025,70.45544972906326,44.313690656305994,47.237714016729,40
1320.0,76.8,74.69817543163416,67.6199622826851,70.9305717835618,43.76760364807235,47.07821314894906,40
1360.0,76.6,75.01903096155723,68.57834874477017,71.99564690248535,43.02338405907189,46.44068221678707,40
1400.0,76.3,75.10328242796177,68.39150493102275,72.17338317169076,42.929899256271014,46.71177749693902,40
1450.0,76.8,75.31858679823002,67.13331177482894,71.49078565003083,43.827801148199185,48.185275023401076,40
1500.0,76.8,75.26562839483313,67.48044294530916,71.68738849258743,43.5782399022457,47.785185449523965,40
1550.0,76.2,75.32478391319985,68.01505367470045,71.94934334443825,43.375440568761604,47.3097302384994,40
1600.0,77.2,76.11711080390819,68.14970014236494,72.56012829066013,43.55698251324806,47.967410661543255,40
1650.0,78.6,76.78246817412501,67.37341006647866,72.14366209204677,44.63880608207825,49.40905810764636,40
1700.0,78.10000000000001,75.79192676531508,64.86157026898049,70.14065327419037,45.65127349112471,50.930356496334596,40
1750.0,77.5,75.12998090844229,64.09029287097867,69.33298492655932,45.79699598188297,51.03968803746362,40
1800.0,78.40000000000002,76.2263693705048,65.68897260357303,70.71310064978817,45.513268720716624,50.537396766931764,40
1850.0,81.7,78.91598992310963,67.95322701480622,73.18152208652849,45.734467836581146,50.96276290830342,40
1900.0,82.00000000000001,79.72916211369487,69.25926136259869,74.37947830820342,45.34968380549145,50.469900751096176,40
1950.0,81.4,79.50829611610652,69.43635541370023,74.36615039872835,45.14214571737817,50.071940702406295,40
2000.0,80.4,78.58380777777832,69.2213842574876,73.78609456457828,44.79771321320004,49.36242352029072,40
2060.0,80.1,78.39273259276517,69.80102480113175,74.00717917505077,44.385553417714405,48.591707791633425,40
2120.0,79.8,77.84557012077595,69.99774789959564,73.80752130090372,44.03804881987223,47.84782222118031,40
2180.0,79.2,76.27562495146081,69.5076480910352,72.46368927287766,43.811935678583154,46.76797686042562,40
2240.0,78.49999999999999,75.25418286906198,70.4577083312082,73.01311230648298,42.241070562579,44.79647453785378,40
2300.0,76.5,74.21843749521442,71.73674616167811,74.2345117562607,39.983925738953715,42.481691333536304,40
2360.0,74.0,72.57782124807348,72.28190911581308,74.90594921394812,37.67187203412536,40.2959121322604,40
2400.0,72.9,74.49370203937094,72.17866822771693,75.12436053065566,39.36934150871528,42.31503381165402,40
2500.0,71.3,74.40808443999406,71.6184279924369,74.8367330240966,39.57135141589745,42.78965644755715,40
2580.0,68.7,73.28204133944921,70.48503390791966,73.88276493576903,39.399276403680176,42.79700743152955,40
2650.0,71.2,74.0802781340776,69.98177498262991,73.66067686585386,40.419601268223744,44.09850315144769,40
2720.0,73.9,76.62834570524866,70.61551793232036,74.74944267971311,41.87890302553555,46.012827772928304,40
2800.0,76.1,77.89486691848967,70.09492589973307,74.64360715460003,43.251259763889635,47.7999410187566,40
2900.0,76.6,78.09295027338095,70.03216812343832,74.5561820656509,43.53676820773005,48.060782149942625,40
3000.0,76.1,77.88272764134958,69.88272454967104,74.21291528768374,43.66981235366583,48.000003091678536,40
3070.0,75.8,77.4907939555212,69.63873891485416,73.89027534871953,43.60051860680167,47.85205504066704,40
3150.0,75.8,76.72002553701081,68.91280200264782,73.02387400351243,43.69615153349838,47.80722353436299,40
3250.0,76.5,76.8878835700035,68.8548689787674,72.94826256325733,43.939621006746165,48.033014591236096,40
3350.0,77.09999999999998,76.59684805802948,67.83478677372777,72.28806384014736,44.30878421788212,48.76206128430171,40
3450.0,77.7,76.70294453749717,67.59832673074938,72.28015745702011,44.422787080477065,49.1046178067478,40
3550.0,78.2,76.94653406029438,67.74392666091785,72.45210192792756,44.494432132366825,49.20260739937653,40
3650.0,79.0,76.95051272811905,67.84219864563747,72.63026446660838,44.32024826151067,49.108314082481584,40
3750.0,79.8,77.31163692814259,68.35763622679345,73.10381720571714,44.207819722425455,48.954000701349145,40
3870.0,80.3,77.97870362246518,69.21020053558898,73.96834656190599,44.01035706055919,48.768503086876194,40
4000.0,80.60000000000001,78.06463911201448,68.87172617790398,73.72916452176817,44.33547459024631,49.192912934110495,40
4120.0,80.60000000000001,78.09174093570847,68.9392385611484,73.7180029846796,44.37373795102887,49.15250237456007,40
