Freq "On Axis"
22.4 24.10000000000001
23.0 26.000000000000014
23.6 27.60000000000001
24.0 28.89999999999999
25.0 29.89999999999999
25.8 30.60000000000001
26.5 31.000000000000014
27.2 31.89999999999999
28.0 32.8
29.0 33.3
30.0 34.2
30.7 36.39999999999999
31.5 38.10000000000001
32.5 39.60000000000001
33.5 40.7
34.5 41.39999999999999
35.5 42.2
36.5 44.2
37.5 45.39999999999999
38.7 46.39999999999999
40.0 47.500000000000014
41.2 48.60000000000001
42.5 50.000000000000014
43.7 51.000000000000014
45.0 51.60000000000001
46.2 51.60000000000001
47.5 51.60000000000001
48.7 53.60000000000001
50.0 55.2
51.5 55.7
53.0 55.39999999999999
54.5 55.3
56.0 56.500000000000014
58.0 58.499999999999986
60.0 59.89999999999999
61.5 61.10000000000001
63.0 62.39999999999999
65.0 63.60000000000001
67.0 64.7
69.0 65.8
71.0 67.00000000000001
73.0 68.0
75.0 69.2
77.5 70.3
80.0 71.6
82.5 72.8
85.0 74.0
87.5 75.2
90.0 76.3
92.5 77.2
95.0 77.9
97.5 78.49999999999999
100.0 78.9
103.0 79.2
106.0 79.4
109.0 79.59999999999998
112.0 79.7
115.0 79.7
118.0 79.8
122.0 79.8
125.0 79.89999999999999
128.0 79.89999999999999
132.0 80.0
136.0 80.0
140.0 80.0
145.0 80.1
150.0 80.3
155.0 80.4
160.0 80.5
165.0 80.60000000000001
170.0 80.5
175.0 80.5
180.0 80.60000000000001
185.0 80.7
190.0 80.8
195.0 80.8
200.0 80.90000000000002
206.0 80.99999999999999
212.0 81.1
218.0 81.1
224.0 80.99999999999999
230.0 80.90000000000002
236.0 80.90000000000002
240.0 80.90000000000002
250.0 80.90000000000002
258.0 80.90000000000002
265.0 80.90000000000002
272.0 80.90000000000002
280.0 81.1
290.0 81.4
300.0 81.4
307.0 81.2
315.0 81.1
325.0 80.99999999999999
335.0 80.90000000000002
345.0 80.8
355.0 80.99999999999999
365.0 81.2
375.0 81.5
387.0 81.6
400.0 81.4
412.0 81.1
425.0 80.60000000000001
437.0 80.4
450.0 80.5
462.0 80.8
475.0 80.8
487.0 79.89999999999999
500.0 77.8
515.0 75.1
530.0 77.00000000000001
545.0 81.6
560.0 84.50000000000001
580.0 85.7
600.0 85.90000000000002
615.0 85.2
630.0 84.0
650.0 82.8
670.0 82.09999999999998
690.0 81.5
710.0 80.4
730.0 79.4
750.0 79.3
775.0 79.8
800.0 80.1
825.0 80.2
850.0 80.5
875.0 80.90000000000002
900.0 81.2
925.0 80.99999999999999
950.0 80.0
975.0 79.8
1000.0 81.8
1030.0 83.10000000000001
1060.0 82.5
1090.0 80.99999999999999
1120.0 80.4
1150.0 78.9
1180.0 75.90000000000002
1220.0 76.9
1250.0 78.10000000000001
1280.0 77.2
1320.0 76.8
1360.0 76.6
1400.0 76.3
1450.0 76.8
1500.0 76.8
1550.0 76.2
1600.0 77.2
1650.0 78.6
1700.0 78.10000000000001
1750.0 77.5
1800.0 78.40000000000002
1850.0 81.7
1900.0 82.00000000000001
1950.0 81.4
2000.0 80.4
2060.0 80.1
2120.0 79.8
2180.0 79.2
2240.0 78.49999999999999
2300.0 76.5
2360.0 74.0
2400.0 72.9
2500.0 71.3
2580.0 68.7
2650.0 71.2
2720.0 73.9
2800.0 76.1
2900.0 76.6
3000.0 76.1
3070.0 75.8
3150.0 75.8
3250.0 76.5
3350.0 77.09999999999998
3450.0 77.7
3550.0 78.2
3650.0 79.0
3750.0 79.8
3870.0 80.3
4000.0 80.60000000000001
4120.0 80.60000000000001
4250.0 80.5
4370.0 80.2
4500.0 80.3
4620.0 80.2
4750.0 79.8
4870.0 77.5
5000.0 74.3
5150.0 74.2
5300.0 75.2
5450.0 76.8
5600.0 77.2
5800.0 74.50000000000001
6000.0 71.7
6150.0 71.4
6300.0 73.9
6500.0 75.90000000000002
6700.0 77.7
6900.0 78.3
7100.0 78.40000000000002
7300.0 78.7
7500.0 78.8
7750.0 80.1
8000.0 80.99999999999999
8250.0 80.90000000000002
8500.0 80.8
8750.0 80.2
9000.0 80.5
9250.0 83.49999999999999
9500.0 83.2
9750.0 80.99999999999999
10000.0 81.1
10300.0 79.89999999999999
10600.0 76.6
10900.0 80.0
11200.0 81.2
11500.0 79.89999999999999
11800.0 78.49999999999999
12200.0 77.9
12500.0 79.1
12800.0 79.7
13200.0 82.6
13600.0 81.6
14000.0 81.1
14500.0 79.89999999999999
15000.0 82.5
15500.0 83.49999999999999
16000.0 84.59999999999998
16500.0 84.59999999999998
17000.0 84.4
17500.0 80.5
18000.0 73.7
18500.0 77.09999999999998
19000.0 75.60000000000001
19500.0 73.2
