Freq,Floor Bounce,Ceiling Bounce,Front Wall Bounce,Side Wall Bounce,Rear Wall Bounce,Total Early Reflection
22.4,-25.937947980792316,-26.426202283798247,-3.6956776379930574,-3.9740369309517263,0.890635794125572,-3.851148816837238
23.0,-25.929864633988288,-25.583244465131926,-3.3265857855866017,-3.774300562591506,1.9660898091609766,-3.07662880181401
23.6,-25.615397958270066,-24.51126807978021,-2.6744254496890534,-3.205050459971872,3.2610767009739305,-2.015638354604093
24.0,-23.831942912620534,-22.21824635585135,-0.6233407424289368,-1.237598884152348,5.84143444728268,0.38764158770452184
25.0,-22.632683021290106,-20.419568083850848,0.9413415048758651,0.2634146293312227,7.917656410001328,2.309681708531812
25.8,-21.81785721317972,-19.120363693508963,1.9651230373928996,1.3388264179161098,9.520191345783601,3.768017203460957
26.5,-21.292664107889706,-18.096116276546994,2.8481844971230856,2.2873998543205545,10.902644932806751,5.038765318063966
27.2,-20.874751056787133,-17.296839212618963,3.552249487043653,3.0905808432325585,12.020050712723915,6.075025351087007
28.0,-20.516245334642278,-16.717239450121227,4.208504514140472,3.9583960586993356,13.096225895303078,7.084749537724903
29.0,-20.316812510347958,-16.34661895420963,4.86722845249507,4.851621720051995,14.024536592923326,7.981918891962849
30.0,-19.99037925245166,-15.890638775263355,5.791948130874246,5.96809128051693,15.03775409768555,8.996174244493076
30.7,-18.77473546071151,-14.638289517496233,7.703513934230514,8.091274758785701,16.911691023690864,10.898650088121101
31.5,-17.34141239875676,-13.280318679144202,10.15838029254492,10.834151639821911,19.211566975483308,13.261416510043816
32.5,-16.190790747730617,-12.312972231266073,12.706651755216924,13.650461706608624,21.397978986183446,15.560195770357936
33.5,-15.417801872099446,-11.776026707963624,15.041884280303108,16.150035029580224,23.271629275085488,17.568468702366047
34.5,-15.106828359269159,-11.716806185242561,16.792693616293192,18.12440436841716,24.44406255931183,18.932528313672933
35.5,-14.953885968601227,-11.854359651263607,17.814606448592215,19.275852383714025,24.80464233012627,19.518387472625548
36.5,-12.56972815268152,-9.762487359032988,19.787200211318563,21.417309645919588,26.1822566914863,21.133674253565445
37.5,-10.354114393143519,-7.94448783531017,20.543273429588297,22.318882027500123,26.354640523967575,21.560175304564424
38.7,-8.454114393143541,-6.420934357774641,20.020631788219234,21.964111949173642,25.30323737163242,20.77098016787197
40.0,-6.809336981618046,-5.103533229676842,18.872176429141334,20.96132643816854,23.63574722589145,19.379217965773947
41.2,-4.909336981618068,-3.603587541003705,17.31591175076339,19.528316160835615,21.539907894724607,17.587986590110077
42.5,-2.2541143931435244,-1.3411270538522473,17.099002381411694,19.43004117401908,20.870389889171392,17.201520717264273
43.7,0.4180442046012871,1.0022826345305162,16.8773921535644,19.37979021393842,20.2561728260104,16.881567616016397
45.0,2.7735496620026225,2.9555960016757155,16.435382676664958,19.05932303442485,19.455384180896417,16.36722539976843
46.2,4.6580352215026295,4.613559253056806,16.301693148723317,18.975475138957037,18.993335860868157,16.165532716866196
47.5,6.6162761504999,6.194537021870687,15.914213533714374,18.650912800593815,18.247588634392358,15.749075365898094
48.7,9.303906924684284,8.578957449022383,16.436145833632978,19.191684844228504,18.4776371464978,16.29803029067544
50.0,11.624576725844989,10.587310800536088,16.929238642751116,19.72479049151356,18.710216660536375,16.874549325508767
51.5,13.384076812989449,12.092069306921601,17.300642739258322,20.036604376285723,18.79597662089604,17.297010276681405
53.0,14.904735301185738,13.34610970317216,17.718166712049694,20.414555556312436,18.980141598511025,17.792530341744524
54.5,16.689828566734732,14.964054706784012,18.6508101887744,21.282295519911784,19.74843255054749,18.808614250891125
56.0,18.145767194384703,16.29292614632452,19.438758752415097,22.09394552343265,20.429107222751426,19.713271886218607
58.0,19.20306957104252,17.22613980252528,19.971840056080012,22.66612288637087,20.855101347017566,20.349570310286524
60.0,20.333589826879958,18.268106934810774,20.55512129081724,23.315824068814024,21.374655794023838,21.075792097230888
61.5,21.60542400732662,19.46810693481079,21.31748651371815,24.22484868463495,22.173013412501646,22.03089932258105
63.0,22.57928732607435,20.4732122241506,21.825787563704424,24.862216671924713,22.741944594555903,22.738076057567454
65.0,23.733310238016756,21.56842364324696,22.25215667342401,25.518054219253756,23.291173590945945,23.492161417835305
67.0,25.416277831777492,23.351507598473304,23.047002026987187,26.52824167455917,24.32444231302567,24.73152118381269
69.0,27.1026545034034,25.085117518524086,23.432351087666902,27.22107020417984,25.029133776132326,25.80192462227457
71.0,28.91792789764851,27.00099739371531,23.437141160262073,27.460055551859043,25.335056240983718,26.812772281689305
73.0,31.367265588596112,29.54843482765945,23.461199323966767,27.633302798638695,25.649845287386498,28.37624394568489
75.0,34.82526453928848,33.13134507421576,23.084687239356285,27.345077376210966,25.490512333441657,30.930171642457125
77.5,40.09257011413611,38.567241306550486,23.73625009703413,27.936368140137276,26.269653995828165,35.72572758973088
80.0,41.811523263049665,40.41043669716278,25.003370402295403,28.90661113025469,27.496831671409993,37.45431193042468
82.5,40.33268615537794,39.083936133721735,27.646911389387824,31.08501442102012,29.95515514044267,36.38482601709221
85.0,39.38155349220621,38.24412887807496,30.709790875164416,33.404785171893835,32.617400927619386,36.13669757190267
87.5,40.40920925226938,39.20993626900294,33.46011459095148,35.6291500871033,35.04330519041706,37.54229075146877
90.0,41.29485705883168,40.01923785438673,35.96022718256195,37.40153846841777,37.13986664602764,38.82366312066115
92.5,42.323496850659794,40.98868107059239,38.23283417117422,38.93994138978478,38.97452230502377,40.17193140427919
95.0,43.45260953202218,42.074550573701075,40.16136120487501,40.35288081170934,40.58845178446238,41.51943433690842
97.5,45.01592692226707,43.663480322381005,42.163819910796875,42.094880498173566,42.41948796021505,43.22625660805137
100.0,46.47977745790568,45.195624837243926,44.17506020595421,43.7992507223626,44.22126932095371,44.88857119463388
103.0,47.914306378622825,46.69220047151573,46.002417102748225,45.48803457426105,45.934532971590485,46.49304155533902
106.0,49.279777457905695,48.18161208533421,47.754806134826424,47.16957895329328,47.573597151667244,48.05433440407987
109.0,50.88219967332303,49.861368376227645,49.62600353938058,49.01105672687551,49.371342173081544,49.79811957476791
112.0,52.21916705502754,51.35295536787778,51.302735928848975,50.72182058672358,51.01181482327367,51.35159564481107
115.0,53.68623512455238,52.83469773360898,52.97579777046171,52.42591696740679,52.662878107701616,52.938560588510015
118.0,54.95380974359445,54.23469773360898,54.407053161680494,53.930691333740754,54.115507271783585,54.34268710367648
122.0,56.153809743594465,55.459999617449895,55.70493336938185,55.27397147253639,55.43572663094977,55.61673116180616
125.0,57.353809743594454,56.74391724861637,57.098489189716204,56.66835000005936,56.80356649446394,56.94124359288686
128.0,58.3840783937255,57.829340774416565,58.2003779361758,57.81171544498429,57.92462104122501,58.03591241903278
132.0,59.4162794008364,58.816277831777484,59.3204554957055,58.90978026580389,59.00234393744044,59.099378782458786
136.0,60.37928732607432,59.80473530118577,60.34454368386328,59.93671374697992,60.02730512745042,60.10444313510342
140.0,61.179287326074316,60.665888460596875,61.22289767667539,60.80424147214609,60.904671281252405,60.96071709697759
145.0,62.14283030471974,61.65667255930052,62.20431883501368,61.774149668193274,61.84923426921699,61.93065771227984
150.0,62.84283030471974,62.38219967332304,62.97162851025868,62.533584926444746,62.56080403156365,62.663608105805
155.0,63.43821129888744,63.012271783156194,63.58457348756413,63.16057098130608,63.173906076532234,63.27887638430383
160.0,64.13821129888744,63.67609175449222,64.26667497009335,63.83101939491941,63.8409083445066,63.95605729386931
165.0,64.70306957104252,64.27150800786939,64.84941585287403,64.39921149184934,64.39348367709252,64.52876748998456
170.0,65.20306957104252,64.77150800786937,65.34941585287403,64.88744308615908,64.85620462067969,65.01927951000752
175.0,65.67001488257476,65.16845083805431,65.80429032496,65.33738367829548,65.28751163945535,65.4602985719454
180.0,65.97001488257477,65.53435140868501,66.13309955251098,65.64742265397177,65.56692223312085,65.77694774347145
185.0,66.27001488257477,65.7669218511605,66.43309955251098,65.94670696158119,65.85040456405433,66.0609831682035
190.0,66.53746771551316,66.03358982687998,66.68849426429229,66.2153154764943,66.10985635437142,66.3243657845055
195.0,66.67001488257478,66.23358982687998,66.86072303758586,66.38448079735815,66.2786745992888,66.49225982597608
200.0,66.77001488257476,66.36692185116051,66.97495050771849,66.51338051689555,66.36818544805915,66.60531015497578
206.0,66.87001488257475,66.43435140868503,67.06072303758584,66.59389072515945,66.44259307506935,66.68739693702985
212.0,66.87001488257475,66.46845083805432,67.10230990919568,66.6332583931527,66.4738956336646,66.71654522578464
218.0,66.93513059177982,66.46845083805432,67.16072303758585,66.66225661491818,66.47451663890351,66.74869918419112
224.0,66.93513059177982,66.46845083805432,67.17431116675671,66.66066569904848,66.47940856549246,66.75229763966945
230.0,66.90306957104251,66.43663575667186,67.16040602216849,66.62920901697275,66.42119818664071,66.71951449441322
236.0,66.96845083805432,66.50306957104253,67.20230990919568,66.67158442304743,66.44633611916396,66.76790241992087
240.0,66.96845083805432,66.50306957104253,67.2454568137129,66.67934818437061,66.42460347574726,66.77497519137256
250.0,67.00228461396019,66.50306957104253,67.25940982787984,66.68865899849835,66.40845246332522,66.78403255481233
258.0,67.06845083805433,66.60306957104252,67.3033192861392,66.70938889515755,66.42378140248972,66.8334663552006
265.0,67.10306957104252,66.60306957104252,67.35940982787984,66.74882018025237,66.41115549567509,66.8587161405868
272.0,67.17001488257476,66.67001488257478,67.40230990919567,66.80907126699064,66.44782535211115,66.91351514103337
280.0,67.20542400732661,66.77001488257476,67.47331815732423,66.85771640352016,66.4773548151799,66.97070795758373
290.0,67.30542400732661,66.80231994589775,67.5160666492014,66.91870114719156,66.51913630783069,67.02699797259848
300.0,67.37314211136085,66.87001488257475,67.57364159369051,66.95095183237767,66.5294668518889,67.0753665576856
307.0,67.37783080594569,66.87001488257475,67.55907777101987,66.92284920036825,66.48764650788883,67.06029899983884
315.0,67.37783080594569,66.83821129888743,67.45907777101986,66.84473107033638,66.36694700068111,66.99570946531531
325.0,67.31483523633479,66.80306957104251,67.40265417083519,66.77684854420382,66.26194280292546,66.93138909889782
335.0,67.24680983520814,66.73821129888744,67.30265417083517,66.65902907769811,66.11561112921514,66.83391810145451
345.0,67.14680983520815,66.67150800786938,67.17464276281655,66.48115587406237,65.83704271368782,66.68952840330908
355.0,67.01007799780292,66.50531806766472,67.00432200587768,66.28075758536603,65.58364034223851,66.50827071632207
365.0,66.93821129888742,66.4053180676647,66.87869279771546,66.12323707858882,65.330301167304,66.37354014406152
375.0,66.80306957104251,66.4053180676647,66.76480169751046,66.0065172434505,65.09769988876054,66.25911644420009
387.0,66.73435140868501,66.3053180676647,66.70878120109954,65.88505279986687,64.93449145731702,66.16251863359868
400.0,66.63358982687997,66.23964531976002,66.62564299302437,65.79542773676526,64.74553986013682,66.0619764744864
412.0,66.5669218511605,66.13964531976002,66.61221477163424,65.72565571678572,64.68313399762614,66.00063147073554
425.0,66.53435140868503,66.13964531976002,66.62724852638665,65.70550328737961,64.6741922345756,65.9916024586124
437.0,66.50076749445562,66.07071732495409,66.65588366386993,65.70250144016066,64.68605745861613,65.97769184674799
450.0,66.4669218511605,66.0053180676647,66.68499164538474,65.6785177272993,64.7493808951322,65.96862762433501
462.0,66.4669218511605,65.9053180676647,66.74073222839064,65.66756549802113,64.8276486132287,65.97180206229801
475.0,66.50076749445562,65.80531806766471,66.81341661262759,65.65595650674625,64.9022827052914,65.98682670453358
487.0,66.53821129888742,65.67150800786939,66.85535759824255,65.62877065831893,64.97748656998074,65.9870098400826
500.0,66.67928732607432,65.57609175449221,66.9792376423463,65.60458627102629,65.01372717028909,66.03378665917967
515.0,66.85380974359447,65.5069050103546,67.09246053515746,65.62370381736226,65.03181831945122,66.0971503864216
530.0,67.02402487026022,65.5122717831562,67.23449873536721,65.68821594684725,65.0250209765148,66.18542004917389
545.0,67.26235742942079,65.51592692226706,67.34882721520364,65.74425135623771,64.92365479662571,66.2688938605173
560.0,67.42758719283593,65.65768127821953,67.46514790204371,65.79609534725796,64.78834096676725,66.35454612918755
580.0,67.5566725593005,65.8292667687942,67.55184146094089,65.89326611655247,64.59886465907398,66.43127237187021
600.0,67.61227178315617,66.03897757455803,67.61166862366302,65.92651511748379,64.36486424621344,66.47458055790521
615.0,67.5404416794549,66.17383110211924,67.58404566316278,65.90426939856523,64.01892841452592,66.42862196950453
630.0,67.43663575667186,66.3117284643738,67.54126006848351,65.88466999236849,63.73700200766011,66.38237916124537
650.0,67.33513059177984,66.43897757455802,67.51134800706235,65.86666758232208,63.47978556462479,66.3438867994853
670.0,67.20231994589774,66.49897445130925,67.46702628831498,65.79554485167685,63.26816018070575,66.27731991733205
690.0,67.20076749445562,66.52758719283591,67.53879840377918,65.8305076862378,63.16211751425793,66.2977695192547
710.0,67.33435140868502,66.55380974359446,67.63578943836458,65.93702087968771,63.19055250280941,66.38409743683856
730.0,67.57150800786938,66.5840783937255,67.83547785556726,66.10250908915319,63.323709344313144,66.54595616122334
750.0,67.84283030471974,66.5840783937255,67.99289093823005,66.29686284261618,63.44489872973354,66.70467306477997
775.0,67.98219967332305,66.51627940083641,68.07666701415575,66.38915771126428,63.498464617598,66.77269739334061
800.0,67.98219967332305,66.46096514237182,68.10862635656883,66.42619661967079,63.4603907661654,66.77424018050034
825.0,67.84576719438469,66.40464502318535,67.96536355915792,66.3676995994234,63.329666057559564,66.66595522194915
850.0,67.67609175449222,66.38915630129641,67.85174736203481,66.33970585776125,63.17666095511153,66.56888930170884
875.0,67.47150800786939,66.51592538879981,67.78130684344173,66.3231670020752,63.050275628762705,66.5082620853622
900.0,67.63663575667186,66.83257218046558,67.96638577964855,66.52833551061433,63.16642243191259,66.71278142399368
925.0,67.63663575667186,66.91916705502754,68.02171600450089,66.54077268008052,63.071676196911014,66.7396473685269
950.0,67.53663575667186,66.74283030471975,67.87966935779183,66.33986194618076,62.83354226302288,66.58150263048704
975.0,67.40306957104252,66.4760917544922,67.72269801049636,66.09033591029483,62.536041738817104,66.37864746513763
1000.0,66.93821129888742,65.91227178315619,67.24008782975706,65.58510772638034,61.95303181092085,65.87160060458781
1030.0,66.74283030471975,65.71592692226706,67.09608890309777,65.3768983059912,61.67419435731726,65.68108439476963
1060.0,66.97928732607433,65.92349685065979,67.32700937212394,65.5646230047136,61.813523594311235,65.89346548080012
1090.0,67.3489851487955,66.33257218046558,67.7738806407848,65.9616105505281,62.13046050852839,66.29366161494085
1120.0,67.61916705502752,66.63257218046559,68.10167792385703,66.26672317428267,62.37329803009074,66.59051788454194
1150.0,67.75260953202216,66.77082970284297,68.25931762106867,66.35972279627204,62.414378411229364,66.71740698429274
1180.0,67.7234968506598,66.60473530118574,68.24686577480732,66.25036856231654,62.27296117571149,66.64263800411682
1220.0,67.4948570588317,66.16235742942077,67.98742594094405,65.84052278872589,61.90098570752929,66.32001703389705
1250.0,67.19485705883172,65.49188145404553,67.62005994202832,65.24909479365165,61.37750755714022,65.86286141898644
1280.0,67.02758719283592,64.89188145404555,67.37117100742357,64.66658971357266,60.92225978528816,65.50291172969189
1320.0,67.10473530118576,64.88219812790055,67.50528637746466,64.44994781163426,60.74847185545181,65.51847444281599
1360.0,67.04898359150842,65.03392832814568,67.69481872353623,64.45707712099028,60.591495542341605,65.58079176430097
1400.0,67.02869245367795,65.06136837622763,67.86033441963531,64.41632068684503,60.4086666781498,65.61710191218752
1450.0,67.00261155895363,64.82102614963505,67.78648677113395,64.17888150143006,60.10686085920271,65.4897359512096
1500.0,67.02869245367795,64.34583147157397,67.70737145990013,63.803937398840986,59.81156710200587,65.32044944575878
1550.0,67.03546263134683,63.98538710465898,67.58938327395425,63.39712207808901,59.43359440311745,65.14834589212123
1600.0,66.86194867563765,63.81457895753309,67.44335262890776,63.06746574696254,58.899026746923994,64.94574083953499
1650.0,66.52869245367796,63.716558191771696,67.2414335287057,62.78308699072225,58.34526349891327,64.69210099229863
1700.0,66.51592538879981,63.73155215291051,67.29588746057782,62.75203522470315,58.14215430861297,64.69712659979967
1750.0,66.93546263134682,63.85098823501218,67.55879661158959,62.89336160206808,58.147755468251034,64.95955684695113
1800.0,67.192378988098,63.8696633335684,67.65274933535622,62.808249806481555,57.84008875498493,65.05650343570444
1850.0,66.7429397936019,63.38888863538652,67.20473986229058,62.30564554631977,57.10066205713508,64.58583345949911
1900.0,66.05016923070222,62.87076275725438,66.70596636942165,61.71595480846652,56.42640555653395,64.00420590612227
1950.0,65.92869245367795,62.98509485802376,66.81476131193136,61.60979478991449,56.324630305187284,64.00882237895723
2000.0,66.50982855556755,63.6752382379475,67.38202428214692,61.91576653753718,56.42422294341236,64.55574901210971
2060.0,66.84258273663015,63.98256065499534,67.69471577345092,62.09003174938299,56.21610565194048,64.84387200169039
2120.0,66.58382334167594,63.59317487506891,67.48247449890293,61.753175705449635,55.58277596365279,64.56393230220523
2180.0,65.8429397936019,62.62618710391503,66.80065478136503,60.95402471349597,54.54331875012819,63.79767012623128
2240.0,65.64258273663015,62.09780984381858,66.47033287433318,60.383146715263734,53.84197092630437,63.44723025523942
2300.0,66.28161208533422,62.50833704711785,66.8848292207518,60.484998699716726,53.79961962300523,63.89810466688809
2360.0,66.57584607527146,62.794846644554596,67.17146004490553,60.608128172692744,53.754214868155884,64.16643954412416
2400.0,66.01753803239934,62.20091389014043,66.80956475149449,60.22072632582004,52.98477204577196,63.69399056119454
2500.0,65.78161208533422,61.79430744544666,66.59429209975391,59.918273366193034,52.39243662155583,63.43098204834098
2580.0,66.12602452356691,61.988888635386516,66.83533694991571,60.05367617287641,52.533569681231796,63.69074013741013
2650.0,66.1944886893229,62.156648211000146,67.07445093542148,60.28832516039266,52.65995658566733,63.85898702119974
2720.0,65.93776734285541,61.80091389014042,66.97610446651733,60.15658863413307,52.31490939365983,63.66602437465636
2800.0,66.07245249207645,61.6165581917717,66.9145892367988,59.945709559155276,52.29483031489096,63.64381138392379
2900.0,66.43753193576904,61.97100612011482,67.16995504615407,60.118502802625216,52.79966921083364,63.94713577113406
3000.0,66.38098490550679,61.977104660088486,67.26782593702636,60.24327684637717,52.987618306018405,63.98283860677607
3070.0,66.25648313414827,61.5650393759075,67.23801377770087,60.07005568045528,53.173204493292374,63.86507325306833
