Freq "Floor Bounce"
22.4 -25.937947980792316
23.0 -25.929864633988288
23.6 -25.615397958270066
24.0 -23.831942912620534
25.0 -22.632683021290106
25.8 -21.81785721317972
26.5 -21.292664107889706
27.2 -20.874751056787133
28.0 -20.516245334642278
29.0 -20.316812510347958
30.0 -19.99037925245166
30.7 -18.77473546071151
31.5 -17.34141239875676
32.5 -16.190790747730617
33.5 -15.417801872099446
34.5 -15.106828359269159
35.5 -14.953885968601227
36.5 -12.56972815268152
37.5 -10.354114393143519
38.7 -8.454114393143541
40.0 -6.809336981618046
41.2 -4.909336981618068
42.5 -2.2541143931435244
43.7 0.4180442046012871
45.0 2.7735496620026225
46.2 4.6580352215026295
47.5 6.6162761504999
48.7 9.303906924684284
50.0 11.624576725844989
51.5 13.384076812989449
53.0 14.904735301185738
54.5 16.689828566734732
56.0 18.145767194384703
58.0 19.20306957104252
60.0 20.333589826879958
61.5 21.60542400732662
63.0 22.57928732607435
65.0 23.733310238016756
67.0 25.416277831777492
69.0 27.1026545034034
71.0 28.91792789764851
73.0 31.367265588596112
75.0 34.82526453928848
77.5 40.09257011413611
80.0 41.811523263049665
82.5 40.33268615537794
85.0 39.38155349220621
87.5 40.40920925226938
90.0 41.29485705883168
92.5 42.323496850659794
95.0 43.45260953202218
97.5 45.01592692226707
100.0 46.47977745790568
103.0 47.914306378622825
106.0 49.279777457905695
109.0 50.88219967332303
112.0 52.21916705502754
115.0 53.68623512455238
118.0 54.95380974359445
122.0 56.153809743594465
125.0 57.353809743594454
128.0 58.3840783937255
132.0 59.4162794008364
136.0 60.37928732607432
140.0 61.179287326074316
145.0 62.14283030471974
150.0 62.84283030471974
155.0 63.43821129888744
160.0 64.13821129888744
165.0 64.70306957104252
170.0 65.20306957104252
175.0 65.67001488257476
180.0 65.97001488257477
185.0 66.27001488257477
190.0 66.53746771551316
195.0 66.67001488257478
200.0 66.77001488257476
206.0 66.87001488257475
212.0 66.87001488257475
218.0 66.93513059177982
224.0 66.93513059177982
230.0 66.90306957104251
236.0 66.96845083805432
240.0 66.96845083805432
250.0 67.00228461396019
258.0 67.06845083805433
265.0 67.10306957104252
272.0 67.17001488257476
280.0 67.20542400732661
290.0 67.30542400732661
300.0 67.37314211136085
307.0 67.37783080594569
315.0 67.37783080594569
325.0 67.31483523633479
335.0 67.24680983520814
345.0 67.14680983520815
355.0 67.01007799780292
365.0 66.93821129888742
375.0 66.80306957104251
387.0 66.73435140868501
400.0 66.63358982687997
412.0 66.5669218511605
425.0 66.53435140868503
437.0 66.50076749445562
450.0 66.4669218511605
462.0 66.4669218511605
475.0 66.50076749445562
487.0 66.53821129888742
500.0 66.67928732607432
515.0 66.85380974359447
530.0 67.02402487026022
545.0 67.26235742942079
560.0 67.42758719283593
580.0 67.5566725593005
600.0 67.61227178315617
615.0 67.5404416794549
630.0 67.43663575667186
650.0 67.33513059177984
670.0 67.20231994589774
690.0 67.20076749445562
710.0 67.33435140868502
730.0 67.57150800786938
750.0 67.84283030471974
775.0 67.98219967332305
800.0 67.98219967332305
825.0 67.84576719438469
850.0 67.67609175449222
875.0 67.47150800786939
900.0 67.63663575667186
925.0 67.63663575667186
950.0 67.53663575667186
975.0 67.40306957104252
1000.0 66.93821129888742
1030.0 66.74283030471975
1060.0 66.97928732607433
1090.0 67.3489851487955
1120.0 67.61916705502752
1150.0 67.75260953202216
1180.0 67.7234968506598
1220.0 67.4948570588317
1250.0 67.19485705883172
1280.0 67.02758719283592
1320.0 67.10473530118576
1360.0 67.04898359150842
1400.0 67.02869245367795
1450.0 67.00261155895363
1500.0 67.02869245367795
1550.0 67.03546263134683
1600.0 66.86194867563765
1650.0 66.52869245367796
1700.0 66.51592538879981
1750.0 66.93546263134682
1800.0 67.192378988098
1850.0 66.7429397936019
1900.0 66.05016923070222
1950.0 65.92869245367795
2000.0 66.50982855556755
2060.0 66.84258273663015
2120.0 66.58382334167594
2180.0 65.8429397936019
2240.0 65.64258273663015
2300.0 66.28161208533422
2360.0 66.57584607527146
2400.0 66.01753803239934
2500.0 65.78161208533422
2580.0 66.12602452356691
2650.0 66.1944886893229
2720.0 65.93776734285541
2800.0 66.07245249207645
2900.0 66.43753193576904
3000.0 66.38098490550679
3070.0 66.25648313414827
3150.0 66.32990957385142
3250.0 66.12643297742508
3350.0 66.32990957385142
3450.0 66.71719474435358
3550.0 66.65295536787777
3650.0 66.85405093453076
3750.0 66.39188145404553
3870.0 66.07001488257475
4000.0 66.50542400732661
4120.0 67.25260953202218
4250.0 67.76668552790022
4370.0 68.02104166298749
4500.0 68.4098662867233
4620.0 68.7404416794549
4750.0 68.19965439277178
4870.0 67.19693704381889
5000.0 67.20921325368947
5150.0 68.1922004715157
5300.0 67.80324612052704
5450.0 68.06338775251363
5600.0 68.3263735567079
5800.0 67.37436938191824
6000.0 67.13248601826457
6150.0 66.58787716280521
6300.0 64.57979693268614
6500.0 63.88051060270074
6700.0 64.50391141983602
6900.0 64.68760046288922
7100.0 64.11147494842764
7300.0 63.978448060176916
7500.0 64.02129597378642
7750.0 63.790663018381935
8000.0 64.89913536951435
8250.0 65.5778308059457
8500.0 65.6234968506598
8750.0 66.20722417372365
9000.0 66.0015311059381
9250.0 66.5200675624618
9500.0 66.66062045150714
9750.0 65.70289359939015
10000.0 65.30524403428
10300.0 65.3755267619936
10600.0 67.05597330084369
10900.0 67.00348581491062
11200.0 66.60416562281976
11500.0 66.41912930458362
11800.0 65.83788730291393
12200.0 63.34963978119758
12500.0 64.25017075212571
12800.0 67.53049751401599
13200.0 66.95858760124325
13600.0 66.0519820295355
14000.0 64.49877115712661
14500.0 63.34773309718976
15000.0 64.76942862157195
15500.0 67.20198380494661
16000.0 65.67610972227011
16500.0 64.4999350683771
17000.0 62.14570496820251
17500.0 61.6770478620718
18000.0 62.49742205000983
18500.0 59.428692453677954
19000.0 62.47643617825209
19500.0 59.04266438530769
