Freq "Side Wall Bounce"
22.4 -3.9740369309517263
23.0 -3.774300562591506
23.6 -3.205050459971872
24.0 -1.237598884152348
25.0 0.2634146293312227
25.8 1.3388264179161098
26.5 2.2873998543205545
27.2 3.0905808432325585
28.0 3.9583960586993356
29.0 4.851621720051995
30.0 5.96809128051693
30.7 8.091274758785701
31.5 10.834151639821911
32.5 13.650461706608624
33.5 16.150035029580224
34.5 18.12440436841716
35.5 19.275852383714025
36.5 21.417309645919588
37.5 22.318882027500123
38.7 21.964111949173642
40.0 20.96132643816854
41.2 19.528316160835615
42.5 19.43004117401908
43.7 19.37979021393842
45.0 19.05932303442485
46.2 18.975475138957037
47.5 18.650912800593815
48.7 19.191684844228504
50.0 19.72479049151356
51.5 20.036604376285723
53.0 20.414555556312436
54.5 21.282295519911784
56.0 22.09394552343265
58.0 22.66612288637087
60.0 23.315824068814024
61.5 24.22484868463495
63.0 24.862216671924713
65.0 25.518054219253756
67.0 26.52824167455917
69.0 27.22107020417984
71.0 27.460055551859043
73.0 27.633302798638695
75.0 27.345077376210966
77.5 27.936368140137276
80.0 28.90661113025469
82.5 31.08501442102012
85.0 33.404785171893835
87.5 35.6291500871033
90.0 37.40153846841777
92.5 38.93994138978478
95.0 40.35288081170934
97.5 42.094880498173566
100.0 43.7992507223626
103.0 45.48803457426105
106.0 47.16957895329328
109.0 49.01105672687551
112.0 50.72182058672358
115.0 52.42591696740679
118.0 53.930691333740754
122.0 55.27397147253639
125.0 56.66835000005936
128.0 57.81171544498429
132.0 58.90978026580389
136.0 59.93671374697992
140.0 60.80424147214609
145.0 61.774149668193274
150.0 62.533584926444746
155.0 63.16057098130608
160.0 63.83101939491941
165.0 64.39921149184934
170.0 64.88744308615908
175.0 65.33738367829548
180.0 65.64742265397177
185.0 65.94670696158119
190.0 66.2153154764943
195.0 66.38448079735815
200.0 66.51338051689555
206.0 66.59389072515945
212.0 66.6332583931527
218.0 66.66225661491818
224.0 66.66066569904848
230.0 66.62920901697275
236.0 66.67158442304743
240.0 66.67934818437061
250.0 66.68865899849835
258.0 66.70938889515755
265.0 66.74882018025237
272.0 66.80907126699064
280.0 66.85771640352016
290.0 66.91870114719156
300.0 66.95095183237767
307.0 66.92284920036825
315.0 66.84473107033638
325.0 66.77684854420382
335.0 66.65902907769811
345.0 66.48115587406237
355.0 66.28075758536603
365.0 66.12323707858882
375.0 66.0065172434505
387.0 65.88505279986687
400.0 65.79542773676526
412.0 65.72565571678572
425.0 65.70550328737961
437.0 65.70250144016066
450.0 65.6785177272993
462.0 65.66756549802113
475.0 65.65595650674625
487.0 65.62877065831893
500.0 65.60458627102629
515.0 65.62370381736226
530.0 65.68821594684725
545.0 65.74425135623771
560.0 65.79609534725796
580.0 65.89326611655247
600.0 65.92651511748379
615.0 65.90426939856523
630.0 65.88466999236849
650.0 65.86666758232208
670.0 65.79554485167685
690.0 65.8305076862378
710.0 65.93702087968771
730.0 66.10250908915319
750.0 66.29686284261618
775.0 66.38915771126428
800.0 66.42619661967079
825.0 66.3676995994234
850.0 66.33970585776125
875.0 66.3231670020752
900.0 66.52833551061433
925.0 66.54077268008052
950.0 66.33986194618076
975.0 66.09033591029483
1000.0 65.58510772638034
1030.0 65.3768983059912
1060.0 65.5646230047136
1090.0 65.9616105505281
1120.0 66.26672317428267
1150.0 66.35972279627204
1180.0 66.25036856231654
1220.0 65.84052278872589
1250.0 65.24909479365165
1280.0 64.66658971357266
1320.0 64.44994781163426
1360.0 64.45707712099028
1400.0 64.41632068684503
1450.0 64.17888150143006
1500.0 63.803937398840986
1550.0 63.39712207808901
1600.0 63.06746574696254
1650.0 62.78308699072225
1700.0 62.75203522470315
1750.0 62.89336160206808
1800.0 62.808249806481555
1850.0 62.30564554631977
1900.0 61.71595480846652
1950.0 61.60979478991449
2000.0 61.91576653753718
2060.0 62.09003174938299
2120.0 61.753175705449635
2180.0 60.95402471349597
2240.0 60.383146715263734
2300.0 60.484998699716726
2360.0 60.608128172692744
2400.0 60.22072632582004
2500.0 59.918273366193034
2580.0 60.05367617287641
2650.0 60.28832516039266
2720.0 60.15658863413307
2800.0 59.945709559155276
2900.0 60.118502802625216
3000.0 60.24327684637717
3070.0 60.07005568045528
3150.0 60.36088716249755
3250.0 60.70892912934373
3350.0 60.87856055744852
3450.0 61.67707010938112
3550.0 62.472856816052385
3650.0 63.266714057374415
3750.0 64.2239857553357
3870.0 64.83101352802962
4000.0 65.85545148179283
4120.0 67.16694011847333
4250.0 68.01176440037541
4370.0 68.02542928931251
4500.0 68.00080485977816
4620.0 67.97334926714944
4750.0 66.73877551420071
4870.0 65.48511422905334
5000.0 65.49575190943892
5150.0 65.1664995843565
5300.0 63.00043851829794
5450.0 61.47047153120049
5600.0 60.46632300419505
5800.0 58.27137679425789
6000.0 57.1114127883142
6150.0 57.49964250113038
6300.0 59.01013293481384
6500.0 60.50171086029091
6700.0 61.68934445281272
6900.0 62.01996011741231
7100.0 62.535389173057055
7300.0 62.43537857117583
7500.0 61.971210108806915
7750.0 61.727225569744064
8000.0 61.11353218252789
8250.0 60.316222876592406
8500.0 59.54394604841376
8750.0 58.36659852298119
9000.0 57.872001404249716
9250.0 57.90422683069204
9500.0 57.91403933602318
9750.0 58.11035898543358
10000.0 58.52923071977352
10300.0 59.11808483410154
10600.0 59.5232659079287
10900.0 59.26758187562801
11200.0 59.08196219706774
11500.0 60.61792380524608
11800.0 60.53531024975072
12200.0 59.46294523261879
12500.0 59.21317565233031
12800.0 60.29695216495942
13200.0 58.24991170279053
13600.0 56.18027431622066
14000.0 53.39186895473043
14500.0 51.363795809690345
15000.0 54.22663231166463
15500.0 58.07266523696363
16000.0 56.36662055448909
16500.0 54.43529544766341
17000.0 52.49239244998863
17500.0 53.19926600940413
18000.0 54.8769304886368
18500.0 54.457522837560774
19000.0 58.9656461835899
19500.0 51.752880552916466
