Freq "Front Wall Bounce"
22.4 24.857162244059836
23.0 26.357162244059836
23.6 27.822310136953448
24.0 29.864115605740935
25.0 31.634234941029305
25.8 33.164115605740946
26.5 34.58825295925378
27.2 36.43423494102929
28.0 38.08825295925378
29.0 39.55853847343697
30.0 41.05853847343697
30.7 42.75853847343693
31.5 44.28326810935148
32.5 45.6128144481131
33.5 47.312814448113116
34.5 48.8378050699791
35.5 50.2217244822785
36.5 51.737805069979075
37.5 53.16322979560408
38.7 54.521724482278486
40.0 55.863229795604084
41.2 57.14724324578572
42.5 58.347243245785705
43.7 59.54724324578571
45.0 60.6472432457857
46.2 61.77320211222214
47.5 62.77320211222214
48.7 63.77320211222215
50.0 64.77320211222214
51.5 65.67320211222214
53.0 66.5290417522658
54.5 67.32904175226581
56.0 68.09960598094345
58.0 68.85761601060307
60.0 69.59960598094344
61.5 70.3290417522658
63.0 70.98411451960916
65.0 71.68411451960917
67.0 72.2557146460684
69.0 72.78411451960916
71.0 73.34042238982948
73.0 73.78411451960918
75.0 74.24042238982948
77.5 74.61106391460126
80.0 74.94042238982946
82.5 75.24042238982948
85.0 75.54042238982947
87.5 75.84042238982947
90.0 76.09596565301285
92.5 76.34042238982947
95.0 76.59596565301287
97.5 76.84042238982947
100.0 77.04042238982947
103.0 77.29596565301284
106.0 77.525426024695
109.0 77.72542602469498
112.0 77.925426024695
115.0 78.12542602469499
118.0 78.25402400430788
122.0 78.42542602469499
125.0 78.55402400430788
128.0 78.65402400430789
132.0 78.7540240043079
136.0 78.82734069316624
140.0 78.85402400430789
145.0 78.91264198045279
150.0 78.91264198045279
155.0 78.85658971167406
160.0 78.81264198045278
165.0 78.75658971167407
170.0 78.6305310595463
175.0 78.56043713128119
180.0 78.43499600342163
185.0 78.3056006981831
190.0 78.19082809631117
195.0 78.0655648953708
200.0 77.92642246605415
206.0 77.82642246605415
212.0 77.77299385447195
218.0 77.67299385447194
224.0 77.62013860339648
230.0 77.52013860339648
236.0 77.40779712755153
240.0 77.26015401102079
250.0 77.00072335312197
258.0 76.71688174502579
265.0 76.41111216829633
272.0 76.3111121682963
280.0 76.26457009771639
290.0 76.2346925706524
300.0 76.28909356554038
307.0 76.41540128680019
315.0 76.59960598094345
325.0 76.77064620319923
335.0 77.01298492395614
345.0 77.18411451960915
355.0 77.33975631198889
365.0 77.38411451960917
375.0 77.38544839282218
387.0 77.34672654783635
400.0 77.26271499625628
412.0 77.19309008107044
425.0 77.13669318156686
437.0 77.03669318156683
450.0 76.96457009771638
462.0 76.8696929871626
475.0 76.7696929871626
487.0 76.62883136603413
500.0 76.52883136603413
515.0 76.36015401102078
530.0 76.18852496356719
545.0 75.96015401102078
560.0 75.80436054910224
580.0 75.52050543920554
600.0 75.28215533322616
615.0 75.03532889766946
630.0 74.75652317806129
650.0 74.66686442550635
670.0 74.62562474451904
690.0 74.65233106289216
710.0 74.65822625696894
730.0 74.47492258363492
750.0 74.26943869388337
775.0 73.97823438697142
800.0 73.63246710327874
825.0 73.55799336743381
850.0 73.85515138049088
875.0 74.24010246465308
900.0 74.36301803637977
925.0 74.1571173174977
950.0 73.83046734491187
975.0 73.76150969573078
1000.0 74.15719408034691
1030.0 74.74285168762229
1060.0 75.08186143733087
1090.0 75.11026728119462
1120.0 75.3588226110801
1150.0 76.4850891244691
1180.0 77.9129856397396
1220.0 77.77699124662479
1250.0 76.52893944281294
1280.0 75.89683875436867
1320.0 76.21613585286575
1360.0 76.27004573004193
1400.0 75.23562016384481
1450.0 74.0262588320316
1500.0 74.14811986451623
1550.0 74.60758644858092
1600.0 74.2771911400694
1650.0 73.61383788676602
1700.0 72.92936313756589
1750.0 72.92168752359923
1800.0 73.37345150551549
1850.0 73.41298384227342
1900.0 73.16842506472456
1950.0 72.8394838295927
2000.0 72.47549353814394
2060.0 72.14026034680404
2120.0 72.16293750009724
2180.0 73.10654824359968
2240.0 73.00031694666413
2300.0 72.0592074047352
2360.0 71.4413085355429
2400.0 71.12635629838903
2500.0 71.42965062350298
2580.0 71.72535006549663
2650.0 71.81775601188143
2720.0 71.70323189508635
2800.0 71.44369312712689
2900.0 71.27629105855264
3000.0 71.09603153838508
3070.0 71.21194416993424
3150.0 71.3448753008109
3250.0 71.28075581854563
3350.0 71.22400088200531
3450.0 71.30228547863882
3550.0 71.72084830481735
3650.0 72.26478213786457
3750.0 72.462149553149
3870.0 72.24560246828202
4000.0 72.16287706820498
4120.0 72.13998892115842
4250.0 72.42355527017689
4370.0 72.5838280899932
4500.0 72.59581414118094
4620.0 72.72151423363364
4750.0 72.73601819088172
4870.0 72.98616309983024
5000.0 73.41340735610176
5150.0 73.63342892843376
5300.0 73.7821422677615
5450.0 73.52433196303203
5600.0 72.75535570677545
5800.0 72.05306579980287
6000.0 72.22254871363818
6150.0 73.12555870778019
6300.0 74.17715465881089
6500.0 74.91327209659934
6700.0 75.0503423535831
6900.0 75.2493458023823
7100.0 75.53819977459163
7300.0 75.56589346092284
7500.0 75.52080038781644
7750.0 75.4148170239565
8000.0 75.01413424081089
8250.0 74.65976669879583
8500.0 74.62231145476952
8750.0 74.34548062566954
9000.0 73.68771076256361
9250.0 73.64268117833352
9500.0 74.20504343947913
9750.0 74.10893487634073
10000.0 74.17967899931774
10300.0 74.35737435344434
10600.0 75.22082530334663
10900.0 75.9115542803829
11200.0 76.72379716849204
11500.0 77.01466542451894
11800.0 77.51301992157615
12200.0 77.56154409133195
12500.0 77.27986141516591
12800.0 76.7762330192143
13200.0 76.7059045137118
13600.0 76.66322120613215
14000.0 76.92899363175302
14500.0 76.280004453608
15000.0 75.86430114625477
15500.0 75.76597926868918
16000.0 74.24896465591588
16500.0 74.97676773293146
17000.0 74.32533042474736
17500.0 71.78912556532934
18000.0 71.52657466305867
18500.0 71.83125542336258
19000.0 71.40990027352255
19500.0 71.05123138875963
