Freq,On Axis,Listening Window,Sound Power,Early Reflections,Early Reflections DI,Sound Power DI,DI offset
20.5078,43.0804,42.62386744281062,43.265926704461776,42.59272765603106,40.03113978677956,39.357940738348844,40
21.9727,45.076899999999995,44.61586898607732,44.022652987666646,43.94641972803302,40.669449258044295,40.59321599841067,40
23.4375,45.12899999999999,44.77078975819296,48.37316712513058,46.61482778597059,38.15596197222237,36.39762263306238,40
24.9023,48.24289999999999,47.91305568910033,49.08014953170692,48.26288599515644,39.650169693943894,38.83290615739341,40
26.3672,50.37389999999999,50.08593191533521,50.70529527225554,50.17200683101581,39.9139250843194,39.38063664307967,40
27.832,50.996700000000004,50.75441218333293,52.52725671289116,51.51069839529592,39.24371378803701,38.22715547044177,40
29.2969,53.4341,53.23897421736271,54.01605163721152,53.483552889307674,39.755421328055036,39.22292258015119,40
30.7617,55.0513,54.8955663094205,55.76889758043325,55.21765222748988,39.67791408193062,39.126668728987255,40
32.2266,56.70940000000002,56.576998578883575,57.33142123433245,56.855657978702936,39.72134060018064,39.24557734455112,40
33.6914,58.32910000000001,58.217116663660505,58.83364374179705,58.443021971318046,39.77409469234246,39.38347292186346,40
35.1562,59.4431,59.33003974933463,59.78618406818603,59.475278140840004,39.85476160849463,39.5438556811486,40
36.6211,60.7097,60.62890616510293,61.36139972766698,60.93719100459242,39.69171516051051,39.267506437435955,40
38.0859,62.2204,62.15588493100539,62.78839313188503,62.42728814505155,39.72859678595384,39.36749179912036,40
39.5508,63.378600000000006,63.31379804114539,63.77437281464232,63.49879181023934,39.81500623090605,39.53942522650307,40
41.0156,64.4571,64.40183818972531,64.88512681296362,64.60257720663748,39.799260983087834,39.51671137676169,40
42.4805,65.6756,65.63224841540577,66.18142895733598,65.87369056022757,39.758557855178196,39.45081945806979,40
43.9453,66.83349999999999,66.7953830497404,67.24039519980577,66.99161935764899,39.80376369209141,39.55498784993462,40
45.4102,67.8628,67.83293350479902,68.33221422961513,68.06199163216294,39.77094187263607,39.50071927518388,40
46.875,68.8768,68.85227162392931,69.34980156688692,69.0849819983842,39.76728962554512,39.50247005704239,40
48.3398,70.0242,70.0026240876916,70.42006143108033,70.19791949674278,39.804704590948816,39.58256265661127,40
51.2695,71.8868,71.87624660333165,72.37413517558744,72.12032588917812,39.75592071415353,39.50211142774421,40
52.7344,72.7765,72.76799127466568,73.21371526313958,72.98795180235741,39.78003947230826,39.5542760115261,40
54.1992,73.6303,73.62507949716186,74.07120445675857,73.84816666681125,39.77691283035061,39.5538750404033,40
55.6641,74.4971,74.49442119688787,74.89668747606969,74.69947904431362,39.79494215257425,39.597733720818184,40
58.5938,75.83509999999998,75.83728064839346,76.25489139388719,76.05330212409885,39.78397852429461,39.58238925450627,40
60.0586,76.6053,76.60881132702399,76.99825752381983,76.81260247521831,39.79620885180567,39.610553803204155,40
62.9883,77.98949999999999,77.99550562080304,78.35295576838189,78.18664726338206,39.80885835742099,39.642549852421155,40
64.4531,78.40179999999998,78.40974645687669,78.7767709492079,78.6066832089632,39.803063247913485,39.63297550766879,40
67.3828,79.163,79.17481823321727,79.53486098947435,79.3717261832888,39.803092049928466,39.63995724374291,40
68.8477,79.4145,79.42696415453476,79.76732545914679,79.61511745728123,39.81184669725353,39.65963869538797,40
71.7773,80.2439,80.2574415650881,80.57220762542082,80.43450878637452,39.82293277871358,39.685233939667285,40
74.707,80.8203,80.83512326684,81.12626807662005,81.00252691098332,39.83259635585668,39.70885519021995,40
77.6367,80.8778,80.89345801002841,81.16248998674149,81.05115917559088,39.84229883443753,39.73096802328692,40
79.1016,81.0381,81.05434733368622,81.31763104985073,81.20977259738092,39.844574736305304,39.73671628383549,40
82.0312,81.6155,81.63235943507831,81.87636663094501,81.77910351837558,39.853255916702736,39.7559928041333,40
84.9609,81.7271,81.74419143377133,81.96913632746698,81.88224842685177,39.86194300691956,39.77505510630435,40
87.8906,81.53979999999999,81.56043294257981,81.83333568464207,81.72450064413745,39.83593229844236,39.72709725793774,40
90.8203,81.9603,81.98070307998398,82.21905238079998,82.12866450289955,39.85203857708443,39.761650699184,40
95.2148,82.10209999999998,82.11588994098254,82.22093634229783,82.19497630376829,39.920913637214255,39.89495359868471,40
98.1445,82.2496,82.26448948282646,82.37444426380532,82.34593339109982,39.91855609172664,39.89004521902115,40
101.074,82.1296,82.15069135576746,82.35415267797471,82.2812902870553,39.869401068712165,39.79653867779275,40
105.469,82.28029999999998,82.30531027888668,82.5599206783202,82.46877090015832,39.83653937872836,39.74538960056648,40
108.398,82.26509999999999,82.28548270364924,82.45494266294006,82.40351424675139,39.88196845689785,39.83054004070918,40
112.793,82.5736,82.59249595507225,82.74934276904892,82.70386180613988,39.88863414893237,39.84315318602333,40
117.188,82.5521,82.56528474130982,82.63645000427806,82.6302067970131,39.93507794429672,39.928834737031764,40
120.117,82.68369999999999,82.6948549685384,82.68480940877797,82.72133217141771,39.97352279712068,40.01004555976043,40
124.512,82.77080000000001,82.78158983733593,82.75155147997182,82.79742882614796,39.984161011187965,40.030038357364106,40
128.906,82.6841,82.70038024794627,82.7317389141518,82.74766353482157,39.9527167131247,39.968641333794466,40
133.301,82.6529,82.6691491490339,82.70300670854738,82.7182327997107,39.950916349323194,39.96614244048652,40
139.16,82.6529,82.67005132941667,82.74889646666392,82.74037747606805,39.92967385334862,39.92115486275274,40
143.555,82.71530000000001,82.72874582369629,82.69563416230926,82.74306459657471,39.985681227121574,40.033111661387025,40
147.949,82.6366,82.64939825144722,82.67004885877715,82.68827599522841,39.961122256218815,39.97934939267007,40
153.809,82.6136,82.62404310354914,82.59595845331128,82.63737503472069,39.98666806882845,40.02808465023786,40
159.668,82.4862,82.50052742647972,82.54959448713626,82.5527189282794,39.94780849820032,39.95093293934346,40
165.527,82.3827,82.40030369203514,82.54017234126079,82.49549483065965,39.904808861375486,39.86013135077435,40
171.387,82.33790000000002,82.35063093196224,82.45928553527959,82.42803215651247,39.92259877544977,39.89134539668265,40
177.246,82.4974,82.49188832789976,82.25110764092838,82.3956535566598,40.09623477123996,40.24078068697138,40
183.105,82.1899,82.19488822601939,82.07448135487643,82.16136743296923,40.03352079305016,40.12040687114296,40
188.965,82.00880000000001,82.01513607321728,81.94928622983363,82.00758711193907,40.007548961278204,40.065849843383646,40
196.289,81.88319999999999,81.88294875859303,81.76397113194245,81.84696435691345,40.035984401679585,40.118977626650576,40
203.613,81.763,81.75008766357925,81.54113019086151,81.66022547346287,40.08986219011638,40.20895747271774,40
210.938,81.57050000000001,81.56871549254261,81.37027431821643,81.49099102122909,40.077724471313516,40.19844117432618,40
218.262,81.1986,81.19912894396803,81.12640572509983,81.1829980101506,40.016130933817436,40.072723218868205,40
225.586,81.0453,81.03178712426887,80.8870402345638,80.97576522581366,40.056021898455214,40.144746889705075,40
232.91,80.9758,80.95580191020892,80.6794120360515,80.83044750819414,40.12535440201478,40.27638987415742,40
241.699,80.7644,80.74363572579094,80.37334988265177,80.57269520446259,40.17094052132835,40.37028584313917,40
250.488,80.4811,80.45389006045951,80.01544929679466,80.24079094855108,40.213099111908434,40.43844076366486,40
259.277,80.3894,80.35845684031563,79.90320666412406,80.12403363985946,40.23442320045616,40.45525017619157,40
268.066,80.23829999999998,80.18857417935307,79.61559805320653,79.8989325616291,40.28964161772397,40.57297612614654,40
276.855,80.0643,80.04905152555573,79.44658821872977,79.76384566559122,40.285205859964506,40.60246330682595,40
287.109,79.5571,79.5470937284692,79.2638035824121,79.41402678845736,40.133066940011844,40.28329014605711,40
297.363,79.6304,79.56987799182606,79.0859089745816,79.33832176691357,40.231556224912495,40.48396901724446,40
307.617,79.4376,79.39745987495682,78.77576830705874,79.07582483925376,40.32163503570307,40.62169156789808,40
319.336,79.3578,79.25421548124014,78.38779759351095,78.79527958554304,40.458935895697095,40.866417887729185,40
329.59,78.6572,78.62622782788661,77.93823898869792,78.29094143517442,40.33528639271219,40.68798883918869,40
341.309,78.7288,78.66399439326494,77.86761144896322,78.25176647274303,40.412227920521914,40.796382944301726,40
353.027,78.3981,78.38108821022067,77.48044574029683,77.94382468729019,40.43726352293048,40.90064246992384,40
366.211,77.5665,77.49385288519723,77.24321004458662,77.34883574426462,40.14501714093261,40.25064284061061,40
379.395,76.69289999999998,76.64705595452918,77.02544554611973,76.75502160582681,39.89203434870237,39.62161040840945,40
392.578,78.2059,77.86991913483644,77.52635605488899,77.32351909698883,40.546400037847604,40.343563079947444,40
405.762,80.6674,80.38571016105325,78.12735704889658,79.12965371314246,41.256056447910794,42.25835311215667,40
420.41,80.1788,79.98957447658303,77.62226378821032,78.79952048833906,41.190053988243974,42.36731068837271,40
435.059,79.4187,79.30691674166906,77.18867225979275,78.24823054526277,41.058686196406285,42.1182444818763,40
451.172,79.9562,79.7574667221223,77.09379193232498,78.44772470184782,41.309742020274484,42.66367478979733,40
465.82,79.6711,79.47651497285165,76.96319718109667,78.28156302300312,41.19495194984853,42.51331779175497,40
483.398,79.3721,79.28629822491274,76.9022556002761,78.16047750227246,41.125820722640285,42.384042624636635,40
499.512,79.2898,79.15525430034032,76.82543948286583,78.0359865795629,41.119267720777415,42.329814817474485,40
517.09,79.513,79.3526234666773,76.74756567656694,78.07928558441921,41.27333788225809,42.605057790110365,40
536.133,79.8835,79.69456530394828,76.55663208255652,77.99944061236934,41.69512469157894,43.13793322139176,40
555.176,79.5718,79.54400097291534,76.68618823879115,78.17434112210907,41.36965985080627,42.857812734124195,40
574.219,79.8706,79.71011066060086,76.89714465795629,78.44572435674733,41.26438630385353,42.81296600264457,40
594.727,79.51240000000001,79.42652150870856,76.6701985585044,78.0783120778875,41.34820943082106,42.756322950204165,40
615.234,79.4313,79.37928714785163,76.62317952235193,78.07026989961159,41.30901724824004,42.756107625499695,40
637.207,79.6868,79.6091961529909,76.97790086694741,78.39800294342174,41.21119320956916,42.631295286043496,40
659.18,79.5281,79.36500022979803,76.59718791447938,78.19850018661766,41.16650004318036,42.76781231531865,40
682.617,79.2507,79.17142146899008,76.32967465164703,77.84554276626525,41.32587870272482,42.84174681734305,40
707.52,79.49540000000002,79.37680068547897,76.51206328368507,78.07103082673208,41.305769858746885,42.8647374017939,40
732.422,79.05589999999998,78.98385687690747,76.22349496554973,77.70071820486756,41.28313867203991,42.760361911357734,40
757.324,79.1324,78.88797615946612,75.98887881360675,77.68858526926851,41.199390890197606,42.899097345859374,40
785.156,78.912,78.85815090633457,76.05649826147535,77.92950835048984,40.92864255584473,42.80165264485922,40
811.523,78.8411,78.7767706123573,76.21311846534987,77.9304924939582,40.8462781183991,42.56365214700743,40
840.82,79.3938,79.35372524873256,76.50680596551004,78.24208470240534,41.11164054632722,42.84691928322252,40
870.117,79.53139999999999,79.27175761697647,76.57837169342287,78.13728439098439,41.13447322599208,42.693385923553606,40
900.879,80.28960000000001,79.95390541381586,77.20394763635987,78.30596541252862,41.64794000128724,42.74995777745599,40
933.105,80.88749999999999,80.30556537710997,77.53896881433623,78.63252599031489,41.67303938679508,42.76659656277374,40
965.332,82.4719,81.77553963625726,77.91985193325083,79.6653809039031,42.110158732354165,43.85568770300644,40
1000.49,80.7835,80.25993776213724,79.62014361782386,79.6091791919435,40.650758570193744,40.639794144313385,40
1035.64,81.78829999999999,81.65644801582562,80.85780774001404,80.97368029364522,40.6827677221804,40.79864027581158,40
1072.27,83.0914,82.59417039942934,82.95520434366715,80.58196342148769,42.01220697794166,39.6389660557622,40
1108.89,81.8766,81.66991559744208,78.65397120933635,79.7940069024412,41.87590869500089,43.01594438810574,40
1148.44,82.01240000000001,82.11896438539745,81.92245760949973,80.48738427754964,41.63158010784781,40.19650677589772,40
1189.45,83.3536,83.03939537605038,84.66272877790587,81.98827992127418,41.051115454776195,38.37666659814451,40
1230.47,82.201,81.8850139266622,80.48786467909682,80.30292583499332,41.58208809166888,41.39714924756538,40
1274.41,84.21439999999998,83.6958583201384,82.44619234113514,82.26772790773474,41.42813041240366,41.249665979003254,40
1319.82,81.7089,81.63053533731019,78.30328289823544,79.23607694371782,42.39445839359237,43.327252439074755,40
1366.7,82.16820000000001,81.86135713585932,77.53704267559995,79.27654612051691,42.58481101534241,44.32431446025937,40
1413.57,82.5947,82.06197078126799,78.58443824666793,79.0858112989356,42.97615948233239,43.47753253460006,40
1463.38,82.86080000000001,82.49066744075127,78.39573372726134,80.61754563667137,41.8731218040799,44.09493371348992,40
1516.11,81.98510000000002,81.51651766086522,76.40576429734884,79.0793450092441,42.437172651621125,45.11075336351638,40
1568.85,79.1882,79.27999061187766,77.07581966133137,77.43108998399734,41.848900627880326,42.2041709505463,40
1624.51,79.8856,79.49880947000274,73.62442691052644,76.09470280312293,43.40410666687981,45.8743825594763,40
1681.64,81.7596,80.89260294468623,75.72060242895957,77.59871086714419,43.29389207754204,45.172000515726666,40
1741.7,82.0781,81.16823646570478,75.69221824618073,77.00760046396927,44.16063600173551,45.47601821952405,40
1803.22,82.04510000000002,81.33587147784998,76.37775112966901,77.54879755050395,43.78707392734603,44.95812034818097,40
1866.21,81.245,80.57773440737307,73.20928644304064,76.43231349161192,44.14542091576115,47.36844796433243,40
1932.13,80.0583,79.7737788802051,74.60890580759093,76.0788779785371,43.69490090166801,45.16487307261417,40
1999.51,80.7327,80.0576001132514,72.70436217396471,76.02966554126243,44.027934571988965,47.353237939286686,40
2069.82,81.43279999999999,80.67802945827806,72.84130637319294,76.28048253390395,44.39754692437411,47.836723085085126,40
2143.07,81.4712,80.75576310547507,72.87858484364287,76.35596364870923,44.399799456765834,47.8771782618322,40
2219.24,80.6523,80.04474635082117,72.45460728797161,75.84913591092027,44.1956104399009,47.59013906284956,40
2296.88,80.2224,79.49500764333743,72.10844510785734,75.56503543768721,43.929972205650216,47.386562535480095,40
2378.91,80.3229,79.58972477998945,72.31367281574836,75.53778328445577,44.05194149553368,47.27605196424109,40
2462.4,82.23760000000001,81.30821534019185,73.52818089755571,76.88604772635011,44.42216761384174,47.780034442636136,40
2548.83,83.1858,82.3147007740797,74.4909984640138,77.9312355949414,44.3834651791383,47.8237023100659,40
2639.65,82.593,81.91172408306095,74.33919206639415,78.03283494558889,43.87888913747206,47.5725320166668,40
2731.93,82.2829,81.43207537157576,73.89883288359171,77.60326188233532,43.828813489240446,47.533242487984054,40
2828.61,83.0389,82.05856740155104,74.41703965254544,77.9534330590737,44.10513434247734,47.641527749005604,40
2928.22,83.84459999999999,82.9518787604988,75.40324557463683,78.76028934162896,44.19158941886984,47.54863318586197,40
3030.76,84.1545,83.22422885669225,75.73052234486903,79.15529739222507,44.068931464467184,47.49370651182322,40
3137.7,83.88979999999998,83.08158878547336,75.92604267686146,79.32666555228754,43.75492323318582,47.1555461086119,40
3249.02,83.7721,82.84968700394055,75.89752146080295,79.0606053274969,43.789081676443644,46.952165543137596,40
3363.28,84.1312,83.19325664173935,75.81636625702437,79.07386820492263,44.11938843681672,47.37689038471498,40
3481.93,84.7883,83.85302357188648,76.31000415444788,79.64969311800519,44.20333045388129,47.5430194174386,40
3604.98,84.7339,83.98482254767221,76.57255996391426,79.70858028195653,44.27624226571568,47.41226258375795,40
3732.42,84.51,83.63644391213532,76.21883848203544,79.42440499039883,44.21203892173649,47.41760543009988,40
3864.26,82.5065,82.20289650042379,75.66769212137751,79.00847687498431,43.19441962543948,46.53520437904628,40
4000.49,81.1301,81.293974352235,75.12201483406616,78.48417370331836,42.809800648916635,46.17195951816883,40
4141.11,81.91319999999999,81.87910647334887,75.6357017920121,78.98570777205681,42.89339870129206,46.24340468133677,40
4287.6,81.13310000000001,81.52854633890469,75.785702696214,79.06622509844873,42.462321240455964,45.74284364269069,40
4438.48,80.751,81.4164660501293,75.74556852642084,78.88569390953754,42.530772140591765,45.67089752370846,40
4595.21,79.6329,80.72496149675857,75.5387954011274,78.59253039434546,42.13243110241311,45.186166095631165,40
4756.35,79.1851,80.56573001753841,75.54971922083556,78.8904782550722,41.67525176246622,45.01601079670286,40
4924.8,79.9933,81.25424781108826,75.73374701818133,79.00652030154842,42.24772750953984,45.52050079290693,40
5097.66,80.056,81.17182872815455,75.46646753252551,78.6419546215673,42.52987410658726,45.70536119562904,40
5277.83,80.0796,80.92755107671228,75.017564115976,78.31380947393333,42.613741602778944,45.909986960736276,40
5463.87,80.1782,80.53574447022464,75.05074530099284,77.95453273027395,42.58121173995069,45.4849991692318,40
5657.23,80.471,80.28603782522049,74.3013369317097,77.55089006888795,42.73514775633254,45.98470089351079,40
5856.45,80.0967,80.12577847722366,73.93598072333508,77.41046886723466,42.715309609989006,46.189797753888584,40
6062.99,81.6246,81.07595267306434,74.0735170448102,77.77599139657556,43.29996127648877,47.00243562825413,40
6276.86,81.7347,80.62594908444721,74.23771261343246,77.6812218897938,42.94472719465341,46.38823647101475,40
6498.05,82.4587,80.59104280937665,74.06399196528315,77.49068344481657,43.10035936456008,46.527050844093495,40
6726.56,82.2804,80.78470701901526,73.84840884740092,77.34453579276455,43.44017122625071,46.93629817161434,40
6963.87,81.5485,80.72693602108579,73.61068958101842,77.62980080572147,43.09713521536432,47.11624644006737,40
7209.96,82.1952,81.19262341300339,73.92723219598511,77.82090408889525,43.37171932410814,47.265391217018276,40
7464.84,82.559,81.2251264906792,73.71336031348454,77.57073843181664,43.654388058862565,47.51176617719466,40
7727.05,82.8334,81.280808561242,73.5395949985944,77.32865631974538,43.95215224149662,47.7412135626476,40
7999.51,82.4608,81.00067749174677,73.1132145714596,76.91149143917248,44.08918605257429,47.88746292028718,40
8282.23,81.9391,80.62632405433432,73.09166102852532,77.00036984602431,43.625954208310006,47.534663025808996,40
8573.73,81.7944,80.15241953911544,72.96470425304557,76.93380571138071,43.21861382773473,47.187715286069874,40
8876.95,81.39,79.7494660920912,72.56750505318138,76.84704068135281,42.90242541073839,47.18196103890982,40
9188.96,80.6832,80.28385015458335,72.4253029886393,76.58969628152974,43.69415387305361,47.858547165944046,40
9514.16,81.1057,80.19287799458702,72.09667090832785,76.2893648265563,43.90351316803073,48.09620708625917,40
9849.61,80.9864,79.69706007800538,71.68435006213049,75.97279126183786,43.72426881616752,48.01271001587489,40
10196.8,80.7692,80.0461937112125,71.74326149165182,76.13877737887613,43.90741633233637,48.302932219560674,40
10555.7,81.529,80.36333949842509,71.81902712305961,76.25584143611891,44.10749806230618,48.54431237536548,40
10927.7,81.6833,80.45739093618045,71.73572127912288,76.09874749778342,44.358643438397024,48.72166965705756,40
11313.0,80.74090000000001,80.03858439330163,71.29336173364582,75.67081757206927,44.367766821232365,48.74522265965581,40
11712.9,80.3985,79.88609156645238,71.08497863049894,75.57509508152384,44.31099648492854,48.80111293595344,40
