Freq "Early Reflections"
20.5078 42.59272765603106
21.9727 43.94641972803302
23.4375 46.61482778597059
24.9023 48.26288599515644
26.3672 50.17200683101581
27.832 51.51069839529592
29.2969 53.483552889307674
30.7617 55.21765222748988
32.2266 56.855657978702936
33.6914 58.443021971318046
35.1562 59.475278140840004
36.6211 60.93719100459242
38.0859 62.42728814505155
39.5508 63.49879181023934
41.0156 64.60257720663748
42.4805 65.87369056022757
43.9453 66.99161935764899
45.4102 68.06199163216294
46.875 69.0849819983842
48.3398 70.19791949674278
51.2695 72.12032588917812
52.7344 72.98795180235741
54.1992 73.84816666681125
55.6641 74.69947904431362
58.5938 76.05330212409885
60.0586 76.81260247521831
62.9883 78.18664726338206
64.4531 78.6066832089632
67.3828 79.3717261832888
68.8477 79.61511745728123
71.7773 80.43450878637452
74.707 81.00252691098332
77.6367 81.05115917559088
79.1016 81.20977259738092
82.0312 81.77910351837558
84.9609 81.88224842685177
87.8906 81.72450064413745
90.8203 82.12866450289955
95.2148 82.19497630376829
98.1445 82.34593339109982
101.074 82.2812902870553
105.469 82.46877090015832
108.398 82.40351424675139
112.793 82.70386180613988
117.188 82.6302067970131
120.117 82.72133217141771
124.512 82.79742882614796
128.906 82.74766353482157
133.301 82.7182327997107
139.16 82.74037747606805
143.555 82.74306459657471
147.949 82.68827599522841
153.809 82.63737503472069
159.668 82.5527189282794
165.527 82.49549483065965
171.387 82.42803215651247
177.246 82.3956535566598
183.105 82.16136743296923
188.965 82.00758711193907
196.289 81.84696435691345
203.613 81.66022547346287
210.938 81.49099102122909
218.262 81.1829980101506
225.586 80.97576522581366
232.91 80.83044750819414
241.699 80.57269520446259
250.488 80.24079094855108
259.277 80.12403363985946
268.066 79.8989325616291
276.855 79.76384566559122
287.109 79.41402678845736
297.363 79.33832176691357
307.617 79.07582483925376
319.336 78.79527958554304
329.59 78.29094143517442
341.309 78.25176647274303
353.027 77.94382468729019
366.211 77.34883574426462
379.395 76.75502160582681
392.578 77.32351909698883
405.762 79.12965371314246
420.41 78.79952048833906
435.059 78.24823054526277
451.172 78.44772470184782
465.82 78.28156302300312
483.398 78.16047750227246
499.512 78.0359865795629
517.09 78.07928558441921
536.133 77.99944061236934
555.176 78.17434112210907
574.219 78.44572435674733
594.727 78.0783120778875
615.234 78.07026989961159
637.207 78.39800294342174
659.18 78.19850018661766
682.617 77.84554276626525
707.52 78.07103082673208
732.422 77.70071820486756
757.324 77.68858526926851
785.156 77.92950835048984
811.523 77.9304924939582
840.82 78.24208470240534
870.117 78.13728439098439
900.879 78.30596541252862
933.105 78.63252599031489
965.332 79.6653809039031
1000.49 79.6091791919435
1035.64 80.97368029364522
1072.27 80.58196342148769
1108.89 79.7940069024412
1148.44 80.48738427754964
1189.45 81.98827992127418
1230.47 80.30292583499332
1274.41 82.26772790773474
1319.82 79.23607694371782
1366.7 79.27654612051691
1413.57 79.0858112989356
1463.38 80.61754563667137
1516.11 79.0793450092441
1568.85 77.43108998399734
1624.51 76.09470280312293
1681.64 77.59871086714419
1741.7 77.00760046396927
1803.22 77.54879755050395
1866.21 76.43231349161192
1932.13 76.0788779785371
1999.51 76.02966554126243
2069.82 76.28048253390395
2143.07 76.35596364870923
2219.24 75.84913591092027
2296.88 75.56503543768721
2378.91 75.53778328445577
2462.4 76.88604772635011
2548.83 77.9312355949414
2639.65 78.03283494558889
2731.93 77.60326188233532
2828.61 77.9534330590737
2928.22 78.76028934162896
3030.76 79.15529739222507
3137.7 79.32666555228754
3249.02 79.0606053274969
3363.28 79.07386820492263
3481.93 79.64969311800519
3604.98 79.70858028195653
3732.42 79.42440499039883
3864.26 79.00847687498431
4000.49 78.48417370331836
4141.11 78.98570777205681
4287.6 79.06622509844873
4438.48 78.88569390953754
4595.21 78.59253039434546
4756.35 78.8904782550722
4924.8 79.00652030154842
5097.66 78.6419546215673
5277.83 78.31380947393333
5463.87 77.95453273027395
5657.23 77.55089006888795
5856.45 77.41046886723466
6062.99 77.77599139657556
6276.86 77.6812218897938
6498.05 77.49068344481657
6726.56 77.34453579276455
6963.87 77.62980080572147
7209.96 77.82090408889525
7464.84 77.57073843181664
7727.05 77.32865631974538
7999.51 76.91149143917248
8282.23 77.00036984602431
8573.73 76.93380571138071
8876.95 76.84704068135281
9188.96 76.58969628152974
9514.16 76.2893648265563
9849.61 75.97279126183786
10196.8 76.13877737887613
10555.7 76.25584143611891
10927.7 76.09874749778342
11313.0 75.67081757206927
11712.9 75.57509508152384
12126.0 75.36106519113638
12553.7 74.83803361921751
12996.1 75.24268078891843
13454.6 75.75766612365967
13929.2 76.05384388908139
14419.9 76.41747468145476
14928.2 76.57925412311081
15455.6 76.57165859961772
16000.5 76.64482277170043
16564.5 76.97969326731038
17148.9 77.28940251916174
17752.4 76.33886556549493
18379.4 73.23122443960361
19026.9 68.15360684140508
19697.8 63.484126436669825
19999.5 61.69572306339383
