Freq,On Axis,Listening Window,Sound Power,Early Reflections,Early Reflections DI,Sound Power DI,DI offset
20.5078,57.50070000000001,57.49086230692329,57.14738442467943,57.3245594119865,40.16630289493679,40.34347788224386,40
21.9727,58.957800000000006,58.955545250757964,58.74578600984593,58.85680915962219,40.09873609113578,40.209759240912035,40
23.4375,60.2863,60.27958124135931,60.01457808052125,60.15061486027288,40.12896638108643,40.26500316083806,40
24.9023,62.080200000000005,62.073115740556844,61.81123135009214,61.947116131799376,40.12599960875747,40.2618843904647,40
26.3672,63.29129999999999,63.28302909455827,62.98323315506259,63.13773213160319,40.145296962955086,40.29979593949568,40
27.832,64.931,64.92065407933308,64.60678009079362,64.76694019822655,40.153713881106526,40.313873988539456,40
29.2969,66.1244,66.11421702487517,65.79584587913152,65.95946090013737,40.1547561247378,40.318371145743654,40
30.7617,67.3028,67.29102484885662,66.97079708284154,67.13354396427901,40.15748088457761,40.32022776601508,40
32.2266,68.2767,68.26460612239389,67.9414609584852,68.10632668689097,40.15827943550292,40.32314516390869,40
33.6914,69.3299,69.31882367219124,69.02559035721166,69.17444941265062,40.144374259540626,40.29323331497959,40
35.1562,70.39819999999999,70.3850469151082,70.04827283587832,70.21883419209267,40.16621272301553,40.33677407922988,40
36.6211,71.2391,71.22543239465051,70.89458107685708,71.06144580184304,40.163986592807476,40.33085131779343,40
38.0859,72.0777,72.06409412798406,71.74290085359443,71.90489175876198,40.159202369222086,40.32119327438963,40
39.5508,72.9245,72.91005703220593,72.57864200526842,72.74519307506927,40.16486395713666,40.331415026937506,40
41.0156,73.761,73.74472035373275,73.38953533658855,73.56752743203693,40.17719292169582,40.355185017144194,40
42.4805,74.46140000000001,74.44487856916436,74.08921850811294,74.2674686063399,40.177409962824456,40.355660061051424,40
43.9453,75.1886,75.17266779867545,74.83274777746222,75.00291999101965,40.169747807655796,40.33992002121323,40
45.4102,75.8173,75.80101380602602,75.46282109960465,75.63139625857029,40.16961754745573,40.33819270642137,40
46.875,76.5235,76.50534943995052,76.15706026635247,76.32930232206276,40.17604711788776,40.34828917359805,40
48.3398,76.978,76.95840278428803,76.60267823055271,76.77746195101246,40.18094083327557,40.355724553735314,40
51.2695,78.0039,77.98480596592984,77.64659439777982,77.81261638823383,40.172189577696,40.338211568150015,40
52.7344,78.5364,78.51639852741089,78.17710414011441,78.3433799107552,40.17301861665568,40.339294387296476,40
54.1992,79.073,79.05056493307474,78.68486007365013,78.86366590521429,40.18689902786045,40.36570485942461,40
55.6641,79.54780000000001,79.5225022738258,79.11245684245303,79.31219110500881,40.210311168816986,40.410045431372765,40
58.5938,80.2748,80.24747998721715,79.80888845691085,80.02361092194785,40.2238690652693,40.4385915303063,40
60.0586,80.6795,80.65227547653684,80.2342577799487,80.43736147277417,40.21491400376267,40.41801769658814,40
62.9883,81.28360000000002,81.25517773798938,80.83423023878711,81.0378575134804,40.21732022450898,40.42094749920227,40
64.4531,81.54119999999999,81.51050460790962,81.07420806882088,81.28458045119507,40.225924156714555,40.436296539088744,40
67.3828,81.9841,81.95312623989845,81.55721399288785,81.74474044928832,40.20838579061014,40.3959122470106,40
68.8477,82.147,82.11710154805313,81.76163022508179,81.92710129346567,40.19000025458746,40.35547132297134,40
71.7773,82.67389999999999,82.64127171701752,82.27034129242305,82.44255974837816,40.19871196863936,40.37093042459446,40
74.707,83.1178,83.08115766011896,82.67500470355817,82.8650032116347,40.21615444848426,40.40615295656079,40
77.6367,83.51019999999998,83.47019997066347,83.03632205533744,83.23829483156653,40.23190513909694,40.433877915326036,40
79.1016,83.6753,83.63378284856752,83.18399139732645,83.3931975906193,40.240585257948226,40.44979145124107,40
82.0312,83.86569999999999,83.82203582947206,83.35933731774352,83.57430402727705,40.247731802195005,40.46269851172853,40
84.9609,84.0684,84.02513490039694,83.6198933530345,83.80414845939154,40.220986441005394,40.40524154736244,40
87.8906,84.4876,84.4420531863837,84.0573781254005,84.22910880470215,40.21294438168155,40.3846750609832,40
90.8203,84.8723,84.81726259646955,84.27688064021187,84.52617411525961,40.29108848120994,40.540381956257676,40
95.2148,84.9392,84.88182916918355,84.37717446402694,84.60408272826362,40.27774644091993,40.50465470515661,40
98.1445,85.1744,85.11549102631551,84.61436051796385,84.83950429697485,40.27598672934066,40.501130508351665,40
101.074,85.1889,85.13047180941291,84.70524854778982,84.89032342139095,40.240148388021964,40.42522326162309,40
105.469,85.5619,85.4927411534759,84.94495893775178,85.19237326522314,40.300367888252765,40.547782215724126,40
108.398,85.7703,85.69720957175399,85.12939033500042,85.38281224535437,40.314397326399614,40.567819236753564,40
112.793,85.9777,85.897046128365,85.3025088724223,85.56289428736581,40.3341518409992,40.59453725594271,40
117.188,86.2093,86.12040562056525,85.39803892616764,85.7242061743715,40.39619944619375,40.72236669439761,40
120.117,86.2575,86.1656231571837,85.44540222217414,85.76761983206536,40.39800332511834,40.720220935009564,40
124.512,86.2886,86.19159137786231,85.4836935067058,85.79346689532079,40.39812448254152,40.707897871156504,40
128.906,86.3108,86.20952716776127,85.52653909677313,85.81827031228288,40.39125685547839,40.68298807098813,40
133.301,86.3981,86.29304937955466,85.59831941170397,85.89296893325223,40.400080446302425,40.69472996785069,40
139.16,86.4789,86.3647922643792,85.6387430956574,85.9422339073122,40.422558357067004,40.7260491687218,40
143.555,86.5702,86.44672881047232,85.63862964284337,85.97783788095587,40.46889092951645,40.80809916762895,40
147.949,86.6068,86.47590391564081,85.63434970719852,85.98674778097875,40.48915613466207,40.84155420844229,40
153.809,86.6321,86.49087929348569,85.60675171155158,85.97494768020687,40.51593161327882,40.88412758193411,40
159.668,86.6459,86.4970915744015,85.62061951259678,85.97504188809155,40.52204968630994,40.87647206180472,40
165.527,86.8241,86.665318731899,85.76206012429157,86.12984710917078,40.535471622728224,40.90325860760744,40
171.387,86.84320000000001,86.67246403560259,85.67167213143584,86.08783725963055,40.58462677597204,41.000791904166746,40
177.246,86.8607,86.67604851476025,85.54150072909657,86.02067398490482,40.655374529855436,41.134547785663685,40
183.105,86.7739,86.58106731705143,85.43215759855731,85.91237858249809,40.66868873455334,41.148909718494124,40
188.965,86.8054,86.59856235708942,85.37833038754474,85.89232708614507,40.70623527094435,41.220231969544685,40
196.289,86.8584,86.63437766890029,85.31444596369204,85.87694746222613,40.75743020667416,41.31993170520825,40
203.613,86.9242,86.68351250916933,85.22260420024966,85.86790931574528,40.81560319342405,41.46090830891967,40
210.938,86.8499,86.596301299031,85.08317197203935,85.7514331646363,40.8448681343947,41.513129326991645,40
218.262,86.60429999999998,86.33563811409103,84.94099057637173,85.52366787565633,40.8119702384347,41.394647537719294,40
225.586,86.7291,86.43718863937396,84.87331629365569,85.54331293846208,40.89387570091188,41.563872345718266,40
232.91,86.9017,86.59386495119844,84.7986619873026,85.6060646346297,40.98780031656874,41.795202963895846,40
241.699,86.7848,86.45603859734851,84.49980358164292,85.39136380713076,41.06467479021775,41.95623501570559,40
250.488,86.8282,86.47424267376753,84.3116253866893,85.28708556874773,41.18715710501981,42.162617287078234,40
259.277,87.0179,86.65235292619074,84.45527237136757,85.45474928033714,41.197603645853604,42.197080554823174,40
268.066,86.8799,86.48301388816952,84.09553358888517,85.19366690738079,41.289346980788736,42.38748029928435,40
276.855,87.06589999999998,86.6715640233476,84.1331415186487,85.3348960194496,41.336668003898,42.5384225046989,40
287.109,86.9006,86.46006130877379,84.09786458367056,85.18113176568387,41.278929543089916,42.36219672510323,40
297.363,87.1359,86.66471060634774,84.08006662292752,85.29516866377341,41.36954194257433,42.58464398342022,40
307.617,87.4656,86.96515559208277,84.06354837404285,85.48188442898125,41.48327116310152,42.90160721803991,40
319.336,86.9528,86.4270033304797,83.52978723871023,84.91856518874084,41.508438141738864,42.89721609176948,40
329.59,86.8885,86.35925076880535,83.24073785158943,84.77885804554948,41.58039272325587,43.118512917215924,40
341.309,86.8251,86.25947307348402,83.13180855717432,84.67476995760398,41.58470311588003,43.12766451630969,40
353.027,87.1903,86.6198345138418,82.94187321734243,84.87397679966257,41.74585771417922,43.67796129649936,40
366.211,87.265,86.61397093357044,83.06703970656207,84.89779799840203,41.716172935168416,43.54693122700837,40
379.395,87.5704,86.8789785107681,83.13505180491408,85.10717280162577,41.77180570914234,43.74392670585402,40
392.578,87.0337,86.3338833408672,82.6295566710045,84.55040803196763,41.78347530889957,43.70432666986271,40
405.762,86.8977,86.16489788401273,82.54329716994948,84.40518636514581,41.75971151886692,43.62160071406325,40
420.41,87.5965,86.79427980938168,82.7853209385766,84.97895486084997,41.81532494853171,44.008958870805074,40
435.059,86.8323,86.03196920418624,82.2275713355266,84.28076692430241,41.75120227988383,43.804397868659635,40
451.172,87.2994,86.408420204698,81.96327156256976,84.44230039677934,41.96611980791866,44.445148642128245,40
465.82,87.0773,86.15503122803861,81.8584973773577,84.24952822436295,41.90550300367566,44.296533850680916,40
483.398,87.5142,86.5395027696103,82.21397675069315,84.62556667666209,41.913936092948205,44.325526018917145,40
499.512,87.1221,86.12780289922672,81.95956137937127,84.29047319886273,41.837329700363995,44.16824151985546,40
517.09,86.8021,85.7419915654862,81.52726694133409,83.91664761707538,41.82534394841082,44.21472462415211,40
536.133,86.4657,85.34601560948711,80.86955727724634,83.39121730061301,41.9547983088741,44.47645833224077,40
555.176,86.46220000000001,85.30120701023775,81.14715723658006,83.61982529657858,41.681381713659164,44.15404977365769,40
574.219,86.1726,84.84484338256068,81.0894447572668,83.18375694036355,41.66108644219713,43.75539862529388,40
594.727,87.0047,85.39929197832093,80.60597327838038,83.15033013050189,42.24896184781905,44.793318699940556,40
615.234,87.0488,85.3655385114855,80.51579657017676,83.3109097988383,42.0546287126472,44.849741941308736,40
637.207,86.8773,85.18052330393533,80.99933186610275,83.11115215699466,42.06937114694067,44.18119143783258,40
659.18,88.1889,86.52399575827873,81.31811909256594,84.05692810284532,42.46706765543341,45.20587666571279,40
682.617,87.4894,85.69955880314608,81.06057923198964,83.76118927854996,41.93836952459611,44.63897957115644,40
707.52,87.2433,85.36512894342091,80.62586644363536,83.44554399633024,41.91958494709067,44.73926249978555,40
732.422,86.7038,84.83926714475194,80.87701527684385,83.07915217169376,41.76011497305818,43.962251867908094,40
757.324,87.10960000000001,85.08258437191762,80.61614658325477,83.0143696281854,42.06821474373221,44.466437788662844,40
785.156,86.6991,84.54691387628309,79.75997459589499,82.6591889069036,41.88772496937949,44.7869392803881,40
811.523,86.7072,84.52292514199772,80.72272822398362,83.25497628794889,41.267948854048825,43.800196918014095,40
840.82,84.9687,82.76441008547994,80.40100876520202,81.91947961767374,40.84493046780619,42.363401320277916,40
870.117,86.35539999999999,83.98593320988329,80.4243536571666,82.44604247093282,41.53989073895046,43.56157955271668,40
900.879,86.6363,84.18639786144642,80.1804294856161,81.79764129463409,42.38875656681233,44.00596837583032,40
933.105,88.2556,85.69883851604456,79.5060944706616,82.49171093535536,43.2071275806892,46.192744045382966,40
965.332,87.7032,85.03900411729562,79.44913139890713,82.56683361497927,42.472170502316345,45.58987271838849,40
1000.49,86.5395,83.79195264754499,79.55238293793931,82.16832751561178,41.62362513193321,44.239569709605675,40
1035.64,88.0978,85.36501907775845,78.43759604454864,81.90737386203372,43.457645215724725,46.927423033209806,40
1072.27,87.2719,84.32084330276928,79.49457531271312,82.96167306181619,41.35917024095309,44.82626799005615,40
1108.89,86.7144,83.82761057452764,79.55330526854924,83.21027762544644,40.6173329490812,44.2743053059784,40
1148.44,84.6682,81.9564765641773,80.42355181476671,83.15318321169019,38.8032933524871,41.53292474941058,40
1189.45,83.9962,81.32752055343968,79.90514426110192,82.36054348768126,38.96697706575843,41.42237629233776,40
1230.47,85.5981,82.77590628954668,80.04717216812445,81.33380791084737,41.44209837869931,42.728734121422235,40
1274.41,87.28839999999998,84.29228432390323,79.41977047226604,81.45890619177354,42.833378132129695,44.872513851637194,40
1319.82,87.0158,83.97012408096775,79.39663241477416,81.34651618287924,42.62360789808851,44.57349166619359,40
1366.7,86.8948,83.8370672002502,80.23619258163419,82.02834277499228,41.80872442525792,43.60087461861602,40
1413.57,86.4164,83.62986535789315,80.83024599585319,82.93151292540378,40.69835243248937,42.79961936203996,40
1463.38,85.9803,83.40209386722312,80.86974072508117,83.37439374535029,40.027700121872826,42.53235314214194,40
1516.11,86.48609999999998,83.55773150134749,81.06956840958402,83.1670408567739,40.390690644573596,42.48816309176347,40
1568.85,85.7566,82.84637347457894,79.55898858141639,82.73972356195894,40.10664991262,43.28738489316255,40
1624.51,87.2044,83.87956157244973,79.88667653162341,83.00113812071181,40.878423451737916,43.99288504082632,40
1681.64,88.3747,84.8947773397732,80.431480071133,83.5379244453714,41.3568528944018,44.463297268640204,40
1741.7,88.8625,85.34389107376154,80.54355088193368,83.51016867850028,41.83372239526126,44.80034019182786,40
1803.22,89.0203,85.4611545743413,80.8745805631985,83.53667183303668,41.924482741304615,44.58657401114279,40
1866.21,88.2924,84.88858940023545,80.44112572522515,83.26857038965021,41.62001901058524,44.4474636750103,40
1932.13,87.9182,84.43831772132096,79.7796562720414,82.10179954227296,42.336518179048,44.65866144927956,40
1999.51,87.6527,83.98881264745087,78.6588470703683,82.12176988607509,41.867042761375785,45.329965577082575,40
2069.82,87.03750000000001,83.27535737508613,77.39574022709563,80.93265467449751,42.34270270058862,45.8796171479905,40
2143.07,86.4527,82.82725534173903,76.67058202569638,80.27861483477783,42.548640506961206,46.15667331604266,40
2219.24,85.604,82.04008508132046,75.86273243738613,79.57833222018071,42.46175286113974,46.17735264393433,40
2296.88,85.3042,81.75018013661176,75.89776540444633,79.4528828861752,42.29729725043656,45.85241473216543,40
2378.91,85.2597,81.5868433395623,76.01679120553803,79.25998771787127,42.326855621691024,45.570052134024266,40
2462.4,86.20359999999998,82.85275807112565,76.5800746301144,80.18305052680985,42.6697075443158,46.27268344101125,40
2548.83,86.3668,83.27861899635292,77.41599110085187,80.92661254333527,42.35200645301765,45.86262789550105,40
2639.65,86.212,83.01751282526104,78.03721245365394,81.62042871417381,41.397084111087224,44.9803003716071,40
2731.93,86.3599,82.99231940942923,78.47255827642216,81.87139087564513,41.120928533784095,44.519761133007066,40
2828.61,87.5052,84.08923836721817,79.53696834660995,82.66085722489879,41.42838114231938,44.55227002060822,40
2928.22,88.4715,85.40898110071298,80.74619011752897,83.65192643146091,41.75705466925207,44.66279098318401,40
3030.76,88.5151,85.77429379650968,81.0324082710816,83.89401661566173,41.880277180847955,44.74188552542809,40
3137.7,88.404,85.8475726629356,81.28114835587591,83.87849934253286,41.96907332040274,44.56642430705969,40
3249.02,87.7874,85.76769730766934,81.37164310092662,83.81372694183604,41.9539703658333,44.39605420674272,40
3363.28,87.9545,86.27021034666382,81.28481227474565,83.92477559928989,42.34543474737393,44.98539807191817,40
3481.93,87.89130000000002,86.6079746054243,81.42562346422098,84.35863806887453,42.24933653654978,45.18235114120333,40
3604.98,88.0636,86.5223631831396,81.55265946939117,84.4062342639265,42.1161289192131,44.96970371374843,40
3732.42,88.7107,87.00473248143001,81.85836441126189,84.66312297237688,42.34160950905313,45.14636807016812,40
3864.26,87.5565,86.30076466463433,81.82802609330884,84.99823068907001,41.302533975564316,44.47273857132549,40
4000.49,87.0549,85.60787054631906,81.349329317988,84.62450174752011,40.98336879879895,44.25854122833107,40
4141.11,87.41419999999998,86.28930733305818,81.59024409029199,84.91266200023382,41.37664533282435,44.69906324276619,40
4287.6,85.979,85.9391234168137,81.61174539498136,84.9566846809581,40.982438735855595,44.327378021832345,40
4438.48,86.4593,85.9467712579311,81.64102561555984,84.97494299080122,40.97182826712988,44.305745642371264,40
4595.21,85.54729999999999,85.5297176088344,81.58069824984882,84.91704989751638,40.612667711318025,43.94901935898558,40
4756.35,86.7101,85.96661246622169,81.36865634743113,84.64292408409423,41.32368838212746,44.59795611879056,40
4924.8,86.03259999999999,86.09525736577363,81.21038340473042,84.36762254476398,41.72763482100966,44.88487396104321,40
5097.66,85.0641,85.17081057874823,80.70820249943823,83.81663854883234,41.35417202991589,44.46260807931,40
5277.83,86.7137,85.41335882579563,80.25408615898212,83.51819313565875,41.89516569013688,45.15927266681351,40
5463.87,87.5034,86.12666715306956,80.11654755674827,83.5256614729791,42.601005680090466,46.01011959632129,40
5657.23,87.5662,86.57104951775831,79.95641796758161,83.61568574220497,42.95536377555334,46.614631550176696,40
5856.45,87.51610000000001,86.21663504261493,79.62674552573918,83.41531873917613,42.801316303438796,46.58988951687574,40
6062.99,88.1817,86.56510310619687,79.79175801220278,83.66514150269121,42.89996160350566,46.773345093994095,40
6276.86,87.4885,86.40587789593305,79.71435122943416,83.54834181135328,42.85753608457976,46.69152666649889,40
6498.05,88.10530000000001,86.9294777426074,79.66631788381584,83.66759700932882,43.26188073327859,47.26315985879157,40
6726.56,88.6573,87.18159070199985,79.57884439886965,83.49339569085157,43.68819501114828,47.6027463031302,40
6963.87,88.5489,87.01070631822174,79.19316389696644,83.31820336310206,43.69250295511968,47.8175424212553,40
7209.96,87.807,86.98914894757414,79.1182591176996,83.10112125489758,43.88802769267656,47.87088982987454,40
7464.84,87.3904,86.671342705011,78.569713053986,82.68233849933753,43.98900420567347,48.10162965102499,40
7727.05,87.50959999999999,86.54556805730084,78.20524794470363,82.36402282702882,44.18154523027202,48.34032011259721,40
7999.51,87.6419,86.52027923237011,77.87426018290843,82.17740040151367,44.34287883085645,48.646019049461685,40
8282.23,86.9303,86.40904222390621,77.66847982750129,82.12456424888173,44.28447797502449,48.740562396404925,40
8573.73,86.7102,86.3758396793136,77.51620639595077,82.01952874257232,44.35631093674128,48.859633283362825,40
8876.95,86.6768,85.69372182319262,76.98666338287188,81.63451877153281,44.05920305165981,48.707058440320736,40
9188.96,86.4878,85.67793163366045,76.65582248576719,81.2863289949508,44.39160263870966,49.02210914789326,40
9514.16,87.22619999999999,86.21991964219033,76.5410721940842,81.25690271481535,44.96301692737498,49.67884744810614,40
9849.61,87.43820000000001,86.09989321735829,76.18403427578626,81.12377576283313,44.97611745452515,49.915858941572026,40
10196.8,86.978,86.08373193647557,76.14150913089168,81.17716282288268,44.906569113592894,49.942222805583896,40
10555.7,87.6029,86.37445665507069,76.13108613373298,81.34087380293091,45.03358285213977,50.24337052133771,40
10927.7,88.3033,86.71845950733508,76.1437883631265,81.34064924355637,45.37781026377871,50.57467114420858,40
11313.0,88.24829999999999,86.70398273270932,76.02559571824364,81.13448859194118,45.56949414076814,50.678387014465685,40
11712.9,88.4257,86.72680712444482,75.85103801761198,81.06502914478573,45.66177797965909,50.875769106832834,40
12126.0,88.2309,86.58737291621084,75.65701475428557,80.87624641942033,45.71112649679051,50.93035816192527,40
12553.7,88.2513,86.54839081189945,75.43172698017487,80.66686590474144,45.88152490715801,51.11666383172458,40
