Freq "Early Reflections"
20.5078 57.228473048350125
21.9727 58.76072279598587
23.4375 60.05452849663651
24.9023 61.85102976816303
26.3672 63.04164576796684
27.832 64.6708538345902
29.2969 65.86337453650104
30.7617 67.03745760064267
32.2266 68.01024032325462
33.6914 69.07836304901426
35.1562 70.12274782845634
36.6211 70.9653594382067
38.0859 71.80880539512563
39.5508 72.64910671143294
41.0156 73.4714410684006
42.4805 74.17138224270357
43.9453 74.9068336273833
45.4102 75.53530989493395
46.875 76.23321595842641
48.3398 76.68137558737611
51.2695 77.71653002459749
52.7344 78.24729354711884
54.1992 78.76757954157794
55.6641 79.21610474137245
58.5938 79.9275245583115
60.0586 80.34127510913781
62.9883 80.94177114984407
64.4531 81.18849408755871
67.3828 81.64865408565197
68.8477 81.83101492982932
71.7773 82.3464733847418
74.707 82.76891684799834
77.6367 83.14220846793017
79.1016 83.29711122698295
82.0312 83.4782176636407
84.9609 83.70806209575521
87.8906 84.13302244106579
90.8203 84.43008775162325
95.2148 84.50799636462729
98.1445 84.74341793333852
101.074 84.79423705775459
105.469 85.09628690158681
108.398 85.28672588171803
112.793 85.46680792372946
117.188 85.62811981073516
120.117 85.67153346842903
124.512 85.69738053168446
128.906 85.72218394864652
133.301 85.7968825696159
139.16 85.84614754367585
143.555 85.88175151731953
147.949 85.8906614173424
153.809 85.87886131657054
159.668 85.87895552445521
165.527 86.03376074553444
171.387 85.99175089599419
177.246 85.92458762126849
183.105 85.81629221886176
188.965 85.79624072250873
196.289 85.78086109858977
203.613 85.77182295210892
210.938 85.65534680099994
218.262 85.42758151201997
225.586 85.44722657482572
232.91 85.50997827099336
241.699 85.29527744349441
250.488 85.1909992051114
259.277 85.3586629167008
268.066 85.09758054374446
276.855 85.23880965581324
287.109 85.08504540204751
297.363 85.19908230013705
307.617 85.3857980653449
319.336 84.82247882510451
329.59 84.68277168191314
341.309 84.57868359396763
353.027 84.77789043602623
366.211 84.80171163476567
379.395 85.01108643798942
392.578 84.45432166833127
405.762 84.30910000150948
420.41 84.88286849721361
435.059 84.18468056066607
451.172 84.346214033143
465.82 84.1534418607266
483.398 84.52948031302574
499.512 84.1943868352264
517.09 83.82056125343905
536.133 83.29513093697668
555.176 83.52373893294224
574.219 83.0876705767272
594.727 83.05424376686553
615.234 83.21482343520195
637.207 83.01506579335833
659.18 83.96084173920896
682.617 83.66510291491363
707.52 83.34945763269391
732.422 82.9830658080574
757.324 82.91828326454906
785.156 82.56310254326725
811.523 83.15888992431256
840.82 81.82339325403741
870.117 82.34995610729646
900.879 81.70155493099774
933.105 82.39562457171903
965.332 82.47074725134293
1000.49 82.07224115197543
1035.64 81.81128749839736
1072.27 82.86558669817983
1108.89 83.11419126181009
1148.44 83.05709684805385
1189.45 82.26445712404491
1230.47 81.23772154721102
1274.41 81.36281982813718
1319.82 81.25042981924288
1366.7 81.93225641135594
1413.57 82.83542656176745
1463.38 83.27830738171396
1516.11 83.07095449313755
1568.85 82.6436371983226
1624.51 82.90505175707548
1681.64 83.44183808173507
1741.7 83.41408231486395
1803.22 83.44058546940035
1866.21 83.17248402601386
1932.13 82.00571317863661
1999.51 82.02568352243874
2069.82 80.83656831086115
2143.07 80.18252847114148
2219.24 79.48224585654435
2296.88 79.35679652253886
2378.91 79.16390135423494
2462.4 80.08696416317352
2548.83 80.83052617969894
2639.65 81.52434235053748
2731.93 81.77530451200879
2828.61 82.56477086126245
2928.22 83.55584006782456
3030.76 83.79793025202538
3137.7 83.78241297889652
3249.02 83.71764057819969
3363.28 83.82868923565356
3481.93 84.2625517052382
3604.98 84.31014790029015
3732.42 84.56703660874052
3864.26 84.90214432543365
4000.49 84.52841538388377
4141.11 84.81657563659748
4287.6 84.86059831732176
4438.48 84.8788566271649
4595.21 84.82096353388005
4756.35 84.54683772045789
4924.8 84.27153618112762
5097.66 83.72055218519598
5277.83 83.42210677202242
5463.87 83.42957510934274
5657.23 83.51959937856863
5856.45 83.31923237553978
6062.99 83.56905513905485
6276.86 83.45225544771695
6498.05 83.57151064569248
6726.56 83.39730932721524
6963.87 83.2221169994657
7209.96 83.00503489126125
7464.84 82.58625213570117
7727.05 82.26793646339247
7999.51 82.08131403787733
8282.23 82.02847788524538
8573.73 81.92344237893597
8876.95 81.53843240789647
9188.96 81.19024263131443
9514.16 81.16081635117901
9849.61 81.0276893991968
10196.8 81.08107645924635
10555.7 81.24478743929457
10927.7 81.24456287992003
11313.0 81.03840222830483
11712.9 80.96894278114938
12126.0 80.78016005578398
12553.7 80.57077954110508
12996.1 80.45013465262846
13454.6 80.42659090782287
13929.2 80.58280031047002
14419.9 80.58427368315621
14928.2 80.50757224903406
15455.6 80.25124051829728
16000.5 79.83262018101827
16564.5 79.21818217974928
17148.9 78.3767379016059
17752.4 77.54558167280172
18379.4 76.53139313662054
19026.9 75.66759071870375
19697.8 75.22864610022734
19999.5 75.1841786388288
