Freq "Rear Wall Bounce"
20.5078 62.69724155358331
21.2402 63.32874072099783
21.9727 63.406993259294055
22.7051 64.15216251710991
23.4375 64.59814378206865
24.1699 65.74881308279843
25.6348 67.1967479573757
26.3672 67.90845630982078
27.0996 68.84154391711505
27.832 69.63237546451951
29.2969 70.97026321465367
30.0293 71.65026617515184
31.4941 73.30177270969683
32.2266 74.05444822911046
33.6914 75.38930151612
34.4238 76.15618603333597
35.8887 77.65795503235792
37.3535 79.01007927140527
38.8184 80.23955206422058
39.5508 80.80978501124106
41.0156 81.93154324234764
42.4805 82.95940273383017
43.9453 83.85997517549052
45.4102 84.63938441443499
47.6074 85.66375679232274
49.0723 86.1208821852546
50.5371 86.47794835231161
52.7344 86.86622595973994
54.1992 87.00460823201745
56.3965 87.15577808769463
58.5938 87.20676128350527
60.0586 87.20685578227929
62.2559 87.25242083275626
64.4531 86.9853737399856
66.6504 87.03099181185935
69.5801 86.79639893535618
71.7773 86.71053979009484
73.9746 86.58700962800518
76.9043 86.4392616084728
79.834 86.29719824116836
82.7637 86.15758134051988
85.6934 86.04254903961078
88.623 85.98334211677475
91.5527 85.97061760444727
94.4824 85.89294559731458
98.1445 85.7381760957337
101.807 85.60400342133296
105.469 85.48628272300607
109.131 85.33506816894007
112.793 85.14123619019408
116.455 84.95377218003871
120.85 84.86509384879434
125.244 84.79579210206022
129.639 84.73935109015794
134.033 84.63711619996472
138.428 84.44741744371096
143.555 84.41817926362545
148.682 84.83897094297834
153.809 84.85127113944883
159.668 84.34702041542559
164.795 84.01566464181792
170.654 84.243216257144
176.514 84.39872379166577
183.105 84.18030064479441
189.697 84.14749212587166
196.289 84.05354308898993
202.881 83.69408128762765
210.205 83.68255454838213
217.529 83.58906556689355
225.586 83.89276653555233
232.91 83.80745226392352
241.699 83.90243713987005
249.756 83.27697967717145
258.545 84.21715673613743
268.066 84.03813849493032
277.588 84.06647070934737
287.109 82.78282457641397
297.363 81.50483581766967
307.617 82.00472049473667
318.604 81.72653348268713
329.59 81.13621011440145
341.309 81.64916787720949
353.76 81.37817127104206
366.211 81.36653856599526
378.662 81.47221653496013
392.578 80.41036665337028
405.762 80.27734971527929
420.41 79.82112761033879
435.059 81.1725610199661
450.439 80.53535808742915
466.553 80.4174570473935
482.666 80.56879485237461
500.244 80.02004027345215
517.822 79.81224207936876
536.133 79.63946344673582
554.443 79.90643062590645
574.219 79.73942975826336
594.727 78.20935741960014
615.234 77.29602233814693
637.207 79.22521615507817
659.912 78.87057070342645
683.35 78.15337926173716
706.787 78.06959389433615
731.689 78.35331085883442
758.057 79.30934674474919
784.424 78.69267882194241
812.256 76.75100789567834
840.82 77.94267249601819
870.85 78.21834443712821
901.611 75.95281271165415
933.105 75.9316564888153
966.064 77.16721301540434
999.756 76.50137672329423
1034.91 74.86714582518823
1071.53 76.14665359871334
1109.62 74.53017520100461
1148.44 74.59505174834551
1189.45 74.25793873900885
1231.2 72.3616015344434
1274.41 73.20424087740365
1319.82 73.11298016602557
1365.97 73.17085939531428
1414.31 73.72186874756795
1464.11 73.72782409817475
1515.38 73.94787920220607
1568.85 73.57069078198197
1624.51 74.40038981211467
1681.64 74.49804483054383
1740.97 74.76735906057117
1802.49 75.17436587324454
1866.21 75.82696264350663
1932.13 74.64378090676881
2000.24 76.62428766966723
2070.56 76.76296006460008
2143.8 75.9519580246339
2219.24 77.70682907203411
2297.61 78.42302313546496
2378.17 77.58342122512745
2462.4 77.52010661827785
2548.83 77.31508733708242
2638.92 76.38361538942287
2731.93 75.77140469647047
2828.61 76.17870205826206
2928.22 75.90207822565354
3031.49 74.63458732408344
3138.43 74.86410378754978
3249.02 74.9007688133325
3363.28 74.10173909306339
3481.93 73.95889530722052
3604.98 73.38556246487784
3732.42 73.513799236476
3863.53 73.51490968828888
3999.76 73.6706681018769
4141.11 73.98767261097585
4286.87 73.84098987539086
4438.48 72.39922136320033
4594.48 72.24960118193152
4757.08 70.98195710894355
4924.8 70.38758814505029
5098.39 69.86391593001493
5277.83 69.51545179358912
5463.87 69.10631650694047
5656.49 68.51584844685406
5856.45 67.82749301618115
6062.99 67.57202518034138
6276.86 67.01246943735555
6498.05 66.05938905972938
6727.29 65.07190289540846
6964.6 64.82039650811204
7209.96 64.3959321358761
7464.11 63.232181553449735
7727.78 61.21998044669745
8000.24 60.11808728123289
8282.23 57.4938484580142
8574.46 56.91204197558453
8876.22 57.17735803821553
9189.7 55.85765144624834
9513.43 55.133861929012554
9848.88 55.337563146079546
10196.8 54.34511712572801
10556.4 54.271679295718016
10928.5 53.50714306665115
11313.7 51.57875564122942
11712.9 50.05108494687427
12126.0 49.86654656212666
12553.7 51.228421049980696
12996.1 51.7024888185983
13454.6 51.98545669603017
13928.5 53.32494734209941
14419.9 53.44092646622882
14928.2 52.20700749463491
15454.8 51.201722102464075
15999.8 50.60402301684901
16564.5 49.832985056299876
17148.2 47.954359060236484
17753.2 46.59972148013155
18379.4 46.62109570260084
19027.6 46.60705780588687
19698.5 43.8461102943791
19999.5 44.48634692418422
