Freq "Estimated In-Room Response"
20.5078 60.91054285161793
21.9727 60.72384542685522
23.4375 60.955600140390615
24.9023 62.8865922157578
26.3672 64.44597160991351
27.832 66.56018000219156
29.2969 68.2928317569359
30.7617 70.11088531273052
32.2266 72.27795673998662
33.6914 73.09953026697387
35.1562 74.42648651127442
36.6211 76.03916465707682
38.0859 77.80117292594744
39.5508 78.582691778463
41.0156 79.47627562039999
42.4805 80.29641113279732
43.9453 80.9903325720954
45.4102 81.64071743478716
46.875 82.13975269905877
48.3398 82.6738396743587
51.2695 83.47224797305473
52.7344 83.83648227551257
54.1992 84.16307031871803
55.6641 84.48156056304761
58.5938 85.03213976893748
60.0586 85.28784753351161
62.9883 85.6921243496123
64.4531 85.95208493572405
67.3828 86.49169689132542
68.8477 86.72159683769534
71.7773 87.21796124247086
74.707 87.65343482710227
77.6367 87.97425064164771
79.1016 88.1215062038313
82.0312 88.3942135155634
84.9609 88.58958893097102
87.8906 88.87591358473833
90.8203 89.24770533466555
95.2148 89.46507529274861
98.1445 89.48819368794057
101.074 89.45964983404343
105.469 89.46783354033771
108.398 89.45883398999219
112.793 89.20060800227166
117.188 88.77861172719099
120.117 88.73799532432946
124.512 89.47467334897216
128.906 89.29552435065196
133.301 89.00609706515127
139.16 88.66062498672264
143.555 88.41043131091679
147.949 88.21572444293172
153.809 88.43649591110302
159.668 87.80215702891147
165.527 87.63088569394121
171.387 87.51981717326865
177.246 88.03383985542824
183.105 87.76176420167168
188.965 87.49831238080047
196.289 87.2865317646383
203.613 86.85492144764278
210.938 86.61238653739254
218.262 86.80887203603946
225.586 86.37163214563672
232.91 85.94840460653315
241.699 86.0828944323885
250.488 85.64538141096178
259.277 86.62375476649335
268.066 86.94117016166483
276.855 86.16638932583909
287.109 85.6133323149093
297.363 85.6170349929735
307.617 85.71068251970168
319.336 85.15830187559327
329.59 85.57716492510997
341.309 85.50124519701006
353.027 84.67140267690438
366.211 84.90049123690643
379.395 84.63650268429214
392.578 84.63423622601454
405.762 84.75226510734596
420.41 83.9083051640791
435.059 84.66777335159045
451.172 85.87571208242863
465.82 86.93819970572865
483.398 86.69253016338644
499.512 86.36284209495996
517.09 85.4180147761511
536.133 85.8055833785224
555.176 85.44007495496551
574.219 85.35428252995099
594.727 85.63279897693798
615.234 85.88139529836282
637.207 85.35475047490684
659.18 84.9866655952472
682.617 84.63104645755956
707.52 84.7012722106066
732.422 84.2579744764109
757.324 84.53945006779101
785.156 85.08973639570512
811.523 85.66256907039262
840.82 85.3924674600612
870.117 85.08525753475311
900.879 85.26427088497323
933.105 84.3567493736461
965.332 84.50871063284495
1000.49 84.68695929563155
1035.64 85.99051035066329
1072.27 85.40698255682518
1108.89 85.26940188548772
1148.44 84.76539229606692
1189.45 84.78877606227533
1230.47 85.18882418792208
1274.41 85.12540276715119
1319.82 85.44624673724817
1366.7 85.13443875762312
1413.57 84.68814677886608
1463.38 84.33103962967758
1516.11 83.80138719465245
1568.85 83.01603656219457
1624.51 83.00134526383628
1681.64 82.91989039785024
1741.7 82.95920333812826
1803.22 83.91275470141387
1866.21 84.36865466338973
1932.13 84.51675754277873
1999.51 84.60837726726439
2069.82 84.90430054895809
2143.07 84.82897894290623
2219.24 84.3855861652891
2296.88 84.75205026305788
2378.91 84.80526384351896
2462.4 84.51046870640198
2548.83 85.22602809292417
2639.65 85.3426900687681
2731.93 84.97688637809416
2828.61 85.39309930878049
2928.22 85.15467329287178
3030.76 84.93583412131214
3137.7 84.94171295160905
3249.02 85.03580571185715
3363.28 85.01880612606088
3481.93 85.05742656601349
3604.98 85.14633368625648
3732.42 84.99853513090997
3864.26 85.11321589427833
4000.49 84.94191961489277
4141.11 85.16498019919675
4287.6 84.94404352685278
4438.48 84.98343835736809
4595.21 85.01349518707984
4756.35 84.93874001245861
4924.8 84.85595077757306
5097.66 85.06033784479239
5277.83 85.08636318138065
5463.87 85.2042193561819
5657.23 85.183908444936
5856.45 85.35797090029524
6062.99 85.34675058121245
6276.86 85.16339847551086
6498.05 85.18975545519818
6726.56 85.06617461342415
6963.87 84.77949494335512
7209.96 84.65541407677402
7464.84 84.5908074521524
7727.05 84.66193977072712
7999.51 84.7350293336408
8282.23 84.70316907213923
8573.73 84.66366026610869
8876.95 84.50953571035512
9188.96 84.41247012896902
9514.16 84.56329829920732
9849.61 84.68879911257757
10196.8 84.79602146518141
10555.7 84.8422068971333
10927.7 85.16282026704475
11313.0 85.3742683366033
11712.9 85.45039202265305
12126.0 85.58026451969182
12553.7 85.80501201468479
12996.1 86.15299555308978
13454.6 86.18435877663764
13929.2 86.06292940225204
14419.9 85.71321163898303
14928.2 84.96984849396019
15455.6 83.8894805262558
16000.5 82.89511917263226
16564.5 82.25511123928834
17148.9 82.06745072181523
17752.4 82.13480669341843
18379.4 81.80421730111684
19026.9 80.6586232159656
19697.8 78.82582490558134
19999.5 78.28758809531455
