Freq,On Axis,Listening Window,Sound Power,Early Reflections,Early Reflections DI,Sound Power DI,DI offset
20.5078,56.424700000000016,56.02456756838471,55.68186124586633,55.58272066147141,40.4418469069133,40.34270632251838,40
21.9727,57.0424,56.65933869734609,55.354008786560584,55.756990178092806,40.90234851925328,41.3053299107855,40
23.4375,56.89210000000001,56.434582204837724,57.2274996195553,56.56710263223668,39.86747957260104,39.20708258528242,40
24.9023,57.83809999999998,57.43807381077902,59.95829957524616,58.655942711740195,38.78213109903882,37.47977423553286,40
26.3672,59.269400000000005,58.934661999428,61.059201568435824,59.91640929482294,39.01825270460506,37.87546043099218,40
27.832,60.8566,60.6136788072442,62.90948207285,61.75448962129606,38.85918918594814,37.7041967343942,40
29.2969,63.29799999999999,63.13314673137255,64.90561903789624,63.98947539087864,39.14367134049391,38.227527693476304,40
30.7617,65.0458,64.89213353835648,65.92723580044971,65.32330585782003,39.568827680536444,38.96489773790677,40
32.2266,66.0304,65.89310904981804,66.95163183047416,66.34576674973071,39.54734230008732,38.94147721934388,40
33.6914,67.4058,67.2941449332962,68.38159831631215,67.77754503606997,39.51659989722623,38.912546616984045,40
35.1562,68.86730000000001,68.78342021217803,69.86084969624015,69.27626251708175,39.50715769509628,38.92257051593788,40
36.6211,69.8866,69.8125152143442,70.77287626409564,70.24642543858297,39.56608977576123,39.03963895024856,40
38.0859,71.2132,71.15314152411236,72.00691367937877,71.5390196337417,39.614121890370654,39.14622784473359,40
39.5508,72.3756,72.32326255100689,73.1203443879695,72.68049190733747,39.64277064366942,39.202918163037396,40
41.0156,73.4307,73.38917531975987,74.15429772143877,73.73549232042967,39.6536829993302,39.234877598321106,40
42.4805,74.49500000000002,74.46056782341006,75.16570986439662,74.77958113220815,39.68098669120191,39.29485795901344,40
43.9453,75.4283,75.40028962842091,76.11692574668984,75.72788274205534,39.672406886365565,39.28336388173106,40
45.4102,76.3308,76.31108581004209,77.0330666719925,76.64510806778479,39.6659777422573,39.278019138049586,40
46.875,77.2053,77.19313418799763,77.8966473941302,77.52204805887429,39.67108612912334,39.29648679386743,40
48.3398,78.069,78.06034282910751,78.71329207761228,78.36502235561314,39.69532047349438,39.34705075149523,40
51.2695,79.7107,79.70999744064046,80.28974874703016,79.98097058001397,39.72902686062649,39.420248693610304,40
52.7344,80.4494,80.45011993434404,80.9641601723161,80.68797031170779,39.76214962263626,39.485959762027946,40
54.1992,81.0679,81.07165488203418,81.57861980614099,81.30733453737612,39.76432034465806,39.49303507589319,40
55.6641,81.6039,81.61239085059255,82.1422810973962,81.86268516777292,39.749705682819624,39.470109753196354,40
58.5938,82.61370000000001,82.62628694184407,83.10013754896578,82.8506052830956,39.77568165874847,39.526149392878295,40
60.0586,83.0232,83.03727182521284,83.4839594789669,83.24866369800803,39.78860812720481,39.553312346245946,40
62.9883,83.7914,83.80782482786579,84.19704516629817,83.99127929643842,39.816545531427366,39.61077966156762,40
64.4531,84.09920000000001,84.11620244192959,84.47944406206648,84.28730949677873,39.828892945150855,39.63675837986311,40
67.3828,84.5882,84.60863212743304,84.9580314666787,84.77297504684326,39.83565708058978,39.650600660754336,40
68.8477,84.7409,84.7623656923693,85.0949604539479,84.9187723843305,39.843593308038805,39.667405238421395,40
71.7773,85.0948,85.11763138318994,85.420442851815,85.25996693243361,39.85766445075633,39.69718853137495,40
74.707,85.354,85.37823037805173,85.66316640291734,85.51240350588645,39.86582687216527,39.715063975134385,40
77.6367,85.4856,85.51141487563864,85.78406740453757,85.64010186689299,39.871313008745645,39.72734747110107,40
79.1016,85.5461,85.57193594097889,85.82398640994651,85.69049112277848,39.88144481820041,39.747949531032376,40
82.0312,85.6643,85.69154880493993,85.9388359355894,85.80800040554338,39.883548399396545,39.75271286935053,40
84.9609,85.8173,85.84509364936623,86.0850924452955,85.95739517645544,39.8876984729108,39.76000120407073,40
87.8906,85.9543,85.98109781765054,86.20445277371618,86.08382418399968,39.897273633650855,39.77664504393435,40
90.8203,86.11139999999999,86.13652575000482,86.31298410620799,86.21346563358014,39.92306011642468,39.82354164379683,40
95.2148,86.2323,86.25489269671984,86.3644694377165,86.29818429176926,39.956708404950575,39.89042325900334,40
98.1445,86.3196,86.34005455417913,86.40245077136312,86.36034192357772,39.97971263060141,39.93760378281601,40
101.074,86.4078,86.42622485468993,86.43567882246569,86.41989337563447,40.00633147905546,39.990546032224245,40
105.469,86.5377,86.55610277946666,86.56328587656552,86.54587376982616,40.0102290096405,39.99281690290114,40
108.398,86.5174,86.53703371915567,86.57454566446556,86.54145080707333,39.99558291208234,39.96248805469011,40
112.793,86.4867,86.50442390369851,86.53771026218222,86.50623437477073,39.99818952892778,39.96671364151629,40
117.188,86.54190000000001,86.5529355771797,86.46965043823256,86.4965567936608,40.056378783518895,40.08328513894713,40
120.117,86.6909,86.70004110166384,86.60879760172178,86.63517816354415,40.06486293811969,40.09124349994207,40
124.512,86.8339,86.84333168017442,86.79716943597371,86.79826198450519,40.04506969566923,40.0461622442007,40
128.906,86.9337,86.9350905172212,86.7574664248829,86.82389773570652,40.111192781514674,40.17762409233829,40
133.301,87.0627,87.06057557013355,86.75343429889881,86.88922551747466,40.171350052658894,40.30714127123474,40
139.16,86.83489999999999,86.84087562121204,86.63610999309323,86.72545815888091,40.11541746233112,40.20476562811881,40
143.555,86.8176,86.81607744478463,86.58737151180553,86.68248666887466,40.133590775909965,40.228705932979096,40
147.949,86.88350000000001,86.87256315559806,86.56703163622878,86.69436173032189,40.17820142527617,40.30553151936928,40
153.809,86.719,86.70993525283457,86.27301146727709,86.47833452223004,40.23160073060453,40.43692378555748,40
159.668,86.4684,86.45172644201571,86.01118473774967,86.20786832581918,40.243858116196535,40.44054170426604,40
165.527,86.4968,86.46063565613939,85.90271270140833,86.14569243496979,40.3149432211696,40.557922954731055,40
171.387,86.7817,86.75186785708695,86.13759898695925,86.41512128319225,40.3367465738947,40.6142688701277,40
177.246,86.8309,86.79796655454736,86.23428288862733,86.48515847534252,40.31280807920484,40.563683665920024,40
183.105,86.8827,86.84044111097926,86.18851920839776,86.47616379996047,40.36427731101878,40.65192190258149,40
188.965,86.9169,86.86405501093714,86.08332151203125,86.43585020312804,40.428204807809095,40.78073349890589,40
196.289,86.8762,86.82143345967282,85.94443853238819,86.34994632734453,40.47148713232829,40.87699492728463,40
203.613,86.681,86.61729563171276,85.65254692469865,86.09956655405152,40.517729077661244,40.96474870701411,40
210.938,86.86830000000002,86.79492430120762,85.5627650390634,86.16556558493413,40.62935871627349,41.23215926214422,40
218.262,86.7921,86.72585228905298,85.62956286109407,86.15871774828015,40.56713454077283,41.09628942795891,40
225.586,86.656,86.57556127519985,85.44843834458634,85.9737748492631,40.60178642593675,41.12712293061351,40
232.91,86.7369,86.64305740384636,85.25922181384978,85.92318851232388,40.71986889152248,41.38383558999658,40
241.699,86.807,86.72057774327307,85.13577106745696,85.92688408139571,40.793693661877356,41.58480667581611,40
250.488,86.505,86.40059785507377,84.8317337860328,85.57030439362903,40.83029346144474,41.56886406904097,40
259.277,87.2112,87.09422297951902,85.08648665181211,86.10193415944845,40.99228882007057,42.00773632770691,40
268.066,87.1104,87.01669930304713,85.40658954807202,86.20202215957066,40.81467714347647,41.61010975497511,40
276.855,86.814,86.6955900944198,84.86217140143843,85.77534750905964,40.92024258536016,41.83341869298137,40
287.109,86.723,86.61039372001032,84.5693348320295,85.61689515557485,40.99349856443547,42.041058887980824,40
297.363,86.90050000000001,86.78174930638436,84.63854860733078,85.74626379868725,41.0354855076971,42.14320069905358,40
307.617,86.78410000000001,86.69357618655631,84.86625931090498,85.81127918997545,40.88229699658086,41.827316875651334,40
319.336,86.31779999999999,86.2085736110174,84.25350478077863,85.27298068085138,40.935592930166024,41.95506883023877,40
329.59,86.225,86.07883909449593,83.99493327563586,85.05264371840218,41.02619537609375,42.083905818860075,40
341.309,86.2243,86.09301087442103,83.91740424291149,85.05077783005373,41.04223304436729,42.17560663150954,40
353.027,86.76800000000001,86.6106712493094,83.71017337922227,85.25530041559777,41.35537083371163,42.900497870087136,40
366.211,86.1586,86.04418859868643,83.74042644417824,84.96382658941661,41.08036200926982,42.30376215450819,40
379.395,86.264,86.14706525890584,83.7591853998055,85.0467804505274,41.10028480837845,42.38787985910034,40
392.578,85.7472,85.58324832137222,83.32669642763204,84.41544262516278,41.16780569620944,42.25655189374018,40
405.762,86.3569,86.18759024636348,83.53326571248827,84.93719721937114,41.25039302699234,42.65432453387521,40
420.41,85.87170000000002,85.6507059470125,83.08728243151184,84.33681909770515,41.31388684930735,42.56342351550066,40
435.059,86.3953,86.21464398001191,83.15634049997402,84.76225121899539,41.452392761016526,43.05830348003789,40
451.172,85.9994,85.83690175336454,82.88647381330298,84.43869215890015,41.39820959446439,42.95042794006156,40
465.82,86.5709,86.37481306540754,83.39034104638904,84.95136705924315,41.42344600616438,42.9844720190185,40
483.398,87.3636,87.13356768180222,83.79571226247157,85.4999805049841,41.633587176818125,43.33785541933065,40
499.512,86.8621,86.65487660489283,83.5700480458167,85.19521919975209,41.459657405140746,43.08482855907613,40
517.09,87.18409999999999,86.87600115866073,83.22588079639478,85.07560154815083,41.8003996105099,43.65012036226595,40
536.133,87.4524,87.15237629560033,83.38869495499391,85.26390855853317,41.88846773706716,43.763681340606425,40
555.176,87.9705,87.62823608721017,83.45538983678053,85.55631835509088,42.07191773211929,44.17284625042964,40
574.219,88.2477,87.96292516892093,83.35950199264381,85.70885939355658,42.25406577536435,44.60342317627712,40
594.727,87.1661,86.994686409861,83.39100074179794,85.3553971188713,41.63928929098971,43.603685668063065,40
615.234,87.6541,87.28124653226669,83.27636534009237,85.3092971867152,41.971949345551494,44.004881192174324,40
637.207,87.8853,87.5529917989758,83.07487337463094,85.35097774343075,42.20201405554505,44.478118424344856,40
659.18,87.3743,87.03360524835632,82.9883660753067,85.09427515164582,41.939330096710506,44.04523917304962,40
682.617,88.07620000000001,87.63782797046137,82.74679795386338,85.10704149019828,42.53078648026309,44.891030016597995,40
707.52,88.37660000000001,88.00287774000867,83.02864586888599,85.55549062230712,42.44738711770155,44.97423187112268,40
732.422,87.6647,87.38249099665975,82.7647294018234,85.01888206660621,42.363608930053545,44.61776159483635,40
757.324,88.97070000000001,88.61382245792767,83.55516403425385,86.00026964287757,42.6135528150501,45.05865842367382,40
785.156,88.7302,88.44679304537736,83.44391102734654,85.78588363752387,42.660909407853495,45.00288201803082,40
811.523,88.9556,88.61963952573994,83.6547947205021,85.98967016781583,42.62996935792411,44.964844805237846,40
840.82,89.3442,88.92848620168796,83.59414636339874,86.0319374830942,42.89654871859376,45.334339838289225,40
870.117,88.9357,88.6024223139439,83.19533303221503,85.75256876026246,42.84985355368144,45.40708928172887,40
900.879,88.8369,88.43051600049911,83.11456388851659,85.67206288824362,42.758453112255495,45.315952111982526,40
933.105,88.6828,88.41629901973488,83.01585284135331,85.63727115421231,42.779027865522565,45.40044617838157,40
965.332,88.7549,88.32932853059923,82.88204181528998,85.51547603068104,42.813852499918184,45.44728671530925,40
1000.49,88.4949,88.06674635072835,82.59562711276499,85.21101259110995,42.8557337596184,45.471119237963364,40
1035.64,89.0628,88.44793060797814,82.52084107565794,85.3967716266395,43.05115898133863,45.927089532320196,40
1072.27,88.48959999999998,88.12772671917655,82.30245126493783,85.13192572579231,42.995800993384236,45.82527545423872,40
1108.89,88.8759,88.26994232829901,82.11472837137397,84.9114640408145,43.358478287484516,46.15521395692504,40
1148.44,88.49660000000002,87.94842087074535,82.05132845208281,84.83206841365583,43.11635245708952,45.89709241866254,40
1189.45,88.63850000000001,87.97528722162622,81.68799265601845,84.52823294565316,43.44705427597306,46.287294565607766,40
1230.47,88.4398,87.75273894432846,81.44503953242044,84.27690914105247,43.475829803275985,46.30769941190802,40
1274.41,88.4027,87.79951933589291,81.27486486629526,84.15612819297088,43.64339114292203,46.52465446959765,40
1319.82,88.5894,87.81073342086087,81.21803510947804,84.20984654113941,43.60088687972146,46.59269831138283,40
1366.7,88.66940000000001,87.92281184104924,81.29063627652212,84.24179864837132,43.68101319267792,46.63217556452712,40
1413.57,88.3833,87.80885490896597,81.19439886104323,83.73589400778484,44.07296090118113,46.614456047922744,40
1463.38,88.3071,87.59866237965673,80.79917763622407,83.43127342506499,44.16738895459174,46.79948474343266,40
1516.11,88.5331,87.7902361551587,80.74386963626458,83.594226712321,44.19600944283769,47.04636651889412,40
1568.85,88.92969999999998,88.17525539591071,81.12133658733653,84.05899190403983,44.11626349187088,47.05391880857418,40
1624.51,88.9791,88.17488387424682,81.17961860834741,83.98253963022856,44.19234424401826,46.995265265899405,40
1681.64,88.1263,87.49252589989491,80.84543886223862,83.56167181800649,43.93085408188843,46.64708703765629,40
1741.7,88.2851,87.45071658930789,80.57013646216014,83.34783519152933,44.10288139777856,46.88058012714775,40
1803.22,88.6128,87.79059309443046,80.96075791118614,83.63887142657464,44.151721667855824,46.82983518324433,40
1866.21,88.2563,87.6779693390913,81.05719625877558,83.43572400866462,44.242245330426684,46.62077308031573,40
1932.13,87.9485,87.41549212252566,80.95138687135575,83.0865194462813,44.32897267624436,46.46410525116991,40
1999.51,88.0984,87.60183517859954,81.06869400745585,83.27828225109222,44.32355292750732,46.5331411711437,40
2069.82,88.12829999999998,87.73204326203246,81.3446538167973,83.61413915826515,44.117904103767316,46.38738944523516,40
2143.07,87.7615,87.42835122935419,81.23022578672473,83.45734312890367,43.97100810045052,46.19812544262946,40
2219.24,88.1657,87.51906911714788,81.48326698574205,83.6550182229171,43.86405089423077,46.03580213140583,40
2296.88,88.6086,87.98234676770737,82.11831501577376,84.28493669431116,43.69741007339621,45.86403175193361,40
2378.91,87.4459,87.30564188766378,82.06330069150651,84.06267988410549,43.24296200355829,45.24234119615727,40
2462.4,87.6518,87.15399620098181,81.61808119144304,83.6792633305195,43.474732870462304,45.53591500953877,40
2548.83,87.7335,87.3850786219671,81.86269292184113,84.02220350418591,43.362875117781186,45.522385700125966,40
2639.65,87.2254,86.9876093064096,81.67521525567568,83.78828928801565,43.19932001839395,45.312394050733914,40
2731.93,86.3172,86.41997999737205,81.657698414975,83.68391499393272,42.736065003439336,44.76228158239705,40
2828.61,86.1021,86.47510777681082,81.76015376643117,83.9580785247497,42.51702925206112,44.71495401037964,40
2928.22,85.6423,86.30873187020224,81.86731009675255,84.09122842806295,42.21750344213929,44.44142177344969,40
3030.76,84.60110000000002,85.62689905559516,81.6252618400762,83.96472393969158,41.66217511590358,44.001637215518954,40
3137.7,85.40070000000001,86.25500087163121,81.71954577980478,84.3162329643278,41.938767907303415,44.535455091826435,40
3249.02,84.8743,85.72226384481338,81.61745262325238,84.17871326282982,41.54355058198357,44.10481122156101,40
3363.28,85.7146,86.22093264560928,81.62291088742309,84.24740510491692,41.97352754069236,44.59802175818619,40
3481.93,85.78530000000002,86.09717209982666,81.5152307582866,84.18214582635534,41.91502627347133,44.58194134154006,40
3604.98,86.6202,86.44229875150283,81.46017723023355,84.29495579517835,42.14734295632448,44.98212152126928,40
3732.42,86.79530000000001,86.06025409396541,81.11712845829017,84.19381519037279,41.86643890359262,44.943125635675244,40
3864.26,87.2453,86.37839326514516,80.90593979522923,84.1999367211167,42.178456544028464,45.47245346991593,40
4000.49,86.8364,85.89622784505227,80.58699221175698,83.87206854262513,42.02415930242714,45.30923563329529,40
4141.11,87.0569,85.90727892816004,80.64397635016495,83.72676838014091,42.18051054801913,45.26330257799509,40
4287.6,86.2955,85.29248201943922,80.55775706269532,83.46129795427355,41.83118406516567,44.734724956743904,40
4438.48,86.6712,85.45230321452259,80.84663002819741,83.62116208512964,41.83114112939295,44.60567318632518,40
4595.21,87.0094,85.5301529517468,80.97516792721156,83.74329118249753,41.78686176924927,44.55498502453524,40
4756.35,87.5722,85.8963828437651,81.11338152415162,84.00234947306072,41.89403337070438,44.783001319613476,40
4924.8,87.8253,85.97581610871599,81.03011839125007,84.02258370702232,41.95323240169367,44.94569771746592,40
5097.66,87.6702,86.14613788121561,80.91385755714126,83.97088270892635,42.175255172289255,45.23228032407435,40
5277.83,86.6295,85.7451335889369,80.8241884193839,83.80298134901987,41.94215223991702,44.92094516955299,40
5463.87,86.3104,85.82562087831492,80.58048685515564,83.60304879050784,42.22257208780708,45.24513402315928,40
5657.23,85.6254,85.81288162636947,80.54584161451696,83.52384986626912,42.28903176010036,45.267040011852515,40
5856.45,85.6453,85.92932974732119,80.59628993360919,83.65704580900581,42.27228393831538,45.333039813712006,40
6062.99,85.6024,86.20777611795664,80.82835679433377,83.92217056008032,42.28560555787632,45.37941932362287,40
6276.86,85.5711,86.34817292894715,80.83634580957322,84.05969299113504,42.28847993781211,45.51182711937393,40
6498.05,85.3872,86.38124603945718,80.79792643907342,83.92723099159622,42.45401504786096,45.58331960038376,40
6726.56,85.5802,86.38551105451276,80.57596905580057,83.74007829932192,42.64543275519084,45.80954199871219,40
6963.87,85.90859999999999,86.2523218362751,80.2234999989591,83.60913806274304,42.64318377353206,46.028821837316,40
7209.96,85.5483,86.02372076345263,79.97753520076218,83.35562002420907,42.668100739243556,46.046185562690454,40
7464.84,86.1261,86.25264303476291,79.86580166065397,83.34778738282456,42.90485565193835,46.38684137410894,40
7727.05,86.85549999999999,86.60324548796349,79.92675693658936,83.47205932449411,43.13118616346938,46.676488551374135,40
7999.51,87.5789,86.89209912672571,79.95389598961448,83.62122133640176,43.27087779032395,46.93820313711123,40
8282.23,87.8267,87.11262675228157,79.99872839699914,83.73598845601384,43.37663829626773,47.11389835528243,40
8573.73,87.9483,87.29410216459212,80.0090105950685,83.8155020270133,43.47860013757882,47.285091569523615,40
8876.95,87.939,87.36589123926963,79.8714953805271,83.80182121037934,43.564070028890285,47.494395858742536,40
9188.96,87.8718,87.37873117822252,79.84237207085788,83.7282184287048,43.650512749517716,47.536359107364646,40
9514.16,87.6664,87.44061965536592,79.87919149035001,83.74918073760837,43.69143891775755,47.56142816501591,40
9849.61,87.8493,87.56202793764963,79.84269330575049,83.8482256402975,43.71380229735213,47.719334631899144,40
10196.8,87.4022,87.37024734290502,79.55304762314864,83.5976034721915,43.77264387071352,47.817199719756374,40
10555.7,87.8209,87.63552409869692,79.6408340184247,83.80567299795706,43.82985110073986,47.99469008027222,40
10927.7,88.0942,87.69259306001247,79.54054984530653,83.78214970621013,43.910443353802336,48.15204321470594,40
11313.0,88.2558,87.81183771450364,79.4234196733684,83.72817023873104,44.0836674757726,48.38841804113524,40
11712.9,88.7333,87.9074417214696,79.35811200341654,83.74600455052818,44.16143717094141,48.54932971805306,40
12126.0,88.8407,88.01059854322786,79.28723073042488,83.77540355230998,44.235194990917876,48.72336781280298,40
