Freq "Front Wall Bounce"
20.5078 79.22549235780042
21.9727 81.29589970490471
23.4375 83.27280137728991
24.9023 86.5131275954495
26.3672 89.31752272540038
27.832 91.97645286557795
29.2969 94.40917572017015
30.7617 96.84153963972707
32.2266 99.37464754901428
33.6914 101.43040684995431
35.1562 103.01232181998407
36.6211 104.48885624559362
38.0859 105.64155914845946
39.5508 106.5929852443823
41.0156 107.41312180084827
42.4805 108.20255283695903
43.9453 108.80012870227031
45.4102 109.32012620442558
46.875 109.86198406088643
48.3398 110.40826732585488
51.2695 111.2319774215241
52.7344 111.76827482030802
54.1992 112.30471609679601
55.6641 112.76856151105194
58.5938 113.32128000853996
60.0586 113.6997054475107
62.9883 114.29556378451966
64.4531 114.52670614084853
67.3828 114.8595688483393
68.8477 115.0835728876203
71.7773 115.53757745175209
74.707 115.59200641659336
77.6367 115.75930206309977
79.1016 116.0105948315078
82.0312 115.96802198963725
84.9609 115.58018331196625
87.8906 115.95431842733159
90.8203 116.14820007664169
95.2148 115.6293733222194
98.1445 115.7035205833466
101.074 115.98794268927048
105.469 115.41766757436423
108.398 115.7038305953576
112.793 115.735716426078
117.188 115.83537013424747
120.117 115.76132875302281
124.512 115.53314154053871
128.906 115.39387216461914
133.301 115.32331985724076
139.16 115.24578022926566
143.555 115.20697078078089
147.949 115.14575459331402
153.809 115.02668069480355
159.668 114.90112973710515
165.527 114.93380466960902
171.387 114.77048637020494
177.246 114.64373345750806
183.105 114.42361032647685
188.965 114.36374295684689
196.289 114.27085912212166
203.613 114.06844027203698
210.938 114.00978276251631
218.262 113.75072183650036
225.586 113.65437444287207
232.91 113.60820345286027
241.699 113.32853307934496
250.488 113.28216116308413
259.277 113.5381842027052
268.066 113.10559637788634
276.855 113.18688029845225
287.109 113.11037340954438
297.363 112.69254654840442
307.617 112.86954921898446
319.336 113.5139946055472
329.59 112.88552653792503
341.309 112.83028514898814
353.027 112.49276233247362
366.211 111.85899195296817
379.395 111.58684744717249
392.578 110.77471207361052
405.762 110.19941774470217
420.41 110.3437144293237
435.059 109.69475078856514
451.172 110.1982282488076
465.82 109.93995870278857
483.398 110.03259923773612
499.512 109.8667630322524
517.09 109.90233178911556
536.133 108.90700385983004
555.176 109.78699418732442
574.219 109.80148769658403
594.727 109.40648506840641
615.234 109.75440753354937
637.207 109.6256306645466
659.18 108.68561751569518
682.617 108.7713691962099
707.52 108.64178269184217
732.422 107.02316821394194
757.324 108.46175938376423
785.156 108.96025748680303
811.523 108.79696751737849
840.82 108.14253989810848
870.117 108.89205412864247
900.879 109.32511108540058
933.105 109.88142105400951
965.332 109.70724598236392
1000.49 109.80432212458803
1035.64 110.01341931486382
1072.27 109.64052649075217
1108.89 109.16993338736347
1148.44 108.93447716277821
1189.45 108.74140926227903
1230.47 108.84469790744329
1274.41 109.20164580091598
1319.82 109.5982907332967
1366.7 110.04229294869238
1413.57 110.21925312410755
1463.38 110.33299826259044
1516.11 109.89637746092865
1568.85 109.69781462349148
1624.51 109.48438873653876
1681.64 110.28426060667988
1741.7 111.2218814152496
1803.22 111.48187826052336
1866.21 111.18048219082993
1932.13 110.07074903838098
1999.51 109.9046842236029
2069.82 111.17129973453638
2143.07 111.57331757110536
2219.24 110.655797824847
2296.88 109.27642100964445
2378.91 107.31986155302425
2462.4 109.72302253259403
2548.83 110.79195472793629
2639.65 110.60680866066764
2731.93 109.58107496482683
2828.61 109.83121326602924
2928.22 111.24982617549429
3030.76 112.09822350818357
3137.7 112.53673950919338
3249.02 112.2138051487932
3363.28 111.86930341359536
3481.93 112.72928764061778
3604.98 112.95115111146856
3732.42 113.09423225386607
3864.26 113.69486786603095
4000.49 112.8894533565414
4141.11 113.54482462873487
4287.6 114.34505131022165
4438.48 114.15096052630653
4595.21 114.31513402621515
4756.35 114.51851142298096
4924.8 115.33198892047277
5097.66 116.08968350690921
5277.83 114.80992061845402
5463.87 115.1788627224774
5657.23 115.07029957440585
5856.45 114.8900829081585
6062.99 114.69025395385583
6276.86 115.43898832550073
6498.05 115.22007811105648
6726.56 115.13991286959563
6963.87 113.82600939103408
7209.96 112.43472416207952
7464.84 110.53762002228027
7727.05 110.33812596326896
7999.51 110.65644265183707
8282.23 109.62019622540228
8573.73 109.47434108719808
8876.95 109.10604438642845
9188.96 107.10032209699081
9514.16 104.49863285020196
9849.61 103.70894777099939
10196.8 103.03612910630864
10555.7 102.39014385345274
10927.7 102.56830560545818
11313.0 102.79715113824659
11712.9 103.34873417431184
12126.0 104.01510806773916
12553.7 104.72960320923984
12996.1 106.48294311409546
13454.6 107.90285087912835
13929.2 108.87899138318502
14419.9 109.68191835796452
14928.2 112.29563258901655
15455.6 113.57477474650321
16000.5 112.76653577037665
16564.5 107.4299106457928
17148.9 99.19368073099983
17752.4 90.95825844811105
18379.4 89.76775573108016
19026.9 95.43343581238992
19697.8 98.61889244924029
19999.5 99.92737100471099
