Freq "Estimated In-Room Response"
22.4 41.80315482509799
23.0 42.26814238286697
23.6 42.72858951673511
24.0 43.30873307504599
25.0 43.88780191351141
25.8 44.43301199759024
26.5 44.939830820194615
27.2 45.43284286118747
28.0 45.88460507775055
29.0 46.33455411560611
30.0 46.78625607170518
30.7 47.33967469096926
31.5 47.86181205560942
32.5 48.351729951557346
33.5 48.80958476639567
34.5 49.23749252436163
35.5 49.66981755613118
36.5 50.192534887192906
37.5 50.6836578838451
38.7 51.165635568507895
40.0 51.59600294157798
41.2 51.99274092891184
42.5 52.49776043907771
43.7 53.009643907462376
45.0 53.495351800376014
46.2 53.956298199163655
47.5 54.390119128100594
48.7 54.88953232851122
50.0 55.38905275209204
51.5 55.84501187696371
53.0 56.269302225479976
54.5 56.77462397233448
56.0 57.29146024490906
58.0 57.74070135848534
60.0 58.211201372371434
61.5 58.70596713368174
63.0 59.18457573965135
65.0 59.6290279210065
67.0 60.11882204777423
69.0 60.60959912501626
71.0 61.06305249509444
73.0 61.54993397653486
75.0 62.02091958360738
77.5 62.447852115858794
80.0 62.92258314492928
82.5 63.38184773287236
85.0 63.81405720446402
87.5 64.26213104678843
90.0 64.66614166886194
92.5 65.09875026317513
95.0 65.48072338089948
97.5 65.87730381723419
100.0 66.23926284445338
103.0 66.58485199961804
106.0 66.91886871181943
109.0 67.22700648107936
112.0 67.51914182596342
115.0 67.77475221499269
118.0 68.00814414018829
122.0 68.19965187420486
125.0 68.34395642051403
128.0 68.45095282030577
132.0 68.52249945034876
136.0 68.53162203683567
140.0 68.51110105810388
145.0 68.41583405128837
150.0 68.27320318037526
155.0 68.04933545507822
160.0 67.80030887438319
165.0 67.48901162832851
170.0 67.11214509062047
175.0 66.72896062216222
180.0 66.3332834361747
185.0 65.96337052500935
190.0 65.67018667535218
195.0 65.43454599033252
200.0 65.3178562206007
206.0 65.26488480253657
212.0 65.23888289046616
218.0 65.19785529002127
224.0 65.0881936067395
230.0 64.907720838817
236.0 64.72883459392465
240.0 64.60979536426673
250.0 64.76802237432541
258.0 65.29055020035251
265.0 66.11406320347314
272.0 67.09681837272959
280.0 68.0641853077891
290.0 68.92661072626699
300.0 69.59125813831392
307.0 70.04020970302288
315.0 70.2533791265673
325.0 70.27672338852402
335.0 70.113610021421
345.0 69.81345174779051
355.0 69.44836763332218
365.0 69.04377755310703
375.0 68.62891607766751
387.0 68.20172857739509
400.0 67.80596029514064
412.0 67.49658856137519
425.0 67.45816422481757
437.0 67.76739154784799
450.0 68.25244516935342
462.0 68.65694190232168
475.0 68.76587771652002
487.0 68.5048913711427
500.0 67.96308202830602
515.0 67.402684739737
530.0 67.13169391700241
545.0 67.21374328885962
560.0 67.43049892870631
580.0 67.6479631747819
600.0 67.89166297816433
615.0 68.01908999057797
630.0 67.83058771429621
650.0 66.96458839760119
670.0 65.1277208575253
690.0 62.52136274185291
710.0 62.24168308851081
730.0 65.25679676511201
750.0 67.0646691811934
775.0 66.94333403601865
800.0 66.44944913346548
825.0 67.30801945412973
850.0 68.33367495303276
875.0 68.48115849429601
900.0 67.86582620080321
925.0 66.89617357556924
950.0 65.9181602396222
975.0 64.7564922308733
1000.0 63.64097006775846
1030.0 63.3709260653542
1060.0 63.19044190391969
1090.0 62.74177312138502
1120.0 62.30753750854164
1150.0 61.9373989058886
1180.0 61.55819179486255
1220.0 61.018405313970305
1250.0 62.35740252902528
1280.0 63.636539631981734
1320.0 63.731919503916615
1360.0 63.43342861042001
1400.0 63.99844581133726
1450.0 65.46332064811226
1500.0 66.413640443498
1550.0 67.3934757427685
1600.0 66.86126864202393
1650.0 67.58313336035974
1700.0 67.81450029622228
1750.0 67.18589426394472
1800.0 67.25875978724967
1850.0 67.30316390604033
1900.0 67.7848068415409
1950.0 67.36166016645468
2000.0 67.20428059269575
2060.0 67.53297923944848
2120.0 67.65867815066316
2180.0 67.81247206558966
2240.0 67.67273612034089
2300.0 67.23735984021516
2360.0 65.9562417325452
2400.0 63.747302857483206
2500.0 63.85903145926635
2580.0 63.48085940015385
2650.0 63.01107175926728
2720.0 63.904366164000365
2800.0 64.61133939842436
2900.0 64.47126676934032
3000.0 63.847577117814424
3070.0 63.358958740644056
3150.0 63.17186792630672
3250.0 63.67904223698457
3350.0 63.61167219056925
3450.0 63.74681544997402
3550.0 64.10438990999153
3650.0 64.59269120093823
3750.0 64.6481353720462
3870.0 65.37150888810929
4000.0 65.30191852249669
4120.0 65.52467289297994
4250.0 65.19433155808422
4370.0 65.59628099067592
4500.0 65.62923640408128
4620.0 64.85185740668112
4750.0 62.794906825925636
4870.0 63.231562804895944
5000.0 63.42449198351248
5150.0 64.706724956217
5300.0 64.35944810732599
5450.0 62.994198453494064
5600.0 62.14902954286269
5800.0 65.3639537095698
6000.0 65.50370179816781
6150.0 66.75123834156689
6300.0 67.9356563512609
6500.0 66.36695216000402
6700.0 65.3288733248679
6900.0 65.79515785949724
7100.0 65.1805574453415
7300.0 65.818883894702
7500.0 65.16950245971951
7750.0 65.04853811685925
8000.0 65.15937659171344
8250.0 62.58181828741979
8500.0 63.905224762830116
8750.0 62.90542344327473
9000.0 65.44246440007484
9250.0 68.87545674131961
9500.0 67.09123040006942
9750.0 64.86556623931365
10000.0 65.67291335157645
10300.0 67.01529865311599
10600.0 67.2590719590637
10900.0 64.73647972804639
11200.0 65.96346900515087
11500.0 63.696571537924314
11800.0 60.58841569227005
12200.0 63.483242384665246
12500.0 63.918407903042166
12800.0 61.30262214628438
13200.0 56.814909113253876
13600.0 53.28986356550713
14000.0 55.916950192938614
14500.0 58.43886415347879
15000.0 60.732536850212014
15500.0 61.45777616348103
16000.0 58.35035381949146
16500.0 57.54946263009131
17000.0 52.29976376184307
17500.0 50.977731102568924
18000.0 49.47919602806627
18500.0 46.94347457601016
19000.0 41.98699115156579
19500.0 38.95924111754279
