Freq "Rear Wall Bounce"
20.5078 69.21995727816858
21.2402 69.85094300347602
21.9727 70.26563111463251
22.7051 71.3679688981601
23.4375 71.9522930615822
24.1699 72.87162563464449
25.6348 73.71558422372878
26.3672 74.37022725924992
27.0996 74.54169106092094
27.832 75.20009193342906
29.2969 76.25553607722269
30.0293 76.58732551120441
31.4941 77.36881742467708
32.2266 77.7548524595672
33.6914 78.410022300276
34.4238 78.73069098483194
35.8887 79.3503571330426
37.3535 79.97211722339054
38.8184 80.52684922294439
39.5508 80.77388941801999
41.0156 81.30662797760033
42.4805 81.7948994908196
43.9453 82.22204070484126
45.4102 82.6060239989496
47.6074 83.32058751620708
49.0723 83.69259279570562
50.5371 83.99159504551741
52.7344 84.44194095025259
54.1992 84.68887372174957
56.3965 85.05152674402368
58.5938 85.35468462294305
60.0586 85.53413476082584
62.2559 85.97687813215964
64.4531 86.1415972440843
66.6504 86.26431771706505
69.5801 86.45158093625828
71.7773 86.52808101091252
73.9746 86.57642182558789
76.9043 86.59146024434449
79.834 86.56699343658241
82.7637 86.52201434055702
85.6934 86.43180355988822
88.623 86.4540969493119
91.5527 86.4888159953092
94.4824 86.44470726477122
98.1445 86.31851614013688
101.807 86.22797648983826
105.469 86.13016375961925
109.131 85.98244462653922
112.793 85.77931147474625
116.455 85.54386614492769
120.85 85.34895330669077
125.244 85.19695469736257
129.639 85.12645037364358
134.033 85.06230731711513
138.428 84.95599962575135
143.555 84.8627474395802
148.682 85.15754333040665
153.809 85.02172903704574
159.668 84.65675756756788
164.795 84.3660233925882
170.654 84.49296517586646
176.514 84.36154504741894
183.105 83.64348253053241
189.697 83.24897883477499
196.289 83.4797873774321
202.881 83.04839465345928
210.205 82.6790349691492
217.529 82.20205923015574
225.586 82.40298626254936
232.91 82.20389005156956
241.699 82.27694824752263
249.756 81.84209489637189
258.545 82.26920158936541
268.066 82.4448387470983
277.588 81.47253438060933
287.109 81.22578581636505
297.363 79.6259480835919
307.617 80.91408776480698
318.604 80.84315675090512
329.59 80.61782198666796
341.309 80.38874842154745
353.76 80.36099587440945
366.211 79.8617012679595
378.662 79.973018292729
392.578 80.43697966370944
405.762 79.1295280373496
420.41 78.83717556989274
435.059 78.7556037719885
450.439 78.73223177703429
466.553 78.3505751027168
482.666 78.32379487614718
500.244 80.20641514149432
517.822 80.10129745426978
536.133 80.28035178436832
554.443 78.93626340524767
574.219 78.24469999012958
594.727 76.9865851553323
615.234 78.42770306536005
637.207 79.07778985914108
659.912 79.63671728123516
683.35 79.60471453021952
706.787 79.27508912347685
731.689 79.03974911346906
758.057 78.90427063660653
784.424 78.8092899913719
812.256 78.13660620640776
840.82 77.65261572698004
870.85 76.6131224004628
901.611 76.36863449115027
933.105 75.80470463573441
966.064 75.8345714103624
999.756 75.90405280249949
1034.91 75.01867917558741
1071.53 74.13937329765385
1109.62 74.6162131272356
1148.44 73.98702056100838
1189.45 73.580962976613
1231.2 73.21394559007841
1274.41 73.53147348947766
1319.82 74.06675277460238
1365.97 73.95831720401341
1414.31 73.40175750994119
1464.11 73.65265896873557
1515.38 73.10804034048935
1568.85 72.99971016342955
1624.51 73.193850574857
1681.64 73.53314291205375
1740.97 74.06380688908935
1802.49 72.59107505975346
1866.21 73.14117487769444
1932.13 73.85406931889271
2000.24 73.96149463100379
2070.56 74.07980730256763
2143.8 73.75986948315821
2219.24 73.21477323068025
2297.61 74.34327934424458
2378.17 74.27902105405168
2462.4 74.00206605955388
2548.83 74.485632750824
2638.92 73.90035358591904
2731.93 73.66613788086816
2828.61 74.39022535892144
2928.22 74.66400566118475
3031.49 73.60646662454373
3138.43 74.08368906562194
3249.02 74.60004338399136
3363.28 74.85300416019149
3481.93 74.76432924203351
3604.98 74.84297433826906
3732.42 75.07182295961535
3863.53 74.75190994936047
3999.76 73.9215789451112
4141.11 73.37506538643866
4286.87 73.46424099180467
4438.48 71.95257402365833
4594.48 72.7753903908601
4757.08 72.28050587906202
4924.8 72.5973710887016
5098.39 72.04110685512597
5277.83 72.55222724534946
5463.87 71.96331693048889
5656.49 71.4734124364336
5856.45 71.41917072448292
6062.99 70.97005649389175
6276.86 70.81663402794527
6498.05 70.60171722477469
6727.29 69.8653394264063
6964.6 68.62371516591423
7209.96 67.7137105737244
7464.11 67.41901410476251
7727.78 66.36901284483439
8000.24 65.69541364986982
8282.23 64.2228972137503
8574.46 63.864067315224005
8876.22 63.697619666359216
9189.7 63.452008900562205
9513.43 62.90522575093716
9848.88 62.92720346410407
10196.8 63.422666365293736
10556.4 63.64146146751716
10928.5 63.07591110648072
11313.7 62.246906835975395
11712.9 62.11911053823469
12126.0 61.15937680891123
12553.7 59.704084297802225
12996.1 58.26584322231828
13454.6 55.223726896951845
13928.5 52.64624190756784
14419.9 49.87905417847999
14928.2 48.07370771173136
15454.8 48.37382131069647
15999.8 48.66932728977493
16564.5 48.46733154767979
17148.2 48.09544608431425
17753.2 47.556241626783034
18379.4 47.039131631000785
19027.6 45.108568970484654
19698.5 42.10508060099913
19999.5 44.31189025638615
