Freq "Side Wall Bounce"
20.5078 65.53364743400606
21.2402 65.94528270100965
21.9727 66.34714096001328
22.7051 67.91000969475583
23.4375 68.70288336411632
24.1699 69.6774286512789
25.6348 71.1987488303606
26.3672 72.1665022220803
27.0996 72.64938265586567
27.832 73.3470041088925
29.2969 74.7394347944367
30.0293 75.2229127139659
31.4941 76.20704448828968
32.2266 76.70485643699065
33.6914 77.53786971784598
34.4238 77.93018129165365
35.8887 78.6510625495264
37.3535 79.36409854127787
38.8184 79.99800054640403
39.5508 80.28357904459152
41.0156 80.87335214261562
42.4805 81.40853255415999
43.9453 81.87121865580862
45.4102 82.29815781425212
47.6074 83.04571366393186
49.0723 83.47084953763458
50.5371 83.82345510073343
52.7344 84.2569611347806
54.1992 84.52739890434715
56.3965 84.93890807810354
58.5938 85.3276012225067
60.0586 85.51953390158302
62.2559 85.96286566396357
64.4531 86.22706391224624
66.6504 86.36947718485312
69.5801 86.62181643534453
71.7773 86.69657232981237
73.9746 86.78278476250777
76.9043 86.81459255517566
79.834 86.84140596621205
82.7637 86.87640477023915
85.6934 86.82121248634142
88.623 86.91199446698415
91.5527 86.95593285703163
94.4824 86.87980480611985
98.1445 86.76026504121491
101.807 86.68127575929789
105.469 86.61310425208379
109.131 86.4564167745656
112.793 86.25132368526981
116.455 86.06435176636958
120.85 85.9043835422173
125.244 85.78668169068244
129.639 85.68311974574542
134.033 85.50761549649147
138.428 85.30950786142492
143.555 85.05262162330772
148.682 85.06998335762604
153.809 84.57386932607132
159.668 84.00903666381
164.795 83.83878151887592
170.654 84.06179181197798
176.514 84.1847059905535
183.105 84.0820963383154
189.697 84.55860407357676
196.289 85.30744753379707
202.881 84.8805793482813
210.205 84.72324791921963
217.529 84.93978672255865
225.586 84.60877147412282
232.91 84.57074361306154
241.699 85.3296500376265
249.756 85.13310578547716
258.545 85.00983042039026
268.066 84.52724808264648
277.588 84.59018254435192
287.109 85.1158599222904
297.363 85.00944545281669
307.617 85.6643790602277
318.604 84.8590687466996
329.59 84.1570522977879
341.309 83.80736206855539
353.76 83.98910613045594
366.211 84.16357333910808
378.662 84.67832824723004
392.578 84.77058126478941
405.762 84.08514629614483
420.41 83.53072947638799
435.059 82.87871204159903
450.439 84.91151620069294
466.553 84.2364761918301
482.666 84.79420669927462
500.244 85.55945020162513
517.822 84.56623666722264
536.133 84.37012281935978
554.443 83.91663720350293
574.219 83.88223566715644
594.727 83.68214035949549
615.234 84.67163920553503
637.207 84.18082563288068
659.912 83.87439921831937
683.35 83.50390479920155
706.787 83.29051991407988
731.689 83.59169043985229
758.057 84.23130336103901
784.424 83.59752555410459
812.256 83.66842732351493
840.82 84.02106983235555
870.85 83.98331502587881
901.611 83.40640189035743
933.105 82.890628218788
966.064 83.03787719707292
999.756 82.89991200910531
1034.91 83.01581449909658
1071.53 82.69790335996277
1109.62 82.42620270474033
1148.44 82.73279068167085
1189.45 81.54315042949115
1231.2 81.58440078103168
1274.41 81.33447330092679
1319.82 81.6782691527939
1365.97 82.01968525266784
1414.31 82.46735096397886
1464.11 82.06956970273747
1515.38 81.04697575546098
1568.85 81.3238742041524
1624.51 81.90438505621695
1681.64 82.589236341489
1740.97 82.26868201622929
1802.49 81.48640374202257
1866.21 81.93632419142135
1932.13 83.14962071123294
2000.24 83.62748726255008
2070.56 83.09304949821973
2143.8 82.2445885960898
2219.24 83.25180964177632
2297.61 84.14593664024325
2378.17 83.83629023295607
2462.4 83.61129798833105
2548.83 84.30330880670832
2638.92 84.07907258409175
2731.93 84.38501917234335
2828.61 84.5785699937894
2928.22 84.8938544554508
3031.49 84.55031557271157
3138.43 84.64341900395605
3249.02 85.42165072560663
3363.28 85.45455382528453
3481.93 85.39131379661812
3604.98 85.32823819089266
3732.42 85.48338576698946
3863.53 85.42745926834029
3999.76 84.80818428955114
4141.11 84.97202241316744
4286.87 84.18983994316413
4438.48 83.83107001076363
4594.48 83.83163656028047
4757.08 84.17714114880813
4924.8 84.05424871174523
5098.39 84.52514490966635
5277.83 84.24176076724369
5463.87 84.11906667839835
5656.49 83.77361673411461
5856.45 83.19131330601805
6062.99 83.64710691614418
6276.86 83.08248882007037
6498.05 83.42474703433597
6727.29 82.59520004996183
6964.6 82.04869715102127
7209.96 80.77335532461022
7464.11 80.80723818350342
7727.78 80.25483197540579
8000.24 80.22103358026659
8282.23 79.93678408072113
8574.46 79.33249500682065
8876.22 79.15360052076811
9189.7 78.97680517006675
9513.43 78.59902084711986
9848.88 78.6549487463339
10196.8 78.87419630700846
10556.4 79.02567558837896
10928.5 78.86476122675745
11313.7 78.66247466112897
11712.9 78.43001258575255
12126.0 78.10548707802509
12553.7 77.57889163622295
12996.1 76.86488703267344
13454.6 75.91163419915829
13928.5 74.86473630214823
14419.9 73.6588999694
14928.2 72.03330799340493
15454.8 70.37249506185796
15999.8 68.39997127283796
16564.5 66.11214125987013
17148.2 63.25511464172625
17753.2 60.86949239612859
18379.4 60.365069647293225
19027.6 60.85070507618717
19698.5 61.16979286965237
19999.5 61.06392834808149
