Freq,Floor Bounce,Ceiling Bounce,Front Wall Bounce,Side Wall Bounce,Rear Wall Bounce,Total Early Reflection
22.4,42.91230359076516,42.369298137530535,42.1367602353138,41.891829513763895,41.57842597441865,42.20145447920322
23.0,43.14355297109714,42.73015450980833,42.58929439419509,42.36955970496112,42.043022739923316,42.59064806838532
23.6,43.40681497339426,43.056055955673656,43.001537441628386,42.769559704961125,42.43427752517027,42.94557562175095
24.0,43.60681497339425,43.3824017697454,43.355102751103516,43.22764030196609,42.841555927764375,43.28993191889106
25.0,43.834936069943524,43.636445928988394,43.70924027861386,43.58628043845087,43.192337618841066,43.59716303808494
25.8,43.999788300328106,43.89878663395152,44.00924027861387,43.92715021609547,43.5482266814015,43.87989105243503
26.5,44.19978830032812,44.1923254132621,44.31922748313116,44.266412564486075,43.86129621362397,44.170719457043674
27.2,44.36516356748331,44.4209652050902,44.61922748313117,44.58628043845087,44.17175543868635,44.43568428259664
28.0,44.53105818131036,44.65007788645255,44.88830239301774,44.84551046769951,44.46562919226838,44.67933621099968
29.0,44.698235848885986,44.91339527669746,45.11651522876278,45.18360124171019,44.74912422709241,44.93645672032872
30.0,44.864390205590894,45.17966802775342,45.37304355901628,45.42498650709817,45.05426269273721,45.184147062047145
30.7,45.09823584888602,45.443235548815096,45.614503540278974,45.6850526079528,45.32302315309795,45.437862176951114
31.5,45.365163567483336,45.80437336478499,45.97170469943583,46.02321719106871,45.685815831806025,45.77635586274323
32.5,45.66516356748332,46.104373364784976,46.284942805188365,46.30351795905082,46.006397497923814,46.079008844867104
33.5,45.86516356748331,46.40437336478499,46.51383288886274,46.583728965670616,46.275125636463684,46.33574154111963
34.5,46.198235848886014,46.73567965331782,46.855859251540835,46.8837289656706,46.61099094087086,46.66389448488016
35.5,46.59978830032813,47.16748323700514,47.227248305258684,47.283728965670605,47.021593324224966,47.06679917563318
36.5,47.032598946210214,47.66748323700514,47.62724830525869,47.7026292427943,47.459288160676834,47.50473071821193
37.5,47.532598946210214,48.16748323700517,48.070116785561964,48.12188498920449,47.91624539268372,47.96767434213936
38.7,48.06516356748335,48.69978830032812,48.583982850291335,48.64150127331132,48.459288160676806,48.495755735436546
40.0,48.66516356748332,49.29978830032812,49.140933441409345,49.14150127331135,49.005365444045026,49.055754384891884
41.2,49.26516356748331,49.89978830032814,49.69812621512463,49.72188498920448,49.61067674232859,49.644108838234274
42.5,49.96516356748333,50.56748323700515,50.298126215124626,50.34150127331131,50.22034796759053,50.28287404664323
43.7,50.66516356748332,51.23259894621023,50.99812621512464,50.96102935252165,50.899342281386396,50.95507168815854
45.0,51.532598946210214,52.09978830032814,51.81255149686923,51.75914914116325,51.71492497322387,51.78772374602251
46.2,52.23259894621022,52.73259894621023,52.46979327521973,52.39886047067802,52.36301941343844,52.442559685180896
47.5,52.832598946210226,53.300537925472895,53.01255149686922,52.959149141163266,52.932389041006815,53.01034525303713
48.7,53.565919192484714,53.96591919248472,53.712551496869224,53.61858079208574,53.59900661547604,53.6948524746834
50.0,54.29823584888601,54.600537925472906,54.41255149686923,54.318580792085726,54.31121116607383,54.389723929371996
51.5,54.96591919248472,55.30053792547291,55.08431281606096,55.01858079208574,54.99900661547605,55.07534213501981
53.0,55.731819763115396,55.93410411110226,55.75522502907569,55.67811433221628,55.66254187312725,55.75345274934594
54.5,56.365919192484725,56.53410411110224,56.440607749768205,56.338668185675246,56.34175081692811,56.40485443545691
56.0,57.1318197631154,57.26897636229977,57.2406077497682,57.11811178751118,57.1259028647213,57.177559672753006
58.0,57.93181976311541,57.93410411110224,57.940607749768205,57.81811178751117,57.8362287225827,57.892502891944304
60.0,58.43181976311541,58.43410411110226,58.54060774976821,58.39792886737956,58.356573413562714,58.432637622418255
61.5,59.03181976311542,58.96897636229977,59.09746835443039,58.97856637305546,58.9465300877354,59.0050112914398
63.0,59.6318197631154,59.53410411110225,59.72627551117567,59.597928867379565,59.56170029673949,59.610879441745226
65.0,60.231819763115396,60.10278642209508,60.39746835443039,60.21811178751116,60.1617002967395,60.22350582887724
67.0,60.83181976311542,60.70278642209509,60.98332284353276,60.818111787511185,60.75143489468648,60.818541377836965
69.0,61.498235848886,61.33410411110225,61.62627551117566,61.47811433221631,61.425779655280834,61.4735552016453
71.0,62.098235848886006,61.93410411110226,62.22627551117567,62.07811433221629,62.01518749951359,62.071461995718224
73.0,62.5643902055909,62.43410411110224,62.78332284353276,62.55866309677222,62.504811432347935,62.57064536426637
75.0,63.09823584888599,62.900537925472904,63.25489284578855,63.07811433221629,63.00481143234795,63.068886773130316
77.5,63.598235848886006,63.40053792547292,63.79746835443038,63.55866309677222,63.515428893967155,63.57601749327719
80.0,64.09823584888602,63.900537925472904,64.22627551117566,64.05866309677222,63.95167428283622,64.0485873327521
82.5,64.598235848886,64.40053792547292,64.7974683544304,64.55866309677222,64.43106606130141,64.55950790686222
85.0,64.998235848886,64.9005379254729,65.19746835443038,64.95866309677223,64.89815815205316,64.99201928988334
87.5,65.398235848886,65.23567965331782,65.54060774976821,65.31811178751119,65.2189172575491,65.34392227220667
90.0,65.76591919248472,65.6005379254729,65.94060774976819,65.65866309677222,65.55681251864664,65.70669370026718
92.5,66.098235848886,65.9356796533178,66.29746835443038,66.03866818567523,65.90855010825284,66.05796118868093
95.0,66.498235848886,66.30053792547291,66.6691311083493,66.43866818567524,66.27550658503483,66.43878299943128
97.5,66.83259894621021,66.60053792547292,67.01189581782785,66.75866309677222,66.58749833156986,66.76110504763696
100.0,67.13259894621022,66.86897636229978,67.31189581782786,67.0194868732477,66.84473562401604,67.03901511421908
103.0,67.43259894621022,67.16897636229977,67.61189581782786,67.29977067507087,67.12409985598245,67.33115411805338
106.0,67.76591919248472,67.43567965331782,67.9406077497682,67.61948687324768,67.4119673133557,67.63936300124217
109.0,68.0659191924847,67.66897636229976,68.2406077497682,67.89977067507088,67.68595281901874,67.91783851310856
112.0,68.33259894621021,67.96897636229977,68.5406077497682,68.19977067507088,67.93290109840832,68.20093937910463
115.0,68.56591919248471,68.16897636229976,68.76913110834928,68.3997706750709,68.13290109840833,68.41400435085177
118.0,68.83410411110225,68.36897636229976,69.0406077497682,68.68085792637336,68.40182018040318,68.67281912958646
122.0,69.03410411110224,68.56897636229978,69.2406077497682,68.88085792637338,68.58145451110258,68.86899967050651
125.0,69.2005379254729,68.70437336478497,69.41189581782785,69.04097026226215,68.72280281556559,69.02475720427269
128.0,69.30053792547291,68.80437336478498,69.54060774976821,69.16141900262535,68.86075401450462,69.14224670868754
132.0,69.40053792547292,68.90437336478497,69.64060774976821,69.28085792637337,68.9507203630925,69.24428135344021
136.0,69.40053792547292,68.90437336478497,69.66913110834929,69.28085792637337,68.97147960059355,69.25442958296803
140.0,69.40053792547292,68.87356010892259,69.66913110834929,69.30207275165778,68.98348245624304,69.25529577983468
145.0,69.36897636229978,68.77356010892261,69.66913110834929,69.26141900262535,68.94318482084594,69.21478024048785
150.0,69.36897636229978,68.77356010892261,69.64060774976821,69.2227050271375,68.93334003011876,69.19879869034175
155.0,69.3379100338853,68.6735601089226,69.64060774976821,69.20345292433782,68.8705595287753,69.15865816605654
160.0,69.3379100338853,68.6735601089226,69.66913110834929,69.18498729613417,68.82914011913635,69.15361158482604
165.0,69.3379100338853,68.60974013758657,69.71255149686924,69.18498729613417,68.77699409808294,69.14245962917602
170.0,69.3379100338853,68.60974013758657,69.76913110834931,69.16686582489707,68.7101116854509,69.13959132789645
175.0,69.3379100338853,68.57966802775343,69.76913110834931,69.14780892119376,68.62023948663395,69.11427074167206
180.0,69.2735601089226,68.51663540945792,69.7412591086277,69.08864344945776,68.49836165887992,69.0495172418465
185.0,69.1735601089226,68.41663540945792,69.6836528594499,69.0098203698459,68.33685451598745,68.9530324844689
190.0,69.0735601089226,68.31663540945792,69.58365285944987,68.89551849939525,68.1782015320615,68.84000921467839
195.0,68.9735601089226,68.18729692116511,69.51255149686922,68.81436764966942,68.06820815569333,68.74381801694201
200.0,68.9735601089226,68.15007788645255,69.51255149686922,68.77427155460657,68.02722001981867,68.72214685711086
206.0,69.04323554881508,68.18729692116511,69.61255149686923,68.89551849939525,68.15091279834294,68.8131663652026
212.0,69.24323554881508,68.28729692116511,69.81255149686922,69.11571259830276,68.32225868978468,68.9952330217092
218.0,69.51339527669745,68.42505554726631,70.0691311083493,69.3344744946711,68.52819450175363,69.21828070578432
224.0,69.67966802775342,68.49644280573963,70.2691311083493,69.5344744946711,68.66765643342058,69.37954523514306
230.0,69.75007788645256,68.36829805727338,70.31255149686922,69.57825624940068,68.65560969782595,69.39192204487193
236.0,69.57966802775343,68.10710092124658,70.18365285944988,69.47825624940069,68.45951905481802,69.22811986749798
240.0,69.35007788645257,67.70710092124659,69.94125910862768,69.21571259830279,68.15823799181356,68.95039029880192
250.0,69.05007788645256,67.2464519459388,69.71255149686924,68.91571259830278,67.80964036170509,68.63668501865048
258.0,68.82096520509018,66.84645194593881,69.51255149686922,68.67825624940068,67.50016616468612,68.37566556834301
265.0,68.6872969211651,66.58635382598041,69.42726335198944,68.53825952388058,67.27900631512546,68.22154966349946
272.0,68.69644280573964,66.48635382598042,69.45653839054978,68.53825952388058,67.1505927399373,68.19733766711728
280.0,68.79644280573963,66.45941703006805,69.5849576533508,68.67825624940068,67.11393971321257,68.27558084370116
290.0,68.89644280573964,66.50012285783379,69.6849576533508,68.77825624940067,67.03837334810805,68.34135692311813
300.0,68.93004053489597,66.40012285783378,69.72726335198945,68.85191129698619,66.97273573912952,68.35442555901997
307.0,68.84061661552472,66.24138560304677,69.69976312136731,68.8318852046017,66.88147416447647,68.28870037074822
315.0,68.67966648233096,65.87388465175192,69.59976312136732,68.70667446623447,66.73701071849871,68.13008225409294
325.0,68.45268804751417,65.3574679718803,69.42922349304945,68.50667446623446,66.53226829684701,67.89513940172355
335.0,68.16624869439828,64.77504785903751,69.21745258844481,68.16609639341362,66.30406419658053,67.59439912373699
345.0,67.95612863043871,64.18320439307244,69.11745258844483,67.7708120000149,66.0846994768083,67.33550625899136
355.0,67.77331442970184,63.66015026261937,69.09113425539822,67.480306320242,65.92054115819825,67.14834145236122
365.0,67.79195704375329,63.339187877740144,69.22133821539252,67.39674705161934,65.89220116413526,67.14416256435881
375.0,67.98926651120446,63.21245217454509,69.5911342553982,67.48458250681463,65.94549106667115,67.32807041057374
387.0,68.12331879794962,63.118046009210715,69.8911342553982,67.6116165464433,65.90415932900005,67.47535734279091
400.0,68.19309319167431,63.04952835928643,70.09113425539822,67.70120755948118,65.73688497992833,67.55322261198863
412.0,68.07270659237787,62.90740462343334,70.17595313590056,67.67951076909407,65.39619714871263,67.49856639019836
425.0,67.93304181488881,62.668855121972456,70.1311381615207,67.67820326557269,64.99134893259357,67.38516184299819
437.0,67.88002900942573,62.403336612861864,70.05782147266235,67.67339627275665,64.57779572391202,67.2807162312869
450.0,67.86094867681138,62.168963644959405,70.07044027180743,67.78613001094887,64.3305361239918,67.26547102096823
462.0,67.88002900942573,61.818060181489685,70.02692902298631,67.921198914283,64.1680736866788,67.24715719380123
475.0,67.78002900942573,61.25796250105644,69.94125910862768,68.00432226623872,64.08956494296042,67.17331877141062
487.0,67.62759012664692,60.55275823734081,69.89812621512463,68.15216627807763,64.16384284227426,67.13288656259863
500.0,67.45706221054972,59.61749196976676,69.84125910862767,68.21334158567727,64.31141554134994,67.06730535265487
515.0,67.25266055461307,58.465082723984665,69.7849576533508,68.15525809361255,64.34345629328581,66.95290755255924
530.0,66.92032820710793,57.26721641569176,69.69976312136731,68.00519583020933,64.23758954745853,66.76804292275474
545.0,66.57798187512292,56.11825068004356,69.61745258844482,67.7125020119647,63.89200022810881,66.52619506901692
560.0,66.34275829311282,55.39893320758503,69.57833680907672,67.48210643781964,63.475579738083866,66.34594991386189
580.0,66.51435465449856,55.419014708502715,69.85238595828328,67.68210643781963,63.31827503272952,66.53345738835253
600.0,66.94660221097695,55.80998205786082,70.42687512134665,68.19519588017593,63.42833326935816,67.01848458873744
615.0,67.32314880757971,56.24983903322969,70.91110776049919,68.76842858336923,63.64190926241055,67.48169505733007
630.0,67.76979221833258,56.6539881783565,71.43671111165028,69.47563982766864,63.98227819235164,68.02527063043624
650.0,68.09648354177901,56.667093276660054,71.91745258844483,70.1235342887721,64.35465332839425,68.51016126831661
670.0,68.32990676843511,56.277682069740735,72.31745258844482,70.6611571987842,64.69661912079505,68.90711963082902
690.0,68.49051475975457,56.01896910798463,72.77595313590055,71.23598456085108,65.123338036937,69.34082918404118
710.0,68.47644897214946,55.873793952789626,73.17595313590056,71.54162718278013,65.33082311898931,69.62648356213406
730.0,68.32134454071542,55.87521893478579,73.4652599898752,71.66013971102271,65.25100801429623,69.76773511015674
750.0,67.78414124265588,55.67305121626512,73.67038654413207,71.56013971102269,64.87917916557387,69.73623864890497
775.0,67.49133509303914,55.76538183123061,73.78594053370554,71.23654869200955,64.26900908812738,69.62526019800156
800.0,67.56457618502436,56.40828035859161,74.0081580174567,70.95651886049005,63.65762994943185,69.64697062362283
825.0,68.03262168994003,57.423496099560225,74.27715372135017,70.77203958118997,63.06904550945124,69.79152366154301
850.0,68.78200090318308,58.72020555128522,74.7081580174567,70.79928712559027,62.70957098261944,70.14970703352323
875.0,69.31856369897142,59.82590178786171,75.22430290755999,70.98863675979175,62.40750148165833,70.57701383296452
900.0,69.61314926357741,60.928857395371324,75.62430290755998,71.24601057333284,62.06014913070565,70.92213455864784
925.0,69.79908915277001,61.78965566381203,76.0003446374344,71.4067480828709,61.53721040642412,71.21374400163212
950.0,69.79421420480851,62.49878663395151,76.24833048831225,71.61212093863489,60.83523793272509,71.40980993981164
975.0,69.84421045748888,62.951278098024844,76.44833048831224,71.76364632663658,59.91195749135841,71.56852458120501
1000.0,69.64907995289116,62.930778592447155,76.49689128625238,71.85506362272949,59.04492835727484,71.5809214384645
1030.0,69.22936200249836,62.61153674970039,76.54833048831225,72.03277930321191,58.93963195605586,71.59080909849408
1060.0,68.5022704896626,61.953184168574154,76.49614078139386,72.22579377071364,59.675561205810425,71.51691485574877
1090.0,67.83280701767572,60.80303406928061,76.30452082147644,72.35876488031371,60.956735287140006,71.36321001101699
1120.0,67.53934772687948,59.25199540196144,75.90452082147644,72.32079896284004,62.3916248966614,71.08969532175158
1150.0,67.41342670924442,58.20148845906277,75.47349045551705,72.06649028650355,63.12030124704543,70.76156102438219
1180.0,67.35046903584167,57.7142523879956,75.37989066170864,72.04726235144538,63.71290301478436,70.71225867292353
1220.0,67.46157291906658,58.12936200249837,75.4081580174567,72.18304373383202,64.3110801716878,70.80571651469555
1250.0,67.66552544180986,58.61238674022451,75.52430290755998,72.36684348834433,64.82683112289189,70.9714160845767
1280.0,67.7403987492483,58.478531247408796,75.57715372135019,72.67517745546752,65.53406078557191,71.12980463723915
1320.0,68.1409387447239,58.48366717098068,75.21482400308406,72.62549707403784,66.25214146886643,71.00181026120501
1360.0,68.76640451747426,58.325034695887325,74.80661424748867,72.51383170161785,66.86787528282889,70.87455373305023
1400.0,69.02077103583132,58.04159887824615,74.70473257373334,72.42121807980486,66.97246431727257,70.83545459932257
1450.0,69.08817613509653,58.604500824710954,74.98101073995028,72.44501690698758,66.83237997846696,70.98279524440413
1500.0,68.97081357286925,59.212303590765174,75.37687574321791,72.57066168951917,66.35235162643784,71.17972093376656
1550.0,68.74275829311284,60.102445041198465,75.85568544262537,72.86548770733503,65.93569799767738,71.47902216664656
1600.0,68.89557026100877,60.71112600365561,76.18411026924797,73.04072980325314,65.7824587083652,71.7257000604733
1650.0,69.2592182149957,60.87531334664459,76.30609549354384,73.24519779297498,65.99541048633803,71.9011528867356
1700.0,69.70775607862141,60.90666868732973,76.38083231783082,73.3566201198483,66.28876886270594,72.0387937184153
1750.0,69.91552998170678,61.15042372230816,76.43283922062025,73.56126074866086,66.63618148767685,72.16999055029807
1800.0,70.1629268521673,61.582403279038886,76.61618700593587,74.00890909491162,67.2164984914066,72.4620240996573
1850.0,70.29742939649991,61.609740137586584,76.75916461840231,74.42508651887206,67.69930004551074,72.70268541552836
1900.0,70.33986846110243,61.90469252815403,76.85782147266235,74.80194273053425,68.09425062041257,72.90168423487732
1950.0,70.73727772196143,62.15974026042355,76.90661424748866,74.97001795085441,68.44207269064958,73.05084414867771
2000.0,71.13888468891494,62.261647554309775,77.0086295928318,75.08611782628509,68.55753639061547,73.19439397260926
2060.0,71.53901034827071,62.44945224032661,77.26275551442589,75.3947166594718,68.80766585682858,73.48249682315482
2120.0,72.05463043027142,62.42749018827226,77.5474746946011,75.72169553809817,69.09122642458703,73.80580631914535
2180.0,72.35335616758597,62.07857081268877,77.82922349304945,76.02435633376908,69.32650169120339,74.08467463576343
2240.0,72.40356166291427,61.92975312282617,77.9849576533508,76.27418917286768,69.58337473372869,74.25924470078307
2300.0,72.32427261958647,61.84305749771693,78.02922349304944,76.29691156662984,69.73507861448053,74.28665504183186
2360.0,72.29999809265796,62.029753122826165,77.93484243572124,76.0828900123485,69.59934569834833,74.16410715547312
2400.0,72.46915366798261,62.26174042463526,77.9086295928318,75.97951419861525,69.59772549844737,74.14509177792556
2500.0,72.63149882357854,62.26027454370556,77.88285966007163,75.7985575558082,69.58526467119557,74.10015608614357
2580.0,72.9124521745451,62.29093687803791,77.90452082147644,75.48795000227413,69.30031315769122,74.04381667760929
2650.0,73.00812699820813,62.00750271638256,77.96844213773646,75.31993384787226,69.09990560512752,74.02725429972855
2720.0,72.8205886984242,61.421765720345576,77.94417284775935,75.19335374416985,68.965259936892,73.93627125767239
2800.0,72.7205886984242,60.74323554881508,77.77386892490611,74.86048730695998,68.66664351712447,73.72064509723117
2900.0,72.47854162825917,60.71663540945792,77.56317480127865,74.61215584774719,68.66878035164511,73.51076387134344
3000.0,72.2921905309351,60.44689016917067,77.37202621387607,74.51598171165867,68.81135690120561,73.36679567520986
3070.0,72.07357130026536,60.3153962520789,77.15293320060921,74.2562693524539,68.49916107524528,73.13166153202701
3150.0,71.80957244182852,60.34463192916759,77.18285966007163,74.32537753483003,68.19819873824048,73.10493241787017
3250.0,71.46491878173966,59.7625077303379,77.04612792807833,74.35828844689993,67.58814651190697,72.95039673030467
