Freq "Ceiling Bounce"
22.4 42.369298137530535
23.0 42.73015450980833
23.6 43.056055955673656
24.0 43.3824017697454
25.0 43.636445928988394
25.8 43.89878663395152
26.5 44.1923254132621
27.2 44.4209652050902
28.0 44.65007788645255
29.0 44.91339527669746
30.0 45.17966802775342
30.7 45.443235548815096
31.5 45.80437336478499
32.5 46.104373364784976
33.5 46.40437336478499
34.5 46.73567965331782
35.5 47.16748323700514
36.5 47.66748323700514
37.5 48.16748323700517
38.7 48.69978830032812
40.0 49.29978830032812
41.2 49.89978830032814
42.5 50.56748323700515
43.7 51.23259894621023
45.0 52.09978830032814
46.2 52.73259894621023
47.5 53.300537925472895
48.7 53.96591919248472
50.0 54.600537925472906
51.5 55.30053792547291
53.0 55.93410411110226
54.5 56.53410411110224
56.0 57.26897636229977
58.0 57.93410411110224
60.0 58.43410411110226
61.5 58.96897636229977
63.0 59.53410411110225
65.0 60.10278642209508
67.0 60.70278642209509
69.0 61.33410411110225
71.0 61.93410411110226
73.0 62.43410411110224
75.0 62.900537925472904
77.5 63.40053792547292
80.0 63.900537925472904
82.5 64.40053792547292
85.0 64.9005379254729
87.5 65.23567965331782
90.0 65.6005379254729
92.5 65.9356796533178
95.0 66.30053792547291
97.5 66.60053792547292
100.0 66.86897636229978
103.0 67.16897636229977
106.0 67.43567965331782
109.0 67.66897636229976
112.0 67.96897636229977
115.0 68.16897636229976
118.0 68.36897636229976
122.0 68.56897636229978
125.0 68.70437336478497
128.0 68.80437336478498
132.0 68.90437336478497
136.0 68.90437336478497
140.0 68.87356010892259
145.0 68.77356010892261
150.0 68.77356010892261
155.0 68.6735601089226
160.0 68.6735601089226
165.0 68.60974013758657
170.0 68.60974013758657
175.0 68.57966802775343
180.0 68.51663540945792
185.0 68.41663540945792
190.0 68.31663540945792
195.0 68.18729692116511
200.0 68.15007788645255
206.0 68.18729692116511
212.0 68.28729692116511
218.0 68.42505554726631
224.0 68.49644280573963
230.0 68.36829805727338
236.0 68.10710092124658
240.0 67.70710092124659
250.0 67.2464519459388
258.0 66.84645194593881
265.0 66.58635382598041
272.0 66.48635382598042
280.0 66.45941703006805
290.0 66.50012285783379
300.0 66.40012285783378
307.0 66.24138560304677
315.0 65.87388465175192
325.0 65.3574679718803
335.0 64.77504785903751
345.0 64.18320439307244
355.0 63.66015026261937
365.0 63.339187877740144
375.0 63.21245217454509
387.0 63.118046009210715
400.0 63.04952835928643
412.0 62.90740462343334
425.0 62.668855121972456
437.0 62.403336612861864
450.0 62.168963644959405
462.0 61.818060181489685
475.0 61.25796250105644
487.0 60.55275823734081
500.0 59.61749196976676
515.0 58.465082723984665
530.0 57.26721641569176
545.0 56.11825068004356
560.0 55.39893320758503
580.0 55.419014708502715
600.0 55.80998205786082
615.0 56.24983903322969
630.0 56.6539881783565
650.0 56.667093276660054
670.0 56.277682069740735
690.0 56.01896910798463
710.0 55.873793952789626
730.0 55.87521893478579
750.0 55.67305121626512
775.0 55.76538183123061
800.0 56.40828035859161
825.0 57.423496099560225
850.0 58.72020555128522
875.0 59.82590178786171
900.0 60.928857395371324
925.0 61.78965566381203
950.0 62.49878663395151
975.0 62.951278098024844
1000.0 62.930778592447155
1030.0 62.61153674970039
1060.0 61.953184168574154
1090.0 60.80303406928061
1120.0 59.25199540196144
1150.0 58.20148845906277
1180.0 57.7142523879956
1220.0 58.12936200249837
1250.0 58.61238674022451
1280.0 58.478531247408796
1320.0 58.48366717098068
1360.0 58.325034695887325
1400.0 58.04159887824615
1450.0 58.604500824710954
1500.0 59.212303590765174
1550.0 60.102445041198465
1600.0 60.71112600365561
1650.0 60.87531334664459
1700.0 60.90666868732973
1750.0 61.15042372230816
1800.0 61.582403279038886
1850.0 61.609740137586584
1900.0 61.90469252815403
1950.0 62.15974026042355
2000.0 62.261647554309775
2060.0 62.44945224032661
2120.0 62.42749018827226
2180.0 62.07857081268877
2240.0 61.92975312282617
2300.0 61.84305749771693
2360.0 62.029753122826165
2400.0 62.26174042463526
2500.0 62.26027454370556
2580.0 62.29093687803791
2650.0 62.00750271638256
2720.0 61.421765720345576
2800.0 60.74323554881508
2900.0 60.71663540945792
3000.0 60.44689016917067
3070.0 60.3153962520789
3150.0 60.34463192916759
3250.0 59.7625077303379
3350.0 59.196214729903275
3450.0 58.972087954506506
3550.0 58.425901787861704
3650.0 58.13066164544939
3750.0 57.4331616851011
3870.0 56.565563290413024
4000.0 56.045527658407735
4120.0 55.82077103583134
4250.0 56.57213678719458
4370.0 56.72353381896106
4500.0 56.896181088514695
4620.0 56.77935449036566
4750.0 56.30228382351028
4870.0 55.786540553292014
5000.0 54.97144008514444
5150.0 55.121115403940166
5300.0 55.62376866937484
5450.0 55.666556415579805
5600.0 55.18658896534255
5800.0 54.76695834463814
6000.0 55.71539625207889
6150.0 56.91339527669746
6300.0 57.99421132774776
6500.0 58.77236064526137
6700.0 59.53440944405675
6900.0 60.620484493862236
7100.0 60.93805508708901
7300.0 60.685686706064814
7500.0 59.717690654250276
7750.0 57.54005109106053
8000.0 55.93216608803937
8250.0 56.9371136741904
8500.0 58.39263884322695
8750.0 59.62629770775199
9000.0 60.91442451775782
9250.0 61.85156922049046
9500.0 62.437130075388225
9750.0 63.2296887023427
10000.0 63.678904570345054
10300.0 63.83477006736828
10600.0 63.85674182663584
10900.0 63.4541837165455
11200.0 62.4404247471994
11500.0 61.18657756786777
11800.0 59.74731986129734
12200.0 58.476488051435624
12500.0 57.75303645900733
12800.0 56.97794967869484
13200.0 56.418392673307125
13600.0 55.82079510431008
14000.0 55.434616062430464
14500.0 55.384287648943484
15000.0 55.60631659104743
15500.0 56.313451606202975
16000.0 57.64500923427495
16500.0 57.10570062566411
17000.0 54.73708440350677
17500.0 52.50813250436876
18000.0 49.637109774496395
18500.0 47.19387697009108
19000.0 44.155717350173376
19500.0 40.05192683969102
