Freq "Total Early Reflection"
22.4 45.803986124772834
23.0 46.19317971395493
23.6 46.54810726732056
24.0 46.89246356446067
25.0 47.199694683654556
25.8 47.48242269800464
26.5 47.77325110261329
27.2 48.03821592816625
28.0 48.28186785656929
29.0 48.538988365898334
30.0 48.78667870761676
30.7 49.04039382252073
31.5 49.37888750831284
32.5 49.68154049043672
33.5 49.938273186689244
34.5 50.26642613044977
35.5 50.66933082120279
36.5 51.107262363781544
37.5 51.570205987708974
38.7 52.09828738100616
40.0 52.6582860304615
41.2 53.24664048380389
42.5 53.88540569221284
43.7 54.55760333372815
45.0 55.39025539159212
46.2 56.04509133075051
47.5 56.61287689860674
48.7 57.297384120253014
50.0 57.99225557494161
51.5 58.67787378058942
53.0 59.35598439491555
54.5 60.007386081026524
56.0 60.78009131832262
58.0 61.49503453751392
60.0 62.03516926798787
61.5 62.60754293700941
63.0 63.21341108731484
65.0 63.82603747444685
67.0 64.42107302340658
69.0 65.07608684721491
71.0 65.67399364128784
73.0 66.17317700983598
75.0 66.67141841869993
77.5 67.1785491388468
80.0 67.65111897832172
82.5 68.16203955243184
85.0 68.59455093545296
87.5 68.94645391777628
90.0 69.3092253458368
92.5 69.66049283425055
95.0 70.0413146450009
97.5 70.36363669320657
100.0 70.6415467597887
103.0 70.93368576362299
106.0 71.24189464681179
109.0 71.52037015867818
112.0 71.80347102467424
115.0 72.01653599642138
118.0 72.27535077515607
122.0 72.47153131607612
125.0 72.6272888498423
128.0 72.74477835425715
132.0 72.84681299900983
136.0 72.85696122853764
140.0 72.8578274254043
145.0 72.81731188605747
150.0 72.80133033591136
155.0 72.76118981162615
160.0 72.75614323039565
165.0 72.74499127474563
170.0 72.74212297346607
175.0 72.71680238724167
180.0 72.65204888741611
185.0 72.55556413003852
190.0 72.442540860248
195.0 72.34634966251163
200.0 72.32467850268047
206.0 72.41569801077222
212.0 72.59776466727881
218.0 72.82081235135394
224.0 72.98207688071267
230.0 72.99445369044155
236.0 72.8306515130676
240.0 72.55292194437153
250.0 72.2392166642201
258.0 71.97819721391262
265.0 71.82408130906907
272.0 71.7998693126869
280.0 71.87811248927078
290.0 71.94388856868774
300.0 71.95695720458959
307.0 71.89123201631783
315.0 71.73261389966255
325.0 71.49767104729317
335.0 71.1969307693066
345.0 70.93803790456097
355.0 70.75087309793084
365.0 70.74669420992842
375.0 70.93060205614336
387.0 71.07788898836053
400.0 71.15575425755824
412.0 71.10109803576798
425.0 70.9876934885678
437.0 70.88324787685652
450.0 70.86800266653785
462.0 70.84968883937084
475.0 70.77585041698023
487.0 70.73541820816824
500.0 70.66983699822448
515.0 70.55543919812885
530.0 70.37057456832436
545.0 70.12872671458653
560.0 69.9484815594315
580.0 70.13598903392214
600.0 70.62101623430705
615.0 71.08422670289968
630.0 71.62780227600585
650.0 72.11269291388622
670.0 72.50965127639863
690.0 72.9433608296108
710.0 73.22901520770367
730.0 73.37026675572635
750.0 73.33877029447459
775.0 73.22779184357117
800.0 73.24950226919245
825.0 73.39405530711262
850.0 73.75223867909284
875.0 74.17954547853414
900.0 74.52466620421745
925.0 74.81627564720173
950.0 75.01234158538125
975.0 75.17105622677462
1000.0 75.18345308403411
1030.0 75.19334074406369
1060.0 75.11944650131838
1090.0 74.9657416565866
1120.0 74.69222696732119
1150.0 74.3640926699518
1180.0 74.31479031849314
1220.0 74.40824816026516
1250.0 74.57394773014632
1280.0 74.73233628280876
1320.0 74.60434190677462
1360.0 74.47708537861985
1400.0 74.43798624489219
1450.0 74.58532688997374
1500.0 74.78225257933617
1550.0 75.08155381221617
1600.0 75.32823170604291
1650.0 75.50368453230521
1700.0 75.64132536398492
1750.0 75.77252219586768
1800.0 76.06455574522691
1850.0 76.30521706109798
1900.0 76.50421588044694
1950.0 76.65337579424732
2000.0 76.79692561817888
2060.0 77.08502846872443
2120.0 77.40833796471496
2180.0 77.68720628133305
2240.0 77.86177634635268
2300.0 77.88918668740148
2360.0 77.76663880104273
2400.0 77.74762342349517
2500.0 77.70268773171318
2580.0 77.6463483231789
2650.0 77.62978594529817
2720.0 77.538802903242
2800.0 77.32317674280078
2900.0 77.11329551691306
3000.0 76.96932732077947
3070.0 76.73419317759662
3150.0 76.70746406343979
3250.0 76.55292837587429
3350.0 76.29817736114228
3450.0 76.19449255936232
3550.0 75.78405727124493
3650.0 75.57512208633875
3750.0 75.3205870805666
3870.0 74.88991936310896
4000.0 74.82474324502476
4120.0 74.69864600924879
4250.0 74.67017669929577
4370.0 74.49433554016323
4500.0 74.34673481013068
4620.0 74.20912227506892
4750.0 74.05320432661743
4870.0 74.08294715477612
5000.0 73.98428203991656
5150.0 73.70274148148803
5300.0 73.48295327549987
5450.0 73.12573675699149
5600.0 72.81453569855451
5800.0 72.59023020671604
6000.0 72.33938576353944
6150.0 72.11937312419055
6300.0 71.99466911044405
6500.0 71.80008004648961
6700.0 71.67305958979202
6900.0 71.66194837295117
7100.0 71.42347491547862
7300.0 71.25434018504785
7500.0 70.93546748205677
7750.0 70.33982898160785
8000.0 69.80115099081512
8250.0 69.27373774118993
8500.0 68.8551665694886
8750.0 68.56568006729462
9000.0 68.41943478253671
9250.0 68.36700334416493
9500.0 68.24388618000445
9750.0 68.34218643049196
10000.0 68.46561727652058
10300.0 68.33387472367782
10600.0 67.96623952382431
10900.0 67.30652622070478
11200.0 66.30909610271021
11500.0 65.36031807514699
11800.0 64.5815224288599
12200.0 63.99117920257926
12500.0 63.6062933841104
12800.0 63.23602106617652
13200.0 62.915533249805165
13600.0 62.67842838623359
14000.0 62.583281984573716
14500.0 62.85503259267779
15000.0 63.506614743212324
15500.0 64.44700526908885
16000.0 65.36026531950124
16500.0 65.32230675623707
17000.0 64.51959384450507
17500.0 63.50643565615128
18000.0 62.15787957641423
18500.0 60.52690824033371
19000.0 58.38145409099603
19500.0 55.70598001994151
