Freq "Floor Bounce"
20.5078 63.99745918435018
21.9727 64.74163463508962
23.4375 66.28237032712435
24.9023 66.77613409794346
26.3672 67.80840018497645
27.832 68.82480320675862
29.2969 69.58591139588225
30.7617 70.57093200872538
32.2266 71.1858421442369
33.6914 71.93410587546099
35.1562 72.58058779847971
36.6211 73.37028415717249
38.0859 74.0163797072661
39.5508 74.71356675090753
41.0156 75.16275836587918
42.4805 76.03295190909479
43.9453 76.4386417488531
45.4102 77.12398751582501
46.875 77.67520160123952
48.3398 78.32217840779536
51.2695 79.52814371565555
52.7344 80.07433106769493
54.1992 80.47410415142811
55.6641 81.04189788265609
58.5938 82.06534458704257
60.0586 82.57396450501611
62.9883 83.48640402989264
64.4531 83.91056284181005
67.3828 84.7096368403821
68.8477 85.09235146240219
71.7773 85.83414741544111
74.707 86.57599912100994
77.6367 87.1834129383047
79.1016 87.46354219120774
82.0312 87.99307155372048
84.9609 88.4540522163153
87.8906 88.68269016441648
90.8203 89.09698166968438
95.2148 89.37937371923043
98.1445 89.49918711937949
101.074 89.44087153466356
105.469 89.52005273515357
108.398 89.82389342732135
112.793 89.98781292236752
117.188 89.99342695979203
120.117 90.08279818609087
124.512 89.95276542258694
128.906 89.65609609388099
133.301 89.5326943339989
139.16 89.3797475752092
143.555 89.23834426529707
147.949 89.04118025025026
153.809 88.92266524683582
159.668 89.17523676636708
165.527 89.08641410393365
171.387 88.99683137557308
177.246 88.68335311450397
183.105 88.43941071212919
188.965 88.5409028858227
196.289 88.55769798067303
203.613 88.52374841938209
210.938 88.47096522167257
218.262 88.00059833244985
225.586 88.26728959784411
232.91 88.51059381159159
241.699 88.14849293460676
250.488 88.43811177868886
259.277 88.45412036656309
268.066 87.77456262079396
276.855 88.11142349281646
287.109 87.26920001419892
297.363 87.55538601203372
307.617 87.93081587757125
319.336 86.90076209908189
329.59 87.15669222863198
341.309 87.87628076745132
353.027 88.49166977506275
366.211 88.38072062180055
379.395 88.39795213102845
392.578 86.99771615600898
405.762 86.74622564409394
420.41 86.9044767774579
435.059 85.96103605177366
451.172 87.28928216902581
465.82 86.35056737234272
483.398 85.41842510734705
499.512 84.65086386319598
517.09 84.66849538555745
536.133 84.46227748459977
555.176 85.04468899745508
574.219 84.23569667720555
594.727 83.06594217627622
615.234 82.16918176490185
637.207 82.0226442893419
659.18 80.82437901544374
682.617 79.47456157144852
707.52 80.58141728020829
732.422 79.56186041247834
757.324 80.98922232593921
785.156 81.7841802517761
811.523 81.14108040058333
840.82 80.82238607034087
870.117 81.25747107796869
900.879 80.58808451150583
933.105 81.81839270730771
965.332 80.40204513108736
1000.49 80.16802902827648
1035.64 81.17046398896515
1072.27 80.30420741605326
1108.89 83.15465246708835
1148.44 82.72999348080668
1189.45 83.74775345497174
1230.47 84.7947816263192
1274.41 85.16320195169838
1319.82 85.62724240459362
1366.7 85.55051595222142
1413.57 85.5334753530211
1463.38 85.68630968962172
1516.11 85.00103388525193
1568.85 85.31361802993648
1624.51 86.55325919456821
1681.64 87.45601623517864
1741.7 87.23785174918731
1803.22 87.22232799454473
1866.21 86.64795743072418
1932.13 85.61479380125492
1999.51 86.74892079820029
2069.82 86.77443036529411
2143.07 86.24077183460413
2219.24 85.35196313457992
2296.88 84.88735294480287
2378.91 85.49926960482246
2462.4 85.97965291756479
2548.83 85.1555420112734
2639.65 83.20998328354709
2731.93 82.33892751036247
2828.61 83.33719055700611
2928.22 85.0939824203274
3030.76 86.41220188221585
3137.7 87.05601415304609
3249.02 86.70873182104359
3363.28 86.13686215492281
3481.93 85.49822125282087
3604.98 86.35890365694866
3732.42 87.35756971793862
3864.26 86.84320953389405
4000.49 86.76742413323817
4141.11 87.56397637964244
4287.6 87.14545243705003
4438.48 86.7318507199745
4595.21 86.1724306687903
4756.35 85.618821343763
4924.8 85.8140537164543
5097.66 85.27982927223552
5277.83 85.72481893150551
5463.87 85.74529910501123
5657.23 84.90966696087541
5856.45 84.05004429761641
6062.99 83.44055958944793
6276.86 81.47646117330457
6498.05 77.13787327533518
6726.56 71.80860725491057
6963.87 77.12732651859973
7209.96 79.8761642746378
7464.84 82.7055993663538
7727.05 83.63804683226705
7999.51 83.35586626643804
8282.23 83.73741089843381
8573.73 84.42659702950569
8876.95 86.30873178593858
9188.96 86.05014714390636
9514.16 86.44606449417033
9849.61 86.99173383667168
10196.8 86.96883585300498
10555.7 87.03759212501201
10927.7 86.92345659309768
11313.0 87.2110206362969
11712.9 87.27517060448638
12126.0 87.24040202218178
12553.7 87.49984320511386
12996.1 86.92130738629355
13454.6 88.10520441929138
13929.2 88.6170393719956
14419.9 89.09944642210222
14928.2 89.04026214603267
15455.6 87.86665146083695
16000.5 87.01690705328696
16564.5 87.73200288622881
17148.9 87.91514982450929
17752.4 87.8065620941137
18379.4 87.36977929981941
19026.9 86.59576296076962
19697.8 85.74585585000476
19999.5 85.33618966478844
