Freq "Front Wall Bounce"
20.5078 64.1499248606163
21.9727 64.93164278250427
23.4375 66.46754320836729
24.9023 66.96887415829246
26.3672 67.99599283492766
27.832 69.01567003806666
29.2969 69.79614773848206
30.7617 70.79631862895972
32.2266 71.3913117627966
33.6914 72.12663148001774
35.1562 72.78896346468491
36.6211 73.58072577639143
38.0859 74.24663042350777
39.5508 74.93174135936545
41.0156 75.39917379674397
42.4805 76.27133127166218
43.9453 76.69335816299498
45.4102 77.38186214438306
46.875 77.93837212944067
48.3398 78.5879737993551
51.2695 79.81363030815328
52.7344 80.35146588711063
54.1992 80.76496813027823
55.6641 81.33576317874588
58.5938 82.3564652818067
60.0586 82.86762407666075
62.9883 83.78808276740202
64.4531 84.21554146256148
67.3828 85.01739067711546
68.8477 85.40794774343095
71.7773 86.15691845279201
74.707 86.9159676112155
77.6367 87.5680441614572
79.1016 87.86180511534971
82.0312 88.40363603193379
84.9609 88.86644315318796
87.8906 89.12535062804422
90.8203 89.60273044077141
95.2148 89.86832210839202
98.1445 90.02060484273323
101.074 89.96250898098336
105.469 90.04221326237933
108.398 90.40718853076243
112.793 90.61191279675145
117.188 90.6236991816062
120.117 90.70498171129915
124.512 90.59931172652747
128.906 90.3488246263475
133.301 90.29647342063078
139.16 90.19545261335705
143.555 90.01955358085681
147.949 89.85060815862983
153.809 89.78660724993345
159.668 90.05921728667803
165.527 89.98853852525588
171.387 89.9348708560739
177.246 89.72825345744276
183.105 89.53034405109247
188.965 89.62085668384316
196.289 89.74130713020138
203.613 89.70501417992081
210.938 89.62811202423329
218.262 89.35411000115991
225.586 89.77619827032767
232.91 89.98260123603181
241.699 89.67978188763774
250.488 90.0945734719066
259.277 90.05556315609614
268.066 89.44848828586353
276.855 89.76653775303124
287.109 89.25528300956051
297.363 89.91244294629249
307.617 90.03880244437538
319.336 89.22957490813245
329.59 89.492964744033
341.309 90.17324061622321
353.027 90.8922028584523
366.211 91.15519705864568
379.395 91.06897807912479
392.578 90.17507984322079
405.762 89.96738698273153
420.41 90.24077514597644
435.059 89.7718958927364
451.172 91.16682154996145
465.82 90.64893600765484
483.398 90.11925948757249
499.512 89.84231020304915
517.09 90.06399958915641
536.133 90.25583954746591
555.176 90.7012201700835
574.219 90.69450923234518
594.727 89.68802703959103
615.234 89.19750284784251
637.207 89.60642218545941
659.18 88.89370348649214
682.617 88.05459464273353
707.52 89.34508426351022
732.422 88.6748783327737
757.324 90.03446852269816
785.156 90.54459996750764
811.523 90.5987281939454
840.82 90.30578358864103
870.117 90.0457545268068
900.879 89.99078264289776
933.105 89.57865579777011
965.332 90.04100840927504
1000.49 89.67868104456292
1035.64 89.84992130632874
1072.27 89.49830570128049
1108.89 89.6246485301745
1148.44 89.30100906223706
1189.45 88.83579551073609
1230.47 88.83185949862789
1274.41 88.69039252494406
1319.82 88.95090760418188
1366.7 88.67743622507089
1413.57 88.28299102979821
1463.38 87.85097491244542
1516.11 87.50626536346637
1568.85 87.0860981197928
1624.51 87.59587458063795
1681.64 88.0878807541478
1741.7 88.85260393974988
1803.22 89.0815439310936
1866.21 89.10572139841169
1932.13 89.02870259476617
1999.51 88.6535238517979
2069.82 88.7578972862615
2143.07 89.13537464857156
2219.24 89.14924879921574
2296.88 88.75054858874577
2378.91 88.3429760047985
2462.4 88.31002466820973
2548.83 88.34654256540524
2639.65 87.36049303898758
2731.93 85.99745983756361
2828.61 86.2426417196949
2928.22 88.0063749536201
3030.76 88.9935742502044
3137.7 89.59799186573726
3249.02 89.15339995427095
3363.28 88.46197780429442
3481.93 88.54510903295031
3604.98 89.06184170271933
3732.42 89.72124182016472
3864.26 89.95858670650539
4000.49 89.63889043875766
4141.11 90.07235484065492
4287.6 89.99052835143675
4438.48 90.16611556853854
4595.21 90.26216459395906
4756.35 90.8699497938261
4924.8 90.91448000913041
5097.66 91.24708118816642
5277.83 91.81784160665507
5463.87 91.96357225170671
5657.23 91.94885904070563
5856.45 92.05595900998827
6062.99 91.48071343800669
6276.86 90.19659355433481
6498.05 87.32861479559426
6726.56 85.09687320671937
6963.87 86.91040863083661
7209.96 87.66000814381155
7464.84 87.824888069259
7727.05 86.90282692310771
7999.51 85.76976100149432
8282.23 85.10623077246376
8573.73 85.56152295897537
8876.95 86.9755354315641
9188.96 87.48757707209813
9514.16 88.2075001366477
9849.61 88.89111516256234
10196.8 89.2501132093987
10555.7 89.48682733393201
10927.7 89.3346567209321
11313.0 88.76776430151124
11712.9 88.0504057609501
12126.0 87.50309932997133
12553.7 87.64988098043207
12996.1 86.6036528643048
13454.6 87.21232882736167
13929.2 87.31153128505731
14419.9 87.18070049114637
14928.2 86.7441864980054
15455.6 85.18403654114024
16000.5 84.9143521623954
16564.5 86.30162737967382
17148.9 86.54253319538127
17752.4 86.61867677031935
18379.4 86.1536969748269
19026.9 85.30436745583128
19697.8 83.85589795821627
19999.5 83.27805390089402
