Freq,Floor Bounce,Ceiling Bounce,Front Wall Bounce,Side Wall Bounce,Rear Wall Bounce,Total Early Reflection
20.5078,63.650666102452774,63.627045375777485,63.73896068744254,63.50886559095015,62.92866815683921,63.50028342201385
21.9727,65.02777593369372,65.04193674829658,65.1231397070231,64.92851455830272,64.38796251680061,64.90969537726367
23.4375,65.59384077004869,65.54097447372537,65.66116047870754,65.46748056112712,64.9642339267662,65.45249786909288
24.9023,66.27146970765197,66.23220929224725,66.33910176339062,66.14788031954062,65.61479937943803,66.12870782990903
26.3672,67.22626031482054,67.1734311095437,67.29537285441272,67.08154762903722,66.5261012133392,67.06908894896203
27.832,68.01389960623796,67.93197948669724,68.07040846382166,67.85726309624529,67.29439126115889,67.84231712763444
29.2969,68.81178518042832,68.74940701972521,68.87680768415241,68.66182933724015,68.09205247106802,68.64729434498153
30.7617,69.65322278828624,69.58334533824296,69.7116108524821,69.51448593140472,68.98175407754582,69.49658873168434
32.2266,69.98409789479261,69.94736728737772,70.04981984670292,69.85409819448633,69.34155476195933,69.84268065488659
33.6914,70.67882453299279,70.6245424999235,70.73241709040613,70.55750150453323,70.11314912557405,70.54682927634438
35.1562,71.60764230287516,71.5006404576824,71.6608000153913,71.43374503182714,70.84773724231336,71.4196707585754
36.6211,72.069673361346,71.9883021629344,72.12010827401778,71.92337287409946,71.42837361418201,71.91288772683392
38.0859,72.81437907419085,72.72301258520399,72.87806728353318,72.64357193530044,72.04151414037212,72.63017808428042
39.5508,73.13207321451007,72.95979428320561,73.15599127859737,72.94278208614385,72.42721533117137,72.93134939729292
41.0156,73.2369388939716,73.23590018432907,73.28901599735597,73.18109743699688,73.00591342183475,73.19087138386332
42.4805,73.37558478106253,73.27499826825589,73.40459752232044,73.21426639144181,72.75274366483694,73.21071051712474
43.9453,74.09937117316719,73.99848040542956,74.14384127989119,73.92747256895761,73.40628308558374,73.92300151979775
45.4102,74.66454841130856,74.57811699704624,74.70615665002909,74.5094352597304,74.04839821725405,74.50763085162971
46.875,75.19243143036748,75.10954856974764,75.2466584579088,75.02361337590041,74.51689268973477,75.02551871427941
48.3398,75.54889274148417,75.45259792700874,75.59919257656856,75.3752662648511,74.88234801732507,75.37906330465955
51.2695,76.46444336965853,76.36482283334807,76.51580071484472,76.27556619111589,75.73827607630822,76.28053217874226
52.7344,76.91689187168588,76.83444469591218,76.9747348233854,76.73198296467915,76.21731962272231,76.74334974580204
54.1992,77.36604677831221,77.29214573315842,77.42937295762485,77.17983938942841,76.66668825526666,77.19518727777708
55.6641,77.6792955816361,77.5031377898457,77.72241843989636,77.41860646630161,76.75343228024113,77.42899077848546
58.5938,78.33455708090467,78.27055634069755,78.39988600397841,78.1338437907756,77.61143669722053,78.15906253419685
60.0586,78.72315681154967,78.63453917451493,78.78435834514613,78.51465648436988,77.96475569218013,78.53398949737947
62.9883,79.37903772837954,79.25106621932383,79.4274696541029,79.14638619997733,78.59279997199464,79.16943894573278
64.4531,79.64971439414074,79.50306913096637,79.68940024375524,79.41311790696399,78.8828810867199,79.4370841781925
67.3828,80.21301797492724,80.08961973592524,80.25827587091068,79.98948978732777,79.51907156738561,80.02179242285327
68.8477,80.44797921015694,80.340432189541,80.4945526620832,80.23352800580292,79.81936785788116,80.27375475072118
71.7773,81.00414271390103,80.91075201183929,81.06377487383543,80.77110494728969,80.3183508900336,80.82163450809735
74.707,81.64013672279464,81.54484654619584,81.70867639563689,81.38469475801371,80.83101355274516,81.43298076306486
77.6367,82.19962231790824,82.09026367233484,82.26215170128329,81.93439813112435,81.37698052714315,81.98401298829162
79.1016,82.42264814851062,82.30055163637235,82.48086744917528,82.1482761457816,81.60604884430334,82.2027559987128
82.0312,82.80225949746078,82.67910009213506,82.86179965375159,82.52255631731002,81.99757697544624,82.58345944754348
84.9609,83.11643683791833,83.04034797731691,83.17626042073269,82.87793097363281,82.47952385087086,82.94516867355549
87.8906,83.85654310964892,83.73625016239198,83.91840791423233,83.53449395947538,83.07268422252197,83.63416086990334
90.8203,84.15381523725318,84.0272593236795,84.24594262025731,83.808712548755,83.1770536507801,83.89886025330911
95.2148,84.54262836166028,84.41188832909855,84.59891007369207,84.21005651562753,83.72387239731982,84.30874026458451
98.1445,84.99088466030948,84.86861762963547,85.05623759627372,84.64403166923513,84.13702938452035,84.75177394602593
101.074,85.21722107844427,85.15157908214833,85.30970036454613,84.89828307424742,84.4254671965622,85.01184858619528
105.469,85.60421557457235,85.69714790322075,85.7674894504544,85.31902583443778,84.89024734886473,85.46726251285438
108.398,85.92805680430025,85.87212863873764,86.04701198198208,85.53533386724821,85.05444568587815,85.70190719915324
112.793,86.34987679423317,86.25092570009592,86.46123777375217,85.92943120995419,85.35995357773959,86.08793932998027
117.188,86.70263484921139,86.65194589178704,86.84233420968688,86.26920906728469,85.62330023910997,86.43950407633595
120.117,86.8104732373057,86.75465923457597,86.93793596854287,86.38637983864753,85.82445541574332,86.5609934975428
124.512,87.13309354893762,86.98766500946464,87.23282592961185,86.63252553689613,86.0885883427763,86.83438785324964
128.906,87.42082381979185,87.24222779293176,87.51098189996905,86.87604054203507,86.30948392864906,87.09351177767418
133.301,87.67468663787021,87.45289108811066,87.75027361886204,87.10537158569554,86.53355655446771,87.3256102191937
139.16,87.87997946972692,87.60618672273591,87.94695241693967,87.25728919875412,86.73915248320145,87.50826681152522
143.555,88.04166019305644,87.75287074139743,88.11390289648318,87.38089931968798,86.86605792374208,87.65506815714505
147.949,88.2324611022194,87.87393672971278,88.29204726293813,87.50446220360708,86.92342017465202,87.79415903549786
153.809,88.3836510973912,88.02098288892158,88.454489506907,87.61406183128275,87.00250431530502,87.92754799945193
159.668,88.51657144322574,88.30206109328218,88.64139972906294,87.78836738451137,87.28469396115788,88.1351709632003
165.527,88.6237339074578,88.38976027827628,88.75357226884579,87.82131446575025,87.32460637555741,88.21477638816927
171.387,88.81595030582008,88.50516290575095,88.93078703410916,87.91017797263646,87.26623961813895,88.32871666218243
177.246,88.81143964600182,88.45135634496414,88.93147857305415,87.84373366842811,87.16763303444613,88.28930658657636
183.105,88.81851023360812,88.5528491068048,88.98850732872017,87.86656309189627,87.16272086961281,88.3287252932744
188.965,88.75723390557913,88.65176946213909,89.00442739532483,87.79783162821657,87.10255761098205,88.31847800995824
196.289,88.82952942452883,88.72836150648519,89.08656542039284,87.77749849687277,86.99472236663136,88.35089680572098
203.613,88.74873271087559,88.76260156006711,89.09249838220222,87.71071096300678,86.75241927380648,88.2954678397847
210.938,88.74330082189415,88.62245946105985,89.00397186605069,87.5954237080233,86.72746472361968,88.21843783170213
218.262,88.66674490814827,88.47971247201896,88.90823558394898,87.41203878921343,86.81453335584585,88.1282291432367
225.586,88.81201801436957,88.6554264342699,89.14149140109711,87.45751056873213,86.63259360853272,88.23793858735644
232.91,88.8259537367105,88.65218162845115,89.15361032223646,87.40047921370976,86.12183333667768,88.16675862187991
241.699,88.7745971611591,88.13091284160225,88.88391401014256,87.08074300169616,85.85275977689575,87.88624446201133
250.488,89.31825709407656,88.25671508233874,89.33430032375158,87.26375851123453,85.68253814408654,88.17512745385552
259.277,88.8351795378023,88.19626818362119,89.00099927949158,86.92821871966474,85.46280433748836,87.87339080249141
268.066,88.93635109154441,88.11160528738733,89.04357995642538,86.84654657423283,85.33983939609352,87.8650255908135
276.855,88.8173497191868,88.47130840525945,89.14969480768862,86.93488424310489,85.10928640326874,87.9310533770449
287.109,88.72333628086497,88.23033088200856,88.96350714753967,86.83513223478374,85.449892824714,87.82697691166214
297.363,89.07896802597027,89.11294275852377,89.54689531864814,86.94003715421982,85.02923942554808,88.24485873848467
307.617,88.94004485657345,88.22844456811143,89.02089067384391,86.46315662261146,84.44262819542826,87.73447182875468
319.336,88.81406105688565,88.07414314101904,88.91750089399194,85.95584052603672,84.2058958436172,87.54303140044583
329.59,88.55379364942767,88.1127269262988,88.71270653886369,86.02089431148097,83.89767734028585,87.40862618600129
341.309,88.52460123860057,87.86959367499571,88.68105609027323,85.53240114624579,83.590743983276,87.24015818267809
353.027,88.48894068491298,88.24095753269762,88.84743318720447,85.95976636960509,83.21068244882083,87.39396284686875
366.211,88.78687569787115,88.42234550249152,88.94276659910035,85.67899331098525,82.78505802061538,87.47450864177863
379.395,88.79634408562478,87.81285687907565,88.62891463037042,85.31290636383066,82.68292829579296,87.1881568929646
392.578,88.71245456208511,87.76223104564552,88.70532890380339,85.31937791144409,83.12443027127712,87.20768819469265
405.762,88.5386326976773,88.19112653740956,88.70761731068237,84.7208922990098,82.48235929223841,87.1430948074494
420.41,88.36454182472436,87.97107531882624,88.72551904043402,84.49065008441858,82.42299496491691,87.01496891154754
435.059,88.97362432923082,88.47560448894794,89.24552782815351,84.62632752688442,83.18195579915097,87.53161310014626
451.172,89.3271774482589,87.93030117205086,89.28980660202822,84.37261870651423,80.96795779170635,87.3642753986894
465.82,89.16573878633176,88.11660698343704,89.34075103360682,84.54277872945745,81.76618050286869,87.43090638428265
483.398,89.1411558060663,88.75722176706074,89.23165214634885,84.28672389119846,81.4304968247316,87.50801918095111
499.512,88.89508551060761,88.33230233271162,88.68430815465396,83.15118507046195,82.18316711759508,87.10463853776763
517.09,87.6613336618501,87.28979832447449,87.74747038960179,82.13815813833787,80.80968277868277,86.01803336717764
536.133,88.56711684218185,87.49042587296495,88.69184364952075,82.49036237512772,79.51008689591701,86.60250566377802
555.176,88.72706919374988,87.00642252047295,88.13126692557924,82.04090992893549,79.26104860931733,86.31958262434902
574.219,88.793982413888,85.95372228310649,87.91754303032579,80.50562351475844,80.17314789062839,85.99210403829127
594.727,88.70490177163718,86.92976514155019,88.82968385527252,81.6082928638716,78.15889851363349,86.45292942877121
615.234,89.1479245702867,87.531072414138,88.63063847103057,80.88557171897268,76.54314692393557,86.60016327770758
637.207,88.67027732958962,86.4292652092282,87.59968738134876,79.22733428887567,75.88893871552233,85.73713125334497
659.18,87.64921602438453,86.64605638065521,87.50891871382026,77.86591543834483,78.09399571691566,85.39856256603608
682.617,87.88259945786761,86.50615069486173,87.93106708837047,77.90083266646751,76.9036127143517,85.54648482492371
707.52,88.16786291512241,86.68357925274164,87.15656811600059,75.80437972692872,74.13076105786455,85.32836300579393
732.422,87.55709868474779,87.1442735205321,87.48989380050453,75.83955051879872,75.1228981675706,85.36515858466807
757.324,89.10395692464412,87.59933332692287,88.21205668534076,75.40330737124798,76.01187824199313,86.28608184506085
785.156,87.6787470498588,87.28566884431991,88.45439292821801,76.30280694596117,73.43890156908661,85.76696454206012
811.523,88.38975167030594,88.28238796717497,87.97371476085475,75.01665638125391,74.51754721159519,86.1294047691007
840.82,87.72618780028442,86.57574994844974,88.59510659495773,74.16976277470292,76.5289285508614,85.66238354633067
870.117,89.16215187014168,86.32659613016536,89.43311997437792,76.31824360297986,78.61444823784721,86.52613755486223
900.879,89.17864064133566,87.03875808808961,88.57930680276291,75.23455798983991,76.64657843722897,86.3021114610457
933.105,90.4779659017435,89.3215555635601,87.29139785844696,77.60725545308321,77.95988247324816,87.20628622422048
965.332,87.76639131554042,86.54720507578853,88.66026357755878,76.87777977998331,78.9044346834193,85.8217026422527
1000.49,89.07818023893017,87.79129838434545,87.63820411882168,77.79827131183612,77.56455096273558,86.24888845636075
1035.64,87.93639836979114,86.95240574975674,88.69447419788771,77.80292331758623,79.08179921622488,86.01868080665722
1072.27,90.23889021922652,90.1738275183359,86.48195494500116,78.98931574560494,78.61844987758208,87.31460742330147
1108.89,88.41829822001199,88.94253709301562,87.01886917436039,78.96861861221825,77.57593953027165,86.26975634406116
1148.44,89.53394356549042,87.87135682597818,85.97001581721055,80.13382449924423,78.68295841694685,86.1974510868679
1189.45,88.47207534609285,86.23786529921193,86.99964691275765,82.39003340748032,76.81711788839534,85.67381309139645
1230.47,88.30068271560395,86.64388723149497,87.73996579853586,81.52549337080798,77.13636399844994,85.85688565181695
1274.41,89.33510858344516,87.43815888166114,87.69190598161816,83.17316453676317,77.3865899696035,86.55640025528892
1319.82,89.27817356894391,88.0649526397639,87.98076821028931,83.081515972266,77.30011427801267,86.76239273099081
1366.7,89.86457782147755,89.23445642127088,87.63734780247476,82.63683420102244,76.42813996488805,87.18593583847688
1413.57,89.93295756979948,88.01609760099555,87.19514783911148,83.04367416949606,76.42258938319698,86.78996181929827
1463.38,89.79601170647554,87.30422636425226,86.9825964116728,81.68218800390692,74.27622366754333,86.36473317363799
1516.11,89.6497490152259,85.47055553770478,86.23077656870032,81.04245430307454,74.00940305640292,85.67513503476465
1568.85,89.17835370218593,85.24657787108963,85.75848211091021,80.14974697409724,72.08600372606698,85.20765434247316
1624.51,88.35823563569191,86.8486560232567,86.61718932970113,79.27711177377672,70.23221420264301,85.37403217419309
1681.64,89.08346657619573,85.97578537447605,86.59013732112638,78.54250140627745,71.28874055995159,85.43231525130193
1741.7,88.70557155903573,85.73108482103196,86.90344688626442,79.41239426399996,71.12869765048173,85.33249982860698
1803.22,87.8600713709644,86.19384705071386,87.13267693594683,77.88746802865231,69.74008232190938,85.09166740889998
1866.21,87.94880039959918,84.97176621685662,86.07329745697193,76.0410279413473,71.50769118466077,84.46215018270745
1932.13,88.05286174491631,85.69526163475702,85.91015191394844,76.77611960463999,72.69247627063376,84.67151851200686
1999.51,88.01557391025283,86.68715191881607,86.90952335842086,77.54444718052656,71.97292469079211,85.21920814705162
2069.82,87.91277951497727,85.91173217843513,87.29698407748064,79.01118645113922,72.72289828494873,85.16806467137202
2143.07,88.23257915506065,85.35743965658381,86.99854613728802,80.38936104480807,73.16170495195875,85.1590890209943
2219.24,87.99492595361663,85.30397616738493,85.95657946696016,80.55648563556655,73.15665277097348,84.76506451062176
2296.88,87.43980184361146,85.74779803617481,84.89523490566098,80.9844222928095,73.73823662095269,84.43428642649035
2378.91,86.43935901050936,85.13385975828976,85.81049173794278,82.18827057046077,73.36931542270513,84.2649821410062
2462.4,85.57106925624078,84.05058010429289,86.38463440724368,83.07336423222218,73.24439523486677,84.06133226157856
2548.83,86.45113135270766,83.24314586789792,86.1077852172639,82.78991946811954,72.90533519690453,84.0498382291356
2639.65,87.26400629012552,84.33318225272598,85.32322606235711,82.30531013744321,72.9753597802415,84.26299819023293
2731.93,87.11404268293059,85.47709702823742,85.19647706612113,82.57198234791097,72.9187715070685,84.46759226659215
2828.61,86.83719673047898,85.74145122504545,85.9333582318289,83.0932987200853,73.30758529895529,84.69870984597983
2928.22,87.29361227733997,85.68275569809704,86.70894226275827,83.69955774148042,73.25079152764826,85.13362087646907
3030.76,87.46920809891076,85.22163758161498,86.6270461159726,83.78270790800437,73.00100218977344,85.0785163769847
3137.7,87.67458024072887,86.12672763915661,86.2866351489835,83.2387936752335,73.15544062872844,85.19054503926452
3249.02,87.90009382128609,85.51295466746522,86.14833834247143,82.8869872622418,72.79914164717442,85.04572388287748
3363.28,87.69143538950733,84.99003072192322,86.35549641738281,83.23773380623021,71.7558966173889,84.94429365593042
3481.93,87.84834728328146,84.98667951858667,86.39968484126452,83.56684374971387,71.31099299515357,85.05669937300398
3604.98,87.10114408937325,84.44703968871166,86.79402739031299,83.8171230664398,71.92459827435005,84.84527088949011
3732.42,86.70053135987304,85.15460917304634,87.21807068264272,83.6420025317086,71.40755005273427,84.96270051198037
3864.26,87.53366644130526,85.07475132176214,86.60763308114086,82.25785008326935,70.20490738281227,84.84298380195553
4000.49,87.05969728347023,85.07492950718414,86.93310442613532,82.02494958054632,70.60928849503779,84.75464906535684
4141.11,87.20503850925182,85.89233289739998,87.6935141721456,82.5234140527515,70.12672908752448,85.2912888118219
4287.6,87.75664920556682,85.40884726072353,87.91363978906534,82.53728604032388,70.87269952343811,85.45094286848537
4438.48,87.83219529806748,84.71492357013116,87.66544021833651,82.08104573102123,70.67260629259614,85.21270481510658
4595.21,87.59053632954546,85.01279556674075,87.1413706499742,82.42953854371324,69.84056606146923,85.03443120623234
4756.35,87.19985052559043,83.80284373344061,88.31272748621275,82.69199462500342,69.47920273075107,85.1524651206541
4924.8,87.089901287286,83.28714328395188,88.32933147621002,82.63954498965084,70.47114121944163,85.05225831054796
5097.66,86.11034599086817,84.41182169205655,87.89807770605253,81.2455088149204,69.54845521597345,84.60318742241661
5277.83,85.73288266713881,84.6712995817749,87.6075845521436,82.47195275406646,69.29431136636107,84.56112442373099
5463.87,86.12111327619898,84.75050583221967,86.83066687832694,82.28185358081564,69.98602045069781,84.37447575467847
5657.23,87.85669788521093,85.55584952799465,87.45091110765567,82.06857941919317,69.49877109521331,85.30411320943672
5856.45,88.16962451894032,85.70453198310796,88.06893073263547,82.79097628375324,69.40971086191503,85.72393639727149
6062.99,87.8764706881099,85.00095715957565,88.19698224887053,83.50350116034744,69.62497833490873,85.61821618482453
6276.86,87.26526447008975,84.78658140721865,88.09009006469388,82.76273506624337,69.20982875694459,85.25110755308388
6498.05,86.81236302583368,84.30127941258755,88.69773103252535,83.58275359629141,67.9033022511972,85.37693156807084
6726.56,86.70119072939885,83.72771448315227,88.18610381700888,83.54822246121603,68.13278704771382,85.03857948538669
6963.87,86.91035401531809,83.32248048370452,88.17368858372927,83.42057423158384,67.72002287388024,85.01959013305817
7209.96,86.58147616219678,83.27645768470917,87.88893472476514,83.18685312164075,67.93884854814794,84.76347110037877
7464.84,86.68642166523385,83.92169428812929,87.58698424300778,83.14436637522432,67.58426191772917,84.76743828830647
7727.05,85.56968466740493,83.83141433583351,88.00999726886592,83.71914131598324,68.26611352010362,84.70338541899525
7999.51,85.96274698232617,84.2097770718912,87.54034278310742,83.06035909463496,68.39223443853096,84.5792441214761
8282.23,87.03652219374591,84.12877567475725,87.97142488092733,82.84044086577798,67.48044301059288,85.02130504092439
8573.73,87.43898096108883,83.9573779008276,87.87882638671597,82.78549321364709,66.72196747976021,85.08243862664133
8876.95,87.65212728340096,83.23035487918936,88.06981644508741,82.91406507496771,66.75731038551392,85.14367721651799
9188.96,86.66425197924676,82.83870406217486,88.1848727237997,82.54446160913028,67.44543683742788,84.77051719095773
9514.16,84.92209231349001,82.1886190562962,88.3928754782864,82.30182676066916,66.00706442881965,84.28364925553527
