Freq "Floor Bounce"
20.5078 63.650666102452774
21.9727 65.02777593369372
23.4375 65.59384077004869
24.9023 66.27146970765197
26.3672 67.22626031482054
27.832 68.01389960623796
29.2969 68.81178518042832
30.7617 69.65322278828624
32.2266 69.98409789479261
33.6914 70.67882453299279
35.1562 71.60764230287516
36.6211 72.069673361346
38.0859 72.81437907419085
39.5508 73.13207321451007
41.0156 73.2369388939716
42.4805 73.37558478106253
43.9453 74.09937117316719
45.4102 74.66454841130856
46.875 75.19243143036748
48.3398 75.54889274148417
51.2695 76.46444336965853
52.7344 76.91689187168588
54.1992 77.36604677831221
55.6641 77.6792955816361
58.5938 78.33455708090467
60.0586 78.72315681154967
62.9883 79.37903772837954
64.4531 79.64971439414074
67.3828 80.21301797492724
68.8477 80.44797921015694
71.7773 81.00414271390103
74.707 81.64013672279464
77.6367 82.19962231790824
79.1016 82.42264814851062
82.0312 82.80225949746078
84.9609 83.11643683791833
87.8906 83.85654310964892
90.8203 84.15381523725318
95.2148 84.54262836166028
98.1445 84.99088466030948
101.074 85.21722107844427
105.469 85.60421557457235
108.398 85.92805680430025
112.793 86.34987679423317
117.188 86.70263484921139
120.117 86.8104732373057
124.512 87.13309354893762
128.906 87.42082381979185
133.301 87.67468663787021
139.16 87.87997946972692
143.555 88.04166019305644
147.949 88.2324611022194
153.809 88.3836510973912
159.668 88.51657144322574
165.527 88.6237339074578
171.387 88.81595030582008
177.246 88.81143964600182
183.105 88.81851023360812
188.965 88.75723390557913
196.289 88.82952942452883
203.613 88.74873271087559
210.938 88.74330082189415
218.262 88.66674490814827
225.586 88.81201801436957
232.91 88.8259537367105
241.699 88.7745971611591
250.488 89.31825709407656
259.277 88.8351795378023
268.066 88.93635109154441
276.855 88.8173497191868
287.109 88.72333628086497
297.363 89.07896802597027
307.617 88.94004485657345
319.336 88.81406105688565
329.59 88.55379364942767
341.309 88.52460123860057
353.027 88.48894068491298
366.211 88.78687569787115
379.395 88.79634408562478
392.578 88.71245456208511
405.762 88.5386326976773
420.41 88.36454182472436
435.059 88.97362432923082
451.172 89.3271774482589
465.82 89.16573878633176
483.398 89.1411558060663
499.512 88.89508551060761
517.09 87.6613336618501
536.133 88.56711684218185
555.176 88.72706919374988
574.219 88.793982413888
594.727 88.70490177163718
615.234 89.1479245702867
637.207 88.67027732958962
659.18 87.64921602438453
682.617 87.88259945786761
707.52 88.16786291512241
732.422 87.55709868474779
757.324 89.10395692464412
785.156 87.6787470498588
811.523 88.38975167030594
840.82 87.72618780028442
870.117 89.16215187014168
900.879 89.17864064133566
933.105 90.4779659017435
965.332 87.76639131554042
1000.49 89.07818023893017
1035.64 87.93639836979114
1072.27 90.23889021922652
1108.89 88.41829822001199
1148.44 89.53394356549042
1189.45 88.47207534609285
1230.47 88.30068271560395
1274.41 89.33510858344516
1319.82 89.27817356894391
1366.7 89.86457782147755
1413.57 89.93295756979948
1463.38 89.79601170647554
1516.11 89.6497490152259
1568.85 89.17835370218593
1624.51 88.35823563569191
1681.64 89.08346657619573
1741.7 88.70557155903573
1803.22 87.8600713709644
1866.21 87.94880039959918
1932.13 88.05286174491631
1999.51 88.01557391025283
2069.82 87.91277951497727
2143.07 88.23257915506065
2219.24 87.99492595361663
2296.88 87.43980184361146
2378.91 86.43935901050936
2462.4 85.57106925624078
2548.83 86.45113135270766
2639.65 87.26400629012552
2731.93 87.11404268293059
2828.61 86.83719673047898
2928.22 87.29361227733997
3030.76 87.46920809891076
3137.7 87.67458024072887
3249.02 87.90009382128609
3363.28 87.69143538950733
3481.93 87.84834728328146
3604.98 87.10114408937325
3732.42 86.70053135987304
3864.26 87.53366644130526
4000.49 87.05969728347023
4141.11 87.20503850925182
4287.6 87.75664920556682
4438.48 87.83219529806748
4595.21 87.59053632954546
4756.35 87.19985052559043
4924.8 87.089901287286
5097.66 86.11034599086817
5277.83 85.73288266713881
5463.87 86.12111327619898
5657.23 87.85669788521093
5856.45 88.16962451894032
6062.99 87.8764706881099
6276.86 87.26526447008975
6498.05 86.81236302583368
6726.56 86.70119072939885
6963.87 86.91035401531809
7209.96 86.58147616219678
7464.84 86.68642166523385
7727.05 85.56968466740493
7999.51 85.96274698232617
8282.23 87.03652219374591
8573.73 87.43898096108883
8876.95 87.65212728340096
9188.96 86.66425197924676
9514.16 84.92209231349001
9849.61 84.44215368075115
10196.8 85.087076273
10555.7 85.34327268545051
10927.7 85.14152292681646
11313.0 84.61042578394112
11712.9 83.86430802086782
12126.0 83.87625159463751
12553.7 83.74769285616837
12996.1 82.6162310744261
13454.6 83.0356398197644
13929.2 82.919098973799
14419.9 82.54579501343555
14928.2 82.82321455971463
15455.6 82.86564000357708
16000.5 83.9939593962773
16564.5 83.03705271864342
17148.9 82.63756657978054
17752.4 82.16276515388769
18379.4 81.90272362852046
19026.9 81.12079874697629
19697.8 80.10432990149006
19999.5 79.8234051273936
