Freq "Front Wall Bounce"
20.5078 63.73896068744254
21.9727 65.1231397070231
23.4375 65.66116047870754
24.9023 66.33910176339062
26.3672 67.29537285441272
27.832 68.07040846382166
29.2969 68.87680768415241
30.7617 69.7116108524821
32.2266 70.04981984670292
33.6914 70.73241709040613
35.1562 71.6608000153913
36.6211 72.12010827401778
38.0859 72.87806728353318
39.5508 73.15599127859737
41.0156 73.28901599735597
42.4805 73.40459752232044
43.9453 74.14384127989119
45.4102 74.70615665002909
46.875 75.2466584579088
48.3398 75.59919257656856
51.2695 76.51580071484472
52.7344 76.9747348233854
54.1992 77.42937295762485
55.6641 77.72241843989636
58.5938 78.39988600397841
60.0586 78.78435834514613
62.9883 79.4274696541029
64.4531 79.68940024375524
67.3828 80.25827587091068
68.8477 80.4945526620832
71.7773 81.06377487383543
74.707 81.70867639563689
77.6367 82.26215170128329
79.1016 82.48086744917528
82.0312 82.86179965375159
84.9609 83.17626042073269
87.8906 83.91840791423233
90.8203 84.24594262025731
95.2148 84.59891007369207
98.1445 85.05623759627372
101.074 85.30970036454613
105.469 85.7674894504544
108.398 86.04701198198208
112.793 86.46123777375217
117.188 86.84233420968688
120.117 86.93793596854287
124.512 87.23282592961185
128.906 87.51098189996905
133.301 87.75027361886204
139.16 87.94695241693967
143.555 88.11390289648318
147.949 88.29204726293813
153.809 88.454489506907
159.668 88.64139972906294
165.527 88.75357226884579
171.387 88.93078703410916
177.246 88.93147857305415
183.105 88.98850732872017
188.965 89.00442739532483
196.289 89.08656542039284
203.613 89.09249838220222
210.938 89.00397186605069
218.262 88.90823558394898
225.586 89.14149140109711
232.91 89.15361032223646
241.699 88.88391401014256
250.488 89.33430032375158
259.277 89.00099927949158
268.066 89.04357995642538
276.855 89.14969480768862
287.109 88.96350714753967
297.363 89.54689531864814
307.617 89.02089067384391
319.336 88.91750089399194
329.59 88.71270653886369
341.309 88.68105609027323
353.027 88.84743318720447
366.211 88.94276659910035
379.395 88.62891463037042
392.578 88.70532890380339
405.762 88.70761731068237
420.41 88.72551904043402
435.059 89.24552782815351
451.172 89.28980660202822
465.82 89.34075103360682
483.398 89.23165214634885
499.512 88.68430815465396
517.09 87.74747038960179
536.133 88.69184364952075
555.176 88.13126692557924
574.219 87.91754303032579
594.727 88.82968385527252
615.234 88.63063847103057
637.207 87.59968738134876
659.18 87.50891871382026
682.617 87.93106708837047
707.52 87.15656811600059
732.422 87.48989380050453
757.324 88.21205668534076
785.156 88.45439292821801
811.523 87.97371476085475
840.82 88.59510659495773
870.117 89.43311997437792
900.879 88.57930680276291
933.105 87.29139785844696
965.332 88.66026357755878
1000.49 87.63820411882168
1035.64 88.69447419788771
1072.27 86.48195494500116
1108.89 87.01886917436039
1148.44 85.97001581721055
1189.45 86.99964691275765
1230.47 87.73996579853586
1274.41 87.69190598161816
1319.82 87.98076821028931
1366.7 87.63734780247476
1413.57 87.19514783911148
1463.38 86.9825964116728
1516.11 86.23077656870032
1568.85 85.75848211091021
1624.51 86.61718932970113
1681.64 86.59013732112638
1741.7 86.90344688626442
1803.22 87.13267693594683
1866.21 86.07329745697193
1932.13 85.91015191394844
1999.51 86.90952335842086
2069.82 87.29698407748064
2143.07 86.99854613728802
2219.24 85.95657946696016
2296.88 84.89523490566098
2378.91 85.81049173794278
2462.4 86.38463440724368
2548.83 86.1077852172639
2639.65 85.32322606235711
2731.93 85.19647706612113
2828.61 85.9333582318289
2928.22 86.70894226275827
3030.76 86.6270461159726
3137.7 86.2866351489835
3249.02 86.14833834247143
3363.28 86.35549641738281
3481.93 86.39968484126452
3604.98 86.79402739031299
3732.42 87.21807068264272
3864.26 86.60763308114086
4000.49 86.93310442613532
4141.11 87.6935141721456
4287.6 87.91363978906534
4438.48 87.66544021833651
4595.21 87.1413706499742
4756.35 88.31272748621275
4924.8 88.32933147621002
5097.66 87.89807770605253
5277.83 87.6075845521436
5463.87 86.83066687832694
5657.23 87.45091110765567
5856.45 88.06893073263547
6062.99 88.19698224887053
6276.86 88.09009006469388
6498.05 88.69773103252535
6726.56 88.18610381700888
6963.87 88.17368858372927
7209.96 87.88893472476514
7464.84 87.58698424300778
7727.05 88.00999726886592
7999.51 87.54034278310742
8282.23 87.97142488092733
8573.73 87.87882638671597
8876.95 88.06981644508741
9188.96 88.1848727237997
9514.16 88.3928754782864
9849.61 88.19307345075107
10196.8 88.30548130992608
10555.7 88.36169641765981
10927.7 87.89330975346432
11313.0 87.75271343706817
11712.9 87.66357371566224
12126.0 86.81180989758627
12553.7 86.67385410987946
12996.1 86.265287460703
13454.6 86.12678986520073
13929.2 85.97986998380826
14419.9 86.29945006044615
14928.2 86.12926252570638
15455.6 86.30991374412243
16000.5 86.28224335329773
16564.5 86.35514057093148
17148.9 86.35610696688742
17752.4 86.22252941842464
18379.4 85.88841938974083
19026.9 85.5863693114502
19697.8 85.29704357102469
19999.5 85.04103369052595
