Freq,On Axis,Listening Window,Sound Power,Early Reflections,Early Reflections DI,Sound Power DI,DI offset
20.5078,65.153,65.11281314364889,64.25390028049138,64.68330791159626,40.429505232052634,40.858912863157514,40
21.9727,65.0114,64.97276658004172,64.12401637935663,64.56422562168235,40.40854095835937,40.84875020068509,40
23.4375,63.55210000000001,63.4999681768016,62.33728063207214,62.96063236847469,40.53933580832691,41.162687544729465,40
24.9023,63.916899999999984,63.87863479151996,63.11789138385505,63.491663817630766,40.38697097388919,40.760743407664904,40
26.3672,66.5585,66.54187803194993,66.38071552033371,66.35403104449797,40.18784698745196,40.161162511616226,40
27.832,68.7956,68.78275953325725,68.718104732669,68.63184057689772,40.15091895635953,40.064654800588244,40
29.2969,70.6786,70.67047740725498,70.68498004985041,70.5549374170513,40.11553999020367,39.98549735740457,40
30.7617,72.6691,72.6617778488407,72.69195979285111,72.56099109136159,40.10078675747911,39.96981805598959,40
32.2266,74.047,74.03885634571832,74.04679353806067,73.92901023775929,40.10984610795903,39.992062807657646,40
33.6914,75.3266,75.31622901762552,75.27818375840324,75.18884895387694,40.127380063748575,40.03804525922227,40
35.1562,76.2896,76.27837806939942,76.23715725030493,76.14220724070661,40.13617082869281,40.04122081909449,40
36.6211,77.42470000000002,77.41126323290209,77.3123056523528,77.2561140236993,40.15514920920279,40.09895758054928,40
38.0859,78.3533,78.33962599315161,78.22569085934441,78.18026742331308,40.15935856983853,40.1139351338072,40
39.5508,78.8727,78.85970308392298,78.76391370007255,78.71136322890756,40.14833985501542,40.09578938385043,40
41.0156,79.42119999999998,79.40842668649215,79.32109007554564,79.26495671233221,40.14346997415994,40.08733661094651,40
42.4805,80.67370000000001,80.65888976260423,80.54078376345856,80.49722323533796,40.16166652726628,40.11810599914567,40
43.9453,81.2394,81.22430689878499,81.09869403658023,81.05867538111028,40.16563151767471,40.12561286220476,40
45.4102,81.7937,81.776614328419,81.60857118261363,81.59412762637432,40.182486702044685,40.16804314580537,40
46.875,82.206,82.18794953342118,81.98952688653102,81.9923034649097,40.19564606851148,40.19842264689015,40
48.3398,82.6395,82.62047557766327,82.40801533385408,82.4191626468451,40.201312930818176,40.21246024380919,40
51.2695,83.2977,83.2804235657685,83.1057504285558,83.09739501400458,40.183028551763925,40.17467313721271,40
52.7344,83.60170000000001,83.58408110518577,83.40295835329341,83.40011454882433,40.18396655636144,40.18112275189236,40
54.1992,83.88110000000002,83.86438988196586,83.71333723270736,83.69743028767454,40.16695959429133,40.1510526492585,40
55.6641,84.1204,84.10258356552312,83.94469208278652,83.92887786517927,40.173705700343845,40.1578914827366,40
58.5938,84.7324,84.71421240929571,84.55070270987041,84.53821930358622,40.175993105709495,40.163509699425305,40
60.0586,84.9799,84.96102418083775,84.78952574748556,84.78179058170132,40.17923359913644,40.1714984333522,40
62.9883,85.5373,85.51540136077749,85.30176373300519,85.31456243456599,40.2008389262115,40.2136376277723,40
64.4531,85.7172,85.69432423219224,85.46593152853556,85.48729785638236,40.20702637580989,40.22839270365668,40
67.3828,86.1158,86.0907965841369,85.83461944653298,85.87006646456378,40.22073011957312,40.25617713760391,40
68.8477,86.31499999999998,86.28862340448522,86.00524328441385,86.05530297344501,40.23332043104021,40.28338012007137,40
71.7773,86.60599999999998,86.57784753538516,86.25552996125413,86.32699831495587,40.25084922042929,40.322317574131034,40
74.707,86.9036,86.87430722398878,86.53550502074198,86.6163988816323,40.25790834235647,40.3388022032468,40
77.6367,87.1588,87.12884434132245,86.79742731470631,86.87400364383224,40.25484069749021,40.33141702661614,40
79.1016,87.2857,87.25490853355431,86.91097677280335,86.99495183913577,40.25995669441855,40.34393176075096,40
82.0312,87.404,87.3702002069923,86.97846179454493,87.0862116509294,40.283988556062894,40.39173841244737,40
84.9609,87.60619999999999,87.57330504902963,87.177048359784,87.29162448084658,40.28168056818305,40.39625668924563,40
87.8906,87.5634,87.53029457589274,87.21228915094689,87.2818224455104,40.24847213038234,40.31800542494585,40
90.8203,87.8382,87.79989353044088,87.33600090188186,87.48453264884824,40.31536088159264,40.46389262855902,40
95.2148,87.7209,87.68348968395078,87.29702454073058,87.40301192071243,40.28047776323835,40.38646514322021,40
98.1445,87.70109999999998,87.66117604997845,87.2499022054805,87.36795351388228,40.29322253609617,40.411273844497956,40
101.074,87.70630000000001,87.66237916470786,87.21446306365542,87.34849416816287,40.313884996544985,40.44791610105244,40
105.469,87.96,87.91093051374956,87.33698005087243,87.53440657569512,40.37652393805445,40.573950462877136,40
108.398,88.0847,88.03271812463662,87.37588346008684,87.6189942098992,40.41372391473742,40.65683466454978,40
112.793,88.0977,88.04398056804392,87.34986935437817,87.61807924807593,40.42590131996799,40.69411121366575,40
117.188,87.9943,87.93928617925856,87.25601574010986,87.51788107040501,40.42140510885355,40.6832704391487,40
120.117,88.06779999999999,88.00975132069675,87.28414299528689,87.5664988007584,40.443252519938355,40.725608325409866,40
124.512,88.1389,88.07743754239881,87.30373906042591,87.61952929619099,40.45790824620782,40.7736984819729,40
128.906,88.0673,88.00289315264375,87.20692724451398,87.53267050456826,40.47022264807549,40.79596590812977,40
133.301,88.0528,87.98469747354682,87.11133319681805,87.47975734691401,40.5049401266328,40.873364276728765,40
139.16,87.8565,87.786223494651,86.86017522231667,87.25613680187806,40.53008669277294,40.92604827233433,40
143.555,87.7069,87.63329425700975,86.641608738475,87.06859065535028,40.564703601659474,40.99168551853475,40
147.949,87.551,87.47644518364787,86.50047308985653,86.91728301681754,40.55916216683033,40.97597209379134,40
153.809,87.6341,87.5504251693328,86.41993049692788,86.91400135643065,40.63642381290215,41.13049467240492,40
159.668,87.56350000000002,87.47285400235006,86.27410665451767,86.80354789306534,40.66930610928472,41.198747347832395,40
165.527,87.6985,87.60301415289904,86.08259209666117,86.79024706711887,40.812767085780166,41.52042205623786,40
171.387,87.5291,87.4386825126802,86.00341494371047,86.66724393979004,40.77143857289016,41.435267568969735,40
177.246,87.24669999999999,87.15986737497956,85.71657620071699,86.39625330054709,40.76361407443247,41.44329117426257,40
183.105,86.7591,86.67276755599009,85.4127970255295,85.9951914268582,40.67757612913189,41.25997053046059,40
188.965,87.0772,86.96791628427377,85.3692419311455,86.13345580097199,40.83446048330178,41.598674353128274,40
196.289,87.5758,87.46299563511796,85.48015303698122,86.4551925463047,41.00780308881326,41.98284259813674,40
203.613,87.0091,86.91231295232963,85.05202460807752,85.97847540773557,40.933837544594056,41.86028834425211,40
210.938,87.004,86.90652988611868,84.91965449371506,85.93240404319273,40.97412584292594,41.98687539240362,40
218.262,86.5972,86.5105948518471,84.6716686077671,85.59859754651923,40.91199730532787,41.83892624408,40
225.586,86.8428,86.7317150578214,84.79553678494008,85.76189919318927,40.96981586463214,41.93617827288132,40
232.91,87.0897,86.97064053379593,84.55615498008191,85.81097747827194,41.15966305552399,42.414485553714016,40
241.699,87.0581,86.9500027184183,84.61878980259948,85.82408562828093,41.12591709013738,42.331212915818824,40
250.488,86.8611,86.74948639457553,84.45692695439625,85.62091141350095,41.12857498107458,42.292559440179275,40
259.277,87.9856,87.84770776499398,84.93012447469519,86.43962841956836,41.40807934542562,42.91758329029879,40
268.066,87.2933,87.21644718440037,84.52438030590656,85.96712970023121,41.249317484169154,42.692066878493804,40
276.855,86.7776,86.71813745735118,84.22775011782613,85.56964464099886,41.14849281635232,42.49038733952504,40
287.109,87.4609,87.3457558418866,84.32298864454235,85.93370072396617,41.41205511792043,43.02276719734425,40
297.363,87.08549999999998,86.96992241358345,83.80579215452796,85.53602677901581,41.433895634567634,43.16413025905548,40
307.617,87.4073,87.29909820529917,83.82359144371358,85.72632349524795,41.57277471005122,43.47550676158559,40
319.336,86.49409999999999,86.44500035123205,83.4531316525586,85.09801990563686,41.34698044559519,42.99186869867346,40
329.59,86.5057,86.43155852040952,83.42404305082489,85.10661515422485,41.32494336618467,43.00751546958463,40
341.309,86.9634,86.89008804723504,83.78841669239236,85.51150531243279,41.37858273480225,43.10167135484268,40
353.027,87.5323,87.39731251153914,84.04138267299365,85.88000007405361,41.51731243748553,43.35592983854549,40
366.211,87.71080000000002,87.54878012694441,83.8750863007673,85.8363523444342,41.712427782510204,43.673693826177114,40
379.395,87.22860000000001,87.07686957824345,83.19142087306052,85.28485361277099,41.79201596547246,43.885448705182924,40
392.578,86.9045,86.78334385823909,83.17410679546443,85.03757327338668,41.74577058485241,43.60923706277467,40
405.762,86.9729,86.81937473967106,83.26374274417313,85.00776038938966,41.8116143502814,43.55563199549793,40
420.41,87.7402,87.55311828853557,83.31319570509633,85.4798870576282,42.07323123090737,44.23992258343924,40
435.059,87.73900000000002,87.5238211534057,83.50172594040156,85.59524913375408,41.928572019651625,44.02209521300415,40
451.172,87.406,87.14543538340118,83.40957645233411,85.24602509243128,41.8994102909699,43.73585893106707,40
465.82,88.2306,87.82931264982936,83.21502168481159,85.19428176730757,42.63503088252179,44.61429096501777,40
483.398,87.90659999999998,87.60579635160873,82.57475046340387,85.02393133692165,42.58186501468708,45.03104588820486,40
499.512,87.1843,86.88610924080588,82.54058506135969,84.58308808422099,42.30302115658489,44.34552417944619,40
517.09,88.0425,87.58306540822046,82.69780583785779,84.96185462916004,42.62121077906042,44.88525957036268,40
536.133,89.5608,89.12776594524472,83.48036124839236,86.16133482092593,42.96643112431879,45.64740469685236,40
555.176,88.66279999999999,88.25282215494302,82.72508334573267,85.04754789843336,43.205274256509654,45.52773880921035,40
574.219,89.3455,88.95637459764184,83.19024225680089,85.64413649831782,43.31223809932402,45.766132340840954,40
594.727,88.2948,88.09066434738473,82.67678647085826,85.2403579104766,42.85030643690813,45.41387787652647,40
615.234,88.2942,87.9544673198899,82.66228521549583,84.96072111290601,42.993746206983886,45.29218210439407,40
637.207,89.0939,88.69120643084466,82.97497238041272,85.19524782621484,43.49595860462982,45.716234050431936,40
659.18,87.8719,87.66116077943202,81.9778224424521,84.4812072153465,43.17995356408552,45.68333833697993,40
682.617,88.172,87.94775953892444,82.71043949922495,85.10845962539713,42.83929991352731,45.2373200396995,40
707.52,87.5603,87.36552405836024,82.24370132400402,84.24802386708768,43.117500191272555,45.121822734356215,40
732.422,87.6352,87.2272472773143,81.95274055331348,84.18863308375782,43.038614193556484,45.27450672400083,40
757.324,86.83299999999998,86.70114765109024,81.88110654540401,83.95241796797401,42.748729683116224,44.82004110568623,40
785.156,86.8008,86.25144049430016,81.64604163515605,83.96674733564105,42.28469315865911,44.6053988591441,40
811.523,85.0227,85.03780375857005,84.62872433997653,84.03877172190981,40.99903203666024,40.40907941859352,40
840.82,89.2176,88.40071451669615,84.90333888306559,85.8872016922926,42.51351282440355,43.49737563363057,40
870.117,86.3935,85.98822783152907,82.5152765971619,82.97105572839423,43.01717210313484,43.47295123436717,40
900.879,88.20100000000001,87.55930305075738,83.24177181512455,84.91037027511689,42.64893277564049,44.31753123563283,40
933.105,88.5956,87.45485251842821,83.93645436333074,84.88383915150445,42.571013366923765,43.51839815509747,40
965.332,85.0467,85.16261723241742,81.74119132822149,83.3636861206924,41.79893111172501,43.42142590419593,40
1000.49,86.5707,86.33319466777465,82.18649130345128,84.08049289106738,42.25270177670727,44.14670336432337,40
1035.64,87.27,86.37247506821596,80.90167490523798,83.26363069114764,43.10884437706832,45.47080016297798,40
1072.27,85.1425,84.98058743619225,81.70564162074157,83.70163971407356,41.27894772211869,43.27494581545068,40
1108.89,85.8115,85.48158362365129,81.12421732383372,83.33894398779682,42.142639635854465,44.35736629981757,40
1148.44,83.649,84.45540657394797,81.10627258629258,83.78814461131559,40.66726196263238,43.34913398765539,40
1189.45,86.9462,85.702686494241,80.79713040047622,83.4412857862793,42.2614007079617,44.90555609376477,40
1230.47,86.5683,85.87614416631133,81.54966752227621,84.15547713494014,41.72066703137119,44.326476644035125,40
1274.41,87.5689,86.26797630912911,82.1116140240655,85.06057196303932,41.20740434608979,44.15636228506361,40
1319.82,86.9041,86.14236980552809,81.96355930399976,84.61990365158243,41.52246615394566,44.17881050152833,40
1366.7,86.1345,85.68545972051658,81.64330705375059,84.25945572516702,41.42600399534956,44.042152666765986,40
1413.57,85.7927,85.2347257618563,81.52813266533035,84.06770575036579,41.16702001149051,43.70659309652595,40
1463.38,86.4164,85.3958420971076,81.98516020709751,84.31003396910829,41.085808127999314,43.410681890010096,40
1516.11,86.6825,86.13733348371862,81.96693003031349,84.25022622584999,41.887107257868635,44.17040345340513,40
1568.85,87.1256,86.28518097613834,81.86362747025285,83.96571586074388,42.31946511539445,44.421553505885484,40
1624.51,86.63000000000001,86.2374313174434,81.98296190769027,84.41933323736664,41.81809808007675,44.25446940975313,40
1681.64,87.2369,85.87333295342896,81.79830884451955,83.82607024553597,42.04726270789298,44.0750241089094,40
1741.7,84.944,84.95061282868396,82.10847710219676,83.3924375079519,41.55817532073206,42.8421357264872,40
1803.22,86.2534,85.68115566144293,82.07830641498441,84.0422603854068,41.63889527603612,43.60284924645852,40
1866.21,86.8521,86.46221825041972,82.3423709676056,84.81668648710539,41.64553176331434,44.11984728281412,40
1932.13,85.4692,85.73272374737932,82.13959461150003,84.14118879721016,41.59153495016916,43.593129135879295,40
1999.51,84.8497,84.76530264614335,81.24867638446503,83.37025076793115,41.3950518782122,43.516626261678326,40
2069.82,85.25020000000002,85.04420897418275,81.22331958312516,83.2102988308113,41.833910143371455,43.82088939105759,40
2143.07,85.6323,85.55115324761948,81.25671209901276,83.0538626145959,42.49729063302358,44.29444114860672,40
2219.24,84.9666,85.28486275632693,80.96928050499733,82.62294327210725,42.66191948421968,44.3155822513296,40
2296.88,84.2252,84.73628252831952,80.67410306054659,82.00714871008316,42.72913381823636,44.062179467772935,40
2378.91,85.5599,85.68133609804438,80.83241641001104,82.26441428390451,43.41692181413987,44.84891968803335,40
2462.4,85.1788,85.65872035951031,80.57397068258703,82.11322239258847,43.54549796692184,45.08474967692328,40
2548.83,84.9554,85.371266765558,80.36569559420072,81.78415433275111,43.58711243280689,45.00557117135729,40
2639.65,85.937,85.93145232739937,80.8571804019308,82.40094568923539,43.530506638163985,45.074271925468565,40
2731.93,85.9932,86.02628274468405,80.68780323223814,82.52226368121029,43.50401906347376,45.338479512445915,40
2828.61,85.7128,85.66155587618822,80.34361462774348,82.317938293582,43.343617582606214,45.31794124844474,40
2928.22,86.0124,86.01520108895896,80.75089087516078,82.71697653322674,43.29822455573222,45.26431021379818,40
3030.76,86.473,86.19082106424509,80.78585029996957,82.90779601636899,43.283025047876095,45.40497076427552,40
3137.7,86.1486,85.65966605922718,80.42975400580659,82.65851910680374,43.00114695242344,45.22991205342059,40
3249.02,86.3707,85.92500694456025,80.6233329102298,82.99568699531245,42.9293199492478,45.301674034330446,40
3363.28,86.2679,86.0189292558608,81.04053468992603,83.33683174252997,42.68209751333083,44.978394565934764,40
3481.93,85.8657,85.65943472789645,80.82130371118613,83.3572417468046,42.30219298109185,44.83813101671032,40
3604.98,85.8878,85.80428641230135,81.20940778807173,83.71679207907384,42.08749433322751,44.59487862422962,40
3732.42,86.37570000000001,86.05799937792752,81.34777466582976,84.03791251534864,42.02008686257888,44.710224712097755,40
3864.26,86.2324,85.64099556931932,81.31756456355181,84.12327136455941,41.5177242047599,44.3234310057675,40
4000.49,86.9287,86.32118021315968,81.79980037395335,84.5886874304378,41.73249278272188,44.52137983920633,40
4141.11,86.76719999999999,86.2974393461574,81.78256380193754,84.80089877893154,41.496540567225864,44.51487554421986,40
4287.6,86.8577,86.37242893216599,81.6724256260707,84.92863732606135,41.44379160610464,44.70000330609528,40
4438.48,87.4456,86.70601266742808,81.94212724669073,85.1468366157952,41.55917605163289,44.76388542073735,40
4595.21,87.2436,86.39920165066408,81.75339369024277,85.09495118366735,41.304250466996734,44.64580796042131,40
4756.35,88.1314,86.9965629963391,81.84131359931756,85.22149571893975,41.775067277399344,45.155249397021535,40
4924.8,87.2779,86.49975292180234,81.49047553574042,84.77891343588249,41.72083948591985,45.009277386061925,40
5097.66,87.57600000000001,86.8690793950914,81.2188394023091,84.79602677420077,42.073052620890635,45.6502399927823,40
5277.83,86.90329999999999,86.39603673449206,80.94611358042806,84.47739406576757,41.91864266872449,45.449923154063995,40
5463.87,86.90599999999999,86.6679651132245,80.97580429486696,84.5340142917674,42.13395082145709,45.692160818357536,40
5657.23,86.8268,86.56914669824934,80.72675876069852,84.19019374468975,42.37895295355959,45.842387937550825,40
5856.45,86.8672,86.79462144424605,80.82925977208025,84.2186058500787,42.576015594167345,45.9653616721658,40
6062.99,86.1672,86.33576579388982,80.40387372466176,83.85640402262831,42.47936177126151,45.931892069228056,40
6276.86,86.8302,86.6319372569369,80.51687697286557,83.99297362998833,42.638963626948566,46.11506028407132,40
6498.05,87.3077,86.63178015322477,80.27606712909518,84.00350141782532,42.62827873539945,46.355713024129585,40
6726.56,87.1401,86.4207143330351,79.87945491758333,83.59750504991878,42.82320928311631,46.54125941545176,40
6963.87,87.7953,86.86422631501328,79.82588836676597,83.57127014083966,43.292956174173625,47.03833794824732,40
7209.96,87.9005,86.93113755244573,79.57512305255601,83.34502714442563,43.586110408020105,47.356014499889724,40
7464.84,87.88779999999998,86.69716898917476,79.27174447802891,83.15964235058978,43.53752663858498,47.42542451114585,40
7727.05,88.1066,86.7576737981788,79.28776892347288,83.25281631425241,43.504857483926386,47.46990487470592,40
7999.51,87.79720000000002,86.803601192185,79.21394077887365,83.13499464540583,43.66860654677917,47.58966041331135,40
8282.23,87.4649,86.64198375049106,78.99961182926434,82.92968751942816,43.71229623106291,47.642371921226726,40
8573.73,86.89060000000002,86.18888689797451,78.67422369990702,82.47478432971052,43.714102568263996,47.514663198067495,40
8876.95,86.1228,85.56345540271101,78.13999440975252,81.83014266104416,43.73331274166685,47.423460992958496,40
9188.96,85.328,84.99189458297911,77.72065588114175,81.41880720998854,43.57308737299057,47.27123870183736,40
9514.16,85.6371,84.91005750833787,77.61513564200213,81.44722793458023,43.462829573757645,47.29492186633574,40
9849.61,86.8198,85.39702376067567,77.79464479052616,82.00843389923313,43.38858986144254,47.6023789701495,40
10196.8,87.9252,86.42542211264622,78.22962331515234,82.76323307581984,43.662189036826376,48.19579879749388,40
10555.7,89.0904,87.79835600398384,79.01080683778639,83.69377917380338,44.10457683018046,48.78754916619745,40
10927.7,90.1845,88.8798372115286,79.62175424649435,84.38821842546582,44.49161878606277,49.25808296503425,40
11313.0,90.581,89.28227955373568,79.70001317860023,84.5377645447672,44.74451500896848,49.58226637513545,40
11712.9,90.5637,89.2280151760904,79.39189196081084,84.26973281162456,44.95828236446583,49.83612321527956,40
12126.0,90.1703,88.77466630175684,78.808808802443,83.70712901577178,45.067537285985054,49.96585749931384,40
