Freq "On Axis"
20.5078 65.153
21.9727 65.0114
23.4375 63.55210000000001
24.9023 63.916899999999984
26.3672 66.5585
27.832 68.7956
29.2969 70.6786
30.7617 72.6691
32.2266 74.047
33.6914 75.3266
35.1562 76.2896
36.6211 77.42470000000002
38.0859 78.3533
39.5508 78.8727
41.0156 79.42119999999998
42.4805 80.67370000000001
43.9453 81.2394
45.4102 81.7937
46.875 82.206
48.3398 82.6395
51.2695 83.2977
52.7344 83.60170000000001
54.1992 83.88110000000002
55.6641 84.1204
58.5938 84.7324
60.0586 84.9799
62.9883 85.5373
64.4531 85.7172
67.3828 86.1158
68.8477 86.31499999999998
71.7773 86.60599999999998
74.707 86.9036
77.6367 87.1588
79.1016 87.2857
82.0312 87.404
84.9609 87.60619999999999
87.8906 87.5634
90.8203 87.8382
95.2148 87.7209
98.1445 87.70109999999998
101.074 87.70630000000001
105.469 87.96
108.398 88.0847
112.793 88.0977
117.188 87.9943
120.117 88.06779999999999
124.512 88.1389
128.906 88.0673
133.301 88.0528
139.16 87.8565
143.555 87.7069
147.949 87.551
153.809 87.6341
159.668 87.56350000000002
165.527 87.6985
171.387 87.5291
177.246 87.24669999999999
183.105 86.7591
188.965 87.0772
196.289 87.5758
203.613 87.0091
210.938 87.004
218.262 86.5972
225.586 86.8428
232.91 87.0897
241.699 87.0581
250.488 86.8611
259.277 87.9856
268.066 87.2933
276.855 86.7776
287.109 87.4609
297.363 87.08549999999998
307.617 87.4073
319.336 86.49409999999999
329.59 86.5057
341.309 86.9634
353.027 87.5323
366.211 87.71080000000002
379.395 87.22860000000001
392.578 86.9045
405.762 86.9729
420.41 87.7402
435.059 87.73900000000002
451.172 87.406
465.82 88.2306
483.398 87.90659999999998
499.512 87.1843
517.09 88.0425
536.133 89.5608
555.176 88.66279999999999
574.219 89.3455
594.727 88.2948
615.234 88.2942
637.207 89.0939
659.18 87.8719
682.617 88.172
707.52 87.5603
732.422 87.6352
757.324 86.83299999999998
785.156 86.8008
811.523 85.0227
840.82 89.2176
870.117 86.3935
900.879 88.20100000000001
933.105 88.5956
965.332 85.0467
1000.49 86.5707
1035.64 87.27
1072.27 85.1425
1108.89 85.8115
1148.44 83.649
1189.45 86.9462
1230.47 86.5683
1274.41 87.5689
1319.82 86.9041
1366.7 86.1345
1413.57 85.7927
1463.38 86.4164
1516.11 86.6825
1568.85 87.1256
1624.51 86.63000000000001
1681.64 87.2369
1741.7 84.944
1803.22 86.2534
1866.21 86.8521
1932.13 85.4692
1999.51 84.8497
2069.82 85.25020000000002
2143.07 85.6323
2219.24 84.9666
2296.88 84.2252
2378.91 85.5599
2462.4 85.1788
2548.83 84.9554
2639.65 85.937
2731.93 85.9932
2828.61 85.7128
2928.22 86.0124
3030.76 86.473
3137.7 86.1486
3249.02 86.3707
3363.28 86.2679
3481.93 85.8657
3604.98 85.8878
3732.42 86.37570000000001
3864.26 86.2324
4000.49 86.9287
4141.11 86.76719999999999
4287.6 86.8577
4438.48 87.4456
4595.21 87.2436
4756.35 88.1314
4924.8 87.2779
5097.66 87.57600000000001
5277.83 86.90329999999999
5463.87 86.90599999999999
5657.23 86.8268
5856.45 86.8672
6062.99 86.1672
6276.86 86.8302
6498.05 87.3077
6726.56 87.1401
6963.87 87.7953
7209.96 87.9005
7464.84 87.88779999999998
7727.05 88.1066
7999.51 87.79720000000002
8282.23 87.4649
8573.73 86.89060000000002
8876.95 86.1228
9188.96 85.328
9514.16 85.6371
9849.61 86.8198
10196.8 87.9252
10555.7 89.0904
10927.7 90.1845
11313.0 90.581
11712.9 90.5637
12126.0 90.1703
12553.7 89.69339999999998
12996.1 89.6107
13454.6 89.9277
13929.2 90.44109999999999
14419.9 91.1936
14928.2 90.99669999999999
15455.6 90.3198
16000.5 90.02829999999999
16564.5 89.9046
17148.9 89.515
17752.4 88.97259999999999
18379.4 88.0589
19026.9 86.8031
19697.8 85.45989999999999
19999.5 84.8927
