Freq "Floor Bounce"
22.4 23.635130591779827
23.0 25.500767494455587
23.6 27.434351408685004
24.0 30.43513059177981
25.0 33.035130591779804
25.8 35.23358982687999
26.5 37.23513059177985
27.2 39.83358982687996
28.0 42.0669218511605
29.0 43.96692185116048
30.0 46.000767494455616
30.7 48.5669218511605
31.5 50.53358982687995
32.5 52.500767494455616
33.5 55.134351408685035
34.5 57.267695213052946
35.5 59.26692185116049
36.5 61.76692185116049
37.5 63.8
38.7 65.76692185116049
40.0 67.93358982687998
41.2 69.73358982687998
42.5 71.6
43.7 73.33358982687999
45.0 74.80076749445561
46.2 76.2
47.5 77.39999999999999
48.7 78.36692185116051
50.0 79.2
51.5 79.8
53.0 80.33358982687999
54.5 80.60000000000001
56.0 80.90000000000002
58.0 81.1
60.0 81.3
61.5 81.5
63.0 81.6669218511605
65.0 81.86692185116051
67.0 81.9669218511605
69.0 82.00000000000001
71.0 82.09999999999998
73.0 82.23358982687998
75.0 82.39999999999999
77.5 82.43358982687997
80.0 82.63358982687998
82.5 82.86692185116051
85.0 83.0669218511605
87.5 83.26692185116049
90.0 83.3
92.5 83.36692185116051
95.0 83.40000000000002
97.5 83.43358982687998
100.0 83.26692185116049
103.0 83.23358982687996
106.0 83.13358982687997
109.0 83.03358982687998
112.0 82.9
115.0 82.66692185116051
118.0 82.5
122.0 82.23358982687998
125.0 82.03358982687998
128.0 81.86692185116051
132.0 81.7007674944556
136.0 81.53435140868503
140.0 81.50076749445562
145.0 81.30076749445563
150.0 81.26769521305295
155.0 81.16845083805433
160.0 81.03435140868501
165.0 80.93435140868502
170.0 80.66845083805433
175.0 80.33663575667187
180.0 80.06845083805433
185.0 79.80306957104251
190.0 79.40306957104251
195.0 79.27150800786937
200.0 79.17150800786938
206.0 78.9760917544922
212.0 78.8098662867233
218.0 78.47609175449222
224.0 78.04044167945491
230.0 77.60690501035458
236.0 77.1760917544922
240.0 76.80690501035458
250.0 76.4760917544922
258.0 76.4098662867233
265.0 76.34044167945491
272.0 76.10690501035458
280.0 75.97150800786937
290.0 75.93663575667186
300.0 76.00306957104252
307.0 76.16845083805433
315.0 76.36845083805433
325.0 76.60306957104252
335.0 76.47150800786939
345.0 76.14576719438469
355.0 75.6457671943847
365.0 75.41227178315619
375.0 74.95260953202218
387.0 74.46096514237183
400.0 74.0948570588317
412.0 74.06096514237181
425.0 74.09897445130925
437.0 74.17082970284298
450.0 74.04314826109434
462.0 74.5948570588317
475.0 76.16845083805433
487.0 76.7007674944556
500.0 75.52758719283591
515.0 73.3179278976485
530.0 71.70034112939827
545.0 72.30034112939828
560.0 73.20034112939827
580.0 73.25866027600834
600.0 73.0094224842602
615.0 73.2687803399679
630.0 73.54293979360189
650.0 73.65866027600833
670.0 74.05866027600833
690.0 74.7094224842602
710.0 75.24314826109435
730.0 75.61916705502753
750.0 75.54576719438471
775.0 75.73435140868501
800.0 76.7404416794549
825.0 76.27928732607432
850.0 74.42179738688895
875.0 74.58915630129641
900.0 75.06668552790022
925.0 75.4098662867233
950.0 75.60228461396021
975.0 75.86845083805433
1000.0 75.86692185116051
1030.0 76.16845083805433
1060.0 76.4053180676647
1090.0 76.97896989520116
1120.0 77.79238562216104
1150.0 77.90131827952113
1180.0 77.90464502318535
1220.0 78.29485705883171
1250.0 78.9560388500297
1280.0 80.05603736524559
1320.0 79.23268615537793
1360.0 77.30531806766471
1400.0 76.57977745790569
1450.0 75.384933415315
1500.0 74.93779821661222
1550.0 74.13779821661223
1600.0 73.60261155895365
1650.0 73.11719474435358
1700.0 72.28230649956843
1750.0 71.71695395609258
1800.0 71.02869245367795
1850.0 69.5329948970334
1900.0 71.25556502286216
1950.0 72.68868107059241
2000.0 73.51274087273613
2060.0 73.6017460112477
2120.0 73.94520516099381
2180.0 73.97757950460714
2240.0 74.5361070797735
2300.0 74.88915939292242
2360.0 74.7078531952534
2400.0 74.10663873427829
2500.0 73.7485058811867
2580.0 73.60489348120858
2650.0 74.78153123181183
2720.0 75.7031346239137
2800.0 75.6091010222644
2900.0 74.79244914636017
3000.0 74.68881761960128
3070.0 74.4187023295529
3150.0 73.60669030042276
3250.0 73.71568621032725
3350.0 73.60263820055891
3450.0 73.31101574050209
3550.0 73.65349218931753
3650.0 72.76268924406125
3750.0 71.35400791403217
3870.0 71.18696255763253
4000.0 71.44638725167694
4120.0 70.61660742506521
4250.0 69.67942332262199
4370.0 69.36191285438885
4500.0 70.00087022870049
4620.0 69.69553182536193
4750.0 70.93469134042877
4870.0 71.06725120281571
5000.0 71.39071785220771
5150.0 71.14893523938065
5300.0 70.19332422017229
5450.0 70.16095673400773
5600.0 69.60159498600153
5800.0 69.1682417536248
6000.0 67.83326320087788
6150.0 68.63878085275161
6300.0 68.94127727300389
6500.0 69.93510672000848
6700.0 70.52990957385144
6900.0 70.84085503804697
7100.0 69.68153123181183
7300.0 68.19561715933445
7500.0 68.55234182425075
7750.0 67.83088317154635
8000.0 68.65840678555409
8250.0 68.69645516723233
8500.0 69.2357496588565
8750.0 68.49703574140976
9000.0 67.5385647550995
9250.0 67.6977079754348
9500.0 69.49115875582714
9750.0 70.37423383499107
10000.0 68.0021927277686
10300.0 65.03513059177983
10600.0 68.42219451019828
10900.0 69.7029414492872
11200.0 69.86216583810078
11500.0 70.79464251891422
11800.0 71.02928058990274
12200.0 70.96739212192502
12500.0 72.43539618716052
12800.0 71.55425532135808
13200.0 69.2626190759379
13600.0 68.72484511080253
14000.0 68.5339826183536
14500.0 68.81173806284326
15000.0 71.14609975902819
15500.0 71.39962038125223
16000.0 71.91168583821504
16500.0 69.69078612809561
17000.0 64.95839391853265
17500.0 62.609374003214484
18000.0 63.71430637862282
18500.0 64.69595483268024
19000.0 59.686378969014626
19500.0 59.630121772216555
