Freq "Rear Wall Bounce"
22.4 21.51642119449913
23.0 23.55626168434371
23.6 25.603105123899482
24.0 28.887816151485097
25.0 31.753161302503244
25.8 34.066711216223226
26.5 36.09786283782593
27.2 38.94029857075908
28.0 41.345684938176774
29.0 43.37086053767884
30.0 45.45413801413069
30.7 48.11183871239952
31.5 50.24311187730167
32.5 52.17998191408354
33.5 54.76415292875896
34.5 57.079619408542385
35.5 58.99636558738085
36.5 61.43711053242437
37.5 63.50048474912019
38.7 65.44765555654891
40.0 67.62124483242414
41.2 69.43182840322696
42.5 71.2686691017184
43.7 72.98958146124474
45.0 74.4686691017184
46.2 75.90024238132342
47.5 77.13206901473804
48.7 78.00024238132342
50.0 78.83735085147644
51.5 79.43711053242436
53.0 79.93711053242436
54.5 80.22653984178842
56.0 80.49999999999999
58.0 80.7
60.0 80.9
61.5 81.079137868746
63.0 81.23711053242435
65.0 81.39491519254337
67.0 81.51618485256672
69.0 81.60556304361575
71.0 81.66379188131675
73.0 81.75328601214694
75.0 81.86379188131674
77.5 81.97427239741643
80.0 82.2010934317052
82.5 82.53340614654455
85.0 82.88193540367611
87.5 83.1685400921237
90.0 83.2167005753329
92.5 83.1472466745009
95.0 83.00933674647102
97.5 82.90158370269037
100.0 82.67646100850696
103.0 82.53832318742319
106.0 82.5010934317052
109.0 82.25450544053076
112.0 81.94373151350352
115.0 81.6375967545127
118.0 81.48545181117633
122.0 81.26475831605859
125.0 81.00677339230434
128.0 80.78691103236477
132.0 80.67097970400967
136.0 80.54062786823337
140.0 80.37950194002653
145.0 80.11771705190012
150.0 79.78115981025196
155.0 79.63769605103178
160.0 79.38670722670285
165.0 79.21771705190011
170.0 78.96697544178285
175.0 78.65767403173642
180.0 78.2874798279423
185.0 77.95983290605051
190.0 77.55799636655645
195.0 77.19808424769552
200.0 76.79484107698836
206.0 76.17625102616297
212.0 75.44618479930095
218.0 74.61905638124536
224.0 73.83155528456639
230.0 73.03728971323638
236.0 72.38211097277839
240.0 71.84271432995118
250.0 71.45649746751556
258.0 71.21596746722413
265.0 71.10221956691798
272.0 70.90758063525277
280.0 70.75792020992326
290.0 70.68866664361947
300.0 70.72261746529936
307.0 70.78289826542549
315.0 71.00827034557423
325.0 71.11626898217166
335.0 70.60117445770827
345.0 69.31626838164776
355.0 68.09967149689301
365.0 67.32332796977288
375.0 66.48497832304083
387.0 66.00338394553587
400.0 65.07205022735003
412.0 64.55238563068546
425.0 64.48609679417247
437.0 64.93930287909764
450.0 65.54715549907803
462.0 66.6789619107983
475.0 68.34479972286844
487.0 68.17686111673098
500.0 66.28192989772391
515.0 63.07773586440916
530.0 60.471464696114154
545.0 60.25929667377771
560.0 60.26289556274055
580.0 59.891342799121134
600.0 60.2098837267486
615.0 61.03026144460917
630.0 61.63270067861917
650.0 61.557821606958356
670.0 60.73810680081495
690.0 59.19534460758503
710.0 58.61872200275751
730.0 57.442527582406555
750.0 56.405606830379824
775.0 56.585119239337516
800.0 56.49858182843444
825.0 63.38113762559995
850.0 62.06287096543474
875.0 58.73760947893389
900.0 56.69618885309602
925.0 54.768504496942114
950.0 54.69912297900082
975.0 56.39990863590275
1000.0 56.46955086580405
1030.0 56.477067103788954
1060.0 56.77312250732852
1090.0 56.97666256054717
1120.0 58.26018015115676
1150.0 59.30405060756058
1180.0 61.09367982835968
1220.0 62.1971717566134
1250.0 64.04038021817958
1280.0 67.86081994237445
1320.0 68.39440093138869
1360.0 66.42296446391329
1400.0 64.78264618584126
1450.0 64.53229441517847
1500.0 64.26001698081139
1550.0 63.08092739745912
1600.0 63.21319560107497
1650.0 62.944279263963494
1700.0 64.31898301066538
1750.0 65.67887700142914
1800.0 67.0652073000057
1850.0 65.96088310372534
1900.0 65.56249424816797
1950.0 64.8911028048202
2000.0 64.4273448400859
2060.0 63.60643411610209
2120.0 62.821552528112065
2180.0 62.440715832883456
2240.0 62.003578754767446
2300.0 61.26150215792053
2360.0 60.207773972718556
2400.0 59.25214007779863
2500.0 59.415098093042204
2580.0 60.29839524280234
2650.0 61.479652264002794
2720.0 61.6217051260394
2800.0 61.74901073201717
2900.0 60.61807554002128
3000.0 60.83662240473345
3070.0 61.302482510516114
3150.0 61.4813521901754
3250.0 60.88234554362212
3350.0 60.41161124057524
3450.0 59.803554868524
3550.0 60.012116120790154
3650.0 60.35428181614442
3750.0 60.0797433281942
3870.0 60.232280066563106
4000.0 61.03601306690011
4120.0 60.45535206829628
4250.0 60.02946599515151
4370.0 60.18704057570025
4500.0 60.93037977764445
4620.0 60.30387764603017
4750.0 60.53620192186797
4870.0 61.50569056999102
5000.0 62.24689791152345
5150.0 61.51607756835105
5300.0 59.88421592216815
5450.0 59.53479104444054
5600.0 59.08738274739197
5800.0 60.5124345862469
6000.0 62.34116769868791
6150.0 62.0532403371963
6300.0 60.27337716864159
6500.0 60.64640930283403
6700.0 60.812015801190995
6900.0 62.75594730827099
7100.0 61.572320149852516
7300.0 59.424114025423094
7500.0 57.95657433129071
7750.0 57.963197032134005
8000.0 59.01336181992643
8250.0 57.72584981521071
8500.0 56.8451184718477
8750.0 58.39985044913915
9000.0 59.811229048191606
9250.0 57.87805798490852
9500.0 58.24506356423967
9750.0 61.28013097042566
10000.0 62.08883328868623
10300.0 59.41805352506556
10600.0 60.691401521926835
10900.0 60.57784863926781
11200.0 58.0076815762672
11500.0 58.56521025854828
11800.0 57.79737300720559
12200.0 53.85682249853103
12500.0 56.60116298595125
12800.0 58.40039332609952
13200.0 59.27349575565884
13600.0 62.49623656369202
14000.0 61.217601287234984
14500.0 58.286044578094575
15000.0 60.20575826192214
15500.0 62.421228601182264
16000.0 60.20126107489902
16500.0 51.958054408173936
17000.0 45.20436073898357
17500.0 49.628921586909414
18000.0 52.34950293731437
18500.0 55.87548812703068
19000.0 53.97030765861449
19500.0 49.41343363651514
