Freq "Estimated In-Room Response"
20.5078 57.265994627960296
21.9727 58.815050440971945
23.4375 60.104092468249675
24.9023 61.89946297445751
26.3672 63.08461295334415
27.832 64.71329091971386
29.2969 65.90439714371946
30.7617 67.07995114846103
32.2266 68.0516716413748
33.6914 69.12562631692224
35.1562 70.16312557417767
36.6211 71.00768380922973
38.0859 71.8530355666205
39.5508 72.69211456794746
41.0156 73.51147445728473
42.4805 74.21152953365296
43.9453 74.95047627120694
45.4102 75.5803089699597
46.875 76.27763860779058
48.3398 76.72567664431189
51.2695 77.76378704558115
52.7344 78.29483245352846
54.1992 78.81214248692002
55.6641 79.25479434338813
58.5938 79.96267027675394
60.0586 80.38043548910717
62.9883 80.98183724439482
64.4531 81.22655996144563
67.3828 81.6946248508623
68.8477 81.88510808853327
71.7773 82.39972929661057
74.707 82.81684087384454
77.6367 83.18814345716189
79.1016 83.34188411735637
82.0312 83.5202015884433
84.9609 83.76254524551463
87.8906 84.19572697592373
90.8203 84.4696456778358
95.2148 84.55709076742775
98.1445 84.79404270297759
101.074 84.85713810861257
105.469 85.14083873533959
108.398 85.33337207228122
112.793 85.51481193530836
117.188 85.6599654697264
120.117 85.70627364047694
124.512 85.74011698166754
128.906 85.77451425724
133.301 85.85234013041692
139.16 85.90330587687103
143.555 85.93316476069363
147.949 85.94144320475144
153.809 85.93211467868072
159.668 85.9435250046515
165.527 86.09511632633979
171.387 86.04203880521791
177.246 85.96317454250436
183.105 85.86071108294063
188.965 85.83451824247865
196.289 85.81102862193943
203.613 85.77388988418194
210.938 85.65662122766425
218.262 85.4699873259426
225.586 85.46657479108241
232.91 85.48904078779803
241.699 85.25738224072133
250.488 85.15325023570672
259.277 85.32116084801275
268.066 85.04384240174222
276.855 85.15290928868318
287.109 85.04013464126551
297.363 85.11559759809062
307.617 85.24913557773682
319.336 84.71721395155495
329.59 84.53750061396345
341.309 84.43519926434696
353.027 84.51145741441765
366.211 84.57782914150177
379.395 84.75096332455936
392.578 84.22748849500142
405.762 84.11411581930561
420.41 84.54575667289534
435.059 83.90373624493238
451.172 83.93810671997788
465.82 83.78516299784646
483.398 84.16317898453231
499.512 83.83831713891487
517.09 83.44035141434857
536.133 82.86761932383206
555.176 83.04675050396624
574.219 82.81965465349933
594.727 82.7733198247435
615.234 82.75847754341274
637.207 82.87767708690421
659.18 83.67184239083127
682.617 83.21880230564703
707.52 82.86912896047232
732.422 82.72489613086395
757.324 82.69561879775098
785.156 82.06872305654726
811.523 82.63676109553626
840.82 81.72183219338604
870.117 82.1680531734714
900.879 82.02565267948086
933.105 82.30303853453113
965.332 82.2134792063991
1000.49 81.7404323621285
1035.64 81.79237775041946
1072.27 82.06678701017363
1108.89 81.9735871076355
1148.44 81.94863154652849
1189.45 81.53747359889022
1230.47 81.64987451206773
1274.41 81.77514010599131
1319.82 81.60463059315472
1366.7 82.10307224255031
1413.57 82.63078470430837
1463.38 82.76054193209156
1516.11 82.70615417009364
1568.85 81.8645543349288
1624.51 82.45437929455237
1681.64 83.03720253831833
1741.7 83.43692380176843
1803.22 83.60975372084367
1866.21 83.19685338453125
1932.13 82.6666024794329
1999.51 81.8974468242706
2069.82 80.76193913763164
2143.07 80.15398510179557
2219.24 79.46678219464671
2296.88 79.41719483022048
2378.91 79.23905487981078
2462.4 79.95970816385649
2548.83 80.54854864326859
2639.65 80.87503861744258
2731.93 81.16955179420482
2828.61 82.09774535646875
2928.22 83.30218179130702
3030.76 83.54325616749135
3137.7 83.8667457144803
3249.02 83.82379752211426
3363.28 83.74280120992266
3481.93 83.89021417845943
3604.98 83.8558155605968
3732.42 84.13640957168131
3864.26 84.05728796777485
4000.49 83.65974362834636
4141.11 84.0582629195808
4287.6 84.04365514542808
4438.48 84.14507481780137
4595.21 84.08085513369166
4756.35 84.00614656873222
4924.8 83.81666342581146
5097.66 83.35707024362488
5277.83 83.17966075895573
5463.87 83.11536935790654
5657.23 83.05892889235571
5856.45 82.75810285569509
6062.99 82.73757226677166
6276.86 82.56387634903218
6498.05 82.76217584223069
6726.56 82.97267992627877
6963.87 82.88628526044553
7209.96 82.68649109565466
7464.84 82.21334441810625
7727.05 81.92859066752861
7999.51 81.81172957061906
8282.23 81.74669979592325
8573.73 81.6611689234049
8876.95 81.16594638903801
9188.96 80.86211577408083
9514.16 81.1121437576672
9849.61 80.9547434320318
10196.8 80.91892797460258
10555.7 81.0035326512328
10927.7 81.20271752139156
11313.0 81.1633575417146
11712.9 81.09098094009678
12126.0 80.90700037102356
12553.7 80.75658051992612
12996.1 80.66588229412271
13454.6 80.55609430669588
13929.2 80.6967095060197
14419.9 80.75279457377155
14928.2 80.76246981091461
15455.6 80.58461104545702
16000.5 80.27826119327067
16564.5 79.74218641300757
17148.9 78.86727351654233
17752.4 78.00164119384407
18379.4 77.1580020696427
19026.9 76.276292664049
19697.8 75.76649060034266
19999.5 75.5973529298381
