Freq "Sound Power"
20.5078 62.095412060256194
21.9727 63.699278082188755
23.4375 65.82859995563194
24.9023 67.60509279236808
26.3672 69.20913778825829
27.832 70.66528842386501
29.2969 72.30431878695448
30.7617 73.83861665675335
32.2266 75.31099705671119
33.6914 76.3602710552777
35.1562 77.67539943250236
36.6211 78.94699648696964
38.0859 80.1149260903629
39.5508 81.236594078071
41.0156 82.18282516857263
42.4805 83.27004910358451
43.9453 83.5532197454897
45.4102 84.25131398925754
46.875 84.91710155082917
48.3398 85.44099512431524
51.2695 86.08111107409987
52.7344 86.42683730929699
54.1992 86.62488569885942
55.6641 86.7653928364789
58.5938 86.96915917851231
60.0586 87.03278094800082
62.9883 87.133331595641
64.4531 87.17898089612805
67.3828 87.22846251458131
68.8477 87.24245024912234
71.7773 87.29929182026237
74.707 87.41850226054686
77.6367 87.51858428332096
79.1016 87.1539641509365
82.0312 87.18007436862598
84.9609 87.29650395368952
87.8906 87.38859176481404
90.8203 87.45329771281294
95.2148 87.53319519935053
98.1445 87.61555354956411
101.074 87.63491137384439
105.469 87.68514786587203
108.398 87.8363097666189
112.793 88.02581166452838
117.188 88.14704601773124
120.117 88.23263579104395
124.512 88.34885464828595
128.906 88.32025514583353
133.301 88.34376191579541
139.16 88.33078733961793
143.555 88.3036029112323
147.949 88.28255146846243
153.809 88.24251837543875
159.668 88.40904261688502
165.527 88.50865779181424
171.387 88.39664132439165
177.246 88.26069300947265
183.105 88.08167952590549
188.965 88.00387292475386
196.289 88.13746512740957
203.613 87.9182280029192
210.938 87.84091516391757
218.262 87.87481790679989
225.586 87.7915582091664
232.91 87.72027640117405
241.699 87.59709371403723
250.488 87.49015405686893
259.277 87.56777190622665
268.066 87.29899843548317
276.855 87.17371973406337
287.109 87.07376478460525
297.363 86.99152466785604
307.617 86.96454469156136
319.336 86.68060993051922
329.59 86.73458207821233
341.309 86.57758806193647
353.027 86.1536351546959
366.211 85.92500374339997
379.395 86.39782473168344
392.578 86.19175446293693
405.762 85.80907515686538
420.41 85.8539893422122
435.059 85.87992842609324
451.172 85.83885580837723
465.82 85.8194085398323
483.398 85.66345538265085
499.512 85.52093846954273
517.09 85.87186299325532
536.133 85.42626816097822
555.176 85.56976162673647
574.219 85.68447264956643
594.727 85.74395685530732
615.234 85.74645143838137
637.207 85.56373310885
659.18 85.6445475268881
682.617 85.51142964577488
707.52 85.39131127039295
732.422 85.30200642520296
757.324 84.99584109212135
785.156 85.1309888733737
811.523 84.87066844172256
840.82 84.8560205607998
870.117 84.77642413332558
900.879 84.43590269113753
933.105 84.16154054408423
965.332 83.24165113631274
1000.49 82.99019922455372
1035.64 82.29105463953195
1072.27 82.40601152250623
1108.89 82.411247596264
1148.44 83.10904687273782
1189.45 83.55938121024573
1230.47 84.09794299036453
1274.41 83.59170759759327
1319.82 83.30041043446705
1366.7 82.47896567017924
1413.57 82.54234127431499
1463.38 82.44261868315496
1516.11 83.76694886866235
1568.85 83.33027891194206
1624.51 82.7571524475011
1681.64 82.38236122893274
1741.7 81.94217418794943
1803.22 81.52951677180197
1866.21 81.22902415373412
1932.13 80.61781804096923
1999.51 80.14489807342797
2069.82 79.7742706497624
2143.07 79.80290914539829
2219.24 79.73283069340305
2296.88 79.21074030149639
2378.91 78.44468118720386
2462.4 77.97019966914796
2548.83 78.31330640003323
2639.65 77.95960592608336
2731.93 77.32424644776273
2828.61 77.17662014296273
2928.22 77.53100686524749
3030.76 78.07843845532861
3137.7 78.76229769699468
3249.02 79.29521877850635
3363.28 79.49612039065511
3481.93 79.90683150701142
3604.98 80.72405880846404
3732.42 81.01562968466546
3864.26 80.62554950055343
4000.49 80.34992095004127
4141.11 80.13067612507808
4287.6 79.92631026991006
4438.48 79.49040847266998
4595.21 80.19948414665129
4756.35 80.15983175513517
4924.8 80.52211184167774
5097.66 80.9918351968296
5277.83 81.22186080851158
5463.87 80.91365798723045
5657.23 81.15707010121508
5856.45 81.2120121352901
6062.99 81.29195189453145
6276.86 81.39398728925715
6498.05 81.13634236926165
6726.56 81.22917898482552
6963.87 80.9309533117436
7209.96 81.10466983858082
7464.84 80.7037889492711
7727.05 80.93064997991331
7999.51 80.75007444689643
8282.23 80.90751898611813
8573.73 80.88371975567898
8876.95 80.97649601844714
9188.96 81.17722653724795
9514.16 81.14008477295778
9849.61 81.03752836312319
10196.8 80.92170445943586
10555.7 80.67842251499621
10927.7 80.60128327680978
11313.0 80.59501958405974
11712.9 80.52709692213489
12126.0 80.46232359645884
12553.7 80.45818627865464
12996.1 80.34337057469263
13454.6 80.07912993284141
13929.2 79.8706700195486
14419.9 79.85185424834015
14928.2 79.87245272324509
15455.6 79.76830491678339
16000.5 79.48836760556453
16564.5 79.00640128105444
17148.9 78.48254224425293
17752.4 77.82356347066658
18379.4 77.15036441325378
19026.9 76.6520039231482
19697.8 76.66651769913065
19999.5 76.838126100034
