Freq "Sound Power"
20.5078 52.658640919760174
21.9727 53.91198208186434
23.4375 55.218827102212956
24.9023 56.5221267851271
26.3672 57.99118694039514
27.832 59.01667665688937
29.2969 60.2029662486418
30.7617 61.394190714207284
32.2266 62.669266956484435
33.6914 63.55390074603615
35.1562 64.86973443918566
36.6211 65.31170100492434
38.0859 66.3862939534105
39.5508 67.56503710648602
41.0156 68.9086492608071
42.4805 70.21934406424027
43.9453 70.7267027128462
45.4102 71.44290911358206
46.875 72.63809105701792
48.3398 73.47418064516775
51.2695 75.04133406176383
52.7344 75.88311161111619
54.1992 76.635040538514
55.6641 77.34788997292704
58.5938 78.66671584415643
60.0586 79.30063479008707
62.9883 80.46312087255495
64.4531 80.99643483362298
67.3828 81.93648548256986
68.8477 82.36498203531171
71.7773 83.15901290537586
74.707 83.80826816100681
77.6367 84.31401016791837
79.1016 84.51650117075951
82.0312 84.87866913835863
84.9609 85.13695803841735
87.8906 85.29569687022043
90.8203 85.50063679509125
95.2148 85.5837272974404
98.1445 85.56455686093183
101.074 85.50387324598502
105.469 85.43376790254536
108.398 85.36476228896193
112.793 85.16950796734766
117.188 84.9107909026613
120.117 84.77557532780568
124.512 84.85799478494542
128.906 84.70413515491659
133.301 84.49334651835032
139.16 84.20431307062888
143.555 83.9625873376487
147.949 83.82347824292789
153.809 83.65892372009633
159.668 83.06961760083264
165.527 82.83948157627277
171.387 82.65721577181469
177.246 83.04785925907673
183.105 82.77383966802385
188.965 82.66748731209208
196.289 82.67715816015074
203.613 82.15020141168723
210.938 81.93691602231709
218.262 82.05543681435417
225.586 81.97894764602566
232.91 81.67192890362892
241.699 81.48413977268405
250.488 81.11376972429036
259.277 81.17133606165167
268.066 81.81819100567978
276.855 81.41497472319674
287.109 80.99579018744667
297.363 81.12673616873019
307.617 81.20080471919717
319.336 80.75881911088842
329.59 80.37110380453235
341.309 80.20681396911117
353.027 79.72477954596003
366.211 80.1038924945254
379.395 79.68118833226166
392.578 79.71825549422661
405.762 80.32536128935526
420.41 80.31775081314696
435.059 80.25367127331722
451.172 80.16548060147436
465.82 79.7676811461387
483.398 79.85176232710452
499.512 80.26132597479882
517.09 80.07145714907196
536.133 80.27148312608465
555.176 79.96583398816502
574.219 79.51505977661735
594.727 79.61044671174535
615.234 79.17439788738575
637.207 78.95304365017213
659.18 78.858916567704
682.617 78.7206621013962
707.52 78.94828282837112
732.422 78.94338084638234
757.324 78.89190935157448
785.156 78.86017327690489
811.523 78.7927262479009
840.82 79.39495577312393
870.117 78.9231022855075
900.879 79.04962566152636
933.105 79.06880853763555
965.332 78.87723200782682
1000.49 79.08740821234666
1035.64 78.88412075173613
1072.27 78.49038212477546
1108.89 77.3831494580747
1148.44 75.77245125741337
1189.45 73.58132492074057
1230.47 72.6853936820632
1274.41 73.15766333060627
1319.82 74.2961255232514
1366.7 75.54567054576633
1413.57 75.91070213482455
1463.38 75.77711239059272
1516.11 76.09049354763162
1568.85 77.11068768950796
1624.51 77.75321494228267
1681.64 77.63069776964836
1741.7 77.84543660922438
1803.22 78.32786991757601
1866.21 78.64010448944357
1932.13 78.71496730531483
1999.51 79.03813238155894
2069.82 79.61363864440953
2143.07 79.57962585387328
2219.24 79.5287810306621
2296.88 80.03306060246054
2378.91 80.70289899590736
2462.4 80.0933470525776
2548.83 80.55128732236848
2639.65 80.90767080087932
2731.93 80.94087961280324
2828.61 81.20278558346153
2928.22 81.4438454662581
3030.76 81.38934192554434
3137.7 81.39518368092924
3249.02 81.42000877862404
3363.28 81.37101079844162
3481.93 81.20971279297294
3604.98 81.11437815936823
3732.42 80.79462869470561
3864.26 80.50220909003652
4000.49 80.05998650304589
4141.11 79.71080365070624
4287.6 79.32724415577341
4438.48 79.02189837971258
4595.21 78.66701021981905
4756.35 78.28082930574077
4924.8 77.86994346060818
5097.66 77.50310569023472
5277.83 77.19682044853138
5463.87 77.15600678174344
5657.23 77.32044958876877
5856.45 77.90019697877932
6062.99 78.54483208195022
6276.86 79.05649705614813
6498.05 79.47457790137443
6726.56 79.77523725477992
6963.87 79.89890236317207
7209.96 79.97079868980056
7464.84 80.04463690461922
7727.05 80.02239581557976
7999.51 79.86040811204678
8282.23 79.71206005659838
8573.73 79.4216131257272
8876.95 79.24732791255609
9188.96 79.2930323649861
9514.16 79.33719244969306
9849.61 79.47499262927545
10196.8 79.33185783488989
10555.7 79.06714135950298
10927.7 78.80157690573449
11313.0 78.85535643024481
11712.9 78.9325092555346
12126.0 78.98910630863732
12553.7 79.00948639349758
12996.1 79.07297925790878
13454.6 79.06935279024253
13929.2 79.16929320790068
14419.9 79.25210746098949
14928.2 79.41181942532192
15455.6 79.42571143700167
16000.5 79.02874245044234
16564.5 78.0722274315681
17148.9 77.32475870607517
17752.4 76.88621358683636
18379.4 75.7993677868672
19026.9 74.32373764462577
19697.8 72.67718904258773
19999.5 71.84660319475195
