Freq,Floor Bounce,Ceiling Bounce,Front Wall Bounce,Side Wall Bounce,Rear Wall Bounce,Total Early Reflection
22.4,52.68051432989867,53.04666868660355,52.74112615503337,52.651568996435216,52.34781113631355,52.69926214928314
23.0,52.88051432989867,53.21333666232303,52.94112615503339,52.851568996435205,52.52723291948327,52.88826757609354
23.6,53.08051432989866,53.413336662323005,53.14112615503336,53.04113744626629,52.71691686956204,53.08430311985909
24.0,53.246668686603556,53.61333666232302,53.298465486948544,53.20038985883416,52.869121965373466,53.25207809966777
25.0,53.38051432989866,53.713336662323016,53.44112615503337,53.360427989322986,53.04304776069374,53.3929397101266
25.8,53.54666868660355,53.87974683544304,53.62717947718393,53.50038985883414,53.179681579524015,53.552565267641825
26.5,53.64666868660355,54.01333666232301,53.74112615503337,53.630680779661546,53.31187268260727,53.67456063294992
27.2,53.780514329898665,54.11333666232302,53.841126155033365,53.74113744626629,53.4269983698572,53.78615762474465
28.0,53.88051432989866,54.246668686603556,53.94112615503339,53.85156899643522,53.547811136313555,53.89926214928316
29.0,53.98051432989867,54.34666868660355,54.04112615503338,53.98037352530302,53.65355444773492,54.00603386174224
30.0,54.08051432989866,54.44666868660353,54.141126155033376,54.05156899643519,53.747811136313544,54.099262149283135
30.7,54.18051432989867,54.513336662323,54.241126155033356,54.130680779661546,53.81691686956205,54.182234468085994
31.5,54.246668686603556,54.61333666232302,54.341126155033365,54.21970425366406,53.90210952608132,54.2705941609255
32.5,54.313336662323024,54.679746835443055,54.3837159986186,54.2911979691163,53.958666786095094,54.331420433383315
33.5,54.38051432989867,54.713336662323016,54.44112615503337,54.3411374462663,54.02699836985721,54.386157624744655
34.5,54.44666868660353,54.81333666232301,54.49846548694855,54.400389858834146,54.069121965373455,54.45207809966776
35.5,54.480514329898654,54.81333666232301,54.54112615503337,54.4515689964352,54.127232919483276,54.48826757609352
36.5,54.54666868660355,54.87974683544304,54.62717947718393,54.50038985883414,54.179681579524,54.552565267641825
37.5,54.58051432989866,54.91333666232302,54.64112615503336,54.53068077966154,54.21691686956204,54.582234468086
38.7,54.58051432989866,54.97974683544304,54.654712234203984,54.58037352530302,54.25355444773491,54.61594881648814
40.0,54.64666868660355,55.01333666232301,54.74112615503337,54.600389858834134,54.29061070502469,54.66467083078901
41.2,54.68051432989866,55.01333666232301,54.74112615503337,54.641137446266285,54.316916869562036,54.68430311985908
42.5,54.68051432989866,55.07974683544303,54.74112615503337,54.660427989323,54.35355444773491,54.70925888086785
43.7,54.713336662323016,55.07974683544303,54.783715998618604,54.6911979691163,54.3586667860951,54.731420433383306
45.0,54.74666868660354,55.11333666232302,54.82717947718395,54.71970425366405,54.390475060686455,54.765626114983306
46.2,54.780514329898665,55.11333666232302,54.841126155033365,54.71970425366405,54.4119875675063,54.77916091020181
47.5,54.780514329898665,55.11333666232302,54.841126155033365,54.74113744626629,54.4269983698572,54.78615762474466
48.7,54.780514329898665,55.11333666232302,54.841126155033365,54.76042798932299,54.443047760693744,54.79293971012659
50.0,54.780514329898665,55.179746835443055,54.85471223420399,54.78037352530302,54.453554447734916,54.81594881648813
51.5,54.81409824412806,55.179746835443055,54.883371841205786,54.789588329329575,54.45903218649205,54.831250635278735
53.0,54.846668686603536,55.21333666232303,54.89846548694854,54.80038985883414,54.469121965373475,54.85207809966775
54.5,54.846668686603536,55.21333666232303,54.94112615503337,54.80038985883414,54.49061070502469,54.86467083078901
56.0,54.846668686603536,55.21333666232303,54.94112615503337,54.81970425366407,54.50210952608133,54.87059416092548
58.0,54.846668686603536,55.21333666232303,54.94112615503337,54.83068077966155,54.511872682607276,54.87456063294992
60.0,54.846668686603536,55.21333666232303,54.94112615503337,54.83068077966155,54.511872682607276,54.87456063294992
61.5,54.88051432989866,55.21333666232303,54.94112615503337,54.84113744626629,54.51691686956205,54.88430311985907
63.0,54.88051432989866,55.21333666232303,54.94112615503337,54.84113744626629,54.51691686956205,54.88430311985907
65.0,54.88051432989866,55.21333666232303,54.94112615503337,54.85156899643522,54.52723291948327,54.88826757609354
67.0,54.88051432989866,55.21333666232303,54.94112615503337,54.85156899643522,54.521840583134605,54.88727564041719
69.0,54.88051432989866,55.27974683544305,54.94112615503337,54.860427989322986,54.54781113631354,54.90820111957356
71.0,54.88051432989866,55.27974683544305,54.94112615503337,54.860427989322986,54.54781113631354,54.90820111957356
73.0,54.88051432989866,55.27974683544305,54.94112615503337,54.860427989322986,54.54781113631354,54.90820111957356
75.0,54.88051432989866,55.27974683544305,54.955028188670454,54.880373525303014,54.55355444773491,54.91601257577433
77.5,54.88051432989866,55.27974683544305,54.94112615503337,54.860427989322986,54.54781113631354,54.90820111957356
80.0,54.88051432989866,55.27974683544305,54.94112615503337,54.860427989322986,54.55355444773491,54.90925888086785
82.5,54.88051432989866,55.246668686603556,54.94112615503337,54.85156899643522,54.55355444773491,54.90032208971617
85.0,54.88051432989866,55.27974683544305,54.94112615503337,54.871555166440956,54.55866678609509,54.912403732739946
87.5,54.88051432989866,55.27974683544305,54.94112615503337,54.860427989322986,54.56426544533326,54.91123460518094
90.0,54.88051432989866,55.27974683544305,54.94112615503337,54.87130219779736,54.56913580003665,54.91428555565338
92.5,54.88051432989866,55.246668686603556,54.94112615503337,54.85156899643522,54.56426544533326,54.90230188287826
95.0,54.88051432989866,55.27974683544305,54.94112615503337,54.87130219779736,54.56913580003665,54.91428555565338
97.5,54.88051432989866,55.27974683544305,54.94112615503337,54.882401584189026,54.56426544533326,54.91558703673674
100.0,54.88051432989866,55.27974683544305,54.955028188670454,54.880373525303014,54.55355444773491,54.91601257577433
103.0,54.946668686603545,55.27974683544305,54.99846548694855,54.880373525303014,54.55355444773491,54.937990337621414
106.0,54.946668686603545,55.27974683544305,55.04112615503338,54.89817048259856,54.53202242650052,54.946264712362535
109.0,54.980514329898654,55.313336662323024,55.054712234203976,54.90895071457135,54.53202242650052,54.96521828466773
112.0,55.04666868660354,55.313336662323024,55.0833718412058,54.94708894094484,54.53202242650052,54.99194827910624
115.0,55.11333666232302,55.313336662323024,55.141126155033376,54.94708894094484,54.5100244384556,55.013429790543526
118.0,55.11333666232302,55.34666868660355,55.16857091512722,54.97592777623804,54.48379703944498,55.027290731984266
122.0,55.21333666232303,55.34666868660355,55.224862763914004,55.00466620382463,54.48379703944498,55.06516725464628
125.0,55.21333666232303,55.34666868660355,55.26857091512721,55.02211183206474,54.46145107308713,55.07382204699108
128.0,55.27974683544305,55.34666868660355,55.33881687156246,55.03123859303338,54.45010810419963,55.10220114512765
132.0,55.313336662323024,55.34666868660355,55.35272628749554,55.068416967973775,54.45534948067923,55.12038007109065
136.0,55.34666868660355,55.38051432989867,55.394829977881884,55.0967409183892,54.45462597128335,55.14885988868325
140.0,55.446668686603545,55.38051432989867,55.466913727686645,55.11644376301079,54.464615439436855,55.19082262319766
145.0,55.446668686603545,55.38051432989867,55.49482997788188,55.154834769956565,54.469230915079905,55.20513055736346
150.0,55.446668686603545,55.38051432989867,55.50888076038592,55.18435123267044,54.484863623822335,55.2166233683766
155.0,55.51333666232303,55.38051432989867,55.5517406854172,55.18435123267044,54.48514278214459,55.23998903153449
160.0,55.51333666232303,55.38051432989867,55.5517406854172,55.20360374255378,54.49045425665156,55.244689771825065
165.0,55.48051432989867,55.38051432989867,55.55140958936195,55.20360374255378,54.50085033645661,55.239408291711456
170.0,55.48051432989867,55.38051432989867,55.565601324545426,55.21412572802676,54.51647621169302,55.2471869116756
175.0,55.48051432989867,55.34819767349738,55.565601324545426,55.224383633874126,54.51647621169302,55.242582805490414
180.0,55.446668686603545,55.34819767349738,55.55140958936195,55.21500871994637,54.52666522858823,55.232256437829236
185.0,55.38051432989867,55.34819767349738,55.522886230780855,55.2049628951401,54.569112191002304,55.21756976614115
190.0,55.38051432989867,55.314098244128076,55.522886230780855,55.19441865973489,54.584263579841206,55.211078656404524
195.0,55.38051432989867,55.314098244128076,55.50855399218831,55.19441865973489,54.631937416692,55.21629956128608
200.0,55.34819767349738,55.314098244128076,55.50855399218831,55.20425990954847,54.673836350667074,55.21893211727867
206.0,55.31487742722287,55.314098244128076,55.522886230780855,55.2134242241645,54.736084082720296,55.22804136400946
212.0,55.31487742722287,55.38051432989867,55.522886230780855,55.25480276555227,54.79318202079132,55.26012695908432
218.0,55.31487742722287,55.38051432989867,55.537171326801186,55.25480276555227,54.84084156666073,55.27175894919601
224.0,55.31487742722287,55.38051432989867,55.56593134046254,55.25480276555227,54.88205763484352,55.28537247532408
230.0,55.31487742722287,55.38051432989867,55.56593134046254,55.25480276555227,54.89232762647562,55.28724612553478
236.0,55.28281640648555,55.34819767349738,55.59450215073515,55.23575050044167,54.865690750922894,55.27169954224722
240.0,55.28281640648555,55.280514329898665,55.59450215073515,55.16630524089793,54.79207467144715,55.23087668669692
250.0,55.28281640648555,55.18051432989867,55.59450215073515,55.099432122688214,54.68120104898854,55.17768720310602
258.0,55.35125484331242,55.08281640648556,55.58007577824661,54.970880335676995,54.49183289961836,55.11086778704522
265.0,55.382816406485574,54.982816406485554,55.552064220421286,54.83529394060949,54.239490139901065,55.02243540689801
272.0,55.382816406485574,54.81795813433048,55.53749594895618,54.649128549728886,53.96178454269544,54.90569817620242
280.0,55.35125484331242,54.58665184579765,55.481054971520834,54.48474459262928,53.64179208831804,54.75905218670063
290.0,55.31795813433047,54.42257714016277,55.424514617422545,54.30086978221007,53.31184850504246,54.622164178795245
300.0,55.28281640648555,54.255838589935266,55.39677438892922,54.11905566501363,52.94960854417144,54.4895673190631
307.0,55.28281640648555,54.061946508766084,55.296461457107796,53.93444248928019,52.58257130453735,54.34421398273871
315.0,55.251254843312424,53.86194650876611,55.22647611192865,53.783107858177715,52.21949920082541,54.20683436622265
325.0,55.18281640648557,53.69891389047059,55.15435876517746,53.62844131769161,51.873638195680996,54.07014582138399
335.0,55.08281640648556,53.498913890470575,55.06854088212363,53.48939254397568,51.55307019920919,53.922418476181676
345.0,55.05125484331242,53.36957540217777,54.9977574555073,53.395844605528595,51.23319598663171,53.81908707091863
355.0,54.95125484331243,53.207334028278964,54.92745247893244,53.324869125789604,50.97788844676647,53.70419581068984
365.0,54.88281640648556,53.10733402827897,54.883341910382,53.27056495476762,50.729636448428025,53.62037740077017
375.0,54.85125484331243,53.0787212867523,54.86920812331172,53.25943523705811,50.54825467549911,53.582648434915384
387.0,54.85125484331243,53.0787212867523,54.883341910382,53.29340448653022,50.431145723490204,53.58129665750536
400.0,54.85125484331243,53.0787212867523,54.954358765177474,53.33733997380206,50.339275772386955,53.600045349671646
412.0,54.95125484331243,53.17872128675231,55.05435876517747,53.43010208136742,50.336063136749814,53.68904196000592
425.0,55.05125484331242,53.31727460844331,55.15435876517746,53.56663771242064,50.35875583772204,53.79575536534898
437.0,55.15125484331243,53.450576538286015,55.28334191038199,53.699880093117656,50.41692478570272,53.91222233685413
450.0,55.251254843312424,53.65057653828603,55.43945846000305,53.83405196444137,50.49348351235385,54.05018053824601
462.0,55.42018851489796,53.822895096537394,55.56821857229626,53.993096630906095,50.55635919609752,54.19754747058538
475.0,55.45125484331244,53.989379402259246,55.696476549173255,54.09309663090609,50.54330361212426,54.28983045062212
487.0,55.48665184579764,54.18937940225925,55.75336582451958,54.20316990968426,50.501563930470354,54.370204606585006
500.0,55.45125484331244,54.32289509653738,55.766913727686656,54.244500527023646,50.35151535107936,54.386687932915876
515.0,55.355838589935274,54.4228950965374,55.739458460003036,54.26717457617313,50.11508161751928,54.36113616101491
530.0,55.22018851489794,54.4843918586284,55.63945846000304,54.23908200358535,49.83881707040693,54.286705875585184
545.0,55.05583858993526,54.55057653828602,55.53945846000305,54.17734815849123,49.52892403578923,54.19919566430909
560.0,54.86194650876608,54.58439185862841,55.39710967639401,54.07850932815124,49.262835518138914,54.0836468231373
580.0,54.66194650876609,54.540711977814865,55.269208123311714,53.99037043009476,48.99474204483528,53.956612233227304
600.0,54.532356367465226,54.50324368610285,55.11245941381242,53.851073600280245,48.816530274572415,53.835949982670115
615.0,54.432356367465204,54.432356367465204,55.02745247893243,53.72672834296476,48.71497467579276,53.74181823756068
630.0,54.36957540217777,54.33235636746521,54.95728421614618,53.616475980295746,48.67211354585824,53.66016730646173
650.0,54.432356367465204,54.225514029827735,54.97246864193876,53.5148265321227,48.712638839687116,53.63714739952259
670.0,54.46957540217777,54.05583858993526,55.01602924031512,53.418458224188456,48.786666151433124,53.606086118683194
690.0,54.63235636746522,53.917958134330476,55.0770316760687,53.32261448214511,48.920901169781516,53.62424517050981
710.0,54.76957540217778,53.74976171801781,55.17703167606871,53.23137011755328,49.02659312096132,53.64273531973065
730.0,54.96957540217775,53.54744204849598,55.292147334439406,53.159729400639506,49.14659644874507,53.68377778065516
750.0,55.06957540217776,53.3820667813408,55.366678851096694,53.087237510779616,49.20405926023925,53.69262181700765
775.0,55.16957540217777,53.182066781340794,55.45147413320775,53.00925134540907,49.2044509944145,53.695766833353346
800.0,55.16957540217777,52.98517084276965,55.51064726708046,52.91596183594619,49.110329497920816,53.65685968360283
825.0,55.10733402827897,52.78982483324596,55.49524476030123,52.83825628304358,48.88616066986057,53.572774080387816
850.0,54.94071197781487,52.63355657903752,55.45147413320775,52.72837614741985,48.57611255765224,53.44654809927678
875.0,54.77872128675229,52.47446612663508,55.408059826403715,52.629507555033925,48.157786111813195,53.31761840150229
900.0,54.55057653828602,52.36863230699308,55.3205467587502,52.530744500015444,47.7357320858446,53.166337840318775
925.0,54.28937940225924,52.297674733091554,55.233583815194734,52.409922244075105,47.262689727821666,53.00748728930226
950.0,54.061944963343606,52.18957539101059,55.16150927291244,52.33030946350699,46.80874448566102,52.866991247185595
975.0,53.87481141580135,52.184723522211115,55.10552979288238,52.236633529479334,46.37770179492772,52.76105832264494
1000.0,53.67481141580133,52.18305067373234,55.063051270617294,52.145719800808706,46.01510202595773,52.662686281653365
1030.0,53.615209466789864,52.252199327519506,55.108059826403704,52.07194831023047,45.73181847457373,52.651076722252625
1060.0,53.515209466789855,52.33073507045525,55.123417030938455,51.97976741290789,45.487455273951795,52.620535606611114
1090.0,53.53036811554668,52.43073507045524,55.169872104293745,51.92368039392963,45.324595181584684,52.64394934722155
1120.0,53.53036811554668,52.563181445738564,55.26108208947646,51.87900193007988,45.188210241493366,52.6897846640848
1150.0,53.55616313276455,52.66318144573856,55.33686435756404,51.80484075430029,45.08774567208232,52.72745724088985
1180.0,53.63036811554669,52.76318144573858,55.39633574972133,51.70484075430029,44.979485650623985,52.76749279958567
1220.0,53.656163132764576,52.863181445738576,55.44279721912136,51.65565846060727,44.87805983489753,52.80001288912551
1250.0,53.75616313276457,52.91727877121208,55.47259480776057,51.58261019884026,44.745529854624166,52.83123331181558
1280.0,53.78916931970325,52.91727877121208,55.46108144210011,51.45849810360666,44.60241283628248,52.81243526731997
1320.0,53.81520946678987,52.91727877121208,55.43120448104443,51.40100380814387,44.446992497718256,52.795008812267284
1360.0,53.87481141580135,52.89613453857312,55.372594807760564,51.31992713402447,44.2872998290004,52.76816197307906
1400.0,53.90154422233199,52.863181445738576,55.2846181566826,51.20100667742034,44.122999932873455,52.71488193267943
1450.0,53.96194496334358,52.842260056098254,55.21070830001098,51.09138254139677,43.955347818219295,52.68009742281831
1500.0,54.05057653828602,52.74226005609826,55.15247493755588,51.00820592314106,43.76779900697835,52.64642920443568
1550.0,54.21231901590862,52.64226005609824,55.08461815668258,50.86982252559929,43.56786349491513,52.62397793721048
1600.0,54.41231901590862,52.58895824264708,55.04036214602898,50.75224951894545,43.35035589507436,52.63605021570784
1650.0,54.640711977814874,52.409656409294485,55.014776396288724,50.63172026809575,43.081531295249206,52.64146808631445
1700.0,54.86957540217777,52.33073507045525,55.0353476996457,50.51789569479541,42.803749537791575,52.68788965674855
1750.0,55.16957540217777,52.23073507045524,55.05467728448947,50.40391952036906,42.560272046885885,52.75987806541936
1800.0,55.46957540217777,52.12041365501479,55.10372268048776,50.30391952036905,42.357529436982375,52.84931416109855
1850.0,55.71231901590862,51.996305027214746,55.15626493670591,50.19466142920041,42.20459380049947,52.922365859269846
1900.0,55.922895096537374,51.918956656554485,55.22382509468578,50.0832514661422,42.07903686496316,53.00025101773595
1950.0,56.08235839439669,51.79694157979662,55.30586684823308,49.98325146614219,41.983475885619285,53.06075057920124
2000.0,56.123662726135436,51.72065437146935,55.42547440601527,49.91878626277307,41.885018438174086,53.09877386007631
2060.0,56.152201147311615,51.6085029367262,55.504700306741995,49.867731608358326,41.757633726415165,53.11465772941908
2120.0,56.073839491170716,51.56513394010203,55.62275180772055,49.807527579450024,41.63250775649705,53.11132687303639
2180.0,55.91130229951145,51.44701242403916,55.70243893162076,49.76151870738187,41.47280395871488,53.05367575599428
2240.0,55.661095188203234,51.36357017711899,55.77488621874545,49.710972006484766,41.31606846511556,52.96755353801568
2300.0,55.345059923821196,51.256718955025704,55.812841058201556,49.67047182127186,41.15874163628165,52.8465758606111
2360.0,55.01108230822959,51.116706961386726,55.88836725849906,49.64373777882501,41.00482320778025,52.73736820786998
2400.0,54.540556860002056,50.9772463451048,55.902438931620765,49.62061264546354,40.847883378706385,52.566080134933955
2500.0,54.072594587241014,50.83833443668631,55.88836725849906,49.56181944055638,40.70908434566657,52.389969433377914
2580.0,53.51290623569159,50.699968441606,55.80243893162074,49.50071564644554,40.54397797251386,52.163793952676784
2650.0,52.87681748556359,50.46214544305077,55.73770590196585,49.44539046203897,40.35022566225591,51.92456359322061
2720.0,52.280223515510585,50.2248624047606,55.654816289544186,49.386635389647765,40.160207223960285,51.69827904005936
2800.0,51.70444475631351,50.02486240476058,55.502438931620745,49.338479065276715,39.95071085622679,51.45760305985223
2900.0,51.11460244168032,49.82486240476061,55.392708574689806,49.281763750596156,39.75221603478532,51.24285168321718
3000.0,50.56954463061048,49.624862404760606,55.219688553433144,49.22299078890863,39.553006517114085,51.0106846038761
3070.0,50.1353472913009,49.3982731867432,55.10243893162077,49.21231580111741,39.3422933021846,50.835097743461375
