Freq,On Axis,Listening Window,Sound Power,Early Reflections,Early Reflections DI,Sound Power DI,DI offset
22.4,42.599999999999994,41.05468106313586,44.18773766360462,43.13244547258611,37.92223559054975,36.86694339953124,40
23.0,44.30000000000001,42.606631645533525,45.80845688941557,44.6973337195119,37.90929792602162,36.79817475611796,40
23.6,45.900000000000006,44.26548360421407,47.426267912587065,46.36071447626364,37.90476912795043,36.839215691627004,40
24.0,48.19999999999999,46.434789055624236,49.72871943073437,48.80584126544525,37.628947790178984,36.706069624889864,40
25.0,50.30000000000001,48.55808593682653,51.93914277868254,51.18116130495358,37.37692463187295,36.61894315814399,40
25.8,52.19999999999999,50.71592860956417,53.958085437252095,53.452957721919944,37.26297088764423,36.75784317231208,40
26.5,53.900000000000006,53.106471864412526,55.61213836646414,55.48324730665192,37.62322455776061,37.49433349794839,40
27.2,54.80000000000001,54.07101010271745,55.20084988232995,55.36046686844804,38.71054323426941,38.870160220387504,40
28.0,55.80000000000001,55.74863046205945,55.89635828677493,56.1060392517071,39.64259121035235,39.852272175284526,40
29.0,56.80000000000001,57.611618543036656,57.0528069756061,57.32376894939799,40.28784959363867,40.55881156743055,40
30.0,57.900000000000006,58.9165435183931,58.541277961349664,58.60109860901835,40.31544490937475,40.375265557043434,40
30.7,59.400000000000006,60.46501979579432,60.86909936771488,60.51510061037153,39.949919185422786,39.59592042807944,40
31.5,60.69999999999999,62.07733245529961,62.91186942668669,62.361684492924084,39.71564796237553,39.16546302861292,40
32.5,61.900000000000006,63.29258949350172,64.40651732679103,63.792708031242455,39.49988146225927,38.88607216671069,40
33.5,63.400000000000006,64.17880423022771,64.62375492836723,64.38253387505836,39.796270355169355,39.55504930186048,40
34.5,64.9,65.27804753056928,65.11305687580206,65.20234125852443,40.075706272044854,40.16499065476722,40
35.5,66.2,66.49060106904402,65.82041123210156,66.1971438821306,40.293457186913415,40.670189836942455,40
36.5,67.6,67.69284741900483,66.82246207363707,67.33286160657485,40.35998581242998,40.870385345367765,40
37.5,68.7,68.50358835440142,67.43562834984016,68.10102264905632,40.4025657053451,41.06796000456126,40
38.7,69.8,69.35524977883998,68.14100983664144,68.9999245316758,40.355325247164174,41.21423994219853,40
40.0,71.70000000000002,71.74084713227168,70.87922925525855,71.638916571887,40.10193056038469,40.86161787701313,40
41.2,73.4,73.95523739675323,73.475925649547,74.11477934766467,39.84045804908857,40.47931174720624,40
42.5,74.8,75.5264965975143,75.01111425790452,75.60778079665707,39.91871580085723,40.51538233960977,40
43.7,75.9,76.67049686744082,75.89436093978057,76.49270250854875,40.17779435889207,40.77613592766025,40
45.0,77.0,77.7128604497635,76.96444945046451,77.49546375857662,40.21739669118688,40.74841099929898,40
46.2,78.3,78.65161122581395,78.67600831627868,78.91132859320253,39.740282632611425,39.97560290953527,40
47.5,80.0,79.5915375711912,80.90612314078513,80.69886853888491,38.89266903230629,38.68541443040607,40
48.7,80.5,80.53473829247133,78.90053178466901,80.09922863045446,40.43550966201687,41.63420650780232,40
50.0,80.9,80.90315859760888,78.18943061165452,79.9221465227395,40.98101207486938,42.713727985954364,40
51.5,81.1,80.82786414551934,77.66396562727896,79.44380220808286,41.384061937436485,43.16389851824039,40
53.0,81.3,80.97705221299196,77.73234774471729,79.48713561418069,41.48991659881128,43.244704468274676,40
54.5,81.5,81.13598817007517,78.10454275665401,79.70120193977125,41.434786230303914,43.03144541342115,40
56.0,81.5,81.17010426152405,78.26405832818821,79.7617755908255,41.40832867069855,42.90604593333583,40
58.0,81.5,81.18726463019887,78.41093593442037,79.81750886171002,41.369755768488844,42.7763286957785,40
60.0,81.6,81.21857705333498,78.56234814063086,79.87657472103263,41.34200233230236,42.65622891270412,40
61.5,81.79999999999998,81.33061183704916,78.91215210021076,80.12085813147607,41.20975370557309,42.4184597368384,40
63.0,82.0,81.52117436204969,79.15405759873744,80.30872051762194,41.212453844427756,42.367116763312254,40
65.0,82.1,81.74898394447612,79.39392493688976,80.5110075453583,41.23797639911783,42.35505900758636,40
67.0,82.3,81.90184655594068,79.67963641761212,80.73744972243384,41.16439683350684,42.22221013832856,40
69.0,82.5,82.03161153170016,79.96039975026895,80.94856911003862,41.083042421661546,42.07121178143122,40
71.0,82.5,82.1724755604163,80.31454663014068,81.2393653099758,40.93311025044051,41.85792893027562,40
73.0,82.5,82.3358630202235,80.95268214656943,81.67400614690155,40.66185687332195,41.38318087365407,40
75.0,82.4,82.40076167153067,81.47937201657084,81.97326513748021,40.42749653405046,40.92138965495984,40
77.5,82.4,82.44472895057721,81.88700147433448,82.17098572618119,40.27374322439603,40.55772747624273,40
80.0,82.5,82.48900192004663,82.27843799555924,82.38711475387805,40.10188716616858,40.21056392448739,40
82.5,82.6,82.55583957685775,82.616416831103,82.58116080743375,39.974678769424,39.939422745754754,40
85.0,82.6,82.55583957685775,82.87971626772632,82.73544971873878,39.82038985811897,39.67612330913143,40
87.5,82.6,82.57797591781377,82.9796546877333,82.81070260534905,39.767273312464724,39.59832123008047,40
90.0,82.5,82.54498217571201,82.76394599992156,82.70954655007425,39.83543562563776,39.78103617579045,40
92.5,82.4,82.4784901971291,82.33678400869613,82.49241056370694,39.986079633422165,40.14170618843298,40
95.0,82.4,82.45635648403189,82.03160728409837,82.34877823575208,40.10757824827981,40.424749199933515,40
97.5,82.3,82.4234519411379,81.80948707771095,82.23601801049546,40.18743393064244,40.61396486342694,40
100.0,82.2,82.38003294234369,81.7297125867012,82.16822529883831,40.21180764350538,40.65032035564249,40
103.0,82.2,82.32370640988397,81.72572515808886,82.1456176620977,40.17808874778626,40.597981251795105,40
106.0,82.2,82.36768934561613,81.8051943987182,82.20370451329156,40.16398483232457,40.56249494689793,40
109.0,82.2,82.36794123556501,81.77748746723674,82.17847509046985,40.18946614509517,40.590453768328274,40
112.0,82.2,82.35686156553041,81.6891832402597,82.1237751715139,40.23308639401651,40.667678325270714,40
115.0,82.2,82.32394914498046,81.45730814305091,81.96939531542887,40.35455382955159,40.86664100192955,40
118.0,82.2,82.30152903140579,81.37901045470383,81.90427154859361,40.39725748281218,40.92251857670196,40
122.0,82.3,82.3010174732211,81.19874904463691,81.79861723962735,40.50240023359375,41.10226842858418,40
125.0,82.4,82.32343429349211,81.09487828428765,81.74448352917983,40.57895076431228,41.22855600920447,40
128.0,82.4,82.40101747322109,81.08504073499688,81.76027217643697,40.64074529678412,41.31597673822421,40
132.0,82.6,82.51324941795632,81.15396124669066,81.84604489499985,40.66720452295647,41.35928817126566,40
136.0,82.7,82.62419779300915,81.23344033292125,81.94966533545279,40.67453245755635,41.3907574600879,40
140.0,82.9,82.7470136092696,81.27714955602968,82.04506764534192,40.701945963927685,41.46986405323992,40
145.0,82.9,82.80227310466998,81.17327423705157,82.0273338551018,40.77493924956818,41.62899886761841,40
150.0,83.0,82.85002817087057,81.0710020209668,82.00381754965629,40.84621062121428,41.77902614990377,40
155.0,83.0,82.79503370089505,80.90310946427282,81.90117829864059,40.89385540225446,41.89192423662223,40
160.0,82.9,82.67443767358992,80.66210315672839,81.69972405552608,40.974713618063845,42.01233451686153,40
165.0,82.6,82.40993596878252,80.38866611360541,81.43435194160432,40.9755840271782,42.02126985517711,40
170.0,82.4,82.12507728941156,80.08455569104558,81.12641935807109,40.998657931340475,42.040521598365984,40
175.0,82.1,81.79375036648996,79.75741199053186,80.80808980531748,40.98566056117248,42.036338375958096,40
180.0,81.79999999999998,81.46595075720197,79.46247112028833,80.48206812954295,40.983882627659014,42.00347963691364,40
185.0,81.6,81.30953827322956,79.30188331866907,80.31809709440056,40.99144117882901,42.00765495456049,40
190.0,81.70000000000002,81.33193417257704,79.25155507790133,80.27909090504518,41.052843267531856,42.080379094675706,40
195.0,82.0,81.60342344991614,79.35876218432978,80.46568839419425,41.13773505572189,42.24466126558636,40
200.0,82.4,82.00522030260645,79.49570702223261,80.7517785801588,41.25344172244765,42.50951328037384,40
206.0,82.80000000000001,82.39238729474025,79.5402315458972,80.9117989429327,41.48058835180754,42.852155748843046,40
212.0,83.1,82.70069518812453,79.50662084082398,81.09272776740394,41.607967420720584,43.19407434730054,40
218.0,83.19999999999999,82.79321933698328,79.11534599700589,81.03213691820051,41.76108241878278,43.677873339977396,40
224.0,83.1,82.71777007279913,78.31454554714284,80.67175291860963,42.0460171541895,44.403224525656285,40
230.0,82.80000000000001,82.38455975111339,77.33773601147954,80.04389579711196,42.34066395400143,45.04682373963385,40
236.0,82.4,81.93988897427573,77.05926115535411,79.74545230923886,42.194436665036875,44.880627818921624,40
240.0,82.0,81.60447439991155,77.20958239109807,79.65074164834084,41.95373275157071,44.394892008813486,40
250.0,81.9,81.43191588209473,76.8925301990752,79.33516513663785,42.09675074545687,44.53938568301953,40
258.0,81.9,81.50832288362446,76.7196693246885,79.26827063424024,42.24005224938422,44.78865355893596,40
265.0,82.1,81.79574281473047,76.58424109661973,79.48685857367451,42.308884241055964,45.21150171811074,40
272.0,82.2,81.99348206026676,77.65027886070698,80.26063918604251,41.73284287422425,44.34320319955978,40
280.0,82.0,81.80609501432457,77.8775481326681,80.26090061865057,41.545194395674,43.92854688165647,40
290.0,81.5,81.3457138780181,77.6664032389907,79.9549254582113,41.390788419806796,43.679310639027406,40
300.0,81.1,80.99380855501585,77.39312085172656,79.61892196497588,41.374886590039964,43.60068770328928,40
307.0,81.2,81.10990983007525,77.88973350992478,79.95511743404175,41.1547923960335,43.22017632015047,40
315.0,81.70000000000002,81.71473135188027,79.26582476910956,80.92708096918945,40.78765038269083,42.44890658277072,40
325.0,82.4,82.2794618135131,79.89566355474442,81.41429849996544,40.865163313547654,42.38379825876868,40
335.0,82.7,82.46087646374352,80.30094292569676,81.6358526849879,40.82502377875562,42.15993353804676,40
345.0,82.6,82.1893380261081,79.48303441940526,81.01816392692902,41.17117409917908,42.706303606702846,40
355.0,82.2,81.74861062824814,78.47988580858802,80.25593623900059,41.492674389247554,43.26872481966012,40
365.0,82.0,81.54214169304396,77.71831817934552,79.72216097220308,41.819980720840874,43.82382351369844,40
375.0,82.3,81.84375660355641,77.49861847478664,79.69765715710204,42.14609944645437,44.345138128769776,40
387.0,82.6,82.26743228115343,77.52621915879148,79.97109661712653,42.2963356640269,44.741213122361955,40
400.0,82.5,82.19022975179658,77.10946167454874,79.76920602988173,42.42102372191485,45.08076807724784,40
412.0,82.0,81.66124898981187,76.4558506008153,79.25807336719852,42.40317562261335,45.20539838899657,40
425.0,81.4,81.15699423079471,76.04537038582934,78.85718683345578,42.299807397338924,45.111623844965365,40
437.0,81.2,81.01911818398133,76.10742393657401,78.84177008272341,42.17734810125792,44.911694247407326,40
450.0,81.2,81.04788028799686,76.24718096423298,78.86810677818673,42.17977350981013,44.80069932376388,40
462.0,81.2,80.92716564509062,75.78946052284711,78.44042450474737,42.486741140343256,45.13770512224352,40
475.0,81.0,80.49851343270386,74.87261691919475,77.68688628227356,42.8116271504303,45.625896513509105,40
487.0,81.2,80.50801298471643,74.75988758424701,77.45656956045097,43.05144342426546,45.74812540046942,40
500.0,81.79999999999998,81.10901507594637,75.0180633659684,77.74260688737715,43.366408188569224,46.09095170997797,40
515.0,82.3,81.73191480155666,75.47141815207257,78.31941521451498,43.41249958704168,46.26049664948408,40
530.0,82.6,82.13360949870822,75.97034171669246,78.78598446100145,43.34762503770678,46.163267782015765,40
545.0,82.7,82.45308683151009,76.37882038551179,79.22570867584741,43.22737815566268,46.074266445998305,40
560.0,82.7,82.51633864058397,76.40331950163112,79.39579588822018,43.12054275236379,46.11301913895285,40
580.0,82.4,82.24001195932749,75.89300289219307,79.11378970830785,43.12622225101964,46.34700906713442,40
600.0,82.2,82.1757881211066,75.78751112372909,79.11408780948992,43.06170031161669,46.38827699737752,40
615.0,82.4,82.3749605873864,76.03719231734976,79.39825923338816,42.97670135399824,46.337768270036634,40
630.0,82.3,82.28994724567558,76.09780420643673,79.43061352663885,42.85933371903673,46.19214303923884,40
650.0,82.0,81.92794737970091,75.85933451006696,79.11544129933691,42.812506080364,46.06861286963395,40
670.0,81.6,81.32303113407079,75.12426106533823,78.3072402126687,43.015790921402086,46.19877006873256,40
690.0,81.0,80.57757323214972,73.92099253943243,77.23370024610868,43.343872986041035,46.656580692717284,40
710.0,81.0,80.43576250868858,73.70428210451192,77.18721828240324,43.24854422628535,46.731480404176665,40
730.0,81.3,80.65440854341557,73.78079028431213,77.3843012523533,43.270107291062274,46.87361825910344,40
750.0,81.79999999999998,80.85604064939413,73.64324288647487,77.49409672137428,43.361943928019855,47.212797762919266,40
775.0,82.4,81.19003210427857,73.78844000223643,77.85806940339275,43.331962700885825,47.401592102042144,40
800.0,82.7,81.37876169724242,74.32643666140233,78.42953555927264,42.94922613796979,47.0523250358401,40
825.0,82.7,81.19534241432372,74.12917997433766,78.20783583405262,42.9875065802711,47.06616243998606,40
850.0,82.7,80.92339144157577,73.57086316700068,77.6374616059239,43.28592983565187,47.35252827457509,40
875.0,82.6,80.82099001120146,73.45868690819756,77.44964627261083,43.371343738590625,47.362303103003896,40
900.0,82.5,80.41599624510619,73.03377110588858,77.00795435574466,43.40804188936153,47.38222513921761,40
925.0,82.4,79.97291640955052,72.43331329830082,76.36194061056474,43.61097579898578,47.539603111249704,40
950.0,82.3,79.88566419399045,72.59213058293588,76.32010746731444,43.56555672667601,47.29353361105457,40
975.0,82.2,79.68971166660558,72.27798021417878,76.09274394199534,43.59696772461024,47.41173145242679,40
1000.0,82.1,79.5330758571072,71.96525363135592,75.8914709639723,43.64160489313491,47.567822225751286,40
1030.0,81.79999999999998,78.97245438145711,71.74379294644433,75.53469892687013,43.43775545458698,47.22866143501278,40
1060.0,81.1,78.17294058077911,70.79135214646148,74.64486836931744,43.52807221146168,47.381588434317635,40
1090.0,80.6,77.71973064342806,70.62799523175481,74.59143865219903,43.128291991229034,47.091735411673255,40
1120.0,80.69999999999999,77.74889074344652,70.68596620006608,74.8172613031762,42.93162944027033,47.06292454338045,40
1150.0,81.3,78.29635076068513,70.92067500852343,75.2635669248966,43.032783835788535,47.3756757521617,40
1180.0,81.79999999999998,78.66020725845858,70.33550985383556,75.03493021955082,43.62527703890777,48.32469740462302,40
1220.0,82.3,79.08142149238591,70.55083856485834,75.33856555723028,43.74285593515563,48.530582927527576,40
1250.0,82.6,79.331026198823,70.8357087574493,75.53265230984384,43.79837388897916,48.4953174413737,40
1280.0,82.6,79.44582729838719,71.2139356243147,75.74360892069868,43.70221837768851,48.231891674072486,40
1320.0,83.0,79.72489776748476,71.32260827764271,75.79677105023023,43.92812671725453,48.40228948984205,40
1360.0,83.3,80.06451201252902,71.99552328523627,76.12353827705226,43.94097373547676,48.06898872729275,40
1400.0,82.80000000000001,79.48195258708311,71.73720303262331,75.65161436095997,43.830338226123146,47.7447495544598,40
1450.0,82.2,79.07972560869244,71.75203854228954,75.74461642662901,43.335109182063434,47.3276870664029,40
1500.0,82.2,79.22220955794553,71.55677148465827,75.71805489065912,43.504154667286414,47.66543807328726,40
1550.0,82.2,79.43439635343391,71.51430851897271,75.73835831004877,43.696038043385144,47.9200878344612,40
1600.0,82.3,79.63856934130732,71.8465712838634,75.96590576499015,43.67266357631716,47.79199805744392,40
1650.0,82.6,80.02507470365134,72.09137162270704,76.25399370299036,43.771081000660985,47.9337030809443,40
1700.0,82.6,80.46217440814493,72.62331402704828,76.66937095908555,43.79280344905938,47.83886038109665,40
1750.0,82.6,80.62575174328767,72.64452416997149,76.74414586867714,43.88160587461053,47.981227573316175,40
1800.0,82.7,80.95680522799069,73.16063771436747,77.25983085621561,43.69697437177507,47.79616751362322,40
1850.0,82.80000000000001,81.02887691898891,72.78153975432176,76.98559684398026,44.04328007500865,48.24733716466716,40
1900.0,83.0,81.23096093584773,72.71478029358201,76.8783314765714,44.35262945927633,48.516180642265724,40
1950.0,83.0,81.17095334405792,72.61803162276063,76.74611199699251,44.42484134706541,48.552921721297295,40
2000.0,82.9,81.21120173252595,72.85732080665838,76.8290372911367,44.38216444138925,48.35388092586757,40
2060.0,82.80000000000001,81.13124181058672,72.81118211868518,76.84718149570531,44.2840603148814,48.320059691901534,40
2120.0,82.4,81.0891611669044,72.91203733099191,76.86411650301868,44.225044663885726,48.1771238359125,40
2180.0,81.70000000000002,80.80861860809866,72.82139956234536,76.76843273776052,44.040185870338135,47.98721904575329,40
2240.0,81.4,80.48838425545351,72.09885280195726,76.17419625446499,44.31418800098852,48.38953145349625,40
2300.0,82.2,81.19225066505238,72.76215403132687,76.65940053930565,44.532850125746734,48.43009663372551,40
2360.0,82.7,81.58769957102156,73.20531875569861,77.07839793242442,44.50930163859714,48.382380815322946,40
2400.0,82.80000000000001,81.71581510287851,73.39538638276221,77.43954232631042,44.27627277656809,48.3204287201163,40
2500.0,82.6,81.64365267774382,73.45800633326593,77.41966231031729,44.223990367426524,48.18564634447789,40
2580.0,82.2,81.2100101684234,73.31996478391675,76.98536970148919,44.224640466934204,47.89004538450665,40
2650.0,81.6,80.35185138820496,72.53322255975984,76.07986015894383,44.27199122926113,47.81862882844513,40
2720.0,81.9,80.42834311110221,72.22834706281981,75.93672436214365,44.49161874895856,48.1999960482824,40
2800.0,81.4,79.90502130191553,71.72312452707006,75.47515881896484,44.42986248295068,48.18189677484547,40
2900.0,81.0,79.68790295789981,71.44515112333,75.26834170268882,44.41956125521099,48.2427518345698,40
3000.0,81.2,79.92950851468837,71.47373465843819,75.42635268344976,44.5031558312386,48.455773856250175,40
3070.0,81.9,80.47860954213208,71.849043634109,75.9661063258613,44.51250321627077,48.62956590802308,40
3150.0,82.6,80.6343415964928,71.79235574929677,76.05094711154949,44.58339448494331,48.84198584719603,40
3250.0,82.4,80.23323044738686,71.3006352644669,75.59027578981627,44.642954657570584,48.932595182919954,40
3350.0,82.0,79.89054589097998,70.80613597595215,75.01692705438917,44.87361883659081,49.084409915027834,40
3450.0,82.0,79.80549405519187,70.70637952203936,74.74755287674778,45.057941178444096,49.099114533152516,40
3550.0,81.79999999999998,79.56155886703907,70.5078530978972,74.47974719561032,45.08181167142875,49.05370576914187,40
3650.0,81.0,79.19390260332948,70.30585553169675,74.0842547244083,45.10964787892118,48.88804707163273,40
3750.0,80.69999999999999,79.34015791075825,70.5585454222558,74.40141391473698,44.93874399602127,48.78161248850245,40
3870.0,81.0,80.07264108944423,71.12939680203534,75.25346033086792,44.81918075857631,48.94324428740889,40
4000.0,81.70000000000002,80.8394638155255,71.34278478160559,75.75321999423106,45.086243821294445,49.49667903391992,40
4120.0,82.1,80.45947752044428,70.6261868325223,75.17845857628696,45.281018944157324,49.83329068792199,40
4250.0,81.6,80.10383042919432,70.36803178486385,74.77441009319648,45.32942033599784,49.73579864433047,40
4370.0,82.3,80.99760821775108,71.31110168835734,75.6669440730273,45.330664144723784,49.68650652939374,40
4500.0,82.80000000000001,81.25852843348932,71.63604856376179,75.8836365685363,45.374891864953014,49.62247986972753,40
4620.0,83.0,81.17657787515412,71.37043122016209,75.7032821372602,45.47329573789392,49.806146654992034,40
