Freq "On Axis"
20.0 11.55796387671819
20.2909 13.0638163193683
20.586 14.54598766473896
20.8855 15.909414842662585
21.1893 17.002719435220172
21.4975 17.815316990360117
21.8102 18.376363282383352
22.1274 18.761873813773434
22.4492 19.11339264867547
22.7758 19.619931869433003
23.1071 20.426026949322278
23.4432 21.500766856226562
23.7841 22.645577158613833
24.1301 23.679042035301904
24.4811 24.554620120001573
24.8372 25.302322023708342
25.1984 26.00061354961494
25.5649 26.721994677549276
25.9368 27.489968894312
26.3141 28.27750765545713
26.6968 29.040127045241263
27.0851 29.755779293537074
27.4791 30.44749812085078
27.8788 31.155229888511485
28.2843 31.899424618764414
28.6957 32.66111039543807
29.1131 33.40621466052721
29.5365 34.115249875511495
29.9661 34.79817967551773
30.402 35.49152508901241
30.8442 36.2267777947651
31.2929 36.99398312975978
31.748 37.76666787725395
32.2098 38.52386806245778
32.6783 39.266609760040694
33.1536 40.0173991047659
33.6359 40.7892653408862
34.1251 41.57368530571978
34.6215 42.348176700657746
35.125 43.107211466189824
35.6359 43.85983081300782
36.1543 44.622522736064354
36.6802 45.39523543051058
37.2137 46.164046934333356
37.755 46.92735079807653
38.3041 47.69316681860025
38.8613 48.46990807497535
39.4265 49.251593219158224
40.0 50.01966226925474
40.5818 50.77762762921445
41.1721 51.53752508901243
41.771 52.28835878862088
42.3785 52.98716681860023
42.9949 53.618468196181865
43.6203 54.22432202370835
44.2548 54.878209226959484
44.8985 55.59166787725397
45.5515 56.30515420906116
46.2141 56.970181602968196
46.8863 57.59275109434802
47.5683 58.20283638213397
48.2602 58.79843850156688
48.9621 59.3655282755704
49.6743 59.897104668820376
50.3968 60.398135628692216
51.1299 60.865620120001566
51.8736 61.30158927514904
52.6281 61.71049812085079
53.3936 62.089409037008906
54.1702 62.43532202370835
54.9581 62.75377929353709
55.7575 63.04829347940954
56.5685 63.31637980251109
57.3914 63.55755866033755
58.2261 63.77681001979457
59.073 63.97159321915822
59.9323 64.14935690027588
60.804 64.32198437828583
61.6884 64.50187493895416
62.5857 64.68955903908969
63.496 64.87658927514903
64.4196 65.05861354961495
65.3566 65.23423543051058
66.3073 65.39948060499155
67.2717 65.55285003722452
68.2502 65.69832128721478
69.2429 65.84635973564764
70.2501 66.01190909090063
71.2719 66.194889176173
72.3086 66.38185003722452
73.3603 66.55679305509977
74.4274 66.73477452141239
75.5099 66.91435973564764
76.6083 67.06305493852442
77.7226 67.22481902722495
78.8531 67.42661354961496
80.0 67.65275109434802
81.1636 67.90218160296818
82.3442 68.16591801816053
83.5419 68.42958765882346
84.757 68.68035973564764
85.9899 68.91673814458073
87.2406 69.14422919423737
88.5096 69.38626534088621
89.797 69.6393212872148
91.1031 69.87483081300783
92.4282 70.07181181896559
93.7726 70.23777452141238
95.1366 70.39472030144032
96.5204 70.56517670065773
97.9243 70.74761807657129
99.3486 70.94258584317186
100.794 71.13757007177188
102.26 71.31158584317186
103.747 71.46909381519711
105.256 71.60958584317186
106.787 71.73106227239757
108.34 71.81952413879091
109.916 71.85898744397754
111.515 71.88148027767221
113.137 71.92843848845766
114.783 71.9653859925355
116.452 71.97838599253551
118.146 71.98194530944279
119.865 71.98504684630129
121.608 71.97607792869672
123.377 71.97093172502649
125.171 71.96674568474627
126.992 71.9411556271391
128.839 71.88916311040092
130.713 71.80925060636292
132.615 71.7117974910511
134.543 71.62125060636292
136.5 71.55818694165438
138.486 71.49067476700317
140.5 71.38769963435165
142.544 71.2432128450919
144.617 71.09569111499296
146.721 71.01067476700317
148.855 70.9746828258765
151.02 70.92320398037154
153.217 70.83317876765939
155.445 70.75663124891499
157.706 70.63209345817
160.0 70.38058151360106
162.327 70.21309345817001
164.688 70.11961259821676
167.084 70.11161858486645
169.514 70.10509345817
171.98 69.81056539559377
174.481 69.56606363987986
177.019 69.44708378738815
179.594 69.39460684181765
182.206 69.37610404996221
184.856 69.4065960197735
187.545 69.44159601977353
190.273 69.49708850765253
193.041 69.50956539559378
195.849 69.48855042883704
198.697 69.45655042883703
201.587 69.34206363987988
204.52 69.15158151360106
207.494 68.96609863894008
210.512 68.85210969123584
213.574 68.83007929737742
216.681 68.80106720887157
219.833 68.68510969123584
223.03 68.5831345588327
226.274 68.54559601977351
229.565 68.58660684181763
232.905 68.52713455883269
236.292 68.5001345588327
239.729 68.53962480176608
243.216 68.6336013156697
246.754 68.58112799655942
250.343 68.42269963435164
253.984 68.38869963435164
257.678 68.3971787676594
261.426 68.43421284509189
265.229 68.39037344410549
269.087 68.1583859925355
273.001 68.09632555262755
276.972 68.20385505312886
281.0 68.20477607782837
285.088 68.23083133761443
289.234 68.31834903791552
293.441 68.4727760778284
297.709 68.384867256224
302.04 68.30294530944279
306.433 68.0399317250265
310.89 68.12142501914954
315.412 68.22134903791553
320.0 68.0487974910511
324.655 67.84028134479695
329.377 67.84483133761444
334.168 67.88876571656631
339.028 67.82875558553857
343.959 68.06267476700319
348.962 67.98760684181764
354.038 67.81959095412965
359.188 67.88356907971325
364.412 67.79203877201228
369.713 67.7650395779169
375.09 67.83905431444066
380.546 67.85812799655942
386.081 67.98569111499296
391.697 67.90876571656632
397.394 67.85784308025859
403.175 67.73393172502651
409.039 67.6976180765713
414.989 67.7153024082605
421.025 67.73097021607174
427.149 67.71754414683302
433.362 67.68658765882347
439.665 67.71309868066382
446.06 67.67967744455191
452.548 67.67509868066382
459.131 67.66658765882347
465.809 67.67703341267958
472.584 67.70452273606436
479.458 67.73837930512214
486.432 67.77926534088621
493.507 67.82863453856736
500.686 67.89057007177189
507.968 67.9569731689198
515.357 68.04539877118708
522.853 68.1363734441055
530.458 68.24227086841813
538.174 68.3542408206887
546.002 68.47370838395166
553.943 68.59764483395786
562.001 68.7321787676594
570.175 68.86563792631249
578.469 69.00063792631246
586.883 69.13114135135423
595.419 69.25563792631249
604.08 69.36910969123585
612.866 69.46861858486643
621.78 69.55859095412967
630.824 69.6280710081187
640.0 69.68056907971325
649.309 69.7040451041172
658.753 69.71453845540688
668.335 69.69754260005827
678.056 69.65907929737742
687.919 69.60369963435163
697.925 69.53384308025859
708.077 69.45265123075863
718.376 69.3700549385244
728.825 69.2955601423418
739.426 69.22968249981676
750.181 69.19698437828585
761.093 69.19572554834353
772.163 69.24154970041117
783.394 69.33021005138706
794.789 69.46691542558273
806.349 69.64475822114579
818.078 69.84997399395589
829.977 70.07319343999797
842.05 70.30036043486497
854.298 70.517472912467
866.724 70.70987381377343
879.33 70.87134575548062
892.12 70.99083238083074
905.097 71.06858984346218
918.262 71.09458310367538
931.618 71.07291526023306
945.169 71.00417728203668
958.917 70.8951258294846
972.864 70.76269502523655
987.015 70.62153628428611
1001.37 70.48588547843556
1015.94 70.37952144601361
1030.71 70.32898065887471
1045.71 70.33612169020388
1060.92 70.4079086882352
1076.35 70.52656326538346
1092.0 70.67587952809745
1107.89 70.82604694589678
1124.0 70.94408119884756
1140.35 71.01181582890545
1156.94 71.00893200336508
1173.77 70.92634480503295
1190.84 70.75946118421469
1208.16 70.52028695966649
1225.73 70.23711480053804
1243.56 69.95330454036525
1261.65 69.73886564837387
1280.0 69.67021005138704
1298.62 69.79036930021434
1317.51 70.10312328431704
1336.67 70.55672859628629
1356.11 71.08394766855717
1375.84 71.60161467313726
1395.85 72.05428633384899
1416.15 72.40804250754634
1436.75 72.64728759636716
1457.65 72.76954096018943
1478.85 72.79349815827344
1500.36 72.73889215903858
1522.19 72.64536412196351
1544.33 72.54952508901242
1566.79 72.49302069089066
1589.58 72.4951939683293
1612.7 72.5561556271391
1636.16 72.64454260005827
1659.95 72.7286828258765
1684.1 72.76333718015817
1708.6 72.73091837082696
1733.45 72.62887968954273
1758.66 72.47579749105111
1784.24 72.31828134479696
1810.19 72.20801668472399
1836.52 72.18530691224262
1863.24 72.25798437828584
1890.34 72.39193186943302
1917.83 72.5293457554806
1945.73 72.6098655054968
1974.03 72.59989424128035
2002.74 72.49508325784598
2031.87 72.33068741327138
2061.43 72.16792306655461
2091.41 72.07128633384899
2121.83 72.07349815827344
2152.69 72.14535069185358
2184.01 72.21354970041119
2215.77 72.19687493895415
2248.0 72.04534039634451
2280.7 71.76303957791689
2313.87 71.415867256224
2347.53 71.12598744397752
2381.68 70.99963792631246
2416.32 71.04103957791688
2451.46 71.13261858486645
2487.12 71.12050155544979
2523.3 70.9116436221852
2560.0 70.52461071729874
2597.24 70.10475812304206
2635.01 69.85691542558273
2673.34 69.86388217456444
2712.23 69.98487573941377
2751.68 69.99725509087939
2791.7 69.78155099358317
2832.31 69.41498685283877
2873.5 69.12134070178489
2915.3 69.07633310479382
2957.7 69.19427957316147
3000.72 69.23636810827898
3044.37 69.05950823122853
3088.65 68.73528998927168
3133.58 68.48040770827947
3179.16 68.45880163327942
3225.4 68.60886845438927
3272.31 68.7464068605403
3319.91 68.75683716550128
3368.2 68.66564890502568
3417.19 68.60744682146719
3466.89 68.7094393945529
3517.32 68.91430298825149
3568.48 68.99897021607175
3620.39 68.84585003722451
3673.05 68.65222194005219
3726.47 68.73850281938026
3780.67 69.03691118877866
3835.67 69.18641913457688
3891.46 69.1150779286967
3948.06 69.10745608898324
4005.49 69.28386527153575
4063.75 69.41387968954272
4122.86 69.40595912407439
4182.82 69.43535973564762
4243.66 69.53004188050093
4305.39 69.539047061312
4368.01 69.46876756924303
4431.55 69.37325704516991
4496.01 69.18437930512214
4561.4 68.9969946775493
4627.75 68.9147843688389
4695.06 68.7498470087081
4763.35 68.56112166453505
4832.64 68.64859095412966
4902.93 68.8571556271391
4974.24 69.04304343919824
5046.6 69.27477091248284
5120.0 69.41906720887158
5194.47 69.67658151360106
5270.03 70.10317670065773
5346.68 70.16687493895417
5424.45 70.11267074492565
5503.35 70.27478037068286
5583.4 69.9776436221852
5664.61 69.31828759636716
5747.01 69.00362012000157
5830.6 68.7631787676594
5915.41 68.46485505312886
6001.45 68.45806030114389
6088.74 68.65063124891498
6177.3 68.45061259821676
6267.15 68.56205719266404
6358.31 68.94079305509977
6450.8 68.73697316891979
6544.62 69.04953845540687
6639.82 69.02740544294193
6736.4 68.78561467313727
6834.38 68.86619343999799
6933.79 68.57259321915821
7034.64 68.57843939455292
7136.96 68.81306720887159
7240.77 69.04635069185358
7346.09 69.34897684350476
7452.94 69.41236013362676
7561.35 69.43077667919331
7671.33 69.52857848128714
7782.91 69.50673223927271
7896.12 69.53078666932369
8010.97 69.45635973564762
8127.49 69.480867256224
8245.71 69.56319823854109
8365.65 69.78703877201228
8487.33 70.06828047889482
8610.78 70.26817082390795
8736.03 70.26183638213396
8863.09 70.32260684181763
8992.01 70.26839877118707
9122.8 70.64107929737743
9255.5 70.78324987551147
9390.12 71.30762012000159
9526.7 71.52472112900895
9665.27 71.87153987402687
9805.86 71.93911829834632
9948.49 72.13374720030218
10093.2 71.98529205140845
10240.0 71.9951345588327
10388.9 72.0505015554498
10540.1 72.16181001979457
10693.4 72.54444282970225
10848.9 72.7295601423418
11006.7 73.07876571656632
11166.8 73.24505719266405
11329.2 73.54354605393242
11494.0 73.50476571656631
11661.2 73.74745988469186
11830.8 74.02481181896559
12002.9 74.03960976004066
12177.5 74.26432128721478
12354.6 74.10233718015816
12534.3 73.70203341267958
12716.6 73.48365241759313
12901.6 73.35892306655461
13089.2 73.37335079807657
13279.6 73.37445988469184
13472.8 73.20806227239757
13668.8 73.12617670065774
13867.6 73.34926516518311
14069.3 73.84852508901244
14273.9 74.37465119489191
14481.5 74.61550765545715
14692.2 74.69123543051057
14905.9 74.89974720030219
15122.7 74.98730691224264
15342.7 74.83723543051056
15565.8 74.64272371825182
15792.2 74.28750155544978
16021.9 73.91383081300785
16255.0 73.70745988469184
16491.4 73.48523543051057
16731.3 73.33325902762638
16974.7 73.10728285487127
17221.6 72.74774720030217
17472.1 72.42733119973798
17726.2 71.94199467754929
17984.0 71.42191801816054
18245.6 70.940968894312
18511.0 70.44999467754931
18780.2 70.00402069089066
19053.4 69.43186806245778
19330.5 68.94315420906116
19611.7 68.64649812085078
19897.0 68.38766787725397
