Freq,On Axis,Listening Window,Sound Power,Early Reflections,Early Reflections DI,Sound Power DI,DI offset
22.4,-3.584810126582326,-3.8466044692235783,-4.231675154553372,-3.9900100804903644,20.143405611266786,20.385070685329794,20
23.0,-2.4848101265823033,-2.7893805629561115,-3.111519827309664,-2.8911007587094417,20.10172019575333,20.322139264353552,20
23.6,-0.8848101265822805,-1.2880696190817247,-1.5743549191422659,-1.3578791730795245,20.0698095539978,20.28628530006054,20
24.0,0.915189873417674,0.4676306109421233,0.20810471032557132,0.42139911506093597,20.046231495881187,20.259525900616552,20
25.0,2.815189873417708,2.3371625284452335,2.0875194824162833,2.2870838970125504,20.050078631432683,20.24964304602895,20
25.8,4.815189873417708,4.208810081835949,3.9944338988825194,4.193261293725456,20.015548788110493,20.21437618295343,20
26.5,6.715189873417685,6.065676614118232,5.8981628121061505,6.083748857979074,19.981927756139157,20.16751380201208,20
27.2,8.615189873417691,7.965676614118209,7.775745753262029,7.961247458572146,20.004429155546063,20.18993086085618,20
28.0,10.515189873417697,9.825400306401676,9.652978333419824,9.830505036197891,19.994895270203784,20.17242197298185,20
29.0,12.415189873417674,11.72540030640171,11.532044176042561,11.714102159287549,20.01129814711416,20.19335613035915,20
30.0,14.215189873417685,13.588888072890839,13.404821573645975,13.581190057148447,20.007698015742392,20.184066499244864,20
30.7,16.11518987341769,15.477565026308028,15.276864112521864,15.446346738599132,20.031218287708896,20.200700913786164,20
31.5,18.715189873417685,18.07756502630805,17.87452618469605,18.04120217639688,20.03636284991117,20.203038841612,20
32.5,20.815189873417708,20.198675773262536,19.948483811759147,20.124833506799163,20.073842266463373,20.25019196150339,20
33.5,22.315189873417708,21.763029729699937,21.480198560525693,21.664401166139484,20.098628563560453,20.282831169174244,20
34.5,24.11518987341769,23.670366047781314,23.37482872845537,23.548965325982365,20.12140072179895,20.295537319325945,20
35.5,26.015189873417697,25.623077196628046,25.309890325221048,25.48335073874584,20.139726457882205,20.313186871406998,20
36.5,27.915189873417674,27.588472451692766,27.236882212256788,27.410795348682925,20.17767710300984,20.35159023943598,20
37.5,29.815189873417708,29.585948517893357,29.157538898673963,29.33832476488014,20.247623753013215,20.428409619219394,20
38.7,31.715189873417685,31.52897277121589,31.06231285599516,31.26010039466992,20.26887237654597,20.46665991522073,20
40.0,33.5151898734177,33.450314553599625,32.93604508915534,33.13879552931688,20.311519024282745,20.514269464444283,20
41.2,35.31518987341771,35.32846251922878,34.80038012682893,34.994461220446325,20.334001298782454,20.528082392399853,20
42.5,37.11518987341769,37.17306744033475,36.61242920480562,36.82007629504123,20.352991145293515,20.560638235529126,20
43.7,39.0151898734177,39.07430674188164,38.480077800287845,38.70892222060296,20.365384521278685,20.594228941593798,20
45.0,41.215189873417685,41.363457541142324,40.73623027686425,40.96354533699029,20.39991220415203,20.627227264278076,20
46.2,42.81518987341771,42.99669494574603,42.36501793923493,42.59606116510203,20.400633780644,20.631677006511097,20
47.5,44.31518987341771,44.48662284444386,43.827069862196865,44.06557445633253,20.42104838811133,20.659552982246993,20
48.7,45.91518987341769,46.165453284457,45.51504297743588,45.75884292556326,20.406610358893744,20.65041030702112,20
50.0,47.61518987341769,47.876050963239294,47.212064288737295,47.45616216781552,20.419888795423773,20.663986674502,20
51.5,49.31518987341771,49.5760509632393,48.91079438082316,49.15078196109866,20.425269002140638,20.665256582416134,20
53.0,51.0151898734177,51.2760509632393,50.61639341071721,50.865262176889814,20.410788786349485,20.65965755252209,20
54.5,52.715189873417685,52.9760509632393,52.35211974462827,52.59261079216952,20.38344017106978,20.623931218611034,20
56.0,54.91518987341769,55.09741440116994,54.47957820513267,54.72503761262948,20.372376788540464,20.617836196037274,20
58.0,56.715189873417685,56.90746153479462,56.27499755831168,56.52189182434084,20.38556971045378,20.63246397648294,20
60.0,58.215189873417685,58.38488286467026,57.770611700352404,58.026977812395984,20.357905052274276,20.614271164317856,20
61.5,59.715189873417685,59.86218619586539,59.26024086110749,59.508492368952474,20.353693826912917,20.6019453347579,20
63.0,61.315189873417694,61.37303856907826,60.76991470990593,61.011633903013504,20.361404666064757,20.603123859172328,20
65.0,62.715189873417685,62.771781392117404,62.17057262522361,62.42238056955753,20.349400822559872,20.60120876689379,20
67.0,64.0151898734177,64.0271750787776,63.43290420817402,63.68833894610712,20.33883613267048,20.59427087060358,20
69.0,65.3151898734177,65.29341708528442,64.69625193043922,64.95411330891987,20.339303776364545,20.5971651548452,20
71.0,66.21518987341769,66.23786646171881,65.65916573170526,65.91925791423766,20.318608547481148,20.57870073001355,20
73.0,66.91518987341767,66.9271750787776,66.32690803937939,66.5805418534709,20.34663322530669,20.600267039398204,20
75.0,67.5151898734177,67.4604311573518,66.87882887057597,67.12432512848308,20.336106028868727,20.581602286775833,20
77.5,67.9151898734177,67.9159573678733,67.30873407319687,67.57479875259808,20.34115861527522,20.60722329467643,20
80.0,68.31518987341768,68.22718088667371,67.62079354266014,67.88793381962384,20.339247067049868,20.60638734401357,20
82.5,68.5151898734177,68.43863588703935,67.80815646273915,68.08436725661073,20.35426863042862,20.630479424300205,20
85.0,68.61518987341769,68.51621912742002,67.88266049190058,68.16770331046716,20.348515816952855,20.633558635519435,20
87.5,68.61518987341769,68.53863588703935,67.87634114517077,68.17359404663532,20.365041840404032,20.66229474186858,20
90.0,68.5151898734177,68.49342293850157,67.81840461392648,68.1152984763442,20.378124462157373,20.675018324575092,20
92.5,68.5151898734177,68.43863588703935,67.74436358140069,68.05055826525745,20.388077621781903,20.694272305638663,20
95.0,68.41518987341769,68.37128791155293,67.64353723999989,67.97061712159687,20.400670789956052,20.72775067155304,20
97.5,68.31518987341768,68.30496720747082,67.55729774385009,67.87861658604233,20.426350621428497,20.74766946362074,20
100.0,68.31518987341768,68.29342293850158,67.51837056459959,67.8658267957457,20.427596142755874,20.775052373901985,20
103.0,68.31518987341768,68.30496720747082,67.51199149757792,67.8583551791553,20.446612028315528,20.7929757098929,20
106.0,68.41518987341769,68.31621912742,67.53903939697187,67.88299865009735,20.43322047732265,20.777179730448125,20
109.0,68.41518987341769,68.37128791155293,67.57081286129504,67.92691319455245,20.44437471700047,20.800475050257887,20
112.0,68.5151898734177,68.39420027745403,67.5709915684288,67.93287555026956,20.461324727184476,20.823208709025238,20
115.0,68.41518987341769,68.34954719475327,67.52952825590901,67.88005473100837,20.4694924637449,20.820018938844257,20
118.0,68.41518987341769,68.32718682984505,67.47840381309628,67.8493130778994,20.47787375194565,20.84878301674877,20
122.0,68.41518987341769,68.31621912742,67.46316317518553,67.82093144554507,20.495287681874927,20.85305595223447,20
125.0,68.41518987341769,68.34954719475327,67.48726767410643,67.86452594025602,20.485021254497255,20.862279520646837,20
128.0,68.5151898734177,68.47179302310771,67.58046591230475,67.95869945782685,20.513093565280855,20.891327110802962,20
132.0,68.71518987341769,68.63863588703934,67.74832253730136,68.1248855315092,20.51375035553015,20.89031334973798,20
136.0,68.8151898734177,68.79342293850156,67.89340326010166,68.2801267333523,20.51329620514926,20.9000196783999,20
140.0,68.91518987341769,68.87179302310771,67.95826598648551,68.35160749384964,20.52018552925807,20.9135270366222,20
145.0,68.8151898734177,68.74954719475328,67.83673866779459,68.2323148910425,20.51723230371077,20.912808526958685,20
150.0,68.5151898734177,68.4495471947533,67.50115398767947,67.92750650951439,20.522040685238906,20.94839320707382,20
155.0,68.11518987341769,68.0281956900718,67.0149442407313,67.467696652557,20.560499037514802,21.0132514493405,20
160.0,67.71518987341769,67.5720514389481,66.51014648963151,66.9821066955703,20.5899447433778,21.061904949316585,20
165.0,67.41518987341769,67.32819569007178,66.14787397605282,66.66309918212227,20.665096507949514,21.18032171401896,20
170.0,67.41518987341769,67.25133592452498,65.97553694252777,66.53341321025034,20.717922714274636,21.275798981997212,20
175.0,67.41518987341769,67.25133592452498,65.88575814865239,66.48972127799958,20.761614646525402,21.365577775872595,20
180.0,67.5151898734177,67.33048022106873,65.83574196283043,66.49969201399348,20.830788207075244,21.4947382582383,20
185.0,67.61518987341769,67.43048022106873,65.84070100203255,66.56177733681129,20.868702884257445,21.58977921903619,20
190.0,67.71518987341769,67.57408922037025,65.8812369396819,66.66093837877168,20.91315084159858,21.692852280688356,20
195.0,67.9151898734177,67.75133592452497,65.97597500819859,66.81304659253371,20.938289331991257,21.775360916326377,20
200.0,68.11518987341769,67.896729914533,66.0547401947682,66.93937733132658,20.957352583206415,21.841989719764797,20
206.0,68.0151898734177,67.82995232490677,65.91105273096234,66.82998108668899,20.999971238217782,21.91889959394443,20
212.0,67.8151898734177,67.65281763355542,65.61960947486635,66.59643245724891,21.056385176306506,22.033208158689064,20
218.0,67.71518987341769,67.46447019898166,65.2749599435379,66.326820361604,21.13764983737765,22.189510255443764,20
224.0,67.5151898734177,67.3851636994814,65.01731273351548,66.1748202693169,21.2103434301645,22.367850965965914,20
230.0,67.71518987341769,67.59621001056081,65.09163722659424,66.35959915877541,21.2366108517854,22.504572783966566,20
236.0,67.9151898734177,67.76323947554296,65.15123775555061,66.51227103136843,21.250968444174532,22.61200171999235,20
240.0,67.61518987341769,67.46326360397154,64.79784265739332,66.21643843202826,21.246825171943286,22.665420946578223,20
250.0,67.21518987341769,66.99751876906355,64.2807247858652,65.75772261569792,21.23979615336563,22.716793983198343,20
258.0,66.91518987341767,66.59977923362715,63.805807907557494,65.32180735801292,21.277971875614227,22.793971326069652,20
265.0,66.91518987341767,66.59977923362715,63.67411577326294,65.26389816513166,21.335881068495482,22.925663460364206,20
272.0,67.3151898734177,67.07688419489179,63.921894203373796,65.6536452859747,21.423238908917085,23.154989991517994,20
280.0,67.61518987341769,67.3879515582009,64.01018106292021,65.92527147877624,21.462680079424658,23.377770495280686,20
290.0,67.61518987341769,67.37609158302647,63.80874419172221,65.89295011854173,21.48314146448473,23.567347391304253,20
300.0,67.3151898734177,67.08741846685719,63.48004230629448,65.61343624479605,21.47398222206114,23.60737616056271,20
307.0,67.0151898734177,66.80800316862616,63.38429683133485,65.4322802774147,21.375722891211453,23.423706337291307,20
315.0,66.91518987341767,66.7622034826873,63.60272605893155,65.41908999834374,21.34311348434356,23.159477423755746,20
325.0,66.81518987341771,66.70571886455355,63.82842687394975,65.38681094611924,21.318907918434306,22.877291990603794,20
335.0,66.81518987341771,66.68464240896223,63.821076720523266,65.29783802722739,21.386804381734848,22.863565688438968,20
345.0,66.91518987341767,66.73244474777441,63.72592059771284,65.24945090757642,21.48299384019799,23.006524150061566,20
355.0,67.21518987341769,66.96720762652738,63.793117844444154,65.3753249596282,21.59188266689918,23.17408978208323,20
365.0,67.5151898734177,67.25582783844783,63.935689502734974,65.5820704322506,21.673757406197225,23.320138335712855,20
375.0,67.71518987341769,67.53297234108128,63.99771174180833,65.74399637526734,21.788975965813933,23.535260599272945,20
387.0,67.8151898734177,67.65334275785129,63.91270697732888,65.78131494757962,21.872027810271675,23.74063578052241,20
400.0,67.8151898734177,67.60774688323444,63.78484395033094,65.72332254564928,21.88442433758516,23.822902932903503,20
412.0,67.5151898734177,67.40648817035331,63.604533201013,65.52377603709901,21.8827121332543,23.801954969340315,20
425.0,67.21518987341769,67.10648817035332,63.350099780746945,65.24831281066987,21.858175359683443,23.75638838960637,20
437.0,66.91518987341767,66.7416602578367,62.993366957370114,64.89181911105936,21.849841146777337,23.748293300466585,20
450.0,66.71518987341769,66.40222579773172,62.60881767406997,64.54055428300161,21.861671514730105,23.79340812366175,20
462.0,66.71518987341769,66.30647072918852,62.403975207660594,64.33113047112515,21.97534025806337,23.902495521527925,20
475.0,66.91518987341767,66.44225887014635,62.43381251562138,64.31252838993485,22.129730480211492,24.008446354524963,20
487.0,67.21518987341769,66.83079477688139,62.71016774201111,64.53679034357559,22.2940044333058,24.12062703487028,20
500.0,67.71518987341769,67.33935064571892,63.12331167565425,64.97869155372528,22.36065909199364,24.216038970064673,20
515.0,68.11518987341769,67.78414459117646,63.328490418466544,65.35518727958302,22.428957311593436,24.455654172709913,20
530.0,68.31518987341768,67.98574600587952,63.20826648696472,65.45739425514664,22.52835175073288,24.777479518914802,20
545.0,68.21518987341769,67.92949135854984,62.93759568816043,65.29288187305167,22.63660948549817,24.99189567038941,20
560.0,68.0151898734177,67.79744026583379,62.732819532038675,65.06625267882892,22.731187587004868,25.06462073379511,20
580.0,67.9151898734177,67.68759938446291,62.69037398018092,64.93297715749178,22.754622226971136,24.99722540428199,20
600.0,67.8151898734177,67.48458623308777,62.5201825281151,64.7439004293589,22.740685803728866,24.964403704972668,20
615.0,67.61518987341769,67.18550163475341,62.11469148918978,64.39570938280198,22.789792251951425,25.070810145563627,20
630.0,67.41518987341769,66.89052942831765,61.943144610445415,64.23885074118813,22.651678687129518,24.947384817872233,20
650.0,67.5151898734177,66.99052942831766,62.25916508046956,64.7406230557356,22.24990637258206,24.7313643478481,20
670.0,67.61518987341769,67.21756029943766,62.566250496816224,65.35346617160305,21.86409412783462,24.65130980262144,20
690.0,67.41518987341769,66.9818795612074,62.23332658803439,65.0782653757952,21.90361418541221,24.74855297317302,20
710.0,66.91518987341767,66.48081153799744,61.40302384744818,64.28188708562892,22.198924452368516,25.077787690549258,20
730.0,66.91518987341767,66.45553378032541,61.07303706783317,63.89663969253665,22.558894087788758,25.38249671249224,20
750.0,67.11518987341769,66.7357179692617,61.307554051837016,63.96684843910036,22.76886953016134,25.428163917424683,20
775.0,67.11518987341769,66.77673259934059,61.59819659909097,64.09712031029557,22.679612289045025,25.178536000249622,20
800.0,67.21518987341769,66.88055440236245,61.821423279063865,64.2242340729213,22.656320329441144,25.059131123298584,20
825.0,67.8151898734177,67.31380684766926,62.22235040180692,64.79702118972789,22.51678565794137,25.091456445862335,20
850.0,68.0151898734177,67.51885663746762,62.497116852189095,65.20862145536788,22.310235182099746,25.021739785278527,20
875.0,68.0151898734177,67.42812070755035,62.299470632239874,65.08724212810078,22.340878579449566,25.128650075310475,20
900.0,68.31518987341768,67.60313992855728,62.28681039138367,65.04014762280056,22.562992305756723,25.316329537173615,20
925.0,68.31518987341768,67.71604951863151,62.69305360024106,65.44370164877252,22.27234786985899,25.02299591839045,20
950.0,68.11518987341769,67.47662082168087,61.99468792518812,65.07414513702085,22.40247568466002,25.48193289649275,20
975.0,68.11518987341769,67.43527878254223,61.47682667661172,64.57340172512713,22.8618770574151,25.958452105930505,20
1000.0,67.71518987341769,67.06098540220577,61.13815543284586,64.26498768120976,22.795997720996013,25.92282996935991,20
1030.0,67.5151898734177,66.75851736239453,61.44523016392944,64.68333463857051,22.075182723824014,25.31328719846509,20
1060.0,67.5151898734177,66.95781518476197,62.80604027917957,65.66362161852241,21.294193566239557,24.1517749055824,20
1090.0,67.21518987341769,66.52897171474446,62.26279490777999,65.34658774710933,21.182383967635133,24.266176806964467,20
1120.0,67.11518987341769,66.57482047014531,62.39219957840639,65.80490226655995,20.769918203585362,24.18262089173892,20
1150.0,66.91518987341767,66.64307276248792,62.24164310955781,65.87579195382246,20.76728080866546,24.401429652930105,20
1180.0,67.3151898734177,67.16601980109905,62.792117001899754,66.32977169466156,20.836248106437495,24.3739027991993,20
1220.0,67.61518987341769,67.5590252447336,63.439010902329684,67.03641330623235,20.522611938501257,24.12001434240392,20
1250.0,67.61518987341769,67.41501763876322,63.3206284115452,66.8940442172566,20.52097342150661,24.094389227218016,20
1280.0,67.3151898734177,66.87949884666499,63.17398050543248,66.73613181679927,20.143367029865715,23.705518341232505,20
1320.0,67.8151898734177,67.58798383460253,63.14165748770371,66.71457341891312,20.873410415689406,24.446326346898815,20
1360.0,68.21518987341769,68.19450741388103,63.56212962221957,66.88286464422984,21.311642769651186,24.632377791661455,20
1400.0,68.71518987341769,68.76260776687566,63.71965306309673,66.84799426641207,21.914613500463588,25.042954703778932,20
1450.0,68.5151898734177,68.50988987547733,63.17037072967214,66.1921898516958,22.317700023781526,25.339519145805184,20
1500.0,68.8151898734177,68.56678961654102,63.178067019400586,66.10676662905705,22.460022987483967,25.38872259714043,20
1550.0,69.0151898734177,68.64587335038966,62.75473998151526,65.85991801498564,22.785955335404026,25.891133368874407,20
1600.0,68.8151898734177,68.00186185834725,61.33977938419851,64.79824837477791,23.20361348356934,26.662082474148747,20
1650.0,68.61518987341769,68.22352976078095,61.741481276399526,65.12925048492298,23.09427927585797,26.482048484381423,20
1700.0,68.11518987341769,67.94655849705389,61.87246434699695,65.08688299259757,22.85967550445632,26.074094150056936,20
1750.0,68.31518987341768,67.77075932589369,60.8290609920349,64.43527651702544,23.33548280886825,26.941698333858795,20
1800.0,68.91518987341769,68.15546815663983,60.20476049104862,64.21209216164651,23.943375994993318,27.95070766559121,20
1850.0,68.8151898734177,67.80518513872583,59.356772067661694,63.54899324139136,24.256191897334475,28.448413071064138,20
1900.0,68.5151898734177,67.28979445770732,58.68779826359726,63.07369628584786,24.216098171859457,28.601996194110058,20
1950.0,67.61518987341769,66.51821212441254,58.24348680326675,62.626118637919106,23.892093486493437,28.274725321145795,20
2000.0,66.5151898734177,65.83981970283736,58.02092190183306,62.066894574401246,23.772925128436114,27.818897801004297,20
2060.0,66.41518987341769,65.41509092786589,57.2599254258006,61.184590009297324,24.230500918568566,28.155165502065287,20
2120.0,67.11518987341769,65.85897909143706,57.37208579081053,61.21410273731273,24.644876354124335,28.486893300626534,20
2180.0,67.61518987341769,66.56648380432641,57.5910922980204,61.45575985527553,25.11072394905088,28.97539150630601,20
2240.0,68.11518987341769,67.09143124109268,58.037690576689826,61.88746362153634,25.203967619556337,29.053740664402852,20
2300.0,68.21518987341769,67.17770500876924,58.40625401659973,62.052820999319934,25.124884009449303,28.771450992169505,20
2360.0,68.61518987341769,67.76051462250906,59.63004669056457,62.99532956028301,24.765185062226053,28.130467931944494,20
2400.0,68.91518987341769,67.96118630930158,60.06892631110772,63.551715808844975,24.409470500456607,27.892259998193865,20
2500.0,69.0151898734177,67.89894983808234,60.21750758650789,63.9644894652878,23.934460372794547,27.681442251574452,20
2580.0,67.71518987341769,66.8625412368958,59.255974198405056,63.053110561140784,23.80943067575501,27.606567038490738,20
2650.0,66.11518987341769,65.67467496714032,58.58532410062348,62.16081224846894,23.513862718671376,27.08935086651684,20
2720.0,64.91518987341769,64.04377662914766,57.51847578893519,61.04077970212583,23.002996927021826,26.525300840212466,20
