Freq "Ceiling Bounce"
20.5078 68.37063534974236
21.9727 72.1910520189604
23.4375 75.34371658015424
24.9023 78.2652023344739
26.3672 81.2561990194393
27.832 83.79205972648415
29.2969 85.72722137578086
30.7617 86.82180971560236
32.2266 87.1136439905985
33.6914 86.61561240751065
35.1562 86.52513886238285
36.6211 86.45752781099897
38.0859 86.20378173476472
39.5508 85.97568972872604
41.0156 85.83799147445158
42.4805 85.54481135323402
43.9453 85.17480060212795
45.4102 84.90761524334881
46.875 84.92070024717036
48.3398 84.82253704898166
51.2695 84.7390425102151
52.7344 84.68156071933295
54.1992 84.39534457118994
55.6641 84.32059128123767
58.5938 84.36527032073366
60.0586 84.32320836214664
62.9883 84.27976535260062
64.4531 84.41040999709121
67.3828 84.48557327263575
68.8477 84.59813724619111
71.7773 84.77572773215891
74.707 84.94307238989676
77.6367 85.0795516567083
79.1016 85.10429461837158
82.0312 85.1237543989631
84.9609 85.16590011229054
87.8906 85.04493198098886
90.8203 85.14761223927347
95.2148 85.17684819977293
98.1445 85.13569899055008
101.074 84.74735221939136
105.469 85.08532902851367
108.398 85.39958542966322
112.793 85.41687108753668
117.188 85.43773888559262
120.117 85.41971174771172
124.512 85.3769049571513
128.906 85.37814377259323
133.301 85.32450346662822
139.16 85.13192418151452
143.555 84.95495631455228
147.949 84.7333779139454
153.809 84.66050822102817
159.668 85.3751783927599
165.527 85.30188994050378
171.387 85.1405659484457
177.246 84.8304861578669
183.105 84.79612459748645
188.965 85.04189784603761
196.289 85.35298127232114
203.613 84.68771958651155
210.938 85.1303034293288
218.262 85.66870406198449
225.586 85.89597449697308
232.91 85.7310332073193
241.699 84.84855451498136
250.488 85.58778563347089
259.277 86.6383681478174
268.066 86.47148870135968
276.855 85.76659929929207
287.109 84.9418300503692
297.363 84.23044886442223
307.617 83.81496534960193
319.336 83.51884257966024
329.59 83.58772190836783
341.309 83.03289939829689
353.027 83.82558473804538
366.211 83.50373400876215
379.395 82.58616861398183
392.578 81.36244899891243
405.762 80.73683369884857
420.41 80.61509003783523
435.059 82.0854573435622
451.172 80.71251310883396
465.82 81.10385659841434
483.398 81.48511961492487
499.512 80.97658021101148
517.09 82.07589526138173
536.133 81.84597890735378
555.176 82.48681486733952
574.219 82.24912092134703
594.727 82.07473942195183
615.234 82.72544950453369
637.207 82.29389175546643
659.18 82.89174709868551
682.617 83.7519890765357
707.52 84.33395638068849
732.422 84.91763065837422
757.324 86.06141984775101
785.156 85.00596952379186
811.523 85.20616411039349
840.82 86.329205179933
870.117 85.41621125406402
900.879 85.30614823811176
933.105 85.41302464930212
965.332 84.65014475621793
1000.49 84.78785038406693
1035.64 85.07327717865473
1072.27 84.53869002203648
1108.89 84.5492096763487
1148.44 85.05246136720531
1189.45 85.52073335650576
1230.47 83.94163294821074
1274.41 83.91725327786278
1319.82 83.17987469674752
1366.7 83.42707721462597
1413.57 81.85886714284388
1463.38 81.55802407259945
1516.11 81.99732723489906
1568.85 81.22667117938079
1624.51 79.89026450587716
1681.64 78.99059219736992
1741.7 75.84820728907206
1803.22 73.0182215100153
1866.21 71.88924146506086
1932.13 74.28502005924177
1999.51 76.28727323497596
2069.82 77.68183199103647
2143.07 78.10293819430835
2219.24 79.14915578910701
2296.88 79.65272901566628
2378.91 79.22253765736333
2462.4 79.82779672771325
2548.83 79.59008256156893
2639.65 80.63983750046826
2731.93 81.01361408082496
2828.61 81.13685917692507
2928.22 81.70563611450534
3030.76 81.80437631648155
3137.7 82.14605469517026
3249.02 82.40175804276475
3363.28 81.97766277648013
3481.93 82.35305884883753
3604.98 82.09076536601093
3732.42 82.18802335257816
3864.26 81.69439828307797
4000.49 80.91794843956558
4141.11 80.47433410792915
4287.6 80.40481635282192
4438.48 80.37445663979598
4595.21 79.89761698055091
4756.35 79.52845646633754
4924.8 78.83253553834756
5097.66 78.72563335097236
5277.83 79.53417710307939
5463.87 79.59444643037394
5657.23 79.31061606650213
5856.45 79.54900591381055
6062.99 79.17939030313836
6276.86 79.22526506515318
6498.05 79.22772627859845
6726.56 79.08871195167208
6963.87 79.02695943928144
7209.96 78.79788996746231
7464.84 79.1773976172022
7727.05 79.51245696919067
7999.51 79.34760460651086
8282.23 78.8872577688113
8573.73 78.66375221016018
8876.95 78.8163853633983
9188.96 79.10987717499053
9514.16 78.84143400878432
9849.61 78.81250297427896
10196.8 78.8176710543
10555.7 78.58327666817198
10927.7 78.30444524412151
11313.0 78.45410969008543
11712.9 78.34867200987021
12126.0 78.12774420106224
12553.7 77.83622107782536
12996.1 77.5352336014443
13454.6 77.55066964919756
13929.2 77.79337561654746
14419.9 77.72364337365566
14928.2 77.17875707345068
15455.6 77.57257145242907
16000.5 77.87191655536695
16564.5 77.40394280342437
17148.9 76.28988717227104
17752.4 74.88904667848372
18379.4 74.46874207264081
19026.9 74.82228461698558
19697.8 73.82425024304841
19999.5 73.0171313807211
