Freq "Front Wall Bounce"
20.5078 70.63110236708347
21.9727 74.34662756564143
23.4375 77.32950418873168
24.9023 80.16992198868499
26.3672 83.00589031208446
27.832 85.49112071514304
29.2969 87.31432385943941
30.7617 88.3525485966812
32.2266 88.61627467001227
33.6914 88.07999562448015
35.1562 87.94899225771827
36.6211 87.85317641201561
38.0859 87.59277853292198
39.5508 87.35120268731093
41.0156 87.18450009734758
42.4805 86.91968123755832
43.9453 86.59070986975497
45.4102 86.38808174332642
46.875 86.37948942178632
48.3398 86.25082154539783
51.2695 86.09162433318832
52.7344 86.01325566394341
54.1992 85.75632150983532
55.6641 85.68899043227394
58.5938 85.76698375242992
60.0586 85.72810119736201
62.9883 85.79384777810387
64.4531 85.92957857665743
67.3828 86.00402538711486
68.8477 86.1093153722931
71.7773 86.25699821984762
74.707 86.41422011867878
77.6367 86.51620589093447
79.1016 86.56689214759615
82.0312 86.67538153725081
84.9609 86.69083820913546
87.8906 86.59861431090044
90.8203 86.77679898109572
95.2148 86.77952273870636
98.1445 86.77112627979903
101.074 86.6000949438041
105.469 87.10649286611645
108.398 87.32543450515797
112.793 87.37759945631623
117.188 87.38639736859832
120.117 87.3705230622349
124.512 87.36634889047565
128.906 87.44423948467819
133.301 87.41908726673955
139.16 87.31539363782251
143.555 87.15752887791038
147.949 87.0749645826474
153.809 87.33227019347592
159.668 87.66240516770861
165.527 87.40141073864885
171.387 87.41054078968395
177.246 87.1478866840176
183.105 87.26854160690102
188.965 87.55809812595419
196.289 87.70262889847167
203.613 87.92647043985792
210.938 87.95726212186246
218.262 88.42417793662419
225.586 89.09795540162511
232.91 88.29253676819013
241.699 88.21986939101946
250.488 89.38917795453207
259.277 89.22613730663781
268.066 88.46110921716922
276.855 87.26288040547364
287.109 86.66505489153283
297.363 88.27060566857404
307.617 87.14566738627673
319.336 87.95230627206692
329.59 87.87880145148155
341.309 87.95861645324658
353.027 87.85452230873786
366.211 88.19491424154471
379.395 87.91889324967251
392.578 87.50846996561384
405.762 87.8268633020356
420.41 87.63720490268757
435.059 87.11351217755016
451.172 87.00352134478207
465.82 87.32796904939639
483.398 87.13389806250127
499.512 87.19544528139804
517.09 87.978042877816
536.133 88.08419763894099
555.176 87.63409765706649
574.219 88.0567382464717
594.727 87.95687320082419
615.234 87.93127949990101
637.207 88.4586443103997
659.18 87.67579209927689
682.617 88.08108995109632
707.52 88.08527617385558
732.422 87.4569912669279
757.324 87.78028407416164
785.156 87.79539088647184
811.523 88.09727999418436
840.82 87.76797840902668
870.117 87.62739400290684
900.879 87.74823658930762
933.105 87.53781097791139
965.332 87.4901540496123
1000.49 87.84992416409557
1035.64 87.15806898376457
1072.27 87.22089897501698
1108.89 87.40683187714744
1148.44 87.10430888905803
1189.45 87.32582223128972
1230.47 88.04930746484634
1274.41 88.0923450590465
1319.82 87.89958302857725
1366.7 87.84192682981738
1413.57 87.23300742430673
1463.38 86.80359423275318
1516.11 86.57793407208479
1568.85 86.76075000814652
1624.51 87.56982413113818
1681.64 88.50156330601023
1741.7 88.77356179617117
1803.22 88.41896547086358
1866.21 87.8750725811111
1932.13 87.38496290705204
1999.51 88.06984226919079
2069.82 88.61937567812149
2143.07 88.49712876517597
2219.24 87.22389637559239
2296.88 86.42649776190055
2378.91 86.92468568070433
2462.4 88.21374083456547
2548.83 87.94629937721709
2639.65 86.65872718612638
2731.93 86.04703528014787
2828.61 86.40702112232303
2928.22 86.61747390612712
3030.76 86.59196650395737
3137.7 86.37852410908626
3249.02 86.48156768423476
3363.28 87.05804815109775
3481.93 86.80179526992156
3604.98 86.99538931166178
3732.42 87.98825913560384
3864.26 87.09476849502947
4000.49 86.65080594527508
4141.11 87.4829941298288
4287.6 86.95759610931132
4438.48 86.84963143495033
4595.21 86.58403357183522
4756.35 87.01376563473337
4924.8 87.51339206332733
5097.66 87.4047366785328
5277.83 87.65340412767746
5463.87 87.80355853055472
5657.23 87.5645706480202
5856.45 87.38440293720487
6062.99 87.1340078588722
6276.86 87.21184469713978
6498.05 86.62620211453039
6726.56 86.81420406138673
6963.87 86.78614787225759
7209.96 86.77743732406829
7464.84 86.94716369430998
7727.05 86.68529327399473
7999.51 86.80569298791613
8282.23 86.78519269850104
8573.73 87.2365652959305
8876.95 87.02759697022164
9188.96 87.00350954767192
9514.16 86.63794382838694
9849.61 86.5911674278561
10196.8 86.48542562696434
10555.7 86.2385585392791
10927.7 86.08252408435928
11313.0 86.10627267478972
11712.9 86.23022488287327
12126.0 86.05347518655164
12553.7 85.81682884035293
12996.1 85.7358582489604
13454.6 85.7371073658141
13929.2 85.6586973699601
14419.9 85.7647227763909
14928.2 86.01258695557794
15455.6 85.7943749860726
16000.5 85.83774936486846
16564.5 85.77932312933706
17148.9 85.62093172936423
17752.4 85.19106173980299
18379.4 84.5613535946237
19026.9 83.38525052780477
19697.8 81.57149321299971
19999.5 80.87868031739285
