Freq "Side Wall Bounce"
20.5078 70.1705094550695
21.9727 73.89920719131318
23.4375 76.9058450647723
24.9023 79.75572218002824
26.3672 82.59388695547352
27.832 85.09601431367483
29.2969 86.917663948676
30.7617 87.96207630178048
32.2266 88.2360335833202
33.6914 87.75415523057313
35.1562 87.61432178312597
36.6211 87.51402675815504
38.0859 87.24651902083272
39.5508 86.98828913137531
41.0156 86.82662592669456
42.4805 86.53540663471325
43.9453 86.17208083047136
45.4102 85.91940712764502
46.875 85.90182838927174
48.3398 85.80562176144154
51.2695 85.68444513964803
52.7344 85.5966242698904
54.1992 85.33021218109715
55.6641 85.26256689892556
58.5938 85.32128806775232
60.0586 85.2625452024862
62.9883 85.26648887982307
64.4531 85.41389338570004
67.3828 85.52712591977088
68.8477 85.6144171421114
71.7773 85.7283197657406
74.707 85.84212004241081
77.6367 85.92038646377793
79.1016 85.93881927233983
82.0312 86.00051295457887
84.9609 86.02426888553218
87.8906 85.95019663882752
90.8203 86.09591597837156
95.2148 86.07101992723294
98.1445 86.0350398859602
101.074 85.78077458450029
105.469 86.20481151340378
108.398 86.40959658339219
112.793 86.42707383216964
117.188 86.44297852100945
120.117 86.40777523605969
124.512 86.39501786909946
128.906 86.40716297016408
133.301 86.35253960295462
139.16 86.19155997020064
143.555 86.01301974280865
147.949 85.86967075392653
153.809 85.94814893483935
159.668 86.37283424859389
165.527 86.19482465382143
171.387 86.08434814728936
177.246 85.78888265391384
183.105 85.80179144879669
188.965 86.04554147853167
196.289 86.22343780888647
203.613 86.38857080003616
210.938 86.67303093272596
218.262 87.17294320884275
225.586 87.44695633505975
232.91 87.29414409278132
241.699 86.52675906524748
250.488 86.88085029236382
259.277 87.55261018885241
268.066 87.1804051184982
276.855 86.9073306558045
287.109 86.3142181723797
297.363 86.31279041776378
307.617 86.48949746497621
319.336 86.28382920159035
329.59 87.09321457898191
341.309 85.9371510406865
353.027 86.15355528596038
366.211 85.51482220580502
379.395 85.86347339308217
392.578 85.68296960444977
405.762 84.60869772294166
420.41 84.97932741027255
435.059 84.44185844986173
451.172 84.68394676176553
465.82 83.54411396960111
483.398 84.01924570679154
499.512 84.22607252511668
517.09 84.81606516473447
536.133 84.57483777845472
555.176 84.74946791511388
574.219 85.21652029140563
594.727 84.88877113315206
615.234 84.81588645465473
637.207 84.84031572569432
659.18 84.1498922632302
682.617 84.44800867544677
707.52 83.86696189459778
732.422 83.81712255347068
757.324 83.11105540401086
785.156 83.45748748290572
811.523 83.29933177609695
840.82 83.17210322539555
870.117 83.514792831883
900.879 82.39974270022228
933.105 83.13955394329922
965.332 82.21439864685733
1000.49 83.06808341821464
1035.64 82.28315124168157
1072.27 83.27814162740883
1108.89 83.21894102123599
1148.44 82.47616735232937
1189.45 81.9207893472219
1230.47 83.17410686886834
1274.41 83.27445622180554
1319.82 83.04473923970306
1366.7 83.24570698006802
1413.57 82.86938830951814
1463.38 82.52896905670367
1516.11 82.288702127409
1568.85 82.73069392494851
1624.51 83.2941258185675
1681.64 84.0712138171346
1741.7 84.3304151228572
1803.22 84.04018769785293
1866.21 83.42954469552537
1932.13 82.71234732175716
1999.51 82.73988722925796
2069.82 83.0538003634816
2143.07 82.80454369571088
2219.24 81.59148415078548
2296.88 80.59533683773017
2378.91 81.12187376133168
2462.4 82.05312456719547
2548.83 82.0636362705739
2639.65 81.25034161375316
2731.93 80.89731769984864
2828.61 81.64584426854864
2928.22 82.38251257890529
3030.76 82.44778167077718
3137.7 82.80538216696844
3249.02 82.87816619405271
3363.28 82.79844571358785
3481.93 82.84243725872405
3604.98 82.85740836396208
3732.42 83.0524105551163
3864.26 82.22050528124355
4000.49 81.52067610167774
4141.11 81.59169020113244
4287.6 81.06122234865171
4438.48 81.18874514860931
4595.21 80.88095228000651
4756.35 81.62480227796891
4924.8 81.84208053926997
5097.66 80.95259639499238
5277.83 80.71278008788688
5463.87 80.66990509433603
5657.23 80.90712793610646
5856.45 80.22440127483748
6062.99 80.78485653698513
6276.86 81.13857174138506
6498.05 81.276302048975
6726.56 81.21012589653763
6963.87 80.56934563007289
7209.96 80.22163493833881
7464.84 80.02166347930284
7727.05 79.9484933722273
7999.51 80.20639206842394
8282.23 80.03529676204312
8573.73 80.0775808562008
8876.95 79.73745286268189
9188.96 79.59773182344827
9514.16 79.16527939263287
9849.61 78.82212203548514
10196.8 78.26643810968852
10555.7 77.62129467639316
10927.7 77.0399603693742
11313.0 76.6515898564108
11712.9 76.55928175922752
12126.0 76.72954358948246
12553.7 76.89444290957685
12996.1 76.88413353213684
13454.6 76.98068656786776
13929.2 77.2074971862159
14419.9 77.44864930467713
14928.2 77.19057359252417
15455.6 77.72087684689171
16000.5 77.69089703673006
16564.5 77.6512400392269
17148.9 77.49691612604981
17752.4 77.48935653009818
18379.4 77.24067083676267
19026.9 76.63308788990328
19697.8 75.61904821406561
19999.5 74.9846641516644
