Freq "Total Early Reflection"
20.5078 70.316157526341
21.9727 74.02495483002741
23.4375 77.02113383409802
24.9023 79.86163228006205
26.3672 82.68837481484681
27.832 85.17981652284203
29.2969 87.00253463977828
30.7617 88.04068021673658
32.2266 88.31762634436745
33.6914 87.81932313805751
35.1562 87.67243108366847
36.6211 87.57157325027428
38.0859 87.3069831838156
39.5508 87.05065979804424
41.0156 86.89265759440232
42.4805 86.59991998469818
43.9453 86.2435218899579
45.4102 85.99017635661048
46.875 85.95536478409461
48.3398 85.85719082327614
51.2695 85.74346521693185
52.7344 85.660546302631
54.1992 85.39087458601708
55.6641 85.32763235687501
58.5938 85.40040289416912
60.0586 85.35776673833521
62.9883 85.35554379396288
64.4531 85.49426562841019
67.3828 85.6107065836769
68.8477 85.7093302030398
71.7773 85.84354948110598
74.707 85.96093416379217
77.6367 86.04912138553827
79.1016 86.08113465131261
82.0312 86.13881882686563
84.9609 86.14590397933468
87.8906 86.08682118391819
90.8203 86.2247178368515
95.2148 86.2267133606602
98.1445 86.2024053423674
101.074 86.00446061929522
105.469 86.36601548908111
108.398 86.58306520737781
112.793 86.60584847122085
117.188 86.60220384049849
120.117 86.5816478455447
124.512 86.59948358932706
128.906 86.65131253639947
133.301 86.59446799389958
139.16 86.4322309407287
143.555 86.26232842581229
147.949 86.13924532872718
153.809 86.23941293730263
159.668 86.55794593774718
165.527 86.397817389674
171.387 86.3728048775647
177.246 86.1015613891307
183.105 86.14738326772245
188.965 86.31755886212977
196.289 86.42571434217122
203.613 86.50603083998885
210.938 86.56576706869592
218.262 87.13906845277631
225.586 87.63871687397844
232.91 86.9425679340855
241.699 86.73779673101726
250.488 87.74813370734641
259.277 87.69344266387611
268.066 87.04125733726349
276.855 86.25983213364819
287.109 85.58041594338148
297.363 86.50379706111235
307.617 85.73153105116563
319.336 86.22573259292484
329.59 86.22961005689683
341.309 86.11233115148853
353.027 86.00948229074066
366.211 86.28790661637869
379.395 85.99742809686936
392.578 85.6289101549054
405.762 85.65499010831354
420.41 85.26083689132346
435.059 84.92192440581965
451.172 85.02218413083904
465.82 84.99011900384474
483.398 84.39235857514373
499.512 84.4301750225824
517.09 85.08173667418944
536.133 85.1384409228934
555.176 84.55496223009709
574.219 84.87938136770599
594.727 84.75850114172607
615.234 84.88304272318592
637.207 84.89917822336483
659.18 84.3343352553159
682.617 84.98433166278429
707.52 84.948305629432
732.422 84.56590604451283
757.324 85.34244250130304
785.156 84.94964201618421
811.523 84.79486955900566
840.82 85.2165142264991
870.117 84.60804032943389
900.879 84.61286445969911
933.105 84.856130555401
965.332 84.22516763184302
1000.49 84.69637653517924
1035.64 84.36593991869589
1072.27 84.1661263464912
1108.89 84.29724626913054
1148.44 84.29568607334295
1189.45 84.38254414503606
1230.47 84.60173182994379
1274.41 84.59419353257522
1319.82 84.54586201122414
1366.7 84.49528202674514
1413.57 83.93403845085018
1463.38 83.64281460871328
1516.11 83.28886848973565
1568.85 83.38486854922051
1624.51 83.61489843227588
1681.64 84.19397454613335
1741.7 84.15376665723772
1803.22 83.73152024449604
1866.21 83.0839913477888
1932.13 82.4650949294058
1999.51 82.87616866506352
2069.82 83.44374051541536
2143.07 83.45383225496114
2219.24 82.5415107228184
2296.88 81.9168008647989
2378.91 81.99635980105809
2462.4 83.10971553341075
2548.83 83.1149411576599
2639.65 82.56995085459029
2731.93 82.1421743417732
2828.61 82.43185357132333
2928.22 82.87964364487732
3030.76 82.92617044268692
3137.7 83.02223782439154
3249.02 83.29476894533983
3363.28 83.46765454054533
3481.93 83.61311382520486
3604.98 83.56795579440306
3732.42 84.01095942516497
3864.26 83.46996291512991
4000.49 83.02460482676956
4141.11 83.412029206547
4287.6 82.94985933964362
4438.48 82.83539637884829
4595.21 82.54061067561939
4756.35 82.83139255099432
4924.8 82.93653463509719
5097.66 82.79910005224642
5277.83 83.10971129489482
5463.87 83.20723203019341
5657.23 83.02754502661818
5856.45 82.74989755889203
6062.99 82.48346412753845
6276.86 82.61452048333224
6498.05 82.45801542110199
6726.56 82.46781636348707
6963.87 82.35451970470947
7209.96 82.21785146413
7464.84 82.29722632262171
7727.05 82.18793406212848
7999.51 82.27508947927005
8282.23 82.21241778886815
8573.73 82.42893815572344
8876.95 82.31061823608982
9188.96 82.30143450671028
9514.16 82.01182328778167
9849.61 81.91927889196229
10196.8 81.81884457833479
10555.7 81.58884897136848
10927.7 81.402641390963
11313.0 81.34552109144884
11712.9 81.36964216120208
12126.0 81.26900249202562
12553.7 81.12109732612447
12996.1 81.05943215086647
13454.6 81.08397202487245
13929.2 80.97091368843847
14419.9 81.00364483842404
14928.2 81.06149393440094
15455.6 81.03535716268631
16000.5 81.13857765471322
16564.5 80.96719669240848
17148.9 80.6855397248903
17752.4 80.4463933365583
18379.4 80.24378119908864
19026.9 79.37572653166046
19697.8 77.61351183455601
19999.5 76.83397899023268
