Freq "Front Wall Bounce"
22.4 25.146877756330966
23.0 25.76098820029857
23.6 25.26842825364089
24.0 26.832071940330806
25.0 30.200164961078187
25.8 32.37922907402388
26.5 33.5792290740239
27.2 36.26547001344191
28.0 39.47636875774229
29.0 42.040877863715096
30.0 43.200526813683936
30.7 45.21184689919484
31.5 47.50780798160319
32.5 48.8771708098234
33.5 50.97717080982342
34.5 52.67717080982341
35.5 54.58908749496136
36.5 56.28710883590263
37.5 58.014542707894336
38.7 60.39927487446077
40.0 61.854881803711564
41.2 63.55488180371155
42.5 65.69675959461237
43.7 67.69453276169955
45.0 69.62304813367297
46.2 71.5081576771528
47.5 73.35043502855221
48.7 74.77730245471979
50.0 76.23337396385672
51.5 77.646877756331
53.0 79.36130088190141
54.5 80.90429262674341
56.0 81.74687775633099
58.0 82.93240657122467
60.0 83.9750302888091
61.5 84.84622748094745
63.0 85.70331873376632
65.0 86.36032493554528
67.0 86.77470354519608
69.0 87.1172323741721
71.0 87.44556962025318
73.0 87.6455696202532
75.0 87.74556962025319
77.5 87.8455696202532
80.0 87.81723237417211
82.5 87.74589856305676
85.0 87.70332629489852
87.5 87.60332629489851
90.0 87.5033262948985
92.5 87.44689290203014
95.0 87.38936795992346
97.5 87.43275170759279
100.0 87.58936795992345
103.0 87.63275170759279
106.0 87.5910264339661
109.0 87.54953878342874
112.0 87.57734758243659
115.0 87.6636255108471
118.0 87.76362551084709
122.0 87.86362551084709
125.0 87.94852955753436
128.0 88.04852955753435
132.0 88.07634479892829
136.0 88.07634479892829
140.0 88.1327365124968
145.0 88.20528124481318
150.0 88.3052812448132
155.0 88.40528124481318
160.0 88.49195811136396
165.0 88.59195811136395
170.0 88.57889864248618
175.0 88.5916250573744
180.0 88.60623254178174
185.0 88.56419877438562
190.0 88.3641987743856
195.0 88.06326009158833
200.0 87.90690411867133
206.0 87.49195811136393
212.0 87.07889864248617
218.0 86.60815767715279
224.0 85.75234067355088
230.0 84.65234067355088
236.0 84.3513550592066
240.0 85.06391545189827
250.0 85.72018154998761
258.0 86.29327526374259
265.0 86.97828219862255
272.0 87.65046461398941
280.0 88.3678243885226
290.0 88.74021025705376
300.0 88.69586410944834
307.0 88.46618684266369
315.0 88.45241462391735
325.0 88.71210919850746
335.0 88.6978541021892
345.0 88.42920426517006
355.0 88.11532898795407
365.0 87.91210919850744
375.0 87.75499140701946
387.0 87.67202956958607
400.0 87.69094544552568
412.0 87.60905069236973
425.0 86.96242499267468
437.0 86.68073010021139
450.0 87.0627099883518
462.0 87.20359546753777
475.0 86.58057511290305
487.0 85.57653108482113
500.0 85.0297068034477
515.0 85.72731424592556
530.0 86.77301377723218
545.0 86.77019225886163
560.0 86.44691446211688
580.0 86.35110464263069
600.0 85.96513498210247
615.0 85.80612681533427
630.0 85.99649530455524
650.0 85.7017462893884
670.0 85.50214462458172
690.0 86.04708358505916
710.0 86.09679315481102
730.0 85.82943878597224
750.0 86.06010142469923
775.0 85.96159025045043
800.0 86.13492284467854
825.0 86.47983168705217
850.0 86.63701977332587
875.0 86.72348933207836
900.0 86.26984673914218
925.0 85.95216191376294
950.0 85.53961873317591
975.0 85.17020345423892
1000.0 85.25622103876576
1030.0 85.35984515583657
1060.0 85.33576135152133
1090.0 85.27110238017515
1120.0 84.97794893278255
1150.0 84.51629664929052
1180.0 84.36687595941005
1220.0 84.45282968645333
1250.0 84.54461169195235
1280.0 84.65652904648273
1320.0 84.37341501127956
1360.0 83.80382512435851
1400.0 83.9881458923427
1450.0 84.48342511586573
1500.0 84.26354586501368
1550.0 83.40055988281594
1600.0 82.88344654194385
1650.0 83.5289099666439
1700.0 84.2015803165141
1750.0 84.10437547065189
1800.0 83.90957243092855
1850.0 84.27181859729656
1900.0 84.45869817567629
1950.0 84.02264998503529
2000.0 83.83123234914265
2060.0 83.69557880500574
2120.0 82.48783742636451
2180.0 82.07127535103483
2240.0 82.54512798255341
2300.0 81.73810944914511
2360.0 81.16829805305571
2400.0 81.65870772551759
2500.0 81.26873399402854
2580.0 81.3876421582441
2650.0 82.0774043932991
2720.0 81.98722523791919
2800.0 82.35115206097589
2900.0 83.13749272548813
3000.0 83.05714107949218
3070.0 83.12845000519545
3150.0 83.4047396340086
3250.0 83.71197665312785
3350.0 84.42146405919631
3450.0 84.800890036003
3550.0 85.33047096763393
3650.0 85.72582670801512
3750.0 86.00016291323215
3870.0 85.73296393440161
4000.0 85.41657352283407
4120.0 84.76734819463498
4250.0 84.31626622139669
4370.0 84.16244347734855
4500.0 83.95613476145293
4620.0 84.71356282336274
4750.0 85.01139200273583
4870.0 84.44474156099223
5000.0 84.18189365379152
5150.0 84.11086787267828
5300.0 83.28532064431592
5450.0 82.52395129997026
5600.0 81.59437860115507
5800.0 81.30080808890776
6000.0 82.03366550124984
6150.0 82.25488460289137
6300.0 81.45489967819803
6500.0 80.55434569218576
6700.0 80.12355650202687
6900.0 80.01224860526501
7100.0 80.05051973730916
7300.0 79.93300344283692
7500.0 79.62709758483159
7750.0 80.20826147846229
8000.0 81.26784574261193
8250.0 81.3514640169961
8500.0 80.34746729912635
8750.0 80.30847867491362
9000.0 81.8348246061393
9250.0 82.12644327426995
9500.0 81.8919333056762
9750.0 81.62803939336276
10000.0 80.87817824572883
10300.0 82.10052250673276
10600.0 82.87194840879721
10900.0 82.43303900065688
11200.0 81.69686558748246
11500.0 81.73428751998969
11800.0 82.45164643909943
12200.0 83.50806597741852
12500.0 83.13659731992648
12800.0 82.35046839723313
13200.0 81.7085172879075
13600.0 81.38680599151634
14000.0 80.15168782763662
14500.0 76.4821559467435
15000.0 75.27228818577457
15500.0 72.27025063290019
16000.0 69.34765981004489
16500.0 68.96622346389462
17000.0 66.22119763448565
17500.0 65.02999059701663
18000.0 62.53494022155682
18500.0 62.284526176655945
19000.0 63.78304591873332
19500.0 66.36490609085503
