Freq "Estimated In-Room Response"
20.5078 72.52508986025849
23.4375 77.54472002481542
26.3672 79.91417427428225
29.2969 81.43851191118755
32.2266 81.9814102587958
35.1562 82.68174857928398
38.0859 83.13563349033232
41.0156 83.93704886142493
43.9453 84.63348465941513
46.875 85.16956423565235
49.8047 85.77953379941117
52.7344 86.40610260402514
55.6641 86.89898662392325
58.5938 87.36644921052435
61.5234 87.69057161300188
64.4531 87.86202835607078
67.3828 87.98609254141509
70.3125 88.22473088872839
73.2422 88.39414745132676
76.1719 88.5547575343244
79.1016 88.70212365440996
82.0312 88.72806340630153
84.9609 88.7434833664172
87.8906 88.76849674493461
90.8203 88.60171352582314
93.75 88.72042389946631
96.6797 88.56331504061208
102.539 88.2310765517247
105.469 88.1145673914484
108.398 88.2470566227929
111.328 88.32068067027915
117.188 88.0610101151679
120.117 88.02817653584715
125.977 87.94094192304759
128.906 87.77972257649242
134.766 87.64473125991312
137.695 87.47563317420436
143.555 87.16858006733946
149.414 86.70333084942729
155.273 86.7178976325019
158.203 86.93561601339584
164.062 87.07809086570488
169.922 87.16870735477487
175.781 87.08019504450648
181.641 86.48777697018947
190.43 86.04807695505785
196.289 86.52010194025631
202.148 86.96995720371919
210.938 86.02474834730418
216.797 85.65223980638723
225.586 86.19660489561963
234.375 86.049747766773
240.234 86.01959882278172
249.023 85.75294247049631
257.812 86.20013731926
266.602 86.84348752641642
278.32 86.03653330388939
287.109 86.61415679650766
295.898 86.0209992794794
307.617 86.76707248287634
319.336 85.96402354368594
331.055 86.04341054116225
342.773 86.17394127500552
354.492 86.28988909406995
366.211 86.38594704298417
377.93 86.34521506423546
392.578 85.68480960539155
407.227 85.52587015799268
421.875 85.79237034313711
436.523 85.15034670106846
451.172 85.85027657494955
465.82 86.42591108837811
483.398 85.57144548966663
500.977 85.44609993672377
518.555 85.18594286600039
536.133 85.6693044579713
553.711 86.08301972298172
574.219 85.98532004130507
594.727 85.49919778919805
615.234 85.49774222834829
638.672 86.25985016025635
659.18 85.62388390894161
682.617 85.86489518159466
706.055 85.39228866229563
732.422 85.34788095933318
758.789 85.09120943054971
785.156 85.41815993889763
811.523 85.17821469124682
840.82 86.10779364279533
870.117 86.18302980521597
902.344 86.07709876706576
931.641 86.25431759481468
966.797 85.45097417126244
999.023 85.86000778320356
1034.18 86.05594313214529
1072.27 85.02101890254094
1110.35 84.83181126405452
1148.44 85.00716338307203
1189.45 85.6890538028399
1230.47 85.92815813763428
1274.41 85.61066402285287
1318.36 85.5485556969265
1365.23 85.0355027786574
1415.04 84.71032621295232
1464.84 84.75248059515225
1514.65 84.63367902652723
1570.31 84.73905069482154
1623.05 84.66565553831045
1681.64 83.91400765252128
1740.23 83.52032380857526
1801.76 83.83547490909213
1866.21 83.44100217961872
1930.66 82.75290493802535
2000.98 82.61631142697372
2071.29 83.50453870423348
2144.53 83.28964592736196
2217.77 83.03034955073804
2296.88 83.23169716424565
2378.91 84.3814183900204
2460.94 84.33113796482348
2548.83 84.57122334729516
2639.65 84.79583869713765
2733.4 84.88676318748024
2827.15 85.03422175468451
2926.76 84.78563164614262
3032.23 84.52052127133119
3137.7 84.53145296613316
3249.02 84.2434898551832
3363.28 83.97547753189427
3483.4 83.83870800207812
3606.45 83.61120239404875
3732.42 83.37853953794799
3864.26 83.32652530953911
3999.02 83.3824811736589
4139.65 83.28874806360082
4286.13 83.37534247774005
4438.48 83.48865294656902
4593.75 83.46140923525697
4757.81 83.2655457102654
4924.8 83.01748771409633
5097.66 82.90984686027947
5279.3 82.66408619735228
5463.87 82.59489921020314
5657.23 82.53382873451066
5856.45 82.92002200062055
6061.52 83.11750923400491
6275.39 83.15667688116237
6498.05 83.1308451585643
6726.56 82.96810870063273
6963.87 82.63347295528018
7209.96 82.29755734011766
7464.84 82.07563170128739
7728.52 81.94456197275008
8000.98 82.09079239844618
8282.23 82.37347000766441
8575.2 82.40215558370794
8876.95 82.40553492969983
9190.43 82.32987920532516
9512.7 82.27634036238317
9849.61 82.18798641136767
10195.3 82.31620412674536
10555.7 82.42677540166262
10927.7 82.40861299505997
11314.5 82.28845198628873
11712.9 82.06483545795068
12126.0 81.91216421595435
12553.7 81.9014348636981
12996.1 81.76038202649865
13453.1 81.54812932904106
13927.7 81.42536243373029
14419.9 81.29803821228258
14929.7 81.22050410478634
15454.1 81.22994839457024
15999.0 81.1023515922622
16564.5 80.9062116655824
17147.5 80.8579783350671
17753.9 80.84372866340605
18377.9 80.34369760233564
19028.3 79.58042412983023
19699.2 79.07496219160183
19998.0 78.75037945550991
