Freq,On Axis,Listening Window,Sound Power,Early Reflections,Early Reflections DI,Sound Power DI,DI offset
22.4,-14.691139240506317,-14.614838881997485,-15.096023453074366,-14.732392919944317,30.11755403794683,30.48118457107688,30
23.0,-11.79113924050634,-11.310778208075789,-10.903983894672308,-10.467728587624975,29.156950379549187,29.59320568659652,30
23.6,-10.091139240506351,-8.228292491107311,-6.663199409767628,-6.4045986535287796,28.17630616242147,28.434906918660317,30
24.0,-8.491139240506328,-6.324073535104361,-6.472905436875891,-5.8494357435126005,29.52536220840824,30.14883190177153,30
25.0,-6.5911392405063225,-5.466202161891857,-6.194275618270325,-5.518819091780159,30.052616929888302,30.728073456378468,30
25.8,-4.391139240506334,-4.061444039843849,-4.848934768538442,-4.466756387515204,30.405312347671355,30.787490728694593,30
26.5,-0.9911392405063282,-0.6088459533376351,-0.7794245786280953,-1.2958494536653404,30.687003500327705,30.17057862529046,30
27.2,2.508860759493672,3.345555867775772,4.24434542958636,3.1988069149027467,30.146748952873025,29.101210438189412,30
28.0,4.808860759493683,5.2328241483986915,7.272342236427789,6.001344675551508,29.231479472847184,27.960481911970902,30
29.0,6.808860759493683,6.766445682181882,10.199967206008552,8.804873698774685,27.961571983407197,26.56647847617333,30
30.0,7.2088607594936605,7.057315408070906,10.677552644074495,9.856473681958192,27.200841726112714,26.37976276399641,30
30.7,7.108860759493638,7.056219554722389,9.700752899843735,9.42405321096075,27.63216634376164,27.355466654878654,30
31.5,7.308860759493683,7.57689545125109,9.467342340559384,9.555735565072553,28.021159886178538,28.109553110691706,30
32.5,7.7088607594936605,8.5995318407995,9.306178634830758,9.8610962848758,28.7384355559237,29.293353205968742,30
33.5,10.408860759493678,9.929838854454829,10.78670722084044,11.476311291988111,28.453527562466718,29.143131633614388,30
34.5,13.008860759493672,10.923188720117139,12.446152914337972,12.981446004768145,27.941742715348994,28.477035805779167,30
35.5,15.408860759493678,11.529210842381218,13.997880489524817,14.179101430126309,27.35010941225491,27.5313303528564,30
36.5,16.608860759493695,12.671244760365738,14.612049602038752,14.808680945128998,27.86256381523674,28.059195158326986,30
37.5,18.108860759493666,14.571062196311317,15.86599064381474,16.130622618813334,28.440439577497983,28.705071552496577,30
38.7,19.808860759493683,17.40647661720118,17.729074230304917,18.143878033645564,29.262598583555615,29.67740238689626,30
40.0,21.808860759493683,22.55114153130839,20.733173701066107,21.453863618109608,31.09727791319878,31.81796783024228,30
41.2,23.608860759493666,27.65493025213371,24.361752342251464,25.324705262282833,32.330224989850876,33.293177909882246,30
42.5,24.808860759493683,27.866202350092777,25.549469979736187,26.105457164733195,31.760745185359582,32.31673237035659,30
43.7,26.008860759493672,25.674822358515456,25.670745172318448,25.689146534622324,29.985675823893132,30.00407718619701,30
45.0,27.908860759493678,26.084739784269374,26.99920793631665,26.78948801412895,29.295251770140425,29.085531847952723,30
46.2,30.608860759493666,30.78136065064072,30.139372151705373,30.22379586846091,30.55756478217981,30.641988498935348,30
47.5,34.20886075949366,35.614896882125265,34.741396709084654,34.97347002016906,30.641426861956205,30.87350017304061,30
48.7,36.108860759493666,38.18590079916484,39.85119673443785,39.86583878071363,28.32006201845121,28.334704064726992,30
50.0,37.608860759493666,39.94187630972803,42.85731299422034,42.87609472200157,27.065781587726462,27.084563315507694,30
51.5,38.50886075949367,39.2183929478343,40.5030954781455,40.62306955949978,28.59532338833452,28.715297469688807,30
53.0,39.80886075949368,39.40039140133095,40.004902781588584,40.07558227924841,29.32480912208254,29.395488619742366,30
54.5,40.90886075949368,41.365670428661446,40.48673863017993,41.017537601339285,30.34813282732216,30.878931798481517,30
56.0,42.80886075949368,43.269563766166584,42.04541205315061,42.72395980523035,30.545603960936234,31.22415171301597,30
58.0,45.70886075949366,44.92445686720538,43.69481306559476,44.15463764465244,30.76981922255294,31.22964380161062,30
60.0,47.608860759493666,46.7822239648512,45.68296910762879,46.03536005415074,30.746863910700455,31.099254857222405,30
61.5,49.00886075949367,48.77838625469437,47.913819801977894,48.2208877001957,30.557498554498665,30.864566452716474,30
63.0,50.80886075949368,50.79272001797605,49.843117636725026,50.22966333404108,30.563056683934974,30.949602381251026,30
65.0,52.708860759493675,52.81161206900482,51.70370702638027,52.153039750186736,30.658572318818088,31.10790504262455,30
67.0,54.70886075949366,54.867489915506326,53.77369150340347,54.213094038806304,30.654395876700022,31.093798412102856,30
69.0,56.708860759493675,56.74270446181467,55.8347631536553,56.19044590362971,30.55225855818496,30.907941308159366,30
71.0,58.90886075949368,58.657152005234366,58.014648343754715,58.24623531410144,30.410916691132925,30.64250366147965,30
73.0,61.00886075949367,60.72598954497147,60.20683455108889,60.36987882637271,30.356110718598757,30.51915499388258,30
75.0,62.90886075949368,62.78837361740477,62.44419118752346,62.53678721191899,30.25158640548578,30.344182429881315,30
77.5,64.80886075949367,64.80962243102435,64.63888799760397,64.68166261862473,30.127959812399624,30.170734433420378,30
80.0,66.80886075949368,66.63333641228584,66.49279681504149,66.53092637566215,30.102410036623695,30.140539597244356,30
82.5,68.60886075949367,68.56674407325735,68.40805217639462,68.44095416776801,30.12578990548934,30.158691896862734,30
85.0,70.50886075949367,70.49966393653779,70.44322314400532,70.43700369942158,30.062660237116205,30.05644079253247,30
87.5,72.40886075949368,72.3540961455765,72.33992402807782,72.3121795488333,30.041916596743206,30.01417211749869,30
90.0,74.00886075949367,73.98709382457756,73.95744773097844,73.90577385967083,30.081319964906726,30.029646093599112,30
92.5,75.40886075949368,75.3427103751565,75.35088371463803,75.29791955878376,30.04479081637274,29.99182666051847,30
95.0,76.50886075949367,76.53128281869886,76.49403294000433,76.46384005061938,30.067442768079474,30.037249878694524,30
97.5,77.50886075949367,77.49912178922968,77.4673451747371,77.44747916819988,30.0516426210298,30.03177661449257,30
100.0,78.20886075949369,78.267226123268,78.15640368215212,78.20286433589712,30.064361787370885,30.110822441115886,30
103.0,78.70886075949367,78.7654697916174,78.55316902628468,78.65097722784745,30.114492563769957,30.212300765332728,30
106.0,79.00886075949367,79.06622160025842,78.74416354073779,78.89243789335166,30.17378370690676,30.32205805952063,30
109.0,79.20886075949367,79.23128281869887,78.88679845052029,79.06114142364197,30.170141395056902,30.344484368178584,30
112.0,79.10886075949367,79.23307027057211,78.82999717938193,79.0380899461427,30.19498032442941,30.40307309119018,30
115.0,79.10886075949367,79.20988405529673,78.68990606702742,78.94842697309556,30.26145708220116,30.519977988269304,30
118.0,79.00886075949367,79.04270446181468,78.48332840915275,78.75953234046327,30.283172121351413,30.559376052661932,30
122.0,78.80886075949367,78.90937243753416,78.29361001807504,78.58347957786374,30.325892859670418,30.615762419459116,30
125.0,78.60886075949367,78.7317918619743,78.11254632544848,78.41239000882553,30.319401853148776,30.619245536525824,30
128.0,78.50886075949367,78.57603454512022,77.93422071130902,78.23911164144964,30.336922903670583,30.6418138338112,30
132.0,78.40886075949368,78.38709382457755,77.80629260692733,78.08383139147206,30.303262433105488,30.58080121765022,30
136.0,78.20886075949369,78.26495291450304,77.66178920306379,77.93742134857388,30.327531565929164,30.60316371143925,30
140.0,78.20886075949369,78.20962243102434,77.6308391293336,77.88021023396192,30.329412197062425,30.57878330169075,30
145.0,78.10886075949367,78.10962243102435,77.44006547549054,77.71337833041851,30.39624410060584,30.669556955533807,30
150.0,78.00886075949367,77.9978626795403,77.23282942311653,77.5501657100231,30.44769696951721,30.765033256423777,30
155.0,77.90886075949368,77.88709382457756,77.00082033571974,77.38726001150528,30.499833813072286,30.886273488857825,30
160.0,77.70886075949367,77.67578261065418,76.66408994782255,77.11391618632015,30.561866424334028,31.011692662831635,30
165.0,77.50886075949367,77.44270446181469,76.26961060428707,76.80315984184507,30.639544619969612,31.17309385752762,30
170.0,77.20886075949366,77.14321216817869,75.67801858628246,76.33462151131783,30.808590656860858,31.46519358189623,30
175.0,76.80886075949368,76.7208517727497,75.12701845321908,75.86950665406255,30.85134511868715,31.593833319530617,30
180.0,76.40886075949368,76.34270446181469,74.99594346170662,75.62354975810251,30.719154703712178,31.346761000108074,30
185.0,76.10886075949367,76.06495291450305,74.94547857649084,75.4453689072196,30.61958400728345,31.11947433801221,30
190.0,75.90886075949368,75.79888273237447,74.72371837105928,75.17581845733129,30.623064275043177,31.07516436131519,30
195.0,75.60886075949367,75.46649159925796,74.3791053662058,74.81854300955887,30.647948589699098,31.087386233052158,30
200.0,75.30886075949367,75.19938975062952,73.96322479201085,74.4344769968489,30.76491275378062,31.236164958618673,30
206.0,75.10886075949367,74.91090142442798,73.386520401157,73.98453942288758,30.926362001540397,31.524381023270976,30
212.0,74.90886075949368,74.70042722258685,72.78251694489522,73.56270320858692,31.13772401399993,31.917910277691632,30
218.0,74.80886075949367,74.5780906892268,72.22561132246258,73.26057754765034,31.317513141576455,32.352479366764214,30
224.0,74.70886075949366,74.51090142442798,71.91238679197997,73.1066136921854,31.40428773224258,32.598514632448016,30
230.0,74.60886075949367,74.4223826653329,71.76198894817816,72.99567680886388,31.426705856469027,32.66039371715475,30
236.0,74.60886075949367,74.34701364392728,71.67279752550238,72.92907252700327,31.417941116924013,32.67421611842491,30
240.0,74.60886075949367,74.35866480236466,71.58116150666918,72.86735460631766,31.491310196046996,32.77750329569548,30
250.0,74.60886075949367,74.38162244427686,71.42136051094307,72.80237187916748,31.579250565109376,32.96026193333378,30
258.0,74.70886075949366,74.41397645521042,71.40618399583563,72.85716015754699,31.55681629766343,33.007792459374784,30
265.0,74.60886075949367,74.4561333558182,71.42468861479276,72.91458017261519,31.541553183203007,33.03144474102544,30
272.0,74.50886075949367,74.39938975062952,71.50046749897518,72.93403027175165,31.465359478877872,32.89892225165434,30
280.0,74.30886075949368,74.2432121681787,71.47604053304632,72.82794643484465,31.415265733334053,32.767171635132385,30
290.0,74.10886075949367,73.98760222092082,71.28269930282802,72.59032881884727,31.39727340207355,32.7049029180928,30
300.0,73.90886075949368,73.8432063901087,71.04927344141217,72.35261732638514,31.49058906372356,32.793932948696536,30
307.0,73.80886075949367,73.81013401933922,70.8025045590233,72.18003204806365,31.630101971275565,33.00762946031591,30
315.0,73.90886075949368,73.81088395766363,70.64122328151296,72.08738967861062,31.723494279053014,33.16966067615067,30
325.0,74.10886075949367,73.97804429399925,70.61091311863336,72.11252148099038,31.865522813008866,33.367131175365884,30
335.0,74.30886075949368,74.17804429399925,70.56824683446071,72.17760514761973,32.00043914637952,33.60979745953854,30
345.0,74.40886075949368,74.256369147904,70.39986612508733,72.11660347986196,32.13976566804203,33.85650302281667,30
355.0,74.60886075949367,74.39115455331955,70.27321250515905,72.08036148524343,32.31079306807612,34.1179420481605,30
365.0,74.60886075949367,74.39115455331955,70.20521094618468,72.0550841871129,32.336070366206656,34.185943607134874,30
375.0,74.70886075949366,74.46799526814058,70.20794975255895,72.07927763316823,32.38871763497235,34.26004551558164,30
387.0,74.70886075949366,74.50263673383586,70.10980399820204,72.03599257013715,32.4666441636987,34.39283273563382,30
400.0,74.80886075949367,74.55787109079077,69.90896823222938,71.94541261340265,32.61245847738812,34.648902858561385,30
412.0,74.90886075949368,74.66012669282956,69.83753361766722,71.9360308454689,32.72409584736066,34.822593075162345,30
425.0,75.00886075949367,74.73680090858915,69.87956682788776,71.96139415861686,32.77540674997229,34.85723408070139,30
437.0,75.00886075949367,74.77122062934666,69.83312598114527,71.92193356247643,32.84928706687023,34.938094648201385,30
450.0,75.10886075949367,74.78307662858721,69.81517972215869,71.90357714928595,32.87949947930126,34.96789690642852,30
462.0,75.00886075949367,74.77122062934666,69.90223803636792,71.91864079209097,32.85257983725569,34.86898259297874,30
475.0,74.90886075949368,74.68108428316614,69.85126080892138,71.83230966713316,32.84877461603298,34.82982347424476,30
487.0,74.70886075949366,74.48280111729997,69.66210784885176,71.63137809018565,32.85142302711432,34.82069326844821,30
500.0,74.40886075949368,74.21532676762921,69.42222677002351,71.36227201581403,32.85305475181518,34.793099997605694,30
515.0,74.10886075949367,73.89475773507712,69.02653843273536,70.95985779355411,32.934899941523014,34.86821930234176,30
530.0,73.80886075949367,73.50563185774536,68.5049363372033,70.42737575736997,33.078256100375384,35.00069552054205,30
545.0,73.60886075949367,73.32912519828508,68.30550898136062,70.15905807645439,33.1700671218307,35.02361621692447,30
560.0,73.70886075949367,73.47617262710929,68.44185449214633,70.23154210577673,33.24463052133257,35.03431813496296,30
580.0,74.10886075949367,73.87849535825372,68.69765667296576,70.5566752554885,33.321820102765216,35.18083868528795,30
600.0,74.50886075949367,74.36689735046455,69.24762462259152,71.07795575858313,33.288941591881425,35.11927272787304,30
615.0,74.90886075949368,74.80784543230527,69.90182418356335,71.57872652403861,33.229118908266656,34.90602124874192,30
630.0,75.20886075949367,74.97451085942335,70.32256015465674,71.84725557112512,33.12725528829823,34.651950704766605,30
650.0,75.20886075949367,74.9347042372618,70.52065208497484,71.89601123822743,33.03869299903437,34.414052152286956,30
670.0,75.00886075949367,74.71064212994189,70.50807471945016,71.8041038211359,32.90653830880599,34.202567410491724,30
690.0,74.90886075949368,74.49299591401119,70.39670178568518,71.65419874347393,32.83879717053726,34.09629412832601,30
710.0,74.80886075949367,74.23741619875283,70.08305970561514,71.34712945382537,32.89028674492745,34.15435649313768,30
730.0,74.90886075949368,74.29984977457119,69.77526485351515,71.21747932396391,33.08237045060727,34.52458492105603,30
750.0,75.10886075949367,74.47152102431446,69.56015821337334,71.2369695694024,33.23455145491205,34.911362810941114,30
775.0,75.20886075949367,74.60114846479168,69.24135936718199,71.14826211856827,33.45288634622341,35.35978909760969,30
800.0,75.20886075949367,74.7047071255126,69.2009785308876,71.2117005887952,33.4930065367174,35.503728594625,30
825.0,75.10886075949367,74.80451827897906,69.51694106608083,71.4894044364319,33.31511384254716,35.28757721289823,30
850.0,75.20886075949367,74.97465056563952,69.89245717244256,71.78883154396686,33.18581902167266,35.08219339319696,30
875.0,75.50886075949367,75.12654596857104,69.9749460292973,71.84454744841071,33.28199852016033,35.15159993927374,30
900.0,75.90886075949368,75.39554708687288,69.88052274808749,71.89336804747795,33.50217903939493,35.515024338785395,30
925.0,76.20886075949367,75.60119840181619,69.75179874391526,71.90041680976894,33.70078159204725,35.84939965790093,30
950.0,76.50886075949367,75.71258784169495,69.44621943130056,71.77218261449018,33.94040522720478,36.26636841039439,30
975.0,76.60886075949367,75.76070361459443,69.21521563371064,71.69011195982245,34.07059165477199,36.54548798088379,30
1000.0,76.50886075949367,75.76289675950864,68.99165244238286,71.57786535820568,34.18503140130295,36.77124431712578,30
1030.0,76.30886075949367,75.71149897375625,68.92791594827952,71.49738596423887,34.214113009517376,36.78358302547673,30
1060.0,76.00886075949367,75.43194038086227,68.77957187748605,71.2038703944892,34.22806998637307,36.65236850337622,30
1090.0,76.10886075949367,75.41877024379535,68.69534146155549,71.11853018709841,34.300240056696936,36.723428782239864,30
1120.0,76.50886075949367,75.7987344045433,68.74993121842994,71.37253777825356,34.42619662628974,37.04880318611336,30
1150.0,77.00886075949367,76.20200832220912,68.86915441946296,71.66985509294445,34.53215322926468,37.332853902746166,30
1180.0,77.40886075949368,76.6602129271109,69.39692572223373,72.24247099128173,34.41774193582917,37.26328720487717,30
1220.0,77.50886075949367,76.82576259638401,69.9528608366657,72.61695063817669,34.20881195820732,36.8729017597183,30
1250.0,77.40886075949368,76.73235050344832,70.12908576714523,72.72629461135391,34.00605589209441,36.60326473630309,30
1280.0,77.20886075949366,76.4250876220367,69.49878659210671,72.32475659449261,34.10033102754409,36.92630102992999,30
1320.0,77.00886075949367,76.3551493238553,69.37666082369074,72.43283890679889,33.92231041705641,36.97848850016456,30
1360.0,76.80886075949368,76.24551924225624,69.93965682417371,72.90570688427616,33.33981235798008,36.305862418082526,30
1400.0,76.50886075949367,75.92471567271502,69.72912576721473,72.64180277670906,33.28291289600597,36.1955899055003,30
1450.0,76.30886075949367,75.7468604790551,69.58317726999081,72.47923313675702,33.267627342298084,36.16368320906429,30
1500.0,76.20886075949367,75.48885254259457,69.14803059206949,72.2344746407013,33.25437790189328,36.34082195052508,30
1550.0,75.90886075949368,75.22624953292048,68.65292659267519,71.90879686899858,33.3174526639219,36.57332294024529,30
1600.0,75.80886075949365,75.15957582226004,68.63684529332393,71.99983529618326,33.159740526076774,36.52273052893611,30
1650.0,75.50886075949367,75.03897691254677,68.8872120448819,72.16165117282677,32.87732573972001,36.151764867664866,30
1700.0,75.40886075949368,74.95348274644866,68.70669470963426,71.95603728573667,32.99744546071199,36.246788036814394,30
1750.0,75.60886075949367,74.96193018251407,68.25843607764583,71.66392049814803,33.298009684366036,36.70349410486824,30
1800.0,75.80886075949365,75.0608755161035,67.85791560210689,71.42739481888673,33.63348069721677,37.20295991399661,30
1850.0,76.10886075949367,75.22909689018731,67.96967071309165,71.49156335053402,33.737533539653285,37.25942617709566,30
1900.0,76.20886075949367,75.29916471781628,67.972796151798,71.45609898585012,33.84306573196616,37.32636856601829,30
1950.0,76.30886075949367,75.53009947160197,67.99446902533148,71.62543547992149,33.90466399168048,37.53563044627049,30
2000.0,76.30886075949367,75.88293841182178,68.64751561411686,72.14112485308198,33.74181355873981,37.23542279770493,30
2060.0,76.10886075949367,75.45896924369937,68.06904346829072,71.56311987346906,33.89584937023031,37.389925775408656,30
2120.0,76.10886075949367,75.55546975607501,67.90519735108012,71.62221698894048,33.93325276713453,37.650272404994894,30
2180.0,76.20886075949367,75.72479347621343,68.04362098524788,71.70287624219299,34.02191723402045,37.68117249096555,30
2240.0,76.40886075949368,75.66850990861488,67.64573537705354,71.38862445021628,34.279885458398596,38.02277453156134,30
2300.0,76.40886075949368,75.59868107811744,67.3289818386652,71.20095871546775,34.39772236264969,38.26969923945224,30
2360.0,76.50886075949367,75.60406782770043,67.45481456614021,71.33728827689977,34.26677955080066,38.14925326156022,30
2400.0,76.70886075949367,75.64362012755026,67.16768889341574,71.15111998790833,34.49250013964193,38.47593123413452,30
2500.0,77.30886075949367,76.35781785147586,67.98094558822929,71.90014399521155,34.45767385626431,38.37687226324657,30
2580.0,77.80886075949367,76.5415419917529,68.08823042095558,72.09396412966953,34.447577862083364,38.45331157079731,30
2650.0,78.10886075949367,76.67453552193751,67.83964417452475,72.05511050738606,34.61942501455145,38.834891347412764,30
2720.0,78.10886075949367,76.96938999845797,68.21750153242024,72.3285423223985,34.640847676059465,38.75188846603773,30
