Freq,Floor Bounce,Ceiling Bounce,Front Wall Bounce,Side Wall Bounce,Rear Wall Bounce,Total Early Reflection
22.4,14.783847983737928,5.635460918490452,23.226051193443283,20.89622847148945,25.019739040467016,21.36418043962101
23.0,15.985061399255756,6.7741919451713954,24.00005298301005,21.922549653782795,25.932124000552193,22.269838292858594
23.6,17.28876510466864,8.039765204862846,24.777378101100226,23.020531434482166,26.9471700914726,23.24676408238699
24.0,19.29260895060787,9.931552152910513,26.127696436416187,24.73916715725983,28.542054970950204,24.821381761529807
25.0,21.205098831891746,11.782560654995336,27.313724695863527,26.233699927634603,29.93982013257849,26.216212573873577
25.8,22.834059041004394,13.487886846924056,28.190577800888832,27.46510206963407,31.020178849728666,27.31792067991566
26.5,24.467706694160256,15.14150810925861,28.787218542953184,28.475773846789167,31.89904107188252,28.22331715487121
27.2,26.026107141550597,16.885213170456808,29.262197896970747,29.396672309052548,32.60930375994815,29.01674100913698
28.0,27.63502322919129,19.275251460607137,29.934487472294222,30.205504286662574,33.18668098309726,29.80558986428119
29.0,29.31099621927038,21.98892132021456,30.484894145017563,30.946603038494374,33.58456366503634,30.535228919125643
30.0,31.638332233147196,25.695005558541595,31.385232974856876,31.92385239270874,34.151788105111734,31.68122411991726
30.7,34.83860833769853,30.726435526950297,33.753760099355816,33.82111419276808,35.465875325660136,33.99095591085228
31.5,38.24882245779415,35.94087709308417,36.023913551638856,35.469986415407135,36.432766637737046,36.538651562893506
32.5,43.66726558859611,43.09238414975147,38.02893307750159,36.91246645891877,37.295310196055766,40.811744468291465
33.5,46.96588846059689,47.648985148795504,40.42339169614149,38.71176869180715,39.0396661719206,44.294186382718294
34.5,47.939694645653844,49.486235124552394,42.702618475442335,40.48825337010021,40.4439008057945,45.84256291682908
35.5,47.89782889352131,50.06668552790023,44.91507845916681,42.38664207984061,41.61314861652741,46.55156350334212
36.5,46.47173086495735,48.96839968904115,47.71313213288306,45.083984093606375,43.481299602976065,46.75465714631429
37.5,46.582351901442934,49.269961211182476,50.365400364138594,47.70301268066214,45.784921670853834,48.26904640607813
38.7,46.81317125706968,49.67819637937424,52.932295286351774,50.24651765480493,48.390087460674636,50.10445927473714
40.0,47.20650676335441,50.192780942662466,55.45307507342906,52.89445108432784,51.21019827597786,52.22700751085395
41.2,47.72572200748601,50.87461960007613,58.115432613904076,55.66022132678978,54.14464214287338,54.64590851004769
42.5,48.677118314030054,51.96137189992223,61.443050365657754,58.977620784920035,57.66346288835845,57.780237118533364
43.7,49.88627631207413,53.26988862982344,65.50660398171368,63.0850202663715,61.93490436327174,61.73727494575654
45.0,51.565958821307674,54.56137189992222,68.24182407129007,65.54046048074404,64.47557394402895,64.30850470456203
46.2,53.409361336539774,55.83639559608383,69.88211060599407,66.81965382448232,65.74018826933157,65.77324961155712
47.5,56.6527499421436,57.604643588347955,67.52646992734286,63.94206938030855,62.387077106572804,63.38765647091381
48.7,59.70942076110278,59.64044167945491,66.91708143040397,62.934623832743,60.69092133598822,62.97139134997758
50.0,63.19913536951438,62.31592692226707,66.69829504307708,62.78190356194082,59.87437590792746,63.555627944818795
51.5,65.85260953202217,64.64314826109435,67.22241353228733,63.557178200472336,60.37276288538693,64.88389950043353
53.0,68.11430637862281,66.85521969308378,68.02242968251824,64.85373935052745,61.945126406398074,66.49143637348546
54.5,70.01592692226706,68.78219812790057,69.2385310687496,66.41594938796183,63.83847271401169,68.16700454982474
56.0,71.5457671943847,70.44314826109435,70.43853106874958,68.01840832391773,65.78809821544839,69.68853031338774
58.0,72.7122717831562,71.73257218046558,71.59551162050002,69.47881085043062,67.55221584571265,70.97437985515329
60.0,73.74283030471975,72.86096514237182,72.64980311072242,70.802091438974,69.11107821532094,72.12629585015536
61.5,74.64283030471972,73.85260953202217,73.6498031107224,72.05889706545217,70.59287253481997,73.18513136292873
63.0,75.37387961222817,74.71592692226707,74.50726421930294,73.11533834081195,71.86600787108671,74.08831051454784
65.0,75.97387961222817,75.37609175449221,75.19177750674625,74.01533834081194,72.94725764399689,74.8294590765912
67.0,76.37387961222817,75.8404416794549,75.69177750674626,74.65240131558384,73.80182579958839,75.366506621315
69.0,76.73821129888744,76.27150800786937,76.13175513861907,75.24820136208876,74.55330774586997,75.8572561548332
71.0,76.97001488257477,76.57150800786938,76.43175513861907,75.6867120680812,75.16659137842767,76.21290797141916
73.0,77.27001488257477,76.93663575667185,76.7874892989204,76.1649119959506,75.8189673984713,76.62736368526915
75.0,77.53513059177983,77.23663575667186,77.05907003611941,76.5649119959506,76.38824857897983,76.9774512233525
77.5,77.73513059177982,77.46845083805432,77.31508314243884,76.92342518384304,76.90037350460295,77.28036440004303
80.0,77.90076749445562,77.70076749445562,77.48618450501948,77.2023023206405,77.34376702831995,77.53393667922994
82.5,78.00076749445562,77.83435140868502,77.62914153605898,77.44119983124484,77.75524267823405,77.73623837739225
85.0,78.1669218511605,78.00076749445562,77.8577566746453,77.76074062498236,78.15239082199415,77.99065143770437
87.5,78.2669218511605,78.1669218511605,78.08618450501949,78.04027672897047,78.53315310408733,78.22226149987331
90.0,78.43358982687998,78.33358982687999,78.31508314243885,78.32064343308079,78.89191337292127,78.46470391277498
92.5,78.7,78.60076749445562,78.77297191737702,78.74027672897049,79.29695709424408,78.82923310675396
95.0,78.9,78.80076749445561,79.18651449586095,79.14119983124485,79.60435631614462,79.13564656582705
97.5,79.1,79.00076749445562,79.55742449135815,79.4616593883022,79.72289523679287,79.3772019809688
100.0,79.3,79.16845083805433,79.94346508697897,79.78338957194298,79.76073373451365,79.60155969210798
103.0,79.4669218511605,79.26845083805433,80.17198631358858,79.96395064819497,79.59783815889924,79.70639942227773
106.0,79.66692185116051,79.40306957104251,80.35839089711047,80.14530504353962,79.45506281426529,79.82260013729808
109.0,79.73435140868503,79.46845083805434,80.4297799508283,80.14530504353962,79.25781012816084,79.82851831906885
112.0,79.83435140868502,79.50306957104253,80.4297799508283,80.14530504353962,79.19097136264861,79.84305847089755
115.0,79.86845083805431,79.56845083805433,80.37198631358856,80.10412263968753,79.16029222406993,79.83487369342465
118.0,79.86845083805431,79.50306957104253,80.25742449135815,80.00412263968752,79.19500767340918,79.78168548945311
122.0,79.76845083805432,79.40306957104251,80.08585448910236,79.84302444611573,79.13447547500868,79.65994674405476
125.0,79.70306957104252,79.30306957104251,80.08585448910236,79.76395064819495,79.11690394611125,79.60824363903762
128.0,79.73663575667186,79.27150800786939,80.10065786069426,79.7046043972274,79.07499846372852,79.5928849464762
132.0,79.80306957104253,79.30690501035458,80.20065786069425,79.66670626616768,79.02690680487771,79.61975053889324
136.0,79.93663575667186,79.40690501035459,80.30065786069426,79.76670626616767,79.02690680487771,79.70951964845835
140.0,80.13663575667186,79.54283030471973,80.4716627539189,79.80920611180409,79.1009750888199,79.83788524560259
145.0,80.03663575667186,79.4122717831562,80.37166275391891,79.7092061118041,79.0217272161688,79.73570553993399
150.0,79.9404416794549,79.21227178315618,80.31508314243885,79.60920611180407,78.91715631469148,79.62749017873242
155.0,79.87609175449222,79.08219967332306,80.32979499755905,79.51564374029256,78.74468006657034,79.546011002925
160.0,79.8457671943847,78.94898514879551,80.32979499755905,79.37680320017617,78.4552123241182,79.44094014928976
165.0,80.01227178315618,79.0566725593005,80.48748929892042,79.52070188121242,78.36096383316446,79.54968820491389
170.0,80.2489851487955,79.25667255930051,80.70229476693693,79.62070188121241,78.41342962090019,79.71976447595577
175.0,80.48219967332307,79.4566725593005,80.90229476693693,79.82070188121241,78.69214642966415,79.93901425699181
180.0,80.55260953202217,79.4566725593005,81.04675150375354,79.93820413572708,78.99091489204496,80.05968348619794
185.0,80.48982856673472,79.26588846059687,81.09044363353323,79.93820413572708,79.1923722791104,80.05649448029142
190.0,80.19897445130925,78.83752777300028,81.03537086618987,79.74375958238676,79.17337916010403,79.86829844374071
195.0,79.97082970284298,78.44898359150842,81.08086845464632,79.55342828338573,79.0540609529189,79.71473648557873
200.0,79.94314826109434,78.17641629732152,81.1549176038529,79.3893713657742,78.89895895550251,79.63187806077201
206.0,79.95521969308379,77.992378988098,81.23924275721991,79.21291440077745,78.58807067278698,79.54869863853202
212.0,79.92869245367795,77.78538710465898,81.1549176038529,78.89576793263498,77.90053415830188,79.32580857995342
218.0,79.9950645803583,77.80497668676809,81.03924275721991,78.68916450384233,76.88022474921242,79.13759191596213
224.0,80.05521969308379,77.9377673428554,80.93924275721992,78.57604918841145,76.01701115340155,79.02691734562595
230.0,79.92179738688895,77.86136837622763,80.69366590096783,78.37604918841146,75.40549657651574,78.81005120282768
236.0,79.68219812790056,77.66136837622763,80.43924275721992,78.06319403481639,74.80154432075128,78.5270008446899
240.0,79.51592538879981,77.46136837622764,80.29366590096781,77.93468076914874,73.91691199974781,78.31205520797769
250.0,79.34314826109436,77.44258273663014,80.17848478147017,78.03558189513117,73.30365995389823,78.2042090775435
258.0,79.2096325668162,77.42526453928849,80.10489499373621,78.25130410818514,73.73036891493976,78.21568189151057
265.0,79.17082970284298,77.45062128010366,80.20229476693693,78.57050952978634,74.67056660908598,78.3790678394616
272.0,79.27082970284297,77.52526453928847,80.43175513861907,78.87050952978635,75.29035878003666,78.60298966235287
280.0,79.37082970284297,77.65062128010364,80.58748929892042,79.10805424837285,75.36024605688186,78.75071379482503
290.0,79.49897445130925,77.85062128010364,80.70065786069426,79.49749334079488,75.71670497999342,78.96464915340248
300.0,79.63257218046559,77.95062128010365,80.82977995082831,79.99199937211293,76.3299841305676,79.22303085445225
307.0,79.87082970284298,78.10034112939827,80.9297799508283,80.2617730885644,76.5646377288108,79.41575503062789
315.0,80.1096325668162,78.26726558859612,80.85742449135816,80.1121515913095,76.51359036895751,79.43403698099081
325.0,79.95521969308379,77.9672655885961,80.71508314243883,79.88420540217268,76.59591558077199,79.26886991927802
335.0,79.3252645392885,76.90497668676807,80.54675150375354,79.46385203250445,76.36651979172579,78.805430490851
345.0,78.73776734285539,75.62457993687897,80.45491760385289,78.82043663028578,75.50747334113802,78.24898068637718
355.0,78.65865724017871,75.28230649956842,80.47602210108666,78.36702684154726,74.79267100785984,78.02866486911589
365.0,78.8361070797735,75.34449659419708,80.66005936857911,78.36781203523978,74.39386315819819,78.10654860646973
375.0,79.05906263657509,75.30994607707173,80.86005936857912,78.4939907783561,74.09807148050568,78.23177334687765
387.0,79.13753193576905,75.13403046914814,80.9136394060688,78.45763929358152,73.76636488293991,78.220725843418
400.0,78.8625132206552,74.62638463906274,80.78847217927515,78.24315158022806,73.3848887908712,77.98529214234193
412.0,78.32180052683974,73.83908938702467,80.48847217927516,77.78448856499932,72.93794761357397,77.53994718837481
425.0,77.82180052683972,73.30920303819731,80.11941403242197,77.3953608050892,72.44617516384909,77.11353471510621
437.0,77.6888886353865,73.29641043056627,80.0729181897017,77.27641773708538,72.3422200627357,77.03032850480261
450.0,77.91664590330463,73.3816538778036,80.39817545090705,77.5764177370854,72.90473148092613,77.32450887993026
462.0,78.20851320750933,73.2233091781901,81.0136394060688,78.12702608319532,73.60484368200679,77.80166942821874
475.0,78.40722706905572,72.79739559511016,81.58847217927516,78.4683219323825,74.09871428779626,78.175372564684
487.0,78.39561715933444,72.10219203555889,81.85121482311348,78.3879159149663,74.16575409845957,78.24227573382531
500.0,78.11403481914587,71.13045862897921,81.77455785944566,77.94472342622637,73.07076339015356,77.93507856274908
515.0,77.79500059240539,69.43820810450828,81.57455785944566,77.81501077519452,72.29365946817518,77.63570470674847
530.0,78.0921408605958,69.69887960696505,81.56761108534184,77.53448059051746,73.02370310012678,77.693670219506
545.0,78.24913385654655,69.77962302935872,81.86761108534182,77.39873178824426,73.09725336548242,77.858985706189
560.0,78.09901518734863,68.90154426406866,82.07455785944568,77.40421585839606,72.51713909550561,77.87333317627487
580.0,77.7600100914344,68.18786214328792,81.88664191481759,77.40699307738771,71.56160310557009,77.63529789624795
600.0,76.74817574255785,66.69615099485272,81.27071823989354,77.04192579286584,70.80933313147884,76.9655155823177
615.0,75.22961489244923,63.86704961360276,80.3421886568873,76.37036176291105,70.07408662737544,75.96598198884911
630.0,74.0140317499722,62.16729453327143,79.33443179205895,75.31234138956583,69.32397491213746,74.91859905450916
650.0,73.64983007153705,62.35698073590575,78.68664191481759,74.47356973025072,68.8200224104143,74.29528557816815
670.0,73.46777583864198,62.83571312990128,78.87968536691979,74.69024417152029,69.13681039932536,74.44197038998038
690.0,73.50053574532843,64.96466171748946,79.37455785944566,75.0185551609279,69.6228537865866,74.85836773434367
710.0,73.5092693338683,66.56355877122027,79.62758020744901,75.08320411494546,69.32404209179957,75.03907557764927
730.0,73.99162992263452,67.0406704926981,79.63443179205893,75.21661034847575,68.48881031583943,75.11503124991891
750.0,74.11170623103459,65.78969294222597,79.83698126844558,75.13696132791534,67.54049583467413,75.16387761351419
775.0,74.01175280341668,64.37940843630548,80.21063265137013,75.06505845751303,67.01984165716398,75.31562061222964
800.0,74.91520661679138,63.905749230048485,80.71063265137015,75.32840482631492,66.22314705762706,75.78741860681012
825.0,75.28725165402636,62.1808007217583,81.03871757721683,75.61585391541342,66.29876659348689,76.08873402153365
850.0,74.54546343498801,60.62924838946486,80.73900047053698,74.76195533634001,66.11241984692126,75.61596263625583
875.0,74.60942147414261,63.102337579585054,80.53900047053698,73.84965857230358,65.14511225699702,75.35784307359782
900.0,74.81182105854467,64.38275550459126,80.7563032996247,74.10603783207799,65.22378777484644,75.58989703909961
925.0,74.26146755507787,64.57354966200262,80.57740200741134,74.04936028131375,65.0951987914993,75.37572172663121
950.0,73.94068971307662,64.9234968506598,80.22833223333885,73.75096840094275,64.01521051483905,75.03853705736495
975.0,74.27186175887041,66.1079926521559,80.15923203800298,73.78650746893855,64.15269516556148,75.08052800528276
1000.0,75.22312489912069,68.42081894554056,79.62532936705038,72.81091066143438,63.684737532108,74.86896537363346
1030.0,75.89389642518191,70.32756634145693,79.4669031315327,72.98706126715255,63.87838836338959,75.06281898214995
1060.0,76.7832722873143,70.92537703077312,79.91913795500014,73.550725610986,64.74130739281942,75.65467043781109
1090.0,78.52773304031629,72.37640124428998,80.939000470537,74.36207444646492,65.40526945003859,76.87427268992496
1120.0,79.15597330084368,73.63112342273669,81.29156994449546,75.11924973074615,65.81179170956696,77.42506617532969
1150.0,79.0730120924441,73.80879341872709,81.1970981243438,74.59240677919286,65.06476681667444,77.30061302230075
1180.0,76.49547355060119,69.94041068732142,79.38844499392837,71.90604605187254,63.50146891096895,75.0269938904306
1220.0,76.14264771893205,69.22519075000122,78.7876285233883,71.97479233064323,62.999353607896424,74.56062878252767
1250.0,78.08687662824873,71.22093293934181,80.5714649346772,74.20336787170422,65.9969112267883,76.47347070911432
1280.0,79.4573014965793,73.61318754316846,81.04124799874558,74.99297678703164,65.98747999562076,77.38569224101073
1320.0,79.26127711209433,73.08573451953457,80.66193901340313,74.84063524875066,65.84697011551827,77.08420791994052
1360.0,78.52389526938809,72.99073156635842,80.31913795500014,74.21966565363114,64.62154366056676,76.59042628443862
1400.0,77.82154865751025,74.00432912249856,79.92532936705038,73.40106077052698,63.60041639396769,76.1944601515091
1450.0,77.33341139788129,73.25648313414827,79.4719469475759,73.54085570382888,64.65915187003705,75.78313723655803
1500.0,77.29484664455458,72.89099930883405,79.61382042402741,73.45596311109173,63.66799017076693,75.77670335054424
1550.0,78.31664590330462,73.9328809265652,80.07118930448192,74.66646935895153,64.66593348802436,76.5603595710144
1600.0,77.76322504785603,73.22057765478031,80.64124799874557,74.59287075927924,62.71518749303755,76.57653756612017
1650.0,77.46870529959135,71.94492572056969,81.18762852338828,74.5732071726426,63.65430293336665,76.70084176205654
1700.0,77.32536925857934,69.58231638410433,81.68093929731282,74.4986700191374,64.25552792911952,76.834131749445
1750.0,78.31861981293832,70.4416645419331,82.47983775130112,77.1327137535208,66.56298287494047,77.95434443449447
1800.0,78.6630155327081,69.88460204172996,82.46610405927196,77.50313280462271,66.13642334942712,78.06272851736118
1850.0,77.81567459457276,69.37524319942699,82.04670449332896,77.47043639651994,66.46483127104064,77.62859033013892
1900.0,76.17090653812114,68.4672655885961,81.2600593685791,76.433211976872,64.8155211325459,76.61081115586
1950.0,75.33315940024855,68.56226919657723,80.36005936857912,75.4594619119216,63.08721098626535,75.73236734440871
2000.0,74.751699326782,68.32361409713275,79.51106138014497,73.68711214688726,61.490629119009924,74.79425294234106
2060.0,74.22330654304531,69.72235821714527,79.18847217927515,73.60312628656055,62.101042806638134,74.5736160326044
2120.0,73.73543550538807,69.6078531952534,78.89366590096782,73.50486003841849,62.55128902317112,74.29733622483904
2180.0,76.11638770313007,71.3397909960955,80.03467294907279,74.44284103780154,63.62845878052295,75.69206837208618
2240.0,76.3447529719088,71.33966428643987,80.8145860212901,75.45426747446656,64.56372016789959,76.34101896767321
2300.0,77.3022520696168,71.79598074863182,82.25533634032197,76.35536723897667,64.44372995236643,77.52704125957258
2360.0,77.32812833708283,71.17625435142637,83.71397192686999,76.82062526454617,65.80785867527938,78.50328487217546
2400.0,77.09300137511778,70.10524403428,84.1296162392625,77.28928251144072,67.61293094106327,78.80344353725576
2500.0,76.48473965839736,69.81177657222747,83.22314563421493,76.5548068241724,67.06503730644675,77.98590893148487
2580.0,74.75380919627271,67.49138540383123,81.59724611394427,75.25685930952977,65.34763555047265,76.37329481499054
2650.0,73.64245952154165,64.68674801541687,80.70300877640227,74.91892360621853,64.55980868579759,75.50332351488018
2720.0,73.58460937074497,65.36356507458076,80.95226782158214,75.57107866047329,64.48102919192145,75.78995257222125
2800.0,73.65555770679713,65.20797077657875,81.41213742947974,76.21702932928538,64.95284600527826,76.23093355905706
2900.0,73.32279357550772,63.87975148895259,82.10792207318498,77.01116596775499,64.84779303227518,76.8072276091356
3000.0,73.80969525404657,65.70553627912042,82.8697169159879,77.26738147092226,63.928950429923106,77.4376693588948
3070.0,73.32863959665546,65.27106876148261,82.61142831954831,76.74147336304318,62.992567485202514,77.10203294539947
3150.0,74.09193280811249,67.6263735567079,81.80225126529048,76.14069394352259,62.54019449988421,76.54747522712469
3250.0,73.68907219886162,67.9559733008437,80.68710017935152,74.82883208270903,61.44004240750107,75.52824990826491
3350.0,72.98346763951382,67.39587874590276,79.59203283446482,73.24139489448565,60.65714147021046,74.42972901949669
