Freq "Front Wall Bounce"
22.4 54.64519541736961
23.0 56.725479754319295
23.6 59.33191799174047
24.0 60.91504984564786
25.0 62.023971804751184
25.8 63.022995913414974
26.5 63.80706304212353
27.2 64.60997233899347
28.0 65.48960020096297
29.0 66.24671437572017
30.0 67.20489499373622
30.7 68.18585448910237
31.5 68.88880923608455
32.5 69.44977242527429
33.5 69.5942078046541
34.5 69.55286789058958
35.5 69.5604385053842
36.5 69.4954953698571
37.5 69.4590700361194
38.7 69.47242617712321
40.0 69.68781919063811
41.2 69.84961317510901
42.5 69.93686089938416
43.7 69.99099956469132
45.0 70.01270459083858
46.2 69.91270459083859
47.5 69.54015352649985
48.7 68.78864543824928
50.0 68.50933111377239
51.5 68.58223876286175
53.0 68.52683455312959
54.5 68.39856801893187
56.0 68.25105966851946
58.0 68.22492954673288
60.0 68.22693758264846
61.5 68.35105966851944
63.0 68.40914589305828
65.0 68.52492954673289
67.0 68.63537086618986
69.0 68.79044363353323
71.0 69.01739302852535
73.0 69.12979499755905
75.0 69.21508314243883
77.5 69.27232492078933
80.0 69.30065786069424
82.5 69.34313939533781
85.0 69.34313939533781
87.5 69.27232492078933
90.0 69.22880715674528
92.5 69.28651449586094
95.0 69.28651449586094
97.5 69.24346508697897
100.0 69.15905509047515
103.0 69.04346508697898
106.0 68.9147553152921
109.0 68.94346508697897
112.0 68.98585448910238
115.0 68.98585448910238
118.0 69.00065786069426
122.0 69.0
125.0 69.0
128.0 69.04313939533782
132.0 69.07232492078934
136.0 69.1437907541973
140.0 69.17166275391891
145.0 69.17166275391891
150.0 69.18748929892041
155.0 69.18882407968415
160.0 69.25907003611941
165.0 69.2874892989204
170.0 69.30229476693692
175.0 69.31998423401443
180.0 69.26528715999551
185.0 69.28086845464632
190.0 69.44675150375355
195.0 69.43537086618987
200.0 69.40914589305828
206.0 69.40914589305828
212.0 69.43924275721992
218.0 69.4111612384014
224.0 69.43924275721992
230.0 69.46528715999551
236.0 69.43924275721992
240.0 69.32492954673289
250.0 69.22940676691627
258.0 69.18847217927515
265.0 69.46035311823195
272.0 69.59999999999998
280.0 69.65873795327732
290.0 69.6147553152921
300.0 69.58585448910237
307.0 69.62880715674528
315.0 69.65742449135816
325.0 69.6437907541973
335.0 69.57331062323637
345.0 69.40126136965905
355.0 69.29867242696346
365.0 69.37455785944566
375.0 69.40631904730495
387.0 69.50287628300401
400.0 69.55546484617882
412.0 69.56373611801398
425.0 69.58847217927514
437.0 69.55251964068127
450.0 69.47848478147017
462.0 69.36359778061501
475.0 69.09366590096782
487.0 68.80914589305827
500.0 68.60705246704605
515.0 68.52321085894987
530.0 68.49867242696348
545.0 68.54670449332895
560.0 68.6268345531296
580.0 68.71068966302632
600.0 68.84235653127142
615.0 68.9392427572199
630.0 69.0136394060688
650.0 69.0600593685791
670.0 68.99867242696347
690.0 68.84303370469881
710.0 69.03156734312867
730.0 69.31106138014495
750.0 69.31068966302631
775.0 69.08279645161535
800.0 68.97640057047572
825.0 68.85378373474546
850.0 68.67740200741133
875.0 68.69888657798577
900.0 68.80343598990848
925.0 68.80343598990848
950.0 68.82579638388721
975.0 68.57740200741135
1000.0 68.91106138014496
1030.0 68.85086213388186
1060.0 68.70343598990846
1090.0 68.80343598990848
1120.0 68.77740200741134
1150.0 68.92833223333884
1180.0 69.07740200741134
1220.0 69.27640057047572
1250.0 68.81897457933324
1280.0 68.88147278830732
1320.0 68.52833223333884
1360.0 68.48905003759016
1400.0 68.59888657798578
1450.0 68.41897457933327
1500.0 68.65378373474546
1550.0 68.54441901451352
1600.0 68.95121482311347
1650.0 69.05121482311348
1700.0 69.3423565312714
1750.0 69.20433100962669
1800.0 69.27291818970168
1850.0 69.19681251256303
1900.0 69.26035311823195
1950.0 69.10190494384013
2000.0 69.4819804378957
2060.0 69.62217227287162
2120.0 69.5269946725239
2180.0 69.7423408209153
2240.0 69.36056294530411
2300.0 69.09458081175065
2360.0 69.21451136085822
2400.0 68.99458081175068
2500.0 68.85452247721607
2580.0 68.5074800989159
2650.0 68.6516025395916
2720.0 68.87740200741135
2800.0 68.81155865308226
2900.0 68.4870894116122
3000.0 68.29901653352526
3070.0 68.39113279029613
3150.0 68.30686495137677
3250.0 68.11816611505026
3350.0 68.41596113015991
3450.0 68.89693869047026
3550.0 69.25461903632082
3650.0 69.294462252268
3750.0 69.29807735841965
3870.0 68.63008667084901
4000.0 68.29838407543666
4120.0 68.35083655234673
4250.0 68.75360223714215
4370.0 68.31169915057362
4500.0 68.09000660390974
4620.0 67.49386529607877
4750.0 67.93945616742319
4870.0 69.1068710472204
5000.0 69.7139882542347
5150.0 69.67347966940586
5300.0 69.43030287854428
5450.0 69.34454020040901
5600.0 69.50252362686139
5800.0 69.51836457689495
6000.0 69.62771362196187
6150.0 68.93799913471905
6300.0 68.25372007271035
6500.0 67.6902720206278
6700.0 67.75941134208865
6900.0 68.32833277081977
7100.0 68.98708898735109
7300.0 69.59626296298916
7500.0 68.64311400300521
7750.0 68.05544660667678
8000.0 68.18055818992698
8250.0 68.69560715651993
8500.0 68.78156271606699
8750.0 68.70827908182163
9000.0 68.6226746909951
9250.0 68.9836318615261
9500.0 68.69935324811989
9750.0 68.24896478636678
10000.0 67.77192806321428
10300.0 67.8605629647484
10600.0 68.17289628444288
10900.0 67.4226781834039
11200.0 67.91486652068578
11500.0 68.27737273774501
11800.0 68.06193667672378
12200.0 66.51495563193241
12500.0 66.5851970283398
12800.0 66.83624161115294
13200.0 67.21097504930928
13600.0 66.01036892095057
14000.0 65.45546484617881
14500.0 66.1778849334546
15000.0 67.14833202873919
15500.0 66.13065457757979
16000.0 65.41736660894709
16500.0 66.651315644954
17000.0 67.10926197850264
17500.0 65.9920649350121
18000.0 65.83698824140923
18500.0 66.56605927394509
19000.0 65.21780636249056
19500.0 64.05380820692052
