Freq "Estimated In-Room Response"
22.4 44.05212946227596
23.0 45.245068888387664
23.6 46.43250336471027
24.0 47.58544963814174
25.0 48.75383095411931
25.8 49.88528570825113
26.5 51.02084935282079
27.2 52.14423460414477
28.0 53.252129462275974
29.0 54.3563572999779
30.0 55.45212946227596
30.7 56.53156541081404
31.5 57.60593602140378
32.5 58.68873927386801
33.5 59.78298266368179
34.5 60.888739273868
35.5 62.02020761465951
36.5 63.15635729997791
37.5 64.28467109819422
38.7 65.43061701162614
40.0 66.55757522348335
41.2 67.68597916065318
42.5 68.83022430722951
43.7 69.95188237129182
45.0 71.04920205647034
46.2 72.15038666496326
47.5 73.2109513817094
48.7 74.26016967445358
50.0 75.28600199931228
51.5 76.2764531176459
53.0 77.2544609414143
54.5 78.17843598305764
56.0 79.07937965960286
58.0 79.94680474108046
60.0 80.75128267151527
61.5 81.515985442785
63.0 82.22467870462602
65.0 82.88726818751752
67.0 83.49755299329125
69.0 84.06779674171625
71.0 84.57657323970363
73.0 85.05713611187674
75.0 85.4839574102934
77.5 85.87951434402646
80.0 86.2222347653755
82.5 86.52724049553217
85.0 86.81807827969955
87.5 87.0679012623655
90.0 87.27624053124919
92.5 87.4710297503335
95.0 87.62892060506324
97.5 87.77164541361086
100.0 87.88077750081571
103.0 87.9815400182251
106.0 88.06453971546318
109.0 88.1121505223023
112.0 88.1734930657554
115.0 88.21056329722387
118.0 88.24423507133402
122.0 88.26042435226888
125.0 88.26710678762991
128.0 88.2764531176459
132.0 88.27633823112285
136.0 88.26990059691178
140.0 88.26338526179013
145.0 88.27006677418366
150.0 88.26447747514553
155.0 88.25432026645123
160.0 88.23851564184231
165.0 88.20562400470354
170.0 88.18499984476668
175.0 88.16786409892103
180.0 88.13840032078434
185.0 88.09492194019134
190.0 88.07230322899771
195.0 88.03172105269309
200.0 87.99386447958192
206.0 87.958637835584
212.0 87.90777353597237
218.0 87.86158764766496
224.0 87.8176021997259
230.0 87.77055250261017
236.0 87.72638364198167
240.0 87.67266786953023
250.0 87.61536501585607
258.0 87.56477040281374
265.0 87.5110310085131
272.0 87.45394506560419
280.0 87.3974924858841
290.0 87.33897506848567
300.0 87.28225256069967
307.0 87.21919578808284
315.0 87.17421289110476
325.0 87.11250245165736
335.0 87.07140874232351
345.0 87.01689591252514
355.0 86.95439323842527
365.0 86.9090584801813
375.0 86.86281630595104
387.0 86.82300012511303
400.0 86.78013546340378
412.0 86.74096514857627
425.0 86.70051709296024
437.0 86.64752485128304
450.0 86.60962072191053
462.0 86.58595276318543
475.0 86.55165130772316
487.0 86.5183225925925
500.0 86.48863906973325
515.0 86.46734819741822
530.0 86.44541540964211
545.0 86.41331193625788
560.0 86.3902994691509
580.0 86.36795743508087
600.0 86.35571927487035
615.0 86.36480608168998
630.0 86.35023299255982
650.0 86.3337243578497
670.0 86.31424680841191
690.0 86.29970659966467
710.0 86.27662266122522
730.0 86.24934251137938
750.0 86.22524026565905
775.0 86.21240318902957
800.0 86.18157252387812
825.0 86.14326731061749
850.0 86.12670014250185
875.0 86.07651334501594
900.0 86.0343630760176
925.0 85.9841166152386
950.0 85.93030143720561
975.0 85.86423145288828
1000.0 85.7970856817958
1030.0 85.73837957016109
1060.0 85.65102491281803
1090.0 85.57229273509466
1120.0 85.48789297607027
1150.0 85.3687920846802
1180.0 85.27671470448871
1220.0 85.18880211350941
1250.0 85.0593778757042
1280.0 84.96945362478914
1320.0 84.88757109681404
1360.0 84.79702735297394
1400.0 84.68277023235481
1450.0 84.57798782109792
1500.0 84.49320766993768
1550.0 84.40607637537626
1600.0 84.31791336389743
1650.0 84.23941541977982
1700.0 84.1421513882716
1750.0 84.08399228056379
1800.0 84.01289853832317
1850.0 83.93240887902104
1900.0 83.87176200303838
1950.0 83.8293476751567
2000.0 83.76263638074349
2060.0 83.72695263129934
2120.0 83.70145768521192
2180.0 83.64857462901264
2240.0 83.63590370001796
2300.0 83.6039159901186
2360.0 83.58007461036264
2400.0 83.58383969874404
2500.0 83.54570898538867
2580.0 83.54170979418177
2650.0 83.5313684884798
2720.0 83.52832777374812
2800.0 83.51192579081948
2900.0 83.51823242505148
3000.0 83.51825170920229
3070.0 83.50599376111985
3150.0 83.51260771077973
3250.0 83.51510048884536
3350.0 83.50790679789108
3450.0 83.50870171529436
3550.0 83.5059624945556
3650.0 83.50681993622968
3750.0 83.47885028052197
3870.0 83.4740811171193
4000.0 83.45303104944412
4120.0 83.43406369107734
4250.0 83.40399064158572
4370.0 83.39316597213845
4500.0 83.37810289064211
4620.0 83.34045070146018
4750.0 83.30292127154463
4870.0 83.27300216131457
5000.0 83.23328465173941
5150.0 83.18906718097034
5300.0 83.16190538305125
5450.0 83.13967250219697
5600.0 83.09124983782627
5800.0 83.05069718053792
6000.0 83.01741530333175
6150.0 82.9868927038458
6300.0 82.93842979503012
6500.0 82.90336652748604
6700.0 82.8703036716428
6900.0 82.84417592377486
7100.0 82.81170141532715
7300.0 82.78813080379629
7500.0 82.73734803644518
7750.0 82.69355584747304
8000.0 82.66721212192094
8250.0 82.6464692654068
8500.0 82.60689059669733
8750.0 82.58832659302419
9000.0 82.55408523937126
9250.0 82.53065291815898
9500.0 82.4531096766077
9750.0 82.43622046235137
10000.0 82.38389687058834
10300.0 82.34512399788483
10600.0 82.29117615171008
10900.0 82.24209515244488
11200.0 82.17518377910406
11500.0 82.10119154493782
11800.0 82.0232368125013
12200.0 81.95873823735498
12500.0 81.8910033386789
12800.0 81.79918028109805
13200.0 81.67986456717117
13600.0 81.56842497933796
14000.0 81.4413732952641
14500.0 81.3146584148856
15000.0 81.16538372278654
15500.0 81.01055413931934
16000.0 80.84403624171264
16500.0 80.6534437539189
17000.0 80.44501805055822
17500.0 80.2499873243962
18000.0 80.0104272979442
18500.0 79.76556512026013
19000.0 79.50137608818815
19500.0 79.23503298092476
20000.0 78.93749780975395
