Freq,Floor Bounce,Ceiling Bounce,Front Wall Bounce,Side Wall Bounce,Rear Wall Bounce,Total Early Reflection
22.4,-2.264460554350734,-1.532911392405083,-1.8470569033027004,-2.0810198231591244,-2.3744944123576204,-2.009378249789961
23.0,-0.7977808006252189,-0.032911392405083006,-0.38977199706727106,-0.6312996886289568,-0.9481837098880419,-0.5479029679327141
23.6,0.6355394456492718,1.367088607594951,1.0529430966973052,0.7886487723790481,0.49411305084774426,0.8789082912369679
24.0,2.035539445649249,2.7670886075949284,2.452943096697311,2.198936964518623,1.9044422578679416,2.282817164043877
25.0,3.470158178637462,4.1670886075949625,3.867088607594951,3.628515679130942,3.3308777071013935,3.7029670621265893
25.8,4.802219199374775,5.56708860759494,5.224513098953082,4.9785711667152555,4.667573356715138,5.05987588574456
26.5,6.102219199374758,6.867088607594951,6.5245130989530935,6.278571166715238,5.9624891171131935,6.358947308594196
27.2,7.370158178637439,8.167088607594934,7.79589576434023,7.528515679130919,7.246470024755752,7.634238921706384
28.0,8.635539445649272,9.367088607594951,9.052943096697305,8.798936964518617,8.504442257867936,8.8828171640439
29.0,9.935539445649255,10.667088607594934,10.352943096697345,10.118980176840864,9.815226415289686,10.18873351070846
30.0,11.302219199374747,12.06708860759494,11.710228002932752,11.478571166715227,11.172893722266053,11.55788566283266
30.7,12.735539445649266,13.467088607594917,13.167088607594934,12.918980176840876,12.62550558764238,12.99356238570698
31.5,14.302219199374747,15.06708860759494,14.724513098953082,14.488648772379037,14.188695232850563,14.56572129752118
32.5,16.035539445649277,16.76708860759493,16.45294309669731,16.188648772379025,15.89411305084775,16.278908291236974
33.5,17.870158178637467,18.667088607594934,18.26708860759493,18.028515679130948,17.73600184549872,18.126359138976795
34.5,19.770158178637445,20.56708860759494,20.195895764340207,19.928515679130925,19.64647002475573,20.03423892170636
35.5,21.735539445649266,22.467088607594917,22.1529430966973,21.918980176840847,21.62550558764238,21.990621750209982
36.5,23.770158178637445,24.56708860759494,24.195895764340207,23.928515679130953,23.64647002475573,24.03423892170636
37.5,25.802219199374747,26.56708860759494,26.21022800293275,25.94888577620779,25.651816290111952,26.048216619806
38.7,27.802219199374747,28.56708860759494,28.21022800293275,27.94888577620779,27.651816290111952,28.048216619806
40.0,29.70221919937478,30.467088607594917,30.124513098953088,29.87857116671526,29.578207578026962,29.961820977076258
41.2,31.60221919937476,32.36708860759495,32.010228002932735,31.7488857762078,31.451816290111964,31.84821661980601
42.5,33.37015817863747,34.06708860759494,33.76708860759493,33.52851567913092,33.23612112999143,33.60393011468608
43.7,35.03553944564928,35.76708860759493,35.45294309669731,35.188648772379025,34.89411305084775,35.278908291236974
45.0,36.60221919937476,37.36708860759495,37.038751361513846,36.78864877237905,36.48339420171354,36.86770793368777
46.2,38.10221919937476,38.86708860759495,38.510228002932735,38.27857116671524,37.96248911711319,38.355983133322184
47.5,39.47015817863743,40.26708860759493,39.86708860759495,39.648885776207806,39.346591793841554,39.73228599526533
48.7,40.70221919937478,41.46708860759492,41.12451309895309,40.88864877237904,40.58869523285057,40.965721297521185
50.0,41.87015817863747,42.667088607594934,42.26708860759493,42.02851567913092,41.741239089172325,42.127317018833935
51.5,42.87015817863747,43.667088607594934,43.26708860759493,43.04888577620778,42.75181629011195,43.13324256893057
53.0,43.80221919937475,44.56708860759494,44.22451309895308,43.97857116671523,43.67289372226605,44.06084854030482
54.5,44.67015817863745,45.467088607594945,45.09589576434021,44.848885776207794,44.55181629011196,44.93919998927484
56.0,45.53553944564926,46.26708860759493,45.9529430966973,45.71898017684086,45.41522641528968,45.78873351070848
58.0,46.435539445649255,47.167088607594934,46.85294309669732,46.59893696451863,46.294113050847756,46.68092552744871
60.0,47.40221919937477,48.167088607594934,47.810228002932746,47.5488857762078,47.25181629011195,47.64821661980601
61.5,48.43553944564927,49.167088607594934,48.85294309669732,48.60920084209786,48.30444225786795,48.68483258587756
63.0,49.63553944564926,50.36708860759494,50.05294309669732,49.80873941244306,49.504442257867936,49.884741897050176
65.0,51.002219199374764,51.76708860759493,51.424513098953085,51.178571166715244,50.86757335671511,51.25987588574452
67.0,52.502219199374764,53.26708860759493,52.91022800293277,52.65880171838849,52.3571559821831,52.7511315785753
69.0,54.10221919937476,54.86708860759494,54.51022800293275,54.2588017183885,53.957155982183124,54.351131578575306
71.0,55.73553944564925,56.46708860759493,56.152943096697314,55.91898017684085,55.62550558764241,55.99062175021001
73.0,57.40221919937477,58.167088607594934,57.82451309895309,57.58864877237903,57.2780866921896,57.66377795264748
75.0,59.070158178637456,59.86708860759494,59.46708860759492,59.2488857762078,58.94659179384158,59.33228599526532
77.5,60.67015817863745,61.46708860759493,61.06708860759494,60.84888577620778,60.54659179384157,60.93228599526532
80.0,62.17015817863745,62.86708860759494,62.56708860759494,62.32851567913093,62.03612112999143,62.40393011468608
82.5,63.502219199374764,64.26708860759493,63.924513098953085,63.688648772379025,63.388695232850566,63.76572129752117
85.0,64.77015817863746,65.56708860759494,65.16708860759493,64.92851567913094,64.63612112999144,65.0263809453343
87.5,65.87015817863745,66.66708860759493,66.26708860759493,66.0488857762078,65.73624318958531,66.13039400183699
90.0,66.80221919937476,67.66708860759493,67.25294309669731,66.99847444299849,66.69411305084775,67.0971590299362
92.5,67.67015817863745,68.46708860759493,68.06708860759494,67.8488857762078,67.54136100501138,67.93132921085947
95.0,68.37015817863745,69.16708860759493,68.81022800293275,68.5488857762078,68.25181629011195,68.6421756377199
97.5,68.97015817863746,69.76708860759493,69.39589576434021,69.14888577620778,68.85181629011196,69.23919998927484
100.0,69.43553944564927,70.16708860759493,69.8529430966973,69.60873941244306,69.30444225786795,69.68474189705017
103.0,69.80221919937478,70.53401045875543,70.21022800293275,69.96870031137107,69.65181629011195,70.04467045369387
106.0,70.03553944564928,70.70067843447491,70.43875136151385,70.17857116671524,69.89386935406615,70.25914832016988
109.0,70.20221919937475,70.8006784344749,70.5815160709924,70.31875781675254,70.03575770931334,70.39637614784829
112.0,70.30221919937476,70.83401045875543,70.6529430966973,70.37903581267561,70.10947485260307,70.46319184642059
115.0,70.30221919937476,70.76785610205054,70.63875136151384,70.36939092823545,70.09891701082188,70.44204526423344
118.0,70.23553944564927,70.63401045875543,70.59589576434023,70.26939092823544,70.02000709015559,70.357173000742
122.0,70.13553944564924,70.53401045875543,70.49589576434022,70.16939092823543,69.90947485260308,70.25522582612199
125.0,70.03553944564928,70.33401045875544,70.33875136151384,70.01875781675254,69.76769453554151,70.10429466425356
128.0,69.83553944564926,70.16785610205054,70.16774646828918,69.86939092823543,69.60456241232993,69.93433632969985
132.0,69.70221919937477,69.96785610205055,70.0245130989531,69.66939092823543,69.420856246108,69.76246660963095
136.0,69.53553944564926,69.76785610205056,69.83875136151384,69.46939092823544,69.2316025537832,69.57406748909833
140.0,69.33553944564926,69.60144001627997,69.65327311261443,69.2599448490837,69.04256894251071,69.38438507149884
145.0,69.20221919937477,69.46785610205056,69.5245130989531,69.11081353305161,68.85374821038468,69.23870064346418
150.0,69.03553944564925,69.30144001627997,69.36774646828918,68.94032193404111,68.68061672092485,69.07227644458042
155.0,68.90221919937476,69.20144001627995,69.25327311261444,68.80146750017863,68.50710485302079,68.94166674408285
160.0,68.80221919937475,69.13553944564926,69.18217175003377,68.6921066440664,68.38664822896594,68.84965472718162
165.0,68.77015817863746,69.06785610205054,69.12451309895307,68.61172540602601,68.281344697125,68.78203492374264
170.0,68.67015817863746,69.03553944564925,69.11055369457391,68.58314311823244,68.2027801531513,68.73279118461875
175.0,68.67015817863746,69.03553944564925,69.15360310345588,68.56433837230018,68.12340621442574,68.72467356850915
180.0,68.70529990648237,69.07015817863746,69.18217175003377,68.55487112885183,68.06564608010041,68.73361336736903
185.0,68.7385966154643,69.13553944564926,69.21055369457392,68.55712894762632,68.02927838819534,68.75497650861713
190.0,68.80529990648236,69.13553944564926,69.26839674367274,68.57905535888358,68.007982032601,68.78182597355121
195.0,68.83859661546433,69.13553944564926,69.33973703872653,68.59901961482007,67.97728929061705,68.80328635722515
200.0,68.83859661546433,69.17015817863745,69.36872558741427,68.60265664859318,67.95718040609673,68.81473402206784
206.0,68.87399361794952,69.1037243642668,69.39686855842322,68.57529816312964,67.90907126265006,68.80091587348191
212.0,68.90529990648237,69.07015817863746,69.4121895423232,68.53657779619934,67.85294427168125,68.7872336428143
218.0,68.90529990648237,69.0385966154643,69.39882144206153,68.48056169506923,67.79059100462243,68.75684008710589
224.0,68.87399361794952,68.93859661546432,69.34070759667146,68.41270600197656,67.6872078414686,68.68634150913502
230.0,68.83859661546433,68.83859661546433,69.29882144206152,68.30707880527521,67.55183241079854,68.60683441914884
236.0,68.77399361794951,68.67399361794953,69.19882144206153,68.140249553388,67.37589080130017,68.47651071306346
240.0,68.67399361794953,68.53859661546431,69.09882144206153,67.98549052503526,67.14158261170928,68.33836360747978
250.0,68.54318036208714,68.37399361794952,68.98571776172734,67.77766414987184,66.88683617719894,68.17195783941249
258.0,68.37399361794952,68.17399361794952,68.81347709870568,67.5768276672265,66.54315102207374,67.9642256756388
265.0,68.17399361794952,67.94318036208716,68.64331785380932,67.31435813593134,66.18531206577349,67.73124269864213
272.0,67.94318036208716,67.74318036208714,68.45717250870723,67.05034514090752,65.74993346195559,67.48396608342556
280.0,67.74318036208714,67.44318036208715,68.27163289663578,66.79585859642785,65.33194351220966,67.22791886977305
290.0,67.54318036208716,67.21285580197963,68.07163289663579,66.54534234823834,64.90914222006221,66.98418399161457
300.0,67.41285580197962,67.01285580197963,67.87163289663579,66.3436738539682,64.50396969908073,66.77499405525596
307.0,67.24318036208716,66.74928828091797,67.7716328966358,66.14082385909556,64.12277596541675,66.57319921398658
315.0,67.14318036208714,66.54928828091798,67.6716328966358,66.02472490214484,63.78482068853222,66.42307066773854
325.0,67.14318036208714,66.28625566262247,67.57163289663578,65.93540835609582,63.5063787238489,66.29683218781761
335.0,67.14318036208714,66.08625566262248,67.51347709870568,65.90227257915475,63.278035796446744,66.2120425703556
345.0,67.24318036208716,65.95691717432966,67.51347709870568,65.9340912421232,63.1264830715898,66.20313421353382
355.0,67.34318036208714,65.75691717432964,67.57163289663578,66.0061190896155,62.99534753943789,66.20866361722713
365.0,67.47399361794952,65.65691717432966,67.59882144206153,66.08107836075587,62.90358086731716,66.23846564551374
375.0,67.60753028704984,65.56606305890418,67.69882144206153,66.18954222498121,62.838855877765425,66.30122573175267
387.0,67.77399361794951,65.49467580043087,67.78477907893009,66.30592618417042,62.786342304272196,66.37670225558013
400.0,67.90753028704985,65.46606305890418,67.88445144854589,66.44973486082858,62.75044402507214,66.46214618951501
412.0,68.0385966154643,65.53297706819181,68.0121895423232,66.56569360372013,62.71454014642208,66.56512794853522
425.0,68.17399361794952,65.60461638059522,68.12680023215493,66.69499585088269,62.67088536964077,66.66896895919183
437.0,68.24318036208714,65.70461638059521,68.25588265427551,66.79499585088269,62.632804872119436,66.75760781442256
450.0,68.34318036208715,65.74371659013397,68.38413854088361,66.89947192604927,62.57492811137392,66.84501254236321
462.0,68.37695489431823,65.8046163805952,68.4841385408836,66.94201902635638,62.47744058480238,66.89411055624089
475.0,68.37695489431823,65.843716590134,68.52811335062133,66.9828138059627,62.369014260265004,66.91346981047752
487.0,68.34928828091796,65.81607219910335,68.57068368253388,66.9828138059627,62.21687153314295,66.90333135886004
500.0,68.283015529862,65.71607219910335,68.55718701016899,66.97272263567218,62.03953827919858,66.85145741649387
515.0,68.183015529862,65.58888599448389,68.48543443924001,66.88828319251382,61.80295402067108,66.75000403705698
530.0,68.0196981396171,65.3290372832326,68.40047709859206,66.75316656426277,61.56155839939369,66.59653164580186
545.0,67.89058545825473,65.10255123894177,68.25879857081117,66.64659325890239,61.29787290021855,66.44555099700008
560.0,67.79058545825474,64.76974311099833,68.12973573395848,66.4616403196195,61.06387172625347,66.27725582654351
580.0,67.62805374996675,64.44350490491647,68.01672513744025,66.31601174758708,60.860344168616535,66.10834808917775
600.0,67.56194566642664,64.14350490491647,67.88934337586434,66.13614548455809,60.67242220447375,65.96082684407553
615.0,67.56194566642664,63.88501650524343,67.7765103943612,65.98231694713073,60.51278636260753,65.85094353520194
630.0,67.62805374996675,63.64350490491647,67.70532371081009,65.85483910203155,60.40002721803664,65.78592732665687
650.0,67.76194566642664,63.485016505243436,67.70532371081009,65.76118371803653,60.33029934521922,65.7856550148716
670.0,67.99058545825474,63.34350490491646,67.76393278494496,65.67786131280069,60.26829750469102,65.84135425696705
690.0,68.29058545825472,63.269743110998334,67.80982551766253,65.616995013909,60.208495796164144,65.9334694546692
710.0,68.6536550707074,63.1964293820115,67.90982551766253,65.57588768651934,60.169519806642086,66.07506353266517
730.0,68.91725935972065,63.229037283232586,68.00982551766253,65.52286932248566,60.08359917448418,66.19236563540642
750.0,69.24686606550063,63.2833664393724,68.1400538754178,65.50094134313144,60.02613010257012,66.35664141044111
775.0,69.54686606550061,63.38336643937241,68.26942326274354,65.47882511092577,59.92703611186005,66.51592364773985
800.0,69.81124635694346,63.5833664393724,68.38452138590186,65.44957461738139,59.81751972961116,66.6682716890501
825.0,70.01124635694345,63.75597407914498,68.48452138590186,65.39455178917711,59.6412767173947,66.7831037472918
850.0,70.1415821178993,63.955974079144966,68.57253281083203,65.35349788549946,59.44464453571098,66.87118869960325
875.0,70.20673392735495,64.25597407914496,68.63056967971148,65.29317253194252,59.24881001846218,66.93229729090935
900.0,70.17615290775477,64.56974311099833,68.65872714891205,65.23508563773451,59.005666350035966,66.94683737509446
925.0,70.1415821178993,64.84350490491646,68.68832989892098,65.17262248289356,58.74067518127073,66.95722054980357
950.0,70.01124635694345,65.18501650524345,68.67457444215495,65.11644918019962,58.49104747710017,66.92853429073827
975.0,69.88139498621777,65.49235314688342,68.61870772095219,65.01777079065296,58.23016865549714,66.88218021953355
1000.0,69.68813027058242,65.80967134422508,68.56283222929352,64.98877655814726,57.958230753853854,66.82670253010795
1030.0,69.36840688711607,66.16157729691783,68.47760963212136,64.88244138914007,57.68879545170738,66.71851780175211
1060.0,69.07881707196873,66.48166756512803,68.31809386793458,64.81009374154137,57.425009565723315,66.60970247238768
1090.0,68.66458811725668,66.73650847126223,68.2064688897312,64.6977431834711,57.20454498469282,66.46630231467223
1120.0,68.23891839069508,66.91452759846229,68.02143899332347,64.61067283932556,57.01889467412889,66.29733759858316
1150.0,67.75360924926287,67.05928907911064,67.83473776125243,64.52301937771435,56.87915035416155,66.11449618554948
1180.0,67.2290358994358,67.13792244140843,67.63473776125242,64.37236504626324,56.75635940054545,65.9035327610403
1220.0,66.65360924926286,67.083476310725,67.43473776125244,64.23868823985156,56.70338878151264,65.65806216885743
1250.0,66.00404873353862,66.92960182825014,67.23473776125242,64.05890797483612,56.69510417721146,65.3705530771534
1280.0,65.28301399639476,66.61807684260712,67.07566127242205,63.89665370455509,56.727111580732554,65.04840343956724
1320.0,64.55691717432966,66.21807684260712,66.9180938679346,63.68680652213615,56.813400385030775,64.70619439762572
1360.0,63.87251261492155,65.75468784443711,66.76283222929352,63.51303399005073,56.93315312943416,64.37311302642588
1400.0,63.270158178637445,65.19864076050544,66.6616976807231,63.32798106307612,57.079728361804754,64.05931137023498
1450.0,62.68897543681706,64.63785136484931,66.54842386162835,63.16136753319566,57.22620388912087,63.759319843125695
1500.0,62.21535978780325,64.08404256368752,66.52042896212726,63.04028434179668,57.340199229088114,63.52962174446452
1550.0,61.95400666779891,63.50775666653493,66.57777827062124,62.965163642462954,57.442485951612014,63.381670857789146
1600.0,61.83082588715297,63.031889833431535,66.65162123111446,62.939769513568976,57.45780252806408,63.2978550901332
1650.0,61.85273301276605,62.58578873933581,66.82770391818086,62.97805441831248,57.41304014978937,63.303787335282294
1700.0,61.97856355602258,62.210607312302855,67.0440356853078,63.051897226592985,57.28452906028825,63.367820098355324
1750.0,62.21387580409343,61.895300179622126,67.28577130505657,63.15230785880162,57.05642574219664,63.47876618237326
1800.0,62.50775542716667,61.681668870725076,67.56231576000465,63.292649124749786,56.77778409802586,63.64346626971654
1850.0,62.816940114461914,61.52708822504485,67.82062329707462,63.42074305175669,56.442430797002416,63.81208908062143
1900.0,63.036026634327655,61.376511091855136,68.0808795420602,63.586518521028964,56.11182810174569,63.98122680092703
1950.0,63.228460507517156,61.28301399639474,68.28410164926342,63.688926450109975,55.740346312596756,64.11488976259034
2000.0,63.255058245733125,61.23128661055458,68.42674644835243,63.777102101216215,55.36581848488818,64.19460903879306
2060.0,63.14617186509426,61.28301552986201,68.49873340953832,63.79188183141633,55.01247185683749,64.2147696710168
2120.0,62.95846877217687,61.350447980057936,68.47464251353283,63.79332271755544,54.6718214949388,64.17225806526653
2180.0,62.64979491086285,61.494675800430855,68.4353997078163,63.728416489540535,54.33668354991178,64.10185791117318
2240.0,62.30089995536329,61.69069963753205,68.36959517921211,63.652815122623224,54.03031704906303,64.0196645843813
2300.0,61.924085071691664,61.961021202158264,68.22103507310413,63.53696276105822,53.69650946685711,63.8949444821738
2360.0,61.64511802332173,62.28857946146644,68.09446173405671,63.425555177337046,53.38487469042366,63.80982176515954
2400.0,61.43463202963362,62.68314444159104,67.93433507606466,63.29204503669237,53.063717555876394,63.728282879062604
2500.0,61.39165055629202,63.083144441591045,67.78649745437984,63.154473077120485,52.737960733154054,63.68242427152373
2580.0,61.424085071691664,63.530491171109276,67.64905805581421,63.03791554314218,52.39278064424742,63.67302767135942
2650.0,61.7168061730506,63.99408648457219,67.55713121587831,62.899679470200056,52.057783233195806,63.72967289479537
2720.0,62.079751824889826,64.43744054546846,67.4657461412163,62.75132516952216,51.739385825357274,63.80394280827109
2800.0,62.524235999537765,64.84497940210049,67.40175328370844,62.650093000178956,51.45948046755666,63.91570322956258
2900.0,63.036977237418384,65.15597407914495,67.34258605056908,62.53384255788751,51.19368662388848,64.02684233779297
3000.0,63.54634929588728,65.38541474227716,67.31026544483053,62.38009698160228,50.969561232279005,64.13513666719896
3070.0,64.0323497209926,65.36761821813982,67.29559892783621,62.25558170201343,50.77261728023967,64.19545717161814
3150.0,64.43511967415728,65.19700001915254,67.27049130197031,62.08761150615126,50.60945654704038,64.20015995970206
