Freq "Estimated In-Room Response"
22.4 -15.066071150844977
23.0 -13.284389312973076
23.6 -11.545229381344228
24.0 -9.797730108691525
25.0 -8.085273591485361
25.8 -6.379778312599882
26.5 -4.684020842966021
27.2 -3.0170619123018696
28.0 -1.3496613935605808
29.0 0.31365182285460946
30.0 1.9647154384858538
30.7 3.5822725714634487
31.5 5.202176608542317
32.5 6.809644589848546
33.5 8.406964776440361
34.5 9.99953257330614
35.5 11.556900012946898
36.5 13.131003484539292
37.5 14.694581170551487
38.7 16.235021951891014
40.0 17.745479943711047
41.2 19.280239917508226
42.5 20.762071959953204
43.7 22.27040607651216
45.0 23.72311979954125
46.2 25.192706839675537
47.5 26.627037280279126
48.7 28.06173219584136
50.0 29.476691647769172
51.5 30.842014082374106
53.0 32.211994397979765
54.5 33.55076853260283
56.0 34.88680708196094
58.0 36.178537000670644
60.0 37.42201977082209
61.5 38.65595244117725
63.0 39.86698293271263
65.0 41.033129358248985
67.0 42.18255476304968
69.0 43.306738098596966
71.0 44.47216549643663
73.0 45.57369154086868
75.0 46.598904741373374
77.5 47.585602024792166
80.0 48.55023082758461
82.5 49.46289752037998
85.0 50.32999127491637
87.5 51.188500539797516
90.0 51.92393350113257
92.5 52.643026858498914
95.0 53.41667773138843
97.5 54.14102441684955
100.0 54.84672947044645
103.0 55.52727665712098
106.0 56.161932572917436
109.0 56.77362842820992
112.0 57.29182759585619
115.0 57.81981784618756
118.0 58.355132983937835
122.0 58.88633276756636
125.0 59.35829605655388
128.0 59.82173942608995
132.0 60.25097735595767
136.0 60.642601355785516
140.0 61.11582163987006
145.0 61.501365665682144
150.0 61.79072661432886
155.0 62.071641488695974
160.0 62.28657369853079
165.0 62.471580469560905
170.0 62.650286849703576
175.0 62.76141242443042
180.0 62.85504475648857
185.0 62.89113182308391
190.0 62.90950699972956
195.0 62.905462033621944
200.0 62.85890981725069
206.0 62.78017530359104
212.0 62.6852637113399
218.0 62.590481927629014
224.0 62.532704484442846
230.0 62.435813065601025
236.0 62.361018812775725
240.0 62.31799372523717
250.0 62.30897660374747
258.0 62.308633380321155
265.0 62.3254068382122
272.0 62.359206241174974
280.0 62.38356237531464
290.0 62.35708384123117
300.0 62.30837311915927
307.0 62.1841480078259
315.0 62.02815806129894
325.0 61.825505302588766
335.0 61.59959377873848
345.0 61.414573564756665
355.0 61.28786776880064
365.0 61.293851086928726
375.0 61.40543857638272
387.0 61.547155000934396
400.0 61.63667899919042
412.0 61.63004145971951
425.0 61.51029568944216
437.0 61.23670010029464
450.0 60.95175584495993
462.0 60.639426116303454
475.0 60.34927627941684
487.0 60.205600993622284
500.0 60.19549356763497
515.0 60.2298911603458
530.0 60.19770388580855
545.0 60.007913283931515
560.0 59.76068563512672
580.0 59.66081582221159
600.0 59.86769874770923
615.0 60.43881804471255
630.0 61.1785940503588
650.0 61.72602700850713
670.0 61.9622555445132
690.0 61.845827935112425
710.0 61.39846002668881
730.0 61.00537397298994
750.0 60.860049154419755
775.0 60.93167921885065
800.0 60.96646403496196
825.0 60.79682707728148
850.0 60.48609704115623
875.0 60.20344379012374
900.0 59.99653256240025
925.0 59.80678456814755
950.0 59.699942398372485
975.0 59.67162905096957
1000.0 59.59771090182372
1030.0 59.30332362610798
1060.0 58.77851439620687
1090.0 58.453257628342726
1120.0 58.424452362010825
1150.0 58.514522724572245
1180.0 58.50781171751254
1220.0 58.53200339451715
1250.0 58.730944991184685
1280.0 58.99142898346426
1320.0 58.833487137720766
1360.0 58.03691901980855
1400.0 57.02095844056389
1450.0 57.22295553147272
1500.0 57.828718261745735
1550.0 58.10613381494602
1600.0 57.94042457211269
1650.0 57.472566659554076
1700.0 56.8333538423029
1750.0 56.460024763353715
1800.0 56.34129618915709
1850.0 55.80361219736571
1900.0 55.79745886966559
1950.0 55.93164052725007
2000.0 55.55131542155095
2060.0 56.07707550603851
2120.0 56.15113720748738
2180.0 55.655368854271785
2240.0 55.08942779329767
2300.0 54.7234123426892
2360.0 54.476639926557795
2400.0 54.34555105881947
2500.0 53.93623588575858
2580.0 53.72704403750923
2650.0 53.41264517553006
2720.0 52.67124381439265
2800.0 52.60557516978477
2900.0 52.64078408669732
3000.0 52.99991705825927
3070.0 53.365511847209405
3150.0 53.35776780220941
3250.0 53.68475299370739
3350.0 53.62682911188011
3450.0 54.0795051241098
3550.0 53.94852401776899
3650.0 54.19066958779277
3750.0 54.128985177661434
3870.0 54.971289234336794
4000.0 55.49610478784176
4120.0 55.522011248590246
4250.0 55.70525910667823
4370.0 55.355735689008554
4500.0 56.17285393201564
4620.0 57.021969406725574
4750.0 57.14032832190769
4870.0 58.20502344889711
5000.0 59.58819321294976
5150.0 60.512660465699994
5300.0 61.37389142475287
5450.0 60.8091649154546
5600.0 60.00467341152748
5800.0 57.78269362077231
6000.0 57.75825958088697
6150.0 58.07424815673748
6300.0 57.40024366258865
6500.0 57.8354108712562
6700.0 57.89505886517797
6900.0 59.107880231550325
7100.0 58.80475875936756
7300.0 60.513505461744344
7500.0 61.71351921936926
7750.0 61.79117724668828
8000.0 62.02181010142617
8250.0 62.547070417893906
8500.0 62.98534188475796
8750.0 62.949650702600366
9000.0 62.979538473824874
9250.0 62.245982863648635
9500.0 61.63268130760798
9750.0 62.02991290145762
10000.0 61.758524611048955
10300.0 61.18684740117925
10600.0 62.51799435700245
10900.0 63.3029845646047
11200.0 63.248144169397364
11500.0 63.18661044200755
11800.0 63.13130064674644
12200.0 63.3710603809441
12500.0 63.19189590339667
12800.0 63.05351468384748
13200.0 62.293899987133926
13600.0 62.262656626495584
14000.0 62.62783440772324
14500.0 61.72459668950235
15000.0 61.83913778709994
15500.0 61.7474503019275
16000.0 62.31967083267871
16500.0 62.90865880760097
17000.0 63.11034748714819
17500.0 63.25022419141945
18000.0 62.74666409824687
18500.0 61.18508422531535
19000.0 59.64923616634553
19500.0 58.320906014369285
