Freq "Estimated In-Room Response"
20.0 68.95
20.2909 69.33400000000002
20.586 69.634
20.8855 69.91600000000001
21.1893 70.23300000000002
21.4975 70.58400000000002
21.8102 70.938
22.1274 71.25600000000001
22.4492 71.552
22.7758 71.82699999999998
23.1071 72.098
23.4432 72.383
23.7841 72.695
24.1301 73.016
24.4811 73.295
24.8372 73.524
25.1984 73.73199999999999
25.5649 73.973
25.9368 74.253
26.3141 74.54099999999998
26.6968 74.83
27.0851 75.137
27.4791 75.459
27.8788 75.771
28.2843 76.086
28.6957 76.40600000000002
29.1131 76.718
29.5365 77.0
29.9661 77.272
30.402 77.537
30.8442 77.774
31.2929 78.012
31.748 78.258
32.2098 78.492
32.6783 78.704
33.1536 78.897
33.6359 79.078
34.1251 79.254
34.6215 79.42400000000002
35.125 79.576
35.6359 79.733
36.1543 79.889
36.6802 80.0
37.2137 80.073
37.755 80.139
38.3041 80.206
38.8613 80.281
39.4265 80.35700000000001
40.0 80.428
40.5818 80.49046348374692
41.1721 80.54348903664781
41.771 80.59381150244397
42.3785 80.65453198203767
42.9949 80.70987942251621
43.6203 80.73626422107893
44.2548 80.73906534906916
44.8985 80.75602123393354
45.5515 80.8113170550315
46.2141 80.84118413929072
46.8863 80.76127470988708
47.5683 80.69276649370377
48.2602 80.64382500265155
48.9621 80.51286349487724
49.6743 80.37557407881023
50.3968 80.27520082310508
51.1299 80.20890923748304
51.8736 80.18161072212901
52.6281 80.17551146332774
53.3936 80.20595685961865
54.1702 80.26528600138333
54.9581 80.30739544145814
55.7575 80.32095287472748
56.5685 80.3093973733959
57.3914 80.29679629620041
58.2261 80.2892352992502
59.073 80.26416052002311
59.9323 80.11409028487346
60.804 79.92897717725414
61.6884 79.84465339593399
62.5857 79.83200102101256
63.496 79.81830829241973
64.4196 79.78593582056202
65.3566 79.74397150218753
66.3073 79.71315159111062
67.2717 79.69782810007264
68.2502 79.68621909406129
69.2429 79.64186674925513
70.2501 79.52908288031215
71.2719 79.39932931744512
72.3086 79.29807222540411
73.3603 79.18535431207165
74.4274 78.97475993811729
75.5099 78.65030169670528
76.6083 78.29325330070608
77.7226 77.98611884556945
78.8531 77.8549727635172
80.0 77.98426168234711
81.1636 78.12831750652997
82.3442 78.19539088704082
83.5419 78.24606153538305
84.757 78.27670757134625
85.9899 78.24467567875621
87.2406 78.11442723084427
88.5096 77.9308996521165
89.797 77.68173249882723
91.1031 77.44896494593758
92.4282 77.24859658693684
93.7726 77.03035481348546
95.1366 76.86941628104299
96.5204 77.10204046997275
97.9243 77.92096941930056
99.3486 79.09383946864949
100.794 80.02549821720633
102.26 80.52189046397343
103.747 80.63642763052049
105.256 80.50858050778935
106.787 80.30779826215245
108.34 80.10493812707482
109.916 79.87246960549257
111.515 79.62826966948836
113.137 79.50271566773121
114.783 79.48467483716284
116.452 79.52310345681892
118.146 79.55479638758106
119.865 79.5274546660254
121.608 79.44680365986365
123.377 79.2712996188674
125.171 79.01018298664138
126.992 78.61326588513805
128.839 78.24554933081917
130.713 77.96794482347032
132.615 77.8500531383432
134.543 77.84902804712986
136.5 77.75237789907186
138.486 77.4424373263841
140.5 76.90096450200689
142.544 76.29825804004206
144.617 75.81629812786083
146.721 75.49902931045563
148.855 74.83288695102944
151.02 73.71180114925683
153.217 72.70975882421791
155.445 72.7832934588227
157.706 73.98633718779907
160.0 75.46053464384111
162.327 76.62770216129138
164.688 77.29324592270328
167.084 77.56329068389141
169.514 77.59660557389996
171.98 77.51616117539001
174.481 77.40607121915833
177.019 77.25046008332562
179.594 77.06994262282173
182.206 76.93050602985853
184.856 76.69384564047373
187.545 76.84780025344537
190.273 77.97294470677092
193.041 79.51420154269802
195.849 81.08254653302436
198.697 82.27334368872089
201.587 82.86464880483824
204.52 83.07888455955323
207.494 83.07470846748502
210.512 82.90235280393969
213.574 82.54978240797669
216.681 81.93278373693882
219.833 81.22128312602526
223.03 80.68391906995541
226.274 80.3169245930749
229.565 79.89303969975596
232.905 79.52417860487843
236.292 79.69598276137523
239.729 80.20641180855705
243.216 80.86151739891149
246.754 81.41781902498717
250.343 81.62589009333857
253.984 81.62239058833252
257.678 81.61179971039584
261.426 81.42673797782712
265.229 81.02985931818809
269.087 80.6918616524239
273.001 80.22972840569136
276.972 79.46664274936109
281.0 78.50134297109427
285.088 77.76510787592728
289.234 78.08299704095229
293.441 78.78866538128894
297.709 79.54183976312038
302.04 80.09421526214139
306.433 80.30883487105191
310.89 80.26605103929255
315.412 80.17887301461617
320.0 80.1569754106934
324.655 80.08707579853326
329.377 79.7990557300047
334.168 79.4177216769102
339.028 79.04742618610797
343.959 78.64743582107266
348.962 78.34230952737319
354.038 78.27907013468503
359.188 78.39848579833696
364.412 78.45863086137247
369.713 78.32456756692157
375.09 78.07049318680184
380.546 77.85156708590857
386.081 77.66543091650964
391.697 77.50122886673775
397.394 77.40441778790434
403.175 77.36168804173205
409.039 77.34384729398306
414.989 77.35225903960183
421.025 77.38818606809447
427.149 77.44841660259779
433.362 77.53520565454183
439.665 77.64658229744602
446.06 77.77950727841132
452.548 77.9337597766011
459.131 78.1080239369194
465.809 78.298229178678
472.584 78.50393980265244
479.458 78.7223441978346
486.432 78.95125477086108
493.507 79.1896106768877
500.686 79.43518669643144
507.968 79.6859225547864
515.357 79.94027025623681
522.853 80.1959883921157
530.458 80.45176704170228
538.174 80.70580408836405
546.002 80.95595207015315
553.943 81.20068345674854
562.001 81.4383724427106
570.175 81.66928616317223
578.469 81.88736268634145
586.883 82.09335557046624
595.419 82.28600641188386
604.08 82.46520804875757
612.866 82.62698078323554
621.78 82.77097430922439
630.824 82.8932809918933
640.0 82.99656790148752
649.309 83.07530632097848
658.753 83.13097111118806
668.335 83.16308901989586
678.056 83.17063688729873
687.919 83.15364501033122
697.925 83.11164098510565
708.077 83.04569068875449
718.376 82.95677184734389
728.825 82.8463054233401
739.426 82.7172824925168
750.181 82.57196858052096
761.093 82.41476957110285
772.163 82.25053388119306
783.394 82.08617826733858
794.789 81.92710878044193
806.349 81.77860302921492
818.078 81.64535994727393
829.977 81.53125383844169
842.05 81.4377048680882
854.298 81.36331166078718
866.724 81.30395712948896
879.33 81.25568297194668
892.12 81.20432670163173
905.097 81.1506708527404
918.262 81.07655447230381
931.618 80.97678660775618
945.169 80.84360085354552
958.917 80.6690149168785
972.864 80.44806899794578
987.015 80.18117444055609
1001.37 79.86775115133327
1015.94 79.52257463716923
1030.71 79.1623146280562
1045.71 78.81501502531027
1060.92 78.52681176929117
1076.35 78.3420290351966
1092.0 78.30490119678
1107.89 78.42824647831061
1124.0 78.71459363770559
1140.35 79.13574932929167
1156.94 79.6219660676543
1173.77 80.1748327836887
1190.84 80.67278369162125
1208.16 81.1988090801333
1225.73 81.63353025756014
1243.56 82.03331899609516
1261.65 82.35443647535133
1280.0 82.62451364162783
1298.62 82.80368194469976
1317.51 82.99851874847151
1336.67 83.12413424830893
1356.11 83.22899214818298
1375.84 83.31967252628293
1395.85 83.40436625809815
1416.15 83.4773585367467
1436.75 83.56504589760483
1457.65 83.6337006959489
1478.85 83.69363469364545
1500.36 83.73015373653878
1522.19 83.72200283857644
1544.33 83.6746834115932
1566.79 83.59163706500566
1589.58 83.48107192992194
1612.7 83.35823134378178
1636.16 83.24086619351857
1659.95 83.14674324539818
1684.1 83.09045962136115
1708.6 83.07804904353281
1733.45 83.10211255843528
1758.66 83.14379619992842
1784.24 83.1790421169989
1810.19 83.18655552099207
1836.52 83.15396506995161
1863.24 83.08119235919327
1890.34 82.9768156134926
1917.83 82.85439561197371
1945.73 82.72641188795603
1974.03 82.59444634395057
2002.74 82.4425975684963
2031.87 82.25166210838536
2061.43 81.98610927111311
2091.41 81.61475387838466
2121.83 81.11925178932027
2152.69 80.46979286019683
2184.01 79.77312472101723
2215.77 79.00591638588118
2248.0 78.3227720543045
2280.7 77.82493517686329
2313.87 77.61896493561906
2347.53 77.71969510196253
2381.68 78.06184609690696
2416.32 78.54990050938808
2451.46 79.04398906553097
2487.12 79.49914750538524
2523.3 79.79912899268811
2560.0 79.95338592589333
2597.24 79.9346949562912
2635.01 79.76472178661582
2673.34 79.43535502547113
2712.23 79.07235130365744
2751.68 78.70992096310401
2791.7 78.47680206414296
2832.31 78.42617441154248
2873.5 78.54322371206321
2915.3 78.77989010715733
2957.7 79.00785049952223
3000.72 79.11595576340905
3044.37 79.02036886927637
3088.65 78.7771657617467
3133.58 78.51443479868227
3179.16 78.32834431671677
3225.4 78.27843421659541
3272.31 78.3170863711061
3319.91 78.31266752670514
3368.2 78.1746748268982
3417.19 77.89205165902682
3466.89 77.55386534210415
3517.32 77.34523179488241
3568.48 77.42129358173425
3620.39 77.7505436397598
3673.05 78.12844888043583
3726.47 78.37641361863916
3780.67 78.3980218208048
3835.67 78.30772067592632
3891.46 78.18311525354002
3948.06 78.1863381706127
4005.49 78.4597689750388
4063.75 78.85830597881149
4122.86 79.1836913723645
4182.82 79.3409155173746
4243.66 79.43801335424952
4305.39 79.72464399357506
4368.01 80.29032274540404
4431.55 80.94556216272575
4496.01 81.43801416779867
4561.4 81.62427511324414
4627.75 81.62543072374247
4695.06 81.63571113679069
4763.35 81.80654803006043
4832.64 82.07566816398497
4902.93 82.20928519023755
4974.24 82.15426415188807
5046.6 81.9660424545099
5120.0 81.87808632972994
5194.47 81.97736060521542
5270.03 82.05533270730332
5346.68 81.93611088115546
5424.45 81.7757007897875
5503.35 81.87145332214766
5583.4 82.1100917670285
5664.61 81.96951478258016
5747.01 81.50462107572338
5830.6 80.97015460296053
5915.41 80.617937746474
6001.45 80.33998994302249
6088.74 79.90560070678285
6177.3 79.6074671893546
6267.15 79.4531822265322
6358.31 79.11166750672234
6450.8 78.60822090568774
6544.62 78.26854329948448
6639.82 78.27127046598626
6736.4 78.23919082770313
6834.38 77.80327049148353
6933.79 77.1800898429912
7034.64 76.71562937197982
7136.96 76.22547919997326
7240.77 75.5936623934711
7346.09 75.23207243785374
7452.94 75.14065845572567
7561.35 74.9593718270273
7671.33 74.81630044816951
7782.91 74.8695921167977
7896.12 75.10826278612727
8010.97 75.4009559959802
8127.49 75.95047628355319
8245.71 76.5492648048969
8365.65 76.7312051063092
8487.33 76.69258871004692
8610.78 76.6197584739755
8736.03 76.29587923860718
8863.09 75.82342309102701
8992.01 75.72856257266139
9122.8 75.67121561613273
9255.5 75.31697843622244
9390.12 75.10853945538742
9526.7 74.78508003570033
9665.27 74.23309775244113
9805.86 73.62579143503898
9948.49 72.89552535386049
10093.2 72.26248859205184
10240.0 71.8797948466153
10388.9 71.72366994692032
10540.1 71.71314171597885
10693.4 71.72144557141802
10848.9 71.84471771684694
11006.7 72.16709124336113
11166.8 72.65918722888748
11329.2 73.14000002272164
11494.0 73.68481227146121
11661.2 74.24785527646641
11830.8 74.71144719179567
12002.9 74.98053587098667
12177.5 74.94132780080831
12354.6 74.43759418235786
12534.3 73.60274262016054
12716.6 72.53091799821304
12901.6 71.56253390868994
13089.2 70.69790001256025
13279.6 70.18849814870065
13472.8 70.00321315457754
13668.8 69.9361304332501
13867.6 69.85739656340111
14069.3 69.78295070076092
14273.9 69.77446633756638
14481.5 70.05577000632734
14692.2 70.56003927999286
14905.9 71.00708338745228
15122.7 71.20805170449137
15342.7 71.00255297122968
15565.8 70.38093818697378
15792.2 69.56672663404036
16021.9 68.78254431459227
16255.0 67.96811188648766
16491.4 67.2226752187389
16731.3 66.76395091036814
16974.7 66.59255737884934
17221.6 66.59790800200805
17472.1 66.65817454446638
17726.2 66.68409524308301
17984.0 67.0673788024025
18245.6 67.56574376799355
18511.0 67.61095580843657
18780.2 67.42766813458279
19053.4 67.02850812124701
19330.5 66.25222935034422
19611.7 65.2902446500468
19897.0 64.6577863432459
