Freq "Side Wall Bounce"
20.5078 56.59230627411549
21.9727 59.23013897231422
23.4375 63.13013569083364
24.9023 64.76137869447757
26.3672 67.2396738981021
27.832 66.30912880813165
29.2969 67.37088211309955
30.7617 69.31282949153021
32.2266 71.26053225351838
33.6914 73.06691361726814
35.1562 74.6190614104615
36.6211 76.11243755734199
38.0859 77.34435109646
39.5508 78.50764816760153
41.0156 79.52992600847998
42.4805 80.47864640066163
43.9453 81.09516573861113
45.4102 81.76070023509644
46.875 82.42733842514099
48.3398 83.08699954932192
51.2695 84.25422867691796
52.7344 84.79994840529613
54.1992 85.28987329177409
55.6641 85.74462292968826
58.5938 86.48239029068934
60.0586 86.86907865623863
62.9883 87.73432277319962
64.4531 88.14728446621731
67.3828 88.92838008791128
68.8477 89.30969048938277
71.7773 90.1242654736545
74.707 90.93991408418779
77.6367 91.74915377528878
79.1016 92.10034340478566
82.0312 92.64443393904347
84.9609 93.23581597148078
87.8906 93.97220847724577
90.8203 94.76894393333424
95.2148 95.69017513305849
98.1445 95.99794133895392
101.074 96.23756289855513
105.469 96.6667672675934
108.398 96.84682691657072
112.793 96.86281121861448
117.188 96.55370630352728
120.117 96.31391670007372
124.512 95.89857913427065
128.906 95.23970963066547
133.301 94.48628216648112
139.16 93.64466587410958
143.555 93.04647078322587
147.949 92.6071821151566
153.809 92.15912000758155
159.668 91.92215484933038
165.527 91.3025030431817
171.387 92.05141283605094
177.246 91.94681219064776
183.105 91.3333731086154
188.965 90.77935518243906
196.289 89.96102340038951
203.613 88.75653782949713
210.938 88.76673965054913
218.262 91.99317849615093
225.586 92.45929035752731
232.91 91.40949052997246
241.699 90.53435520373576
250.488 90.01174555565791
259.277 89.34941749667941
268.066 88.94069050477538
276.855 88.90764849791195
287.109 88.86059837795356
297.363 88.36838636746421
307.617 88.43297126179968
319.336 87.99869693846922
329.59 87.67905541063334
341.309 87.60847194292546
353.027 87.54823248235527
366.211 87.14023512268062
379.395 86.63684261508183
392.578 86.77772568172153
405.762 86.5646363361244
420.41 86.20311990626436
435.059 85.8540523660634
451.172 86.21299405556273
465.82 86.09991175819688
483.398 86.33964305466085
499.512 86.40451503990838
517.09 86.46276165622366
536.133 86.64178025272093
555.176 86.88132898636006
574.219 86.69209471371124
594.727 86.82220990571611
615.234 87.08847906994006
637.207 86.6298756834672
659.18 86.63495839404857
682.617 86.69181884576523
707.52 86.47123365600869
732.422 86.64578440392404
757.324 86.75289098594953
785.156 85.90743798342979
811.523 86.71869082784929
840.82 85.84000365435601
870.117 85.86162639217333
900.879 85.99824857328598
933.105 85.77746210908916
965.332 85.86653348757686
1000.49 85.73866248355786
1035.64 85.87249486468892
1072.27 85.93526232216215
1108.89 85.28116290790337
1148.44 85.55631849177101
1189.45 84.59802380748602
1230.47 84.05139725971804
1274.41 84.23881235468741
1319.82 83.53195060376945
1366.7 84.57670842560097
1413.57 84.90094179301451
1463.38 84.63465896480399
1516.11 84.64629683772189
1568.85 83.49120991380747
1624.51 83.69552760367912
1681.64 83.28157138358664
1741.7 83.41475765919186
1803.22 82.97085075441592
1866.21 83.13536388561376
1932.13 83.1242773267857
1999.51 84.07926977668802
2069.82 83.95474776346283
2143.07 84.5853307481414
2219.24 84.2791071693437
2296.88 83.94545012714529
2378.91 84.43804943151378
2462.4 84.70244573444259
2548.83 84.7023806711885
2639.65 84.51616247903102
2731.93 84.46962840960009
2828.61 84.46533554332686
2928.22 84.40691178261439
3030.76 84.30148025108295
3137.7 84.13675480113997
3249.02 84.18715556190607
3363.28 84.14519829658609
3481.93 84.18808584994017
3604.98 84.42287103015416
3732.42 84.83766158033232
3864.26 85.24232011732613
4000.49 85.62254750601639
4141.11 85.61070171688998
4287.6 85.10930113107392
4438.48 84.25308477077593
4595.21 83.7216199626275
4756.35 83.52763351669417
4924.8 83.47865513516939
5097.66 83.0952749279854
5277.83 83.10739152566859
5463.87 83.44983036954096
5657.23 83.55766543878579
5856.45 83.40812166921374
6062.99 83.72215107178177
6276.86 83.83336211659754
6498.05 83.8501346605311
6726.56 83.82285798212378
6963.87 83.29061919456305
7209.96 82.62857768656801
7464.84 82.42579413338882
7727.05 82.6826646280894
7999.51 82.44903432788382
8282.23 81.92226714947317
8573.73 81.97084023215082
8876.95 82.02670623011886
9188.96 82.61530373920623
9514.16 82.73807167431995
9849.61 83.2426465127194
10196.8 82.72499248604231
10555.7 81.59690088452167
10927.7 81.4977680085496
11313.0 81.29995242918955
11712.9 81.63906563101614
12126.0 81.64401071428847
12553.7 81.08975189177244
12996.1 81.33342196321765
13454.6 81.12269898826179
13929.2 80.66866030150382
14419.9 80.21429574141321
14928.2 79.502078967867
15455.6 78.99537702560018
16000.5 78.34930309840007
16564.5 77.22288123954309
17148.9 76.1983323777178
17752.4 75.4372106361304
18379.4 74.13996904591214
19026.9 73.13106412086859
19697.8 72.09540596991809
19999.5 73.00504273728777
