Freq,On Axis,Listening Window,Sound Power,Early Reflections,Early Reflections DI,Sound Power DI,DI offset
22.4,27.09999999999998,27.000761671530697,25.313441645405888,26.089781078930898,40.9109805925998,41.68732002612481,40
23.0,27.89999999999999,27.81148068598391,26.08640461147489,26.879908672111853,40.93157201387206,41.72507607450902,40
23.6,35.60000000000001,35.55609215500938,33.78266069978106,34.60339704267106,40.95269511233832,41.77343145522832,40
24.0,39.000000000000014,38.87874146142714,37.069164608140184,37.89789457677183,40.98084688465531,41.809576853286956,40
25.0,39.8,39.73384370232101,37.91771317753306,38.7621618153412,40.97168188697981,41.81613052478795,40
25.8,40.10000000000001,40.011991013256036,38.12723929905063,39.0042209773393,41.007770035916735,41.88475171420541,40
26.5,39.7,39.61199101325603,37.7176941414878,38.60678509928691,41.00520591396912,41.89429687176823,40
27.2,39.000000000000014,38.911991013256014,36.944486303684485,37.85501187653382,41.05697913672219,41.96750470957153,40
28.0,38.60000000000001,38.43487087961414,36.46196690059243,37.39637468323913,41.03849619637501,41.97290397902171,40
29.0,38.2,38.03487087961416,36.0176405823466,36.96881427615169,41.06605660346247,42.01723029726756,40
30.0,37.7,37.557114084253655,35.50889292853172,36.47637438330453,41.080739700949124,42.04822115572193,40
30.7,37.60000000000001,37.511991013256036,35.38403179106216,36.37834552525307,41.13364548800297,42.12795922219388,40
31.5,38.2,38.12344601362166,35.990882755883646,37.01184889407973,41.111597119541926,42.13256325773801,40
32.5,39.89999999999999,39.790528991135844,37.606347270750675,38.633281170134595,41.15724782100125,42.18418172038517,40
33.5,43.10000000000001,42.99052899113586,40.77983190593734,41.8270499239881,41.16347906714776,42.21069708519852,40
34.5,47.10000000000001,46.99052899113586,44.73837902894782,45.809641077750754,41.18088791338511,42.25214996218804,40
35.5,51.7,51.590528991135855,49.31923756449025,50.41353849478172,41.176990496354136,42.271291426645604,40
36.5,55.39999999999999,55.213521905839244,52.89509796859217,54.01557490335459,41.19794700248465,42.318423937247076,40
37.5,58.39999999999999,58.290528991135844,55.92074030718574,57.052940459990836,41.23758853114501,42.369788683950105,40
38.7,61.10000000000001,60.99052899113586,58.57342272116564,59.73888418017735,41.25164481095851,42.41710626997022,40
40.0,63.60000000000001,63.49052899113586,61.04936329450719,62.235353109465976,41.255175881669885,42.44116569662867,40
41.2,66.4,66.21352190583924,63.72583559910474,64.93556562318517,41.277956282654074,42.4876863067345,40
42.5,69.09999999999998,68.92445814420115,66.42255613952071,67.63448216140955,41.2899759827916,42.501902004680446,40
43.7,71.7,71.52445814420116,68.98933263475892,70.22379013915635,41.30066800504481,42.53512550944224,40
45.0,74.09999999999998,73.91352190583923,71.33523062054901,72.59524557575834,41.31827633008089,42.57829128529022,40
46.2,76.1,75.92445814420117,73.30286168995575,74.58055399817759,41.343904146023576,42.62159645424542,40
47.5,77.90000000000002,77.67049505401906,75.03503738963032,76.32914089847709,41.341354155541964,42.63545766438874,40
48.7,79.39999999999999,79.22445814420117,76.54584470935588,77.85958706310302,41.364871081098144,42.67861343484529,40
50.0,80.8,80.64727259632453,77.92859520990822,79.26554867658847,41.38172391973606,42.7186773864163,40
51.5,82.1,81.89255700981676,79.15110595070541,80.5011139632533,41.39144304656345,42.74145105911134,40
53.0,83.2,83.00354610191523,80.24413842736028,81.61219896178237,41.391347140132865,42.75940767455495,40
54.5,84.2,83.97049505401905,81.1740301741693,82.55812060177787,41.41237445224118,42.79646487984975,40
56.0,85.0,84.7815400411153,81.95463889874944,83.35376460465794,41.42777543645737,42.82690114236587,40
58.0,85.6,85.40354610191524,82.53156966987639,83.94916826167919,41.45437784023605,42.87197643203885,40
60.0,85.9,85.74727259632452,82.87570217298567,84.30212577962338,41.44514681670114,42.87157042333885,40
61.5,86.2,86.00354610191523,83.10628187995842,84.54336581881148,41.46018028310375,42.89726422195682,40
63.0,86.4,86.22647038441902,83.30893874508155,84.76409759830146,41.462372786117555,42.91753163933747,40
65.0,86.59999999999998,86.426470384419,83.46720453409011,84.94239630355366,41.48407408086534,42.95926585032889,40
67.0,86.8,86.60354610191523,83.61265710880886,85.1068465712762,41.496699530639034,42.99088899310637,40
69.0,87.0,86.80354610191525,83.79638727517542,85.3031698565874,41.50037624532784,43.007158826739825,40
71.0,87.2,87.02647038441901,84.00508111964119,85.52161469804265,41.50485568637636,43.021389264777824,40
73.0,87.5,87.2815400411153,84.25224370950538,85.77876964785709,41.50277039325822,43.02929633160993,40
75.0,87.8,87.626470384419,84.56013745919988,86.10021473414265,41.52625565027634,43.066332925219115,40
77.5,87.99999999999999,87.82647038441901,84.74180119899917,86.29502521909711,41.5314451653219,43.08466918541984,40
80.0,88.2,88.03762776013771,84.93694134364813,86.49948122215493,41.53814653798278,43.10068641648958,40
82.5,88.4,88.18154004111531,85.07008034900139,86.63345516750374,41.54808487361157,43.111459692113925,40
85.0,88.5,88.26090170960879,85.15487417095923,86.72588676198109,41.5350149476277,43.106027538649556,40
87.5,88.5,88.2815400411153,85.14409317274716,86.72812878529767,41.553411255817636,43.137446868368144,40
90.0,88.4,88.16090170960878,85.01549188793304,86.61099588562122,41.54990582398756,43.14540982167574,40
92.5,88.1,87.91476245148907,84.72354399531996,86.33294074811786,41.581821703371205,43.19121845616911,40
95.0,87.7,87.49281329520848,84.29743842297452,85.91201590998736,41.58079738522112,43.195374872233955,40
97.5,87.3,87.1376277601377,83.89827796201656,85.53655533768118,41.601072422456525,43.23934979812114,40
100.0,87.1,86.89428176701227,83.66255099057828,85.29343920404072,41.60084256297155,43.23173077643399,40
103.0,87.1,86.87222859343949,83.63182999127588,85.27260121202262,41.599627381416866,43.24039860216361,40
106.0,87.3,87.11725487435672,83.83939317522085,85.49415303275028,41.62310184160644,43.27786169913587,40
109.0,87.60000000000001,87.36063752019827,84.09078642138591,85.75692169151402,41.603715828684244,43.26985109881235,40
112.0,87.90000000000002,87.66063752019828,84.36056788759174,86.03773277040214,41.622904749796135,43.30006963260654,40
115.0,88.1,87.86063752019827,84.55554415988708,86.2359366525817,41.62470086761657,43.30509336031119,40
118.0,88.3,88.02896215694926,84.69503741707796,86.3865518107853,41.642410346163956,43.33392473987131,40
122.0,88.3,88.06063752019826,84.70828012801192,86.42518187486452,41.635455645333735,43.352357392186335,40
125.0,88.2,87.96063752019826,84.60098062114109,86.31629724141914,41.644340278779126,43.35965689905717,40
128.0,88.1,87.86063752019827,84.48863736666786,86.2109686327449,41.64966888745337,43.37200015353041,40
132.0,87.99999999999999,87.78378881309229,84.36161289374986,86.09641928927643,41.68736952381586,43.42217591934242,40
136.0,87.90000000000002,87.66063752019828,84.21983584037838,85.97486471890392,41.68577280129436,43.4408016798199,40
140.0,87.7,87.46063752019828,84.012645472731,85.77486471890393,41.68577280129435,43.44799204746728,40
145.0,87.4,87.18378881309228,83.68437793201566,85.46247031804315,41.72131849504913,43.499410881076614,40
150.0,87.1,86.84037254002034,83.34216700100114,85.12934855625858,41.71102398376176,43.498205539019196,40
155.0,87.1,86.89531834297536,83.35962606485904,85.1683961454,41.72692219757536,43.535692278116315,40
160.0,87.5,87.29531834297536,83.73693001828805,85.55591082917847,41.73940751379689,43.558388324687314,40
165.0,87.8,87.57521491911375,83.97710681840191,85.812513060036,41.76270185907775,43.59810810071184,40
170.0,87.90000000000002,87.60708482926708,83.96977879736359,85.81978089045423,41.787303938812855,43.63730603190349,40
175.0,87.8,87.54063796503014,83.87598204750897,85.7407138813653,41.79992408366485,43.66465591752117,40
180.0,87.60000000000001,87.34063796503014,83.66367523651031,85.54791787906281,41.79272008596733,43.676962728519825,40
185.0,87.3,87.04063796503013,83.32750114137261,85.22826090811365,41.812377056916475,43.71313682365752,40
190.0,87.0,86.68756720128135,82.92563088340385,84.8572458732636,41.83032132801776,43.7619363178775,40
195.0,86.8,86.48756720128135,82.69190906039722,84.63478608002085,41.852781121260506,43.79565814088413,40
200.0,86.59999999999998,86.34063796503014,82.51627916059938,84.47972816764839,41.86090979738175,43.82435880443076,40
206.0,86.3,85.98756720128135,82.10668806083969,84.098799039846,41.88876816143535,43.880879140441664,40
212.0,85.9,85.67574764403798,81.73857277357133,83.75145303911096,41.92429460492703,43.93717487046665,40
218.0,86.50000000000001,86.2414342834443,82.26759029803456,84.30226497896204,41.93916930448226,43.973843985409744,40
224.0,87.60000000000001,87.28756720128136,83.29687085957418,85.35738442077792,41.93018278050344,43.99069634170718,40
230.0,88.1,87.79962886293751,83.71290686608837,85.79675402263136,42.00287484030615,44.086721996849136,40
236.0,88.2,87.92154368718329,83.80203769451909,85.91957463114042,42.00196905604287,44.1195059926642,40
240.0,88.2,87.88862984188474,83.71204239460687,85.86252273741991,42.02610710446483,44.17658744727787,40
250.0,88.1,87.78862984188474,83.57365740815237,85.75556469773475,42.03306514414999,44.21497243373237,40
258.0,87.90000000000002,87.61060009802593,83.32733337625343,85.53645502071451,42.074145077311414,44.28326672177249,40
265.0,87.8,87.48862984188474,83.1285149712515,85.37060756926842,42.11802227261633,44.36011487063324,40
272.0,87.7,87.40096904162392,83.00136060019123,85.27236612746673,42.1286029141572,44.39960844143269,40
280.0,87.8,87.43484124869222,82.94295883233248,85.25719851527333,42.17764273341889,44.49188241635974,40
290.0,87.8,87.47055613246182,82.91471321222132,85.27079698772484,42.19975914473699,44.55584292024051,40
300.0,87.8,87.47055613246182,82.87022358060155,85.24927239015635,42.221283742305474,44.60033255186028,40
307.0,87.8,87.38266506568034,82.7200893498862,85.13975940672648,42.24290565895386,44.66257571579415,40
315.0,87.60000000000001,87.25998211398301,82.51039109844257,84.95431659620755,42.305665517775466,44.749591015540446,40
325.0,87.5,87.18323490989785,82.37217750758887,84.85046513913935,42.3327697707585,44.811057402308975,40
335.0,87.5,87.11880982489774,82.24766878257186,84.76830182828961,42.35050799660813,44.871141042325874,40
345.0,87.4,86.965551448044,82.04735856797988,84.6026734839532,42.3628779640908,44.91819288006411,40
355.0,87.2,86.80213194971675,81.78602339676381,84.36933577730112,42.432796172415635,45.01610855295294,40
365.0,87.1,86.71260396298435,81.66010441998368,84.2764213921576,42.436182570826745,45.052499543000664,40
375.0,87.3,86.90213194971675,81.773647100915,84.42399696810212,42.47813498161463,45.12848484880175,40
387.0,87.60000000000001,87.13798596971235,81.91702989885154,84.59417041247119,42.54381555724116,45.22095607086081,40
400.0,87.5,87.09663896202065,81.81804246850034,84.52151231978398,42.57512664223667,45.27859649352031,40
412.0,87.2,86.73284346962369,81.38311039894752,84.1280132522437,42.604830217379984,45.349733070676166,40
425.0,86.59999999999998,86.1042036777956,80.67226409073236,83.46124072857326,42.64296294922234,45.43193958706324,40
437.0,85.9,85.43861115981983,79.93385238363038,82.7582186421903,42.68039251762953,45.50475877618945,40
450.0,85.40000000000002,84.89322195183694,79.29643319587967,82.16664893042149,42.72657302141545,45.59678875595726,40
462.0,85.10000000000001,84.59945847094835,78.90986973188542,81.82991115709142,42.76954731385693,45.68958873906293,40
475.0,85.0,84.49945847094837,78.69065464589464,81.67851705106528,42.820941419883084,45.80880382505373,40
487.0,85.2,84.60535078650906,78.66619578527909,81.71314144951714,42.892209336991925,45.93915500122998,40
500.0,85.40000000000002,84.81630759448318,78.795805965318,81.90570591097189,42.91060168351129,46.02050162916518,40
515.0,85.49999999999999,84.86464883745731,78.6775417074912,81.86502828030414,42.999620557153165,46.18710712996611,40
530.0,85.6,84.94781536944427,78.61143923694435,81.88238796351712,43.06542740592715,46.33637613249992,40
545.0,85.8,85.13442925043701,78.62530857688746,81.9758870083629,43.158542242074105,46.509120673549546,40
560.0,85.49999999999999,84.81616723092061,78.1389131899113,81.56111084430952,43.25505638661109,46.677254041009306,40
580.0,85.0,84.24097903465513,77.37563324237362,80.86191962036612,43.379059414289,46.8653457922815,40
600.0,84.7,83.94097903465513,76.9044296414209,80.4387151175268,43.50226391712833,47.036549393234225,40
615.0,84.7,83.95316399427928,76.70128589321904,80.27345920388605,43.67970479039323,47.25187810106024,40
630.0,84.8,83.98758337090405,76.54050809607786,80.13389091426693,43.85369245663712,47.44707527482619,40
650.0,84.9,84.06362290795968,76.45115477744075,80.017762059888,44.04586084807168,47.612468130518934,40
670.0,85.10000000000001,84.34320057902056,76.59341688878226,80.08928690977461,44.25391366924595,47.7497836902383,40
690.0,85.7,84.84545094953164,76.98262836901542,80.38183697188016,44.46361397765148,47.86282258051622,40
710.0,86.3,85.48790732056524,77.5439256731183,80.83177070168217,44.65613661888307,47.94398164744695,40
730.0,86.50000000000001,85.6473982569097,77.67767875891064,80.81013784801269,44.83726040889701,47.96971949799905,40
750.0,86.0,85.19299484530181,77.23386586156796,80.21436057463085,44.978634270670966,47.95912898373385,40
775.0,84.8,83.99236504246858,76.10935576744676,78.92868946010786,45.063675582360716,47.88300927502182,40
800.0,83.7,82.90475805234432,75.13768486863337,77.82033071498763,45.084427337356686,47.76707318371095,40
825.0,83.7,82.92898308724425,75.32088781780635,77.94175497535268,44.98722811189157,47.6080952694379,40
850.0,84.2,83.42495209474242,76.06038149896006,78.66777179755137,44.757180297191056,47.36457059578237,40
875.0,84.6,83.89113422036773,76.78630755580895,79.43594111927027,44.455193101097464,47.104826664558786,40
900.0,85.0,84.30905141811897,77.42106063037929,80.1875680175349,44.12148340058407,46.88799078773968,40
925.0,85.3,84.60220071094052,77.87593911558379,80.79251977423482,43.8096809367057,46.72626159535673,40
950.0,85.40000000000002,84.68353373732029,78.10120930162796,81.15797940482274,43.52555433249755,46.58232443569233,40
975.0,85.3,84.5817701757389,78.07429887094456,81.2625890423345,43.3191811334044,46.507471304794336,40
1000.0,85.2,84.42614773031168,77.95877051161212,81.24712842489787,43.17901930541382,46.46737721869957,40
1030.0,85.2,84.47164428741408,77.99161736446862,81.3618965021259,43.10974778528818,46.480026922945456,40
1060.0,85.3,84.47767866673762,77.94568433709831,81.37107628657913,43.10660238015849,46.5319943296393,40
1090.0,85.3,84.50526620581816,77.83407806410244,81.29915993407519,43.20610627174297,46.67118814171572,40
1120.0,85.3,84.46330534790484,77.63561946191432,81.16520855262716,43.29809679527767,46.82768588599052,40
1150.0,85.3,84.41198954452979,77.42377676472543,81.00581411722054,43.40617542730925,46.98821277980436,40
1180.0,85.40000000000002,84.56280605426919,77.42649295079828,81.07373185434892,43.48907419992027,47.13631310347091,40
1220.0,85.40000000000002,84.60413286961004,77.35174450509545,81.05152644615251,43.55260642345753,47.25238836451459,40
1250.0,85.10000000000001,84.3044218513539,76.96229712253604,80.70990126004045,43.59452059131344,47.34212472881785,40
1280.0,84.7,83.96841020723552,76.59909575958308,80.33674447060989,43.631665736625635,47.36931444765244,40
1320.0,84.6,83.92739193213346,76.51640622730851,80.25633577762459,43.671056154508875,47.41098570482495,40
1360.0,84.8,84.10674019129009,76.65872369511256,80.39149305844374,43.71524713284634,47.44801649617753,40
1400.0,84.9,84.1274022403901,76.59079628433446,80.33216964470665,43.795232595683444,47.53660595605564,40
1450.0,84.8,83.91317203154428,76.22094517928318,80.02642129985105,43.886750731693226,47.6922268522611,40
1500.0,84.5,83.46197696026519,75.57873339625309,79.45175983644182,44.01021712382337,47.883243564012105,40
1550.0,84.3,83.10362878911724,74.94585326954987,78.91182826980771,44.191800519309524,48.157775519567366,40
1600.0,84.8,83.49752503768113,75.00766182918129,79.08394085337612,44.41358418430501,48.48986320849984,40
1650.0,85.3,83.82568436126334,75.01818142437209,79.20396420348136,44.62172015778198,48.807502936891254,40
1700.0,85.2,83.59642720905128,74.54212751476618,78.79339129754001,44.80303591151127,49.054299694285106,40
1750.0,85.2,83.39444346635504,74.1696057737083,78.4582568385327,44.93618662782234,49.224837692646744,40
1800.0,85.0,83.19150362350214,73.90524716183518,78.17630132214515,45.01520230135699,49.286256461666966,40
1850.0,84.8,82.94554739781104,73.68877716342497,77.93997074435748,45.00557665345356,49.25677023438607,40
1900.0,84.9,83.05191545189139,73.8664812439839,78.07492300495124,44.976992446940145,49.18543420790749,40
1950.0,85.10000000000001,83.41721189194176,74.31186630332591,78.43632690373276,44.980884988209,49.10534558861585,40
2000.0,85.10000000000001,83.66380455070627,74.61085661442625,78.64637260695552,45.01743194375075,49.05294793628002,40
2060.0,84.9,83.69062092256614,74.66726411439353,78.62135679455237,45.06926412801377,49.02335680817261,40
2120.0,84.9,83.7436294283678,74.67626971172777,78.61062716461275,45.133002263755046,49.06735971664003,40
2180.0,84.8,83.57468042867224,74.42186975274578,78.37529499553672,45.19938543313552,49.15281067592646,40
2240.0,85.0,83.53975923282027,74.33508533747789,78.33503844073202,45.20472079208825,49.20467389534238,40
2300.0,84.9,83.30994683057439,74.0266048444964,78.06608438555462,45.24386244501977,49.283341986077986,40
2360.0,84.2,82.5578367172231,73.14140569853608,77.26134892278039,45.29648779444271,49.41643101868702,40
2400.0,84.39999999999999,82.66115061727758,73.1242835144853,77.3556533296029,45.30549728767468,49.536867102792286,40
2500.0,85.0,83.10486662556478,73.48101145794756,77.82503955116395,45.27982707440083,49.62385516761722,40
2580.0,84.9,83.0105275703751,73.35072252566758,77.75677124595447,45.253756324420635,49.659805044707525,40
2650.0,85.0,83.21178418350858,73.53698938279334,77.98108689205226,45.23069729145632,49.67479480071525,40
2720.0,85.10000000000001,83.38043215295961,73.73877495757125,78.19987470401527,45.18055744894434,49.64165719538836,40
2800.0,85.40000000000002,83.68012802470041,74.04343302076654,78.56538315273652,45.11474487196389,49.636695003933866,40
2900.0,85.40000000000002,83.74750140492978,74.07759701204323,78.65621938248078,45.09128202244899,49.66990439288655,40
3000.0,84.7,83.34624666650215,73.68203519897601,78.25541801766074,45.09082864884141,49.664211467526144,40
3070.0,84.8,83.5598844051505,73.92639047139068,78.47217965102992,45.08770475412058,49.63349393375982,40
3150.0,85.6,84.11400284086483,74.47312871029625,79.03914482388463,45.0748580169802,49.64087413056858,40
3250.0,85.6,83.84465329895197,74.25340851742249,78.80951318592835,45.035140113023616,49.59124478152948,40
3350.0,85.0,83.29674612845623,73.6757010138716,78.23479124671313,45.061954881743105,49.62104511458463,40
3450.0,84.6,83.27373103013086,73.6014308451286,78.16794008312755,45.105790947003314,49.67230018500226,40
3550.0,84.7,83.94702025653397,74.29863939382001,78.80687586050233,45.140144396031644,49.648380862713964,40
3650.0,84.9,84.2314526813909,74.54859915204484,79.06683293828122,45.16461974310968,49.68285352934606,40
3750.0,85.0,83.9724558607251,74.195616368524,78.82741157911147,45.145044281613636,49.776839492201105,40
3870.0,85.2,84.07111615695915,74.20463305148148,78.91582317424185,45.1552929827173,49.86648310547767,40
4000.0,85.10000000000001,83.83025522683884,73.83621655741668,78.5932816009869,45.236973625851945,49.99403866942217,40
4120.0,85.3,83.78436357526387,73.71376352216151,78.4416017846579,45.34276179060596,50.07060005310235,40
4250.0,85.40000000000002,83.74798274840217,73.76697245310109,78.44122090256762,45.306761845834544,49.981010295301076,40
4370.0,84.9,83.45768915544147,73.59474268414073,78.29621220510789,45.16147695033358,49.862946471300745,40
