Freq "Sound Power"
22.4 -4.591292359597446
23.0 0.016760991340419196
23.6 1.8750878022213158
24.0 2.5317240141373816
25.0 3.523228271172229
25.8 5.264837567536773
26.5 7.036816222639857
27.2 8.057677698723495
28.0 10.532721505067116
29.0 12.373469069404138
30.0 14.83589685445196
30.7 16.53277174392585
31.5 18.727511726212782
32.5 20.613146791056522
33.5 22.906391601060506
34.5 24.584600220042745
35.5 26.473279702648824
36.5 28.778526051246644
37.5 30.87102198957541
38.7 32.84007427934111
40.0 34.93284151923595
41.2 36.69586444859149
42.5 38.851864097941444
43.7 41.01735001624715
45.0 43.105635738488246
46.2 45.52237796689562
47.5 47.576819632889226
48.7 49.7272036897416
50.0 51.631370623461635
51.5 53.94136503625393
53.0 56.06433379240545
54.5 58.2404268941402
56.0 60.28734128745377
58.0 62.33530398673872
60.0 64.30818110073332
61.5 66.35642241073619
63.0 68.23193002568621
65.0 70.04679724789213
67.0 71.73813853603087
69.0 73.2939430427239
71.0 74.81182855366312
73.0 76.02097632730049
75.0 77.18554265789622
77.5 78.19418120669195
80.0 79.10865051187466
82.5 79.85807309001086
85.0 80.48633320834092
87.5 81.08068995429521
90.0 81.51688534904368
92.5 81.91331982348416
95.0 82.23843097864443
97.5 82.50929902972163
100.0 82.71566219357625
103.0 82.93732858642653
106.0 83.03717542032102
109.0 83.08456019159124
112.0 83.19305361346686
115.0 83.22623097807607
118.0 83.28253229816441
122.0 83.31994827175362
125.0 83.34949172352458
128.0 83.37360701407974
132.0 83.38551585976552
136.0 83.38809499383396
140.0 83.40161015227692
145.0 83.40548384965437
150.0 83.41510955180148
155.0 83.40944674337157
160.0 83.38724243056495
165.0 83.3675421750863
170.0 83.31409420308299
175.0 83.26252788406535
180.0 83.20269104500309
185.0 83.10478273472584
190.0 82.93996446304934
195.0 82.80127546141209
200.0 82.64384656380321
206.0 82.48418732905108
212.0 82.3045702190787
218.0 82.03516609248098
224.0 81.77516654083348
230.0 81.58651468168942
236.0 81.38315423341636
240.0 81.17808468027133
250.0 80.93750668675685
258.0 80.82566127563767
265.0 80.6612514753327
272.0 80.46675316621803
280.0 80.2083734675095
290.0 79.99149665335084
300.0 79.86429668749938
307.0 79.75286108271938
315.0 79.62086383119393
325.0 79.4523296165691
335.0 79.27086443827858
345.0 79.09515671244493
355.0 78.97848925953262
365.0 78.92932971536541
375.0 78.840870374286
387.0 78.82199529861228
400.0 78.7524157541435
412.0 78.51600861663918
425.0 78.45076705593507
437.0 78.47707578737798
450.0 78.65000508111765
462.0 78.68314000328267
475.0 78.63492963250036
487.0 78.50553775928155
500.0 78.26043105774832
515.0 78.27418280882584
530.0 78.26512791904545
545.0 78.1786027027964
560.0 78.16624852090484
580.0 78.11315522760886
600.0 78.13386175620734
615.0 77.98423072186557
630.0 77.9157466803357
650.0 77.96151653328943
670.0 77.90343105656515
690.0 77.87997091886231
710.0 78.07091755357047
730.0 78.19797570686426
750.0 78.08436132685657
775.0 78.08201746986641
800.0 77.8414347762268
825.0 77.31484103357579
850.0 76.96754748567847
875.0 76.58182289373667
900.0 76.4706821910573
925.0 76.6120557155757
950.0 76.5713867193318
975.0 76.59550493350409
1000.0 76.44729514139212
1030.0 76.05067823117085
1060.0 75.82228873006663
1090.0 75.61167926810839
1120.0 75.82094368365007
1150.0 76.19243410847704
1180.0 76.39714656580303
1220.0 76.33404547723143
1250.0 76.22157402798656
1280.0 76.18178301688613
1320.0 76.39606569909388
1360.0 76.78080526689993
1400.0 77.28583249555749
1450.0 77.26306817794713
1500.0 76.98197721243288
1550.0 76.93315712250062
1600.0 77.03079092422202
1650.0 76.95837198696864
1700.0 76.38386078262678
1750.0 75.63160059119093
1800.0 75.43805418351239
1850.0 75.41299330539152
1900.0 74.8284631225664
1950.0 74.01563659515992
2000.0 73.77023666228774
2060.0 73.8966275771105
2120.0 73.68665785718886
2180.0 73.31461377453785
2240.0 72.9185975451911
2300.0 72.0940315169829
2360.0 71.71389022409237
2400.0 71.85986802860506
2500.0 71.61900302226076
2580.0 71.60981048604916
2650.0 72.02085677198616
2720.0 71.83833393072788
2800.0 72.00116509905192
2900.0 72.19153622779646
3000.0 72.27391584489479
3070.0 72.58865083888344
3150.0 72.92783338049013
3250.0 73.0063080965293
3350.0 73.34177031990043
3450.0 73.41031983451607
3550.0 73.35050919276313
3650.0 73.31847837812178
3750.0 73.19009107203152
3870.0 73.02433481639224
4000.0 72.61815255772463
4120.0 72.10624908629406
4250.0 72.08366346428357
4370.0 71.89078767731249
4500.0 72.05191122458002
4620.0 72.33935917336004
4750.0 72.49461409273486
4870.0 72.3831147810118
5000.0 72.17571218967328
5150.0 71.70731043496525
5300.0 71.01345863532755
5450.0 70.48807500389918
5600.0 70.20663587642561
5800.0 70.28565431041004
6000.0 70.49521668003678
6150.0 70.45275708258404
6300.0 70.33242809994576
6500.0 70.4382938919028
6700.0 70.66529430759164
6900.0 71.04854623561826
7100.0 71.38883593278116
7300.0 71.26355515354605
7500.0 70.93731706725086
7750.0 70.83165642945872
8000.0 70.6723031285287
8250.0 70.08575579533692
8500.0 69.51301517432071
8750.0 69.21624544375885
9000.0 69.43662249503966
9250.0 70.51709526578134
9500.0 70.74943530650674
9750.0 70.6703069664297
10000.0 71.06259340410534
10300.0 71.29760294661536
10600.0 71.20345070817862
10900.0 71.04644785838978
11200.0 70.80682476445136
11500.0 70.47336653650336
11800.0 70.40302646291659
12200.0 69.43983865513543
12500.0 68.79095323868249
12800.0 68.73136296292601
13200.0 68.66104654391366
13600.0 68.94193559432422
14000.0 69.66610210270548
14500.0 70.51234544473702
15000.0 70.43039444283013
15500.0 70.51355591329867
16000.0 71.126320002059
16500.0 70.8554554980936
17000.0 69.8912646602816
17500.0 70.34358184347991
18000.0 70.92468021216487
18500.0 70.71882534501654
19000.0 69.15674329897013
19500.0 67.08538436210651
