Freq "Estimated In-Room Response"
22.4 21.122477452847846
23.0 22.0313172033442
23.6 23.014533931710417
24.0 24.596408622330443
25.0 26.00156986484646
25.8 27.119146709514382
26.5 28.045987956368748
27.2 28.874573441829824
28.0 29.696705045892145
29.0 30.48281885166736
30.0 31.72071207760638
30.7 34.08060049041086
31.5 36.70069912675285
32.5 41.05011776302473
33.5 44.44599678217713
34.5 45.88698789965849
35.5 46.5176846487621
36.5 46.646773647253866
37.5 48.10122625648165
38.7 49.90231138410249
40.0 51.97829416954184
41.2 54.356458697769455
42.5 57.455128939517664
43.7 61.37564881394762
45.0 63.94126817829992
46.2 65.41318627239984
47.5 63.04617240863173
48.7 62.581465102104815
50.0 63.003638312203634
51.5 64.18313393402245
53.0 65.70607364957333
54.5 67.3613545444035
56.0 68.90221099296286
58.0 70.22948369353796
60.0 71.41724098363602
61.5 72.52287785199093
63.0 73.46104779618295
65.0 74.23924766094626
67.0 74.8159118937887
69.0 75.33613537130195
71.0 75.72252941749116
73.0 76.16119006979874
75.0 76.53559538619547
77.5 76.86775206331781
80.0 77.14184883725935
82.5 77.36922882271894
85.0 77.64486075828295
87.5 77.89157038628815
90.0 78.13335297123895
92.5 78.5007697000758
95.0 78.78822247835305
97.5 78.99749849702428
100.0 79.18773494801765
103.0 79.25907529615935
106.0 79.34129062818562
109.0 79.33535969166877
112.0 79.34059578781309
115.0 79.33073692776526
118.0 79.2840456090719
122.0 79.16645914657657
125.0 79.11732361162488
128.0 79.0971960142407
132.0 79.11159153566938
136.0 79.19191427592558
140.0 79.31480265646528
145.0 79.21033007229953
150.0 79.10723798864689
155.0 79.00838953808793
160.0 78.88055613327597
165.0 78.9693276972154
170.0 79.12712919910031
175.0 79.35157744077493
180.0 79.49006646879906
185.0 79.49841872243744
190.0 79.32206811911534
195.0 79.1629861702569
200.0 79.05280442599606
206.0 78.93910860112732
212.0 78.65645215529165
218.0 78.38280450260211
224.0 78.21390620825889
230.0 77.97415414276894
236.0 77.6738406486471
240.0 77.42942506834532
250.0 77.30935881616556
258.0 77.33916061534771
265.0 77.53324651426404
272.0 77.76803631170719
280.0 77.90749661837724
290.0 78.12306606444656
300.0 78.39875454602777
307.0 78.58424730348474
315.0 78.58589480784603
325.0 78.44791029434258
335.0 78.0313453736856
345.0 77.48223887971811
355.0 77.235409282845
365.0 77.29936853273239
375.0 77.42005278604947
387.0 77.41330686124628
400.0 77.18621924350609
412.0 76.76027882421538
425.0 76.3422204414115
437.0 76.27010081641863
450.0 76.58414704943263
462.0 77.09475523525137
475.0 77.51158092407047
487.0 77.62541758454657
500.0 77.351423724835
515.0 77.11339132584251
530.0 77.1810004818096
545.0 77.3763674274613
560.0 77.43959859601539
580.0 77.21757215139871
600.0 76.57023725333482
615.0 75.61258582079512
630.0 74.60824231547443
650.0 73.98978854527435
670.0 74.12945888340676
690.0 74.54799115333431
710.0 74.73133514584855
730.0 74.77038557367233
750.0 74.8232400603147
775.0 75.00270356926978
800.0 75.46522112470159
825.0 75.76652556037152
850.0 75.35053319826012
875.0 75.08958931564698
900.0 75.30810197557621
925.0 75.10018339088438
950.0 74.75138154483781
975.0 74.75744704209258
1000.0 74.44157237084951
1030.0 74.51674885163493
1060.0 75.05967123092162
1090.0 76.20589622742402
1120.0 76.70700599602787
1150.0 76.56617987812984
1180.0 74.45273416534232
1220.0 73.95645022005235
1250.0 75.84293898274247
1280.0 76.59687211765166
1320.0 76.3118056402721
1360.0 75.86906736982183
1400.0 75.46949607109632
1450.0 75.05924860944315
1500.0 75.03115227717271
1550.0 75.73458771857803
1600.0 75.87344193040518
1650.0 76.16783899528893
1700.0 76.41061614724049
1750.0 77.44051465409494
1800.0 77.53260545896042
1850.0 77.12649828492256
1900.0 76.16990292009632
1950.0 75.26504029390074
2000.0 74.3235693620468
2060.0 74.0485767578335
2120.0 73.79625073093109
2180.0 75.02203678026144
2240.0 75.70877175321841
2300.0 76.97532465547778
2360.0 78.0994611443111
2400.0 78.45647495652678
2500.0 77.61707789975671
2580.0 75.97833627902068
2650.0 75.12088944019881
2720.0 75.40170108405714
2800.0 75.88637094214941
2900.0 76.53158219629216
3000.0 77.19461111818306
3070.0 76.92191713076507
3150.0 76.2688625804358
3250.0 75.1558370978303
3350.0 74.0146778913969
3450.0 73.65414072390182
3550.0 74.12420339443936
3650.0 75.1101079266807
3750.0 75.36433689807076
3870.0 74.38591576256691
4000.0 73.28669880262737
4120.0 73.20937978674706
4250.0 74.58933382115538
4370.0 75.17437035437426
4500.0 75.39807760522092
4620.0 74.91208985077323
4750.0 75.26882200190866
4870.0 76.50794902368258
5000.0 77.03842588225834
5150.0 75.89704669166912
5300.0 75.39342449853149
5450.0 75.87262282328388
5600.0 76.69402185384571
5800.0 76.87683019639982
6000.0 75.29014688890754
6150.0 74.50678206517938
6300.0 74.97928188722248
6500.0 74.39485067608524
6700.0 72.78788444853944
6900.0 71.83403876843906
7100.0 73.63897442530453
7300.0 74.62480879307203
7500.0 75.99489072992712
7750.0 77.12606619272687
8000.0 77.29132765495416
8250.0 76.34127515192098
8500.0 78.06310467086975
8750.0 77.58921821211757
9000.0 75.64387972765894
9250.0 75.09098905846126
9500.0 75.01313365685996
9750.0 75.35869171163944
10000.0 74.25433800085153
10300.0 73.94277959033546
10600.0 74.83071787683906
10900.0 74.51726905306923
11200.0 74.39191329215004
11500.0 75.52327422341293
11800.0 74.32363831726028
12200.0 74.08123043303071
12500.0 75.17122616623806
12800.0 73.6613235616217
13200.0 73.78310081465638
13600.0 70.07876422597735
14000.0 72.43428206010469
14500.0 74.13563631698993
15000.0 74.22223642440692
15500.0 74.72691106818043
16000.0 74.7871664998581
16500.0 76.77281086808956
17000.0 73.04597615912868
17500.0 71.91451792891209
18000.0 68.04821334642276
18500.0 61.605352191128404
19000.0 65.73743056105364
19500.0 62.921964417986445
