Freq "Estimated In-Room Response"
22.4 19.97373238248821
23.0 22.15673598870248
23.6 24.520108984516128
24.0 27.031794846758316
25.0 29.622479183660374
25.8 32.314729735477556
26.5 35.06324995953278
27.2 37.70843928137998
28.0 39.30372872246852
29.0 40.82286308937654
30.0 42.67410889872113
30.7 43.42665651830265
31.5 44.91666050993874
32.5 45.90876139564989
33.5 46.21033806438018
34.5 47.026684436806335
35.5 48.193005769368
36.5 49.70959038707733
37.5 51.352738391827444
38.7 52.95997815514866
40.0 54.36093233636245
41.2 55.528122845524365
42.5 56.760714786900564
43.7 58.14782366245092
45.0 59.68925271865399
46.2 61.009450464489106
47.5 61.71186597313198
48.7 62.77497012866792
50.0 63.93608316535277
51.5 65.09656849732133
53.0 66.284368048175
54.5 67.58409847998185
56.0 69.09209438904746
58.0 70.2591953590312
60.0 71.19251655563865
61.5 72.19996069601045
63.0 73.33770996231479
65.0 74.44663733068626
67.0 75.26491894901031
69.0 75.82631033911191
71.0 76.16945314894129
73.0 76.4955133689254
75.0 76.839749837683
77.5 77.29598684673726
80.0 77.72263557525599
82.5 77.98072534563738
85.0 78.2183987342222
87.5 78.52707229357407
90.0 78.75582337299309
92.5 79.0411357995593
95.0 79.4038016306867
97.5 79.6118845719252
100.0 79.77793379393212
103.0 79.88455041877471
106.0 79.92523377127384
109.0 79.9598296514263
112.0 79.86167657177958
115.0 79.79499166437598
118.0 79.7455859134651
122.0 79.67988182064406
125.0 79.52771174311833
128.0 79.64809941595556
132.0 79.73224964974453
136.0 79.70623913222667
140.0 79.80559154571641
145.0 79.53567530347087
150.0 79.4646871556271
155.0 79.38825378192942
160.0 79.36534740723113
165.0 79.58666508979162
170.0 79.73358761229426
175.0 79.98433286025082
180.0 80.06036775449174
185.0 79.9872168057382
190.0 79.85378620482666
195.0 79.72020414530654
200.0 79.56559290798387
206.0 79.47444963879303
212.0 79.1821945890444
218.0 78.904291418007
224.0 78.69580742420186
230.0 78.37734365616411
236.0 78.29085177842188
240.0 78.38462199981916
250.0 78.57781104597584
258.0 78.72566747432215
265.0 78.91476057769275
272.0 79.16994008133312
280.0 79.1331610525688
290.0 78.98226655840558
300.0 78.83967429477639
307.0 78.66495791161303
315.0 78.42266466003407
325.0 78.24043957192558
335.0 78.16636409546324
345.0 78.15617627575233
355.0 78.16470048751732
365.0 78.11689393292708
375.0 77.97012498501495
387.0 77.89397249434515
400.0 77.97472001583237
412.0 78.10174850666122
425.0 78.13473019515905
437.0 77.95587383075622
450.0 77.79644774981074
462.0 77.89471881045921
475.0 77.99584761271085
487.0 77.91730651008083
500.0 77.51551412066604
515.0 76.96313616506154
530.0 76.65016904521957
545.0 76.75218055057128
560.0 76.83499885102866
580.0 76.41381925864223
600.0 75.44294614966284
615.0 74.15038829150691
630.0 72.76113140755076
650.0 71.66979952950781
670.0 71.61138268891074
690.0 72.33814559920381
710.0 73.27101039459882
730.0 73.94557087222393
750.0 74.46307144622821
775.0 74.90979584952866
800.0 75.51204338180695
825.0 75.62817388863643
850.0 75.37325712466043
875.0 75.6103506691665
900.0 75.95260127032587
925.0 75.9647807795432
950.0 76.13412968442765
975.0 75.95816951889695
1000.0 75.7327725323518
1030.0 75.35546536732778
1060.0 75.60714321320621
1090.0 75.40817513948153
1120.0 75.3666329611961
1150.0 75.49444233872953
1180.0 75.9090097210342
1220.0 75.98177978248091
1250.0 76.09899843729625
1280.0 76.47421579711929
1320.0 76.52692969490127
1360.0 77.02096600938182
1400.0 76.614278866948
1450.0 76.73370955345412
1500.0 76.02711430046956
1550.0 75.84995972868188
1600.0 75.58513292307856
1650.0 75.77189728197638
1700.0 74.96330290403101
1750.0 74.57466221199188
1800.0 74.1666765043518
1850.0 73.68295240192816
1900.0 73.72893845413554
1950.0 73.75399050893418
2000.0 74.2882596687334
2060.0 74.46931876579472
2120.0 75.26689045979626
2180.0 76.02291324685447
2240.0 76.44655386816935
2300.0 76.54175116836105
2360.0 75.98296094236906
2400.0 75.02508133870344
2500.0 74.19199048225892
2580.0 73.53630493467739
2650.0 73.1372504861576
2720.0 73.32768112244754
2800.0 73.70555484837442
2900.0 74.25808862856711
3000.0 74.71174493080377
3070.0 75.3160659684697
3150.0 75.401595383044
3250.0 74.94414585935061
3350.0 73.87001763265008
3450.0 73.35563202112533
3550.0 73.64348928157922
3650.0 73.82704709320193
3750.0 74.32412284226628
3870.0 74.53014678464616
4000.0 74.18998792077339
4120.0 74.49494043385967
4250.0 74.8795862586625
4370.0 74.20648831253841
4500.0 74.1061146584937
4620.0 74.42615932965238
4750.0 74.67921367179375
4870.0 74.8991386722679
5000.0 74.89931028013153
5150.0 74.27197451297245
5300.0 74.06832187422224
5450.0 74.34776093571718
5600.0 74.28127691481724
5800.0 73.86633341419548
6000.0 73.43771845078203
6150.0 73.61257373208691
6300.0 74.23110860687697
6500.0 74.08388032284087
6700.0 74.10859776956939
6900.0 73.01505639167081
7100.0 73.59054303475557
7300.0 75.28558999524799
7500.0 76.48911796970108
7750.0 75.74787607453996
8000.0 75.56623603881769
8250.0 74.58244667081235
8500.0 74.8401246336295
8750.0 75.86371124639062
9000.0 76.29794898582468
9250.0 75.63896121006785
9500.0 76.61625810162455
9750.0 77.13689439217531
10000.0 75.1678739950348
10300.0 75.96652162230532
10600.0 76.31476059833045
10900.0 76.46817686526353
11200.0 76.59862251531806
11500.0 77.13754987106282
11800.0 76.55442470403527
12200.0 75.62665915325687
12500.0 76.73695409297565
12800.0 76.18153958410254
13200.0 75.36852013046746
13600.0 76.9527866604307
14000.0 74.41314173521903
14500.0 73.06912822989999
15000.0 72.49234163423209
15500.0 72.86284823228904
16000.0 76.29967507363975
16500.0 77.91179005996332
17000.0 79.71760285008845
17500.0 77.98967319020329
18000.0 69.2268364991232
18500.0 71.13053095042008
19000.0 70.05713482096282
19500.0 64.26333277561915
