Freq "Floor Bounce"
22.4 17.268450838054335
23.0 18.668450838054312
23.6 20.068450838054318
24.0 21.468450838054324
25.0 22.86845083805433
25.8 24.20306957104252
26.5 25.568450838054318
27.2 26.86845083805433
28.0 28.16845083805434
29.0 29.468450838054324
30.0 30.768450838054335
30.7 32.03513059177983
31.5 33.70076749445563
32.5 35.06845083805432
33.5 36.000767494455616
34.5 37.20076749445563
35.5 38.46845083805432
36.5 39.70076749445563
37.5 40.90076749445562
38.7 42.10076749445561
40.0 43.30076749445563
41.2 44.500767494455616
42.5 45.70076749445563
43.7 46.93358982687997
45.0 48.43358982687997
46.2 49.5669218511605
47.5 50.5669218511605
48.7 51.666921851160495
50.0 52.83358982687996
51.5 53.96692185116051
53.0 55.066921851160515
54.5 56.16692185116051
56.0 57.46692185116051
58.0 58.566921851160515
60.0 59.46692185116049
61.5 60.46692185116051
63.0 61.43358982687998
65.0 62.39999999999999
67.0 63.3669218511605
69.0 64.40000000000002
71.0 65.3
73.0 66.0669218511605
75.0 66.8
77.5 67.6
80.0 68.3
82.5 69.0
85.0 69.63358982687998
87.5 70.13358982687997
90.0 70.59999999999998
92.5 71.1
95.0 71.60000000000001
97.5 71.96692185116049
100.0 72.3
103.0 72.6
106.0 72.93358982687998
109.0 73.13358982687997
112.0 73.2
115.0 73.2
118.0 73.00000000000001
122.0 72.7
125.0 72.4
128.0 72.1
132.0 71.86692185116051
136.0 71.8
140.0 71.8
145.0 71.76692185116049
150.0 71.70076749445562
155.0 71.53435140868503
160.0 71.2669218511605
165.0 71.00076749445562
170.0 70.80076749445561
175.0 70.56845083805433
180.0 70.36845083805433
185.0 70.26845083805433
190.0 70.26845083805433
195.0 70.43663575667186
200.0 70.63663575667186
206.0 70.63663575667186
212.0 70.43663575667186
218.0 70.03663575667186
224.0 69.67150800786939
230.0 69.50306957104252
236.0 69.43663575667186
240.0 69.43663575667186
250.0 69.33663575667187
258.0 69.23663575667186
265.0 69.03663575667187
272.0 68.87150800786937
280.0 68.64044167945492
290.0 68.4760917544922
300.0 68.24576719438468
307.0 68.04576719438468
315.0 67.78219967332305
325.0 67.48219967332305
335.0 67.35260953202219
345.0 67.55260953202217
355.0 67.81916705502753
365.0 67.98982856673472
375.0 67.86096514237182
387.0 67.67082970284298
400.0 67.4096325668162
412.0 67.22179738688895
425.0 67.03546263134683
437.0 66.7094224842602
450.0 66.392378988098
462.0 66.292378988098
475.0 66.2672655885961
487.0 66.10982855556756
500.0 66.06726558859611
515.0 66.0252645392885
530.0 65.95866027600835
545.0 65.80034112939828
560.0 65.6944886893229
580.0 65.7710674427392
600.0 65.99448868932289
615.0 66.37584607527145
630.0 66.60034112939827
650.0 66.62526453928848
670.0 66.33469773360899
690.0 66.14391724861638
710.0 66.21213611976862
730.0 66.46235742942078
750.0 66.69471929119204
775.0 66.76588846059687
800.0 66.98982856673473
825.0 67.3069050103546
850.0 67.50306957104252
875.0 67.73435140868501
900.0 68.56845083805433
925.0 70.00906430015982
950.0 70.77449351030438
975.0 70.70531806766472
1000.0 70.70531806766472
1030.0 70.87387961222818
1060.0 70.84283030471974
1090.0 71.01916705502754
1120.0 71.56096514237183
1150.0 71.37215664893682
1180.0 70.05176921104224
1220.0 68.86338775251362
1250.0 68.90785319525341
1280.0 68.88866490030831
1320.0 67.74273297424513
1360.0 67.3708960000729
1400.0 66.93088003414321
1450.0 67.381262425955
1500.0 68.25291140018436
1550.0 69.45405093453076
1600.0 69.37244826645845
1650.0 68.31627783177747
1700.0 67.87662798253905
1750.0 67.04391724861638
1800.0 66.91832544184972
1850.0 67.4925701141361
1900.0 67.51753803239934
1950.0 67.0377673428554
2000.0 66.63753193576905
2060.0 65.0756958151824
2120.0 62.999803411807235
2180.0 60.20733589211028
2240.0 56.95300068141127
2300.0 54.730813839209205
2360.0 56.41721049921989
2400.0 60.03543550538808
2500.0 62.509946077071746
2580.0 64.08573781157956
2650.0 65.66283617001537
2720.0 66.89825001362088
2800.0 66.90721172860908
2900.0 66.75741285590577
3000.0 66.45803522150264
3070.0 67.14659692804834
3150.0 67.4111700259723
3250.0 66.35949644905793
3350.0 65.84971756545565
3450.0 66.0126632172949
3550.0 65.90488360217559
3650.0 65.49272955006295
3750.0 65.93174271310296
3870.0 66.50199903162157
4000.0 66.10517745233018
4120.0 65.05522334988608
4250.0 64.30330511748404
4370.0 64.60391141983601
4500.0 64.45522779336132
4620.0 63.41185905036133
4750.0 62.347264925037834
4870.0 62.67287937798231
5000.0 63.62524894321288
5150.0 63.6133554064957
5300.0 63.140351680968436
5450.0 62.99770208558458
5600.0 63.16610579770341
5800.0 62.686874536954335
6000.0 62.45295536787779
6150.0 63.856041233645314
6300.0 63.678136361563276
6500.0 62.523302681400935
6700.0 61.05062128010364
6900.0 59.79742198666301
7100.0 59.82361409713276
7300.0 59.854726286590974
7500.0 60.26081002455902
7750.0 61.900363761774415
8000.0 63.842828219234136
8250.0 64.14707489675645
8500.0 63.15069597234789
8750.0 61.42314582700679
9000.0 61.01593562579542
9250.0 62.251699326782
9500.0 63.58583713932596
9750.0 64.67610694060923
10000.0 65.46435270902096
10300.0 65.16091364210784
10600.0 63.64365677073147
10900.0 62.19180078657449
11200.0 64.13833499684073
11500.0 65.42964495355564
11800.0 62.64513999926611
12200.0 62.6242973659152
12500.0 63.121531126412776
12800.0 63.62429736591518
13200.0 63.36820626411148
13600.0 60.72812420384773
14000.0 61.13751344391811
14500.0 62.12180052683975
15000.0 60.27757950460712
15500.0 58.95933929981311
16000.0 57.078288883776466
16500.0 61.598941039525
17000.0 64.6774648000064
17500.0 63.01048819924246
18000.0 61.30550394590121
18500.0 62.66599588292033
19000.0 63.803118340625105
19500.0 62.45557927660535
