Freq "Front Wall Bounce"
22.4 16.786184505019477
23.0 18.186184505019483
23.6 19.643139395337826
24.0 20.986184505019494
25.0 22.371662753918898
25.8 23.771662753918903
26.5 25.071662753918915
27.2 26.41508314243883
28.0 27.743790754197292
29.0 29.071662753918915
30.0 30.343790754197286
30.7 31.643790754197298
31.5 33.32946066855591
32.5 34.6437907541973
33.5 35.62946066855592
34.5 36.843790754197286
35.5 38.0437907541973
36.5 39.300657860694244
37.5 40.5437907541973
38.7 41.74379075419729
40.0 42.91508314243883
41.2 44.11508314243885
42.5 45.31508314243884
43.7 46.515083142438854
45.0 48.04313939533783
46.2 49.143139395337826
47.5 50.115083142438834
48.7 51.25775667464532
50.0 52.414427463397445
51.5 53.54313939533782
53.0 54.65775667464533
54.5 55.75775667464532
56.0 57.057756674645304
58.0 58.1861845050195
60.0 59.11442746339746
61.5 60.05775667464532
63.0 61.05775667464532
65.0 62.04313939533782
67.0 62.986184505019494
69.0 64.04313939533783
71.0 64.9716627539189
73.0 65.71508314243884
75.0 66.4861845050195
77.5 67.24313939533782
80.0 67.97166275391892
82.5 68.6861845050195
85.0 69.31508314243885
87.5 69.81508314243884
90.0 70.2861845050195
92.5 70.71508314243884
95.0 71.21508314243883
97.5 71.61508314243883
100.0 71.91508314243883
103.0 72.31508314243884
106.0 72.58618450501949
109.0 72.81508314243885
112.0 72.91508314243885
115.0 72.85840584504062
118.0 72.68748929892041
122.0 72.38748929892041
125.0 72.08748929892043
128.0 71.78748929892042
132.0 71.58748929892042
136.0 71.51508314243884
140.0 71.51508314243884
145.0 71.51508314243884
150.0 71.42979499755904
155.0 71.25907003611941
160.0 71.00229476693693
165.0 70.73175513861906
170.0 70.53175513861908
175.0 70.33175513861906
180.0 70.17525122642458
185.0 70.03175513861906
190.0 70.07525122642457
195.0 70.27525122642457
200.0 70.53175513861908
206.0 70.57525122642456
212.0 70.4048949937362
218.0 70.03175513861906
224.0 69.67525122642458
230.0 69.47525122642456
236.0 69.4048949937362
240.0 69.37525122642457
250.0 69.21998423401443
258.0 69.10489499373621
265.0 68.91998423401445
272.0 68.81998423401443
280.0 68.69366590096783
290.0 68.59366590096782
300.0 68.49366590096783
307.0 68.41998423401444
315.0 68.27848478147017
325.0 68.01998423401443
335.0 67.97848478147017
345.0 68.20489499373622
355.0 68.57525122642457
365.0 68.8048949937362
375.0 68.8048949937362
387.0 68.70489499373623
400.0 68.60489499373621
412.0 68.57525122642457
425.0 68.51998423401444
437.0 68.23924275721991
450.0 67.92940676691627
462.0 67.92321085894987
475.0 68.02321085894987
487.0 68.05121482311348
500.0 68.12940676691626
515.0 68.1136394060688
530.0 68.0677916354448
545.0 68.02386986096214
560.0 67.95251964068127
580.0 67.94235653127141
600.0 67.9106896630263
615.0 67.95086213388187
630.0 68.09942293182198
650.0 68.22758020744904
670.0 68.25086213388185
690.0 68.202876283004
710.0 68.12683455312958
730.0 68.09867242696347
750.0 68.17455785944567
775.0 68.22285588808361
800.0 68.21106138014495
825.0 68.03698126844557
850.0 67.83698126844557
875.0 67.73698126844558
900.0 67.82758020744902
925.0 68.00470702014275
950.0 68.15378373474546
975.0 67.97118930448192
1000.0 67.46320591042638
1030.0 67.31064634609231
1060.0 67.67091054784846
1090.0 67.92369881060604
1120.0 67.95266310123317
1150.0 68.01631827938834
1180.0 68.29485407749127
1220.0 68.37071823989353
1250.0 68.41941403242197
1280.0 68.80463955524606
1320.0 69.45131368737412
1360.0 70.43156734312868
1400.0 70.78474061393622
1450.0 70.49916045598911
1500.0 70.00794755119762
1550.0 69.41744525333677
1600.0 69.13191816260323
1650.0 69.28969515549682
1700.0 69.42913394039209
1750.0 69.48045533919455
1800.0 69.5446225855877
1850.0 69.11912395882261
1900.0 68.36943727950165
1950.0 67.85011985554405
2000.0 67.65219237688582
2060.0 66.30886294956615
2120.0 64.21028112435498
2180.0 63.310872956738436
2240.0 63.6629798933737
2300.0 63.63452722041525
2360.0 65.16236105613396
2400.0 66.44917018545891
2500.0 67.21752148572189
2580.0 68.08207515885518
2650.0 68.53844289944954
2720.0 68.53496350898169
2800.0 67.59012221389469
2900.0 66.81060209631303
3000.0 66.90779997150769
3070.0 67.29890030979723
3150.0 67.77100746127049
3250.0 67.58140509237231
3350.0 67.36212175296141
3450.0 67.04820933542511
3550.0 66.25404433115628
3650.0 66.3269261861042
3750.0 66.70254581688904
3870.0 66.68887993303352
4000.0 66.97656492097305
4120.0 66.99971840101321
4250.0 66.45727882295391
4370.0 66.29256538066707
4500.0 66.69365599168472
4620.0 66.66590426440862
4750.0 67.34236653272296
4870.0 67.19523726086697
5000.0 67.70018582708344
5150.0 67.63940120002749
5300.0 67.52365945658998
5450.0 67.74061805487888
5600.0 67.67009188016799
5800.0 67.34637170835303
6000.0 66.19400771817196
6150.0 66.80305221637174
6300.0 66.5991533520826
6500.0 66.25444627348608
6700.0 66.31905256640499
6900.0 66.9012867456071
7100.0 67.5889007463131
7300.0 67.77381510551754
7500.0 67.42109730235804
7750.0 67.06966464666503
8000.0 66.71444463931358
8250.0 65.6352040145812
8500.0 66.36797755467747
8750.0 67.05703671616585
9000.0 67.92078123720519
9250.0 68.43630821301095
9500.0 67.93562621658764
9750.0 67.01173758873215
10000.0 66.757588405633
10300.0 67.6346374178096
10600.0 67.99847742162204
10900.0 65.8491446618256
11200.0 65.49554657995769
11500.0 66.76006487769591
11800.0 65.0660390390839
12200.0 65.63590662737666
12500.0 66.60516570814218
12800.0 65.29863905411878
13200.0 65.97671442460197
13600.0 65.94684817097833
14000.0 64.62964424256067
14500.0 63.845965207480035
15000.0 61.82933261966251
15500.0 63.34026349654599
16000.0 62.81058490932632
16500.0 64.27617305546556
17000.0 66.24713206815188
17500.0 65.16532793063665
18000.0 64.47856317103789
18500.0 67.11308226803352
19000.0 65.25403098019684
19500.0 67.30571482234306
