Freq,Floor Bounce,Ceiling Bounce,Front Wall Bounce,Side Wall Bounce,Rear Wall Bounce,Total Early Reflection
20.5078,48.471389387284646,45.67942331284341,47.24418065700094,47.097157957636355,46.6963062206152,47.13173448139129
21.9727,50.822998523368184,48.37628614014967,49.753462198168975,49.65597176113802,49.32661724748239,49.65835214937998
23.4375,53.34441878565697,51.313856450849144,52.46241939079475,52.35493431835569,52.04786087008431,52.354521753381974
24.9023,55.07672957049765,53.14961733659062,54.2415920230067,54.14071080732707,53.87436600299644,54.14113527176751
26.3672,57.090621104976165,55.387416650810664,56.35710349528647,56.25733610223726,55.99130124562747,56.251959691525954
27.832,58.810569597691554,57.238942238781604,58.13987200826763,58.04046210554513,57.772674928061235,58.03076356134001
29.2969,60.493092357858245,58.997016184981746,59.86443512650507,59.750404839680556,59.45966959952047,59.74092092358468
30.7617,62.16071580805577,60.793235869749694,61.59061915953926,61.48100127145531,61.21257628566225,61.47107722240405
32.2266,63.60583379211654,62.270432106464895,63.06064244114728,62.93201595833712,62.61757028161985,62.92049329405056
33.6914,65.00014532572837,63.73444587031776,64.48798094932594,64.36002657921082,64.04215606824216,64.34608986337727
35.1563,66.37783324701209,65.17294351184982,65.8974868488918,65.76486680048446,65.4323467831221,65.74874341031493
36.6211,67.53040786898734,66.36560858645952,67.07094319893127,66.93521009956646,66.59995874640308,66.91904433730558
38.0859,68.59764438642837,67.45788593657372,68.15145642006007,68.01347610079334,67.68088359074137,67.99820490498858
39.5508,69.63021083755527,68.50705350598044,69.19643630192577,69.0471949423709,68.68427056230148,69.0311091057241
41.0156,70.49406136699817,69.3993372285956,70.07323015524625,69.92416267441193,69.57360138385793,69.91003919475905
42.4805,71.396151811428,70.32428554407416,70.98921519013476,70.84052344456468,70.48740725344088,70.82411755447147
43.9453,72.18877401351796,71.15479111810002,71.80004671086633,71.65231136174758,71.30093911747511,71.63501014618889
45.4102,72.87925124497185,71.86727634154917,72.5079493890124,72.34239484995199,71.95785034052106,72.32679410264004
46.875,73.56617825597228,72.54852487709255,73.19824665792997,73.01839318580177,72.5846200797208,73.00021595376887
48.3398,74.07415661490425,73.0727888855938,73.71182629710245,73.53334058562984,73.09292627777336,73.51376528070877
51.2695,75.05872366207508,74.1042473826008,74.71027993669132,74.5567386936205,74.2130378492752,74.54236810809294
52.7344,75.49560310202236,74.54265577469373,75.14989545315393,74.99441183255963,74.65903349019847,74.98194332226588
54.1992,75.79095394609615,74.87494908240325,75.45894201559958,75.30842369007603,74.99159944752196,75.29749530016436
55.6641,76.08431956683363,75.1473030163513,75.75624553465995,75.57656606110267,75.20909918720128,75.56875790136091
58.5938,76.74436243166343,75.81332294719863,76.42582101632496,76.22782149405259,75.7769890470294,76.21330566977623
60.0586,76.92438755105657,75.99814808323323,76.60856012555384,76.41384601735122,75.96938263426094,76.39821942258187
62.9883,77.408320621461,76.50156075681512,77.0969506964418,76.91650540474657,76.52197588952204,76.9029067154179
64.4531,77.62502279630333,76.72076732169342,77.3135211193558,77.13630290512509,76.76362475607638,77.12523921526169
67.3828,77.96450148059523,77.05990935972355,77.65538184081701,77.47398842969338,77.11624765233563,77.46721650236186
68.8477,78.05546508644161,77.14087851034182,77.74460161155532,77.55811985205723,77.1970056449574,77.55274677667883
71.7773,78.36360208677999,77.45216842137195,78.06329355536772,77.85855966737691,77.4692320194029,77.85553327217075
74.707,78.77372170852787,77.87597386615612,78.48392083264838,78.2650678727144,77.83468621991878,78.26150300335661
77.6367,78.94224742821517,78.0661508362489,78.65825640971951,78.45071318637524,78.05927580533765,78.44884665011962
79.1016,78.93137565764725,78.05737791133791,78.64848724741807,78.44042112107489,78.05666209156063,78.44021754456331
82.0313,79.0742942206909,78.20873651933358,78.79567684791694,78.58542834463644,78.20898295859841,78.58771860393044
84.9609,79.30406282004161,78.45410766783381,79.02773449409028,78.83096132902752,78.52423881889696,78.83975706368395
87.8906,79.35528451905473,78.47699951938647,79.08894613171248,78.84550044318264,78.46479831684086,78.86017855920424
90.8203,79.50989476035733,78.6323110483264,79.25125175604731,78.99478833371109,78.56204472335716,79.00506432394987
95.2148,79.64163927165599,78.75347870130783,79.37631604005547,79.11667134200171,78.66365352312066,79.12605442088623
98.1445,79.70097159993128,78.8322331612797,79.44680998421406,79.17948070145819,78.75539409586956,79.19785266950532
101.074,79.80218952642296,78.91676651454607,79.54992080581124,79.2699564974856,78.80100974002094,79.28426879537336
105.469,79.81391430505285,78.93277799240911,79.56426928956562,79.27401006492605,78.83996762322707,79.30069771980274
108.398,79.93858918285649,79.08061534864184,79.70187983782742,79.39829746647672,78.93733781816542,79.42741991784442
112.793,79.95419364612846,79.06403877525544,79.70825783121619,79.39513796908777,78.92794330763898,79.42693766693307
117.188,79.97248755468355,79.07819712797145,79.72811143331438,79.41807732541423,78.98339768115426,79.45237475224819
120.117,79.94197523930825,79.03077972646913,79.69834352369237,79.36556341505981,78.95803614998714,79.41549112901473
124.512,80.10735911492706,79.17705358670825,79.86825181894608,79.49363616573827,78.98104381917622,79.54565029086505
128.906,80.05296131102479,79.09714987766425,79.80753478791506,79.4217270649161,78.87012763999965,79.47186164823928
133.301,79.95463043706913,78.99779983217402,79.7062735806508,79.3276046981016,78.81387008013056,79.38089859463697
139.16,79.92365588378254,78.9333151219854,79.67380102392643,79.2712163182256,78.75451226617606,79.33348586702397
143.555,79.87661409669538,78.86328843741752,79.62998531475837,79.19390093774773,78.64709456702703,79.2664723035914
147.949,79.8176161391999,78.7384520353687,79.55488204885994,79.08961078299795,78.48642274891353,79.16557810388181
153.809,79.73538119330327,78.62434096220149,79.4728603675716,78.98920141314721,78.31698180330436,79.05923417773529
159.668,79.72007834430558,78.62903920540535,79.4717265468971,78.97885077712803,78.32548109897243,79.05566364706387
165.527,79.68381416770258,78.582963449997,79.43886241216269,78.93315261721159,78.35159622598015,79.02713406841478
171.387,79.64039785893246,78.49328112504429,79.39573236781601,78.83562462730434,78.2451189910664,78.95412855152802
177.246,79.60365505987725,78.4697200424899,79.37374923708686,78.77552423883873,78.0948950159054,78.89943519299165
183.105,79.42363661558889,78.1828648114036,79.17778387270583,78.51936562551963,77.80445866892491,78.66360188507811
188.965,79.36052608813864,78.07560641368956,79.10563340991133,78.43125648809966,77.43257780208494,78.53638994660191
196.289,79.19833898439566,77.9922345473631,78.9641343277731,78.33611046784048,77.50191054810468,78.4427680635491
203.613,79.0294513518679,77.90940261508379,78.84891345507813,78.15126182157915,77.42707574682842,78.31374707732873
210.938,79.00951257197046,77.713597190617,78.77755438980645,78.01834374763244,77.10769792799952,78.1807096385195
218.262,78.84100086639499,77.58291033344243,78.62499774082087,77.84866880692823,76.87728056214159,78.0128627232067
225.586,78.72837417832037,77.41252368004385,78.5156189629797,77.7088811975158,76.88676776343817,77.90444427083413
232.91,78.85863601022932,77.42704257505538,78.64296809894189,77.67709273537565,76.58807691697282,77.91702186335003
241.699,78.7685257812851,77.31609389062845,78.50940835422851,77.60834777901141,76.26795930278344,77.78382467051597
250.488,78.55901683964292,76.9134737044238,78.2656111594591,77.24640258186508,76.02172076872337,77.49772061514909
259.277,78.81081589260769,77.08339157319205,78.50605015507006,77.49160281555949,75.89775898522558,77.6795767044426
268.066,78.5653140842522,76.83403902116251,78.25891914253786,77.24504997044622,75.92158457371424,77.46953262979984
276.855,78.50776186754803,76.59271864089526,78.18652110177383,77.10162408164959,75.44227207043104,77.30356206656215
287.109,78.54632094156972,76.96597653383559,78.38569570790243,77.27612396371076,75.59832958053481,77.48094198404691
297.363,78.43426409733047,76.82135313344223,78.2621385029535,77.06467505537918,75.32125706595839,77.32028164067826
307.617,78.54506393936732,76.84867510413486,78.31314178524211,77.1914709841589,75.42353162523976,77.40344531376795
319.336,78.14476226648145,76.47592911311013,77.9282988643361,76.77425908873073,75.16967622469065,77.02742811017336
329.59,78.27758013301303,76.36842916688306,78.01303411010814,76.79555823778661,74.82425348964311,77.02540292522251
341.309,78.21295010269031,76.24040589078156,77.89674405121629,76.76867174334619,74.8410381971142,76.95414704044455
353.027,78.00458045948157,75.76807849414759,77.71155121371295,76.2800438286524,74.29257537766135,76.61388183220726
366.211,78.13133565365099,75.92568812091052,77.8555460297152,76.50464488775667,73.90645535199116,76.71172138834511
379.395,78.38567660801574,76.26875213578677,78.14363536466463,76.83475185727613,74.12933650049446,77.00098660941181
392.578,78.168038857629,76.01052499318571,77.88511116667605,76.75580766991699,74.14241484005036,76.8173922738114
405.762,77.64352319512606,75.56759142694777,77.35171511645194,76.19335659416033,74.00492473388456,76.34030698331847
420.41,77.97973718907294,75.65477613880513,77.73229572763927,76.28073975436206,73.26345247510926,76.48485324888182
435.059,77.71384847539157,75.8799824187852,77.55245606555415,76.5088371683361,73.56072313182175,76.47729650096066
451.172,77.86650307889835,75.42215604736408,77.65917799048576,76.27594222301131,73.57103037186744,76.42561308396685
465.82,78.2119131849694,75.72633277501559,77.9524045502343,76.64602335238752,73.08167980835192,76.6757538671369
483.398,78.61455330045614,75.51224124862328,78.13290241801884,76.62799445671295,73.95469698110499,76.88753057851449
499.512,78.60506944228723,75.5245331988515,78.02461261438961,76.83686830138453,73.73795486404346,76.8767874348637
517.09,78.2530424531587,74.33355048635256,77.35867026002076,76.10662050792929,73.4831761752706,76.26421960553189
536.133,75.78461411261337,70.39325238325246,74.09053348904827,73.095702386609,71.27016958814401,73.35557033950774
555.176,73.97399871122002,70.23337640708102,73.1296453288506,71.66524163579315,67.84426687416767,71.8661016276418
574.219,74.07249574031069,71.9387954063743,73.91303842955863,72.6904025345268,68.2187128631229,72.6009502962266
594.727,74.59793494530523,72.09904458348588,74.65548058323468,73.06249228061976,68.69955762328706,73.09231456015456
615.234,75.419391003546,72.15395580009077,75.59244366988092,73.40148481597872,68.47434045518251,73.67047272162993
637.207,75.64581284257484,72.33275055427906,75.57573578914621,73.3948782127646,68.55708723342757,73.76337123092404
659.18,75.13471807328573,72.73748435977068,75.24838675577888,73.23451932333761,68.48750338329744,73.54124890846434
682.617,74.35214478919143,72.95593916758128,74.81023207757879,73.10112327753873,68.35706876890701,73.2029318237001
707.52,74.65770322863602,73.11451429586694,75.38873600093683,73.78344449577538,68.6833426487185,73.63903089538258
732.422,75.26548204465554,74.40931838898784,76.34196166381099,74.43407128622569,69.50888986939368,74.50186606817613
757.324,76.16703704588684,75.06673615844961,77.26549620694185,75.38700694383056,70.5874969430759,75.3852607528117
785.156,77.19483789488638,75.72230224555958,78.15364550165695,75.89619953809705,71.22395614998779,76.17539376642809
811.523,76.82120840071758,75.8450697907545,77.91492324750524,75.29145757460277,70.87175881716995,75.8978294237116
840.82,77.22301481010884,76.27567444064881,78.29513091643243,75.43592908135263,71.08653781009805,76.24315474065168
870.117,76.7490020040614,76.35118110892631,78.23229567316558,75.17006178915018,70.47640613618844,76.04388970073798
900.879,76.93051224518963,76.90030632457817,78.95216257355095,75.83083614458522,70.74745654123826,76.5712303466207
933.105,77.40581852505099,77.65419804281147,79.64229746310131,76.59495219083797,71.33313559595206,77.23680083740368
965.332,78.18427315861088,77.87652238061281,80.23841277591919,76.99412445622222,71.88560512609168,77.75666667259144
1000.49,78.79746967456815,77.5172120423383,80.71538885613745,77.44492828604395,72.07906106876769,78.08674692107816
1035.64,78.8173974863084,75.75190342527817,80.42045564677647,77.06896711222707,72.15262297840579,77.6531790279513
1072.27,78.21893992709288,72.27237403548227,78.97227729650724,75.72160518352568,70.33195102977034,76.23855590786852
1108.89,76.89955802083848,73.8885046385257,77.78023726160814,74.52844965520174,68.92301347013843,75.30482112477333
1148.44,76.2146122556486,75.09643303772684,77.56647994395281,74.35307656231376,67.8390152803006,75.17428361764239
1189.45,75.58541817801813,75.6454517104598,77.71682777015529,74.22761798018448,67.60346298256401,75.16451618225628
1230.47,75.45558055256585,76.20659040904953,78.08133690394503,74.88772808716806,67.57989733811236,75.50723952784047
1274.41,75.72877509915521,76.64529594726177,78.80453893291308,75.37731196391408,68.04768788421988,76.02923142687673
1319.82,75.47763895989182,76.59754844665744,78.91547756756441,75.7114723824558,68.19212945569855,76.07949649634553
1366.7,75.37296791935164,76.88405662915875,78.86880780777334,75.22081693323463,67.90403021739003,76.01560304941825
1413.57,74.78960989077461,77.46465537707633,79.2110474256285,75.48361171486395,67.86549594767499,76.24815656653858
1463.38,74.96641290330669,77.23635498959379,79.57261217249727,75.39071342201942,67.96807332209741,76.35064936225534
1516.11,75.1351303551234,76.92513891860601,80.2558159121436,75.87184860259191,68.4555493245148,76.69525567872752
1568.85,75.39127867310965,76.0838496124964,80.32851394755839,76.13799882179171,68.64980061959876,76.65529657277882
1624.51,75.81289932477397,74.66935583671733,79.95939413452375,75.59375836204416,68.26354606619655,76.22143470094652
1681.64,75.62010595510483,72.60159731067878,79.35906254895127,75.05482122341543,67.63183959010856,75.53349998703942
1741.7,75.73750906913378,73.50193438805667,79.48905339144157,75.57542229170117,67.25557253721564,75.80222902011886
1803.22,75.27107009477373,73.20775697268337,79.89459373050305,75.84579236102688,67.31115227951149,75.93281569347693
1866.21,74.9746477854578,72.22684794570148,79.40105625453941,75.25281624029898,66.76191467217916,75.40374088795757
1932.13,74.19024075357406,71.86295074584609,79.24750530453015,75.0409528717349,67.36306191157587,75.13384585073736
1999.51,73.87747257318584,71.41493187832897,79.46951117571335,75.44496711315749,67.46507684695705,75.24749157306748
2069.82,73.17423957135367,68.9041522481614,79.0776121418566,75.11734384615012,66.70368888260958,74.6708869008891
2143.07,72.11361697579729,64.80560867900665,79.37705874602688,75.41385942767019,67.32608147336926,74.6573240374882
2219.24,72.05557993206943,63.291235746690674,79.78041337849012,76.12241656144563,67.703706025825,75.05417406583581
2296.88,72.86988444990833,65.01610129078081,79.30213639415102,75.87323071466881,66.9239258509137,74.8082215300264
2378.91,72.96251640496537,68.89324236425357,79.03106279958845,75.86103846009304,67.16840774682181,74.8087365704993
2462.4,72.6035545215598,67.8207169697316,78.99211167764643,75.94919504730437,67.25414603431396,74.71926905526358
2548.83,73.3332371078497,69.74975672892386,78.1040601714652,75.29898401499256,66.94432730437283,74.29540041954566
2639.65,72.85433667574351,71.7131078463172,78.76414753322202,76.01329134021039,66.86910201612248,74.89002295849632
2731.93,72.82898112624933,73.46236150789221,79.18040353673453,76.6504856708958,67.52036274133268,75.4671841939941
2828.61,72.84884087732377,74.39089267367847,78.99930801867774,76.4671008357716,67.11997676907198,75.45698877284897
2928.22,72.78737004336696,74.83842817356786,79.69198544038453,77.15693242856707,67.52105612894303,76.02568222639643
3030.76,73.70538873486252,75.77947703558813,79.52454883600696,77.49394720416963,67.85965917810873,76.29829735796723
3137.7,74.54477398380179,76.39653148278317,79.60837940903001,77.73392524739162,67.96420473142302,76.6100537735282
3249.02,74.11535303403794,77.27512973761176,79.76428547049117,78.03621575955118,68.06938912831376,76.88320003476721
3363.28,75.04855464311737,77.04683983675918,79.84568141858051,78.37284699845581,68.47784266036189,77.07476328319888
3481.93,76.32866242956722,76.95845536525307,79.69224597655337,78.16551497618767,68.37683158593434,77.12934496506104
3604.98,76.94128112973355,76.76900755573284,79.85006182742634,78.10607178956694,68.31284557299914,77.24294531747181
3732.42,76.64891895583672,77.49104771835711,79.37951546266946,77.93767228212917,68.18572294661567,77.12335444644732
3864.26,76.76260931150313,77.88015895601713,79.72812388683546,78.20194224013227,68.46248791191802,77.4175078472952
4000.49,77.43215855485325,78.28126009279953,78.98020350589913,77.87361863427091,68.14089595114345,77.316773787305
4141.11,78.04753048690014,78.68171598266777,78.53179922084739,77.99558716035305,68.28342838513446,77.46153296570607
4287.6,78.26550741355501,78.80416094097771,77.84824803266622,78.11947724854299,68.40639085812658,77.41493816814238
4438.48,78.5441320271385,79.10108259996044,78.58389382828909,78.5089608818974,68.36672083580716,77.82189726000207
4595.21,79.2004749323539,78.85481966476739,79.49404786822187,78.18258030561113,67.7273042257638,78.07183528498895
4756.35,79.91052931806058,78.62359997995155,79.36749781252072,78.60879590378997,67.87845336763687,78.27333265321846
4924.8,79.55432375953167,78.06199071536246,79.32373396094425,78.50304517338233,68.33086514617996,78.02750794526965
5097.66,79.71933965182583,77.52245979379862,79.79959481370658,78.13505771990057,67.25358594054616,78.00936856800183
5277.83,79.91740330218646,77.44604261809687,78.8672049738293,78.13139568735812,67.31911706880214,77.79776130580363
5463.87,79.13239731368724,77.48732049942659,78.64868429642908,78.18238231698713,67.47730543974764,77.52229956733973
5657.23,79.10991346321846,77.75133401313012,78.33664261476322,77.44737041124877,66.36313021841902,77.30975151727647
5856.45,79.5629195576317,77.83056562837149,78.62238341029081,76.9638684122901,65.43629107560237,77.43705910209918
6062.99,79.15243649497934,77.70775765182454,78.39173436245711,76.44102547593971,65.1724788939611,77.12090288538198
6276.86,78.85028616852786,77.80958778013915,79.07899374527734,76.13991649067283,64.78629270190946,77.19572896752656
6498.05,78.56403572811261,77.61892882373861,79.12085214879784,76.57297019653491,64.65507431524675,77.15438103765031
6726.56,78.78899345591319,77.5844236668366,79.57902185508088,77.04150527919904,64.86164569928526,77.44181009773631
6963.87,78.52213879082433,77.30280810953947,79.5988819377727,77.19532324956047,65.46117617559237,77.35619219675762
7209.96,77.89471846023586,77.13111175484042,79.71892814743902,77.28651054912659,64.9567094317683,77.2204134599048
7464.84,78.8471806283223,76.97317510414827,79.71212202990851,77.20062185398254,65.00648370177483,77.41526628873049
7727.05,78.7864257768366,77.09688736884293,79.52872056848845,76.88250969620675,64.57330507409442,77.29544236818816
7999.51,78.76793982792256,77.01726295079614,79.51983658204631,76.51985857722227,64.26434623602681,77.20479951916661
8282.23,78.25449261933257,76.59505885425237,79.27336285724355,76.27402218398079,63.83204208763378,76.84798552380558
8573.73,78.2488904946383,75.96979867560495,79.31583882130754,75.78900687847383,63.36253214026753,76.66272170071325
8876.95,78.69410367840003,76.07610691752404,79.36422641554378,75.93070063900956,62.917831717623386,76.8496238787637
9188.96,78.52005540357048,76.30975369965681,79.70998627700423,76.41547715184232,63.44673368792222,77.04897014446016
9514.16,79.04822895612486,76.19502056175027,79.98303218805833,76.77972010317416,63.39838862488499,77.34633538517828
