Freq "Listening Window"
22.4 55.01503484445975
23.0 55.949550562194034
23.6 56.881767995410016
24.0 57.80480721745555
25.0 58.726748105054725
25.8 59.604807217455544
26.5 60.48176799541001
27.2 61.37072358877019
28.0 62.24955056219403
29.0 63.08176799541002
30.0 63.92674810505471
30.7 64.74955056219403
31.5 65.58176799541002
32.5 66.37072358877019
33.5 67.14955056219404
34.5 67.92674810505473
35.5 68.68176799541003
36.5 69.48176799541001
37.5 70.28176799541002
38.7 71.12674810505472
40.0 71.97072358877017
41.2 72.84955056219403
42.5 73.74955056219405
43.7 74.60480721745554
45.0 75.44955056219403
46.2 76.24955056219405
47.5 76.98176799541001
48.7 77.60480721745553
50.0 78.12674810505472
51.5 78.49204995956384
53.0 78.78176799541002
54.5 78.94955056219403
56.0 79.07072358877018
58.0 79.12674810505472
60.0 79.14955056219402
61.5 79.17072358877017
63.0 79.18176799541001
65.0 79.24955056219403
67.0 79.32674810505473
69.0 79.44955056219402
71.0 79.58176799541002
73.0 79.72674810505471
75.0 79.88176799541002
77.5 80.04955056219403
80.0 80.21503484445975
82.5 80.38176799541002
85.0 80.57072358877018
87.5 80.71503484445977
90.0 80.87072358877018
92.5 81.00480721745554
95.0 81.08176799541002
97.5 81.18176799541003
100.0 81.24955056219405
103.0 81.24955056219405
106.0 81.22674810505472
109.0 81.22674810505472
112.0 81.21584194709365
115.0 81.1723232395376
118.0 81.1723232395376
122.0 81.14964034846332
125.0 81.18286728941202
128.0 81.22735873428586
132.0 81.31509439139913
136.0 81.39213343239273
140.0 81.52604417795196
145.0 81.65843006568188
150.0 81.77002702413034
155.0 81.8920913515963
160.0 81.95815956841233
165.0 82.04653083445727
170.0 82.08106721443238
175.0 82.09183488768403
180.0 82.09183488768403
185.0 82.08055909029079
190.0 82.01562197372816
195.0 81.93745644611037
200.0 81.86073131121995
206.0 81.73926162125046
212.0 81.62885376677299
218.0 81.45012768929661
224.0 81.29794650942999
230.0 81.18814117053712
236.0 81.05583301678548
240.0 80.94637812763256
250.0 80.83711852884183
258.0 80.7961816271545
265.0 80.74046613227523
272.0 80.731611651074
280.0 80.72294124640322
290.0 80.7144514479405
300.0 80.76614963194895
307.0 80.75812262923623
315.0 80.77192541562519
325.0 80.72485830102488
335.0 80.71023413749224
345.0 80.68618406099311
355.0 80.69803719360745
365.0 80.68522384468858
375.0 80.64532602672854
387.0 80.63376833742193
400.0 80.60129301796404
412.0 80.60090697167652
425.0 80.57709033381471
437.0 80.53571476601441
450.0 80.51976750959635
462.0 80.53865887381633
475.0 80.50188001976629
487.0 80.52731115122991
500.0 80.53394816755197
515.0 80.52823814460073
530.0 80.56121264309793
545.0 80.538414554791
560.0 80.5397730048767
580.0 80.51917344716429
600.0 80.45800400759806
615.0 80.38469357679985
630.0 80.29130550277294
650.0 80.17900507708208
670.0 80.06947798635736
690.0 79.92425011339336
710.0 79.80049514640818
730.0 79.68447290857989
750.0 79.57047872049988
775.0 79.47181484697025
800.0 79.39229742893227
825.0 79.33606037082714
850.0 79.28231240564158
875.0 79.27646319743155
900.0 79.25406055780964
925.0 79.2992257839703
950.0 79.28896081469972
975.0 79.28742177162309
1000.0 79.31000153367492
1030.0 79.39151951171296
1060.0 79.41021384912474
1090.0 79.4921542900785
1120.0 79.53648393720151
1150.0 79.62762132500573
1180.0 79.6925662122037
1220.0 79.71894294228107
1250.0 79.810445316486
1280.0 79.85598958507703
1320.0 79.91512353891521
1360.0 79.96522410418474
1400.0 79.979141200523
1450.0 80.0209818570941
1500.0 80.02695646312719
1550.0 80.09227721840848
1600.0 80.11989493323749
1650.0 80.14636430993674
1700.0 80.16920787564999
1750.0 80.2137090961437
1800.0 80.25713046745162
1850.0 80.26492536113189
1900.0 80.31062246769636
1950.0 80.31780397037981
2000.0 80.31105365351033
2060.0 80.34353848430635
2120.0 80.30005584719386
2180.0 80.29262337881278
2240.0 80.27900106061455
2300.0 80.27664623360174
2360.0 80.26983158998051
2400.0 80.2689752214763
2500.0 80.28683290326441
2580.0 80.33831829706385
2650.0 80.37570774989742
2720.0 80.45324189185166
2800.0 80.53191263238858
2900.0 80.6009539842977
3000.0 80.70096880863055
3070.0 80.74725737180482
3150.0 80.80906496926598
3250.0 80.81663839269439
3350.0 80.84598438458774
3450.0 80.84651604313835
3550.0 80.87565205973102
3650.0 80.90892240153212
3750.0 80.94060763201237
3870.0 80.97762939462615
4000.0 81.01874216174407
4120.0 81.09255559769053
4250.0 81.1741032781248
4370.0 81.26587507258513
4500.0 81.39630377263613
4620.0 81.48873251060218
4750.0 81.57902316910166
4870.0 81.686639697057
5000.0 81.77783608744893
5150.0 81.8696966521332
5300.0 81.92322629732305
5450.0 81.98577635420078
5600.0 82.03431253612203
5800.0 82.07274890924504
6000.0 82.09629013112632
6150.0 82.15861880449764
6300.0 82.22366585500808
6500.0 82.23166372500177
6700.0 82.29591744077148
6900.0 82.33160348238968
7100.0 82.39802703549434
7300.0 82.43449343871374
7500.0 82.47425008254051
7750.0 82.5293650842911
8000.0 82.59624833205699
8250.0 82.64115676185358
8500.0 82.6987562000644
8750.0 82.74875031034556
9000.0 82.76958306914567
9250.0 82.84304553983718
9500.0 82.86800133045377
9750.0 82.89399965000406
10000.0 82.91640696132797
10300.0 82.94890988800675
10600.0 82.94754169445189
10900.0 82.866897619611
11200.0 82.84890988800676
11500.0 82.82072637426646
11800.0 82.74890988800676
12200.0 82.67009921193505
12500.0 82.53725731611739
12800.0 82.37150352154046
13200.0 82.23867228380728
13600.0 82.07150352154046
14000.0 81.83867228380727
14500.0 81.59257005007477
15000.0 81.3372573161174
15500.0 81.01955924417788
16000.0 80.67150352154047
16500.0 80.31640696132798
17000.0 79.91640696132798
17500.0 79.47150352154047
18000.0 79.07009921193504
18500.0 78.57150352154046
19000.0 78.07150352154046
19500.0 77.57150352154046
