Freq,On Axis,Listening Window,Sound Power,Early Reflections,Early Reflections DI,Sound Power DI,DI offset
22.4,64.2,64.45659151869971,63.73487077215681,64.06787070350269,40.38872081519702,40.7217207465429,40
23.0,64.8,65.06767187681787,64.3724565264187,64.68287296604598,40.38479891077189,40.69521535039917,40
23.6,65.39999999999999,65.690261029736,64.9992684000836,65.3071693726017,40.3830916571343,40.69099262965241,40
24.0,66.0,66.26767187681789,65.63076083742158,65.91240937680982,40.35526250000807,40.63691103939631,40
25.0,66.6,66.86767187681788,66.23342631606081,66.51493890674405,40.35273297007383,40.634245560757066,40
25.8,67.2,67.4231798088008,66.8297878860596,67.10803041711299,40.31514939168781,40.59339192274119,40
26.5,67.8,68.02317980880079,67.42991091826683,67.6968183583947,40.3263614504061,40.59326889053396,40
27.2,68.4,68.57822721186675,68.02783270772689,68.27421028505326,40.30401692681349,40.55039450413986,40
28.0,68.99999999999999,69.17822721186673,68.60513426936646,68.84860186107139,40.32962535079534,40.57309294250027,40
29.0,69.5,69.70076167153069,69.19685156404988,69.41514318342412,40.285618488106564,40.503910107480806,40
30.0,70.09999999999998,70.27822721186672,69.76856660094005,69.98955676580859,40.288670446058134,40.50966061092667,40
30.7,70.7,70.81148068598391,70.3426093864626,70.53804162402773,40.27343906195618,40.46887129952131,40
31.5,71.2,71.37822721186673,70.9133482798679,71.10778433022813,40.2704428816386,40.464878931998825,40
32.5,71.8,71.92267658830112,71.4986966613112,71.67550905883631,40.247167529464804,40.423979926989915,40
33.5,72.4,72.48900192004665,72.07343410212054,72.24804107593951,40.240960844107136,40.4155678179261,40
34.5,72.89999999999999,72.98900192004663,72.63280481553961,72.78366614091199,40.20533577913464,40.35619710450702,40
35.5,73.5,73.58900192004664,73.22372644836976,73.37345665764634,40.2155452624003,40.36527547167688,40
36.5,74.1,74.15583957685776,73.80840191932641,73.94479926033218,40.21104031652558,40.347437657531344,40
37.5,74.6,74.70025584655586,74.39081594783192,74.51559038182906,40.184665464726805,40.30943989872394,40
38.7,75.2,75.25583957685775,74.98949577497241,75.1055818478358,40.15025772902196,40.26634380188534,40
40.0,75.8,75.85583957685776,75.5930022387781,75.70349103667986,40.1523485401779,40.26283733807966,40
41.2,76.40000000000002,76.43358982687998,76.2016911505148,76.28741036714067,40.146179459739315,40.23189867636518,40
42.5,77.0,77.01122549985843,76.81393063936976,76.8823019051369,40.12892359472153,40.19729486048867,40
43.7,77.59999999999998,77.6112254998584,77.43937033184788,77.49453750091297,40.11668799894544,40.171855168010524,40
45.0,78.2,78.21122549985843,78.06234854001254,78.11214844938628,40.09907705047215,40.14887695984589,40
46.2,78.90000000000002,78.84472895057722,78.70763412510492,78.75219386211477,40.092535088462455,40.1370948254723,40
47.5,79.5,79.4669218511605,79.35629960536723,79.38771365574006,40.07920819542045,40.11062224579328,40
48.7,80.09999999999998,80.07823306508388,79.97982904290457,80.00117180102504,40.07706126405884,40.09840402217931,40
50.0,80.7,80.71122549985843,80.61793233059335,80.62894141358622,40.08228408627221,40.09329316926508,40
51.5,81.3,81.31122549985842,81.23884714990507,81.23744565250209,40.073779847356334,40.072378349953354,40
53.0,81.9,81.91122549985842,81.83395977200335,81.82717604059762,40.0840494592608,40.077265727855064,40
54.5,82.50000000000001,82.4669218511605,82.42461784834863,82.41865089359412,40.04827095756639,40.042304002811875,40
56.0,83.0,83.01122549985841,82.96953615403832,82.94341817376048,40.067807326097935,40.04168934582009,40
58.0,83.5,83.51122549985843,83.48660374449065,83.451267203529,40.05995829632943,40.024621755367775,40
60.0,83.99999999999999,83.9669218511605,83.95764509350865,83.91567619842574,40.051245652734764,40.00927675765186,40
61.5,84.4,84.37797591781379,84.37167429303007,84.33731003221209,40.0406658856017,40.00630162478372,40
63.0,84.8,84.72242205920519,84.72491919838284,84.67072600185963,40.05169605734555,39.99750286082235,40
65.0,85.00000000000001,85.01122549985843,85.02901271447165,84.96396964932332,40.04725585053511,39.98221278538678,40
67.0,85.3,85.24472895057723,85.25307728285921,85.19154278553357,40.053186165043655,39.99165166771802,40
69.0,85.39999999999999,85.38925841531061,85.40774407596746,85.33996477189879,40.049293643411815,39.98151433934315,40
71.0,85.5,85.48925841531062,85.49742981568382,85.43230022872937,40.05695818658124,39.9918285996268,40
73.0,85.6,85.50051167804047,85.49688942638396,85.43552854452109,40.06498313351938,40.00362225165651,40
75.0,85.5,85.45609803813524,85.44946597567089,85.38602184438935,40.07007619374589,40.00663206246435,40
77.5,85.39999999999999,85.32293110248064,85.30909334047384,85.24674706890514,40.0761840335755,40.0138377620068,40
80.0,85.3,85.20051167804047,85.1260748852916,85.07766627488077,40.1228454031597,40.07443679274887,40
82.5,85.09999999999998,85.02293110248064,84.91083327011185,84.87648976961269,40.14644133286795,40.11209783236879,40
85.0,84.9,84.82293110248064,84.66165490807836,84.6404237448901,40.18250735759054,40.16127619440228,40
87.5,84.7,84.55686156553041,84.36055047710144,84.37054731383178,40.18631425169863,40.19631108842897,40
90.0,84.4,84.32293110248064,84.06077875055256,84.08677959999648,40.23615150248416,40.26215235192808,40
92.5,84.2,84.05686156553043,83.75056127385811,83.79754395951947,40.25931760601095,40.306300291672315,40
95.0,83.90000000000002,83.8015232095018,83.41599619631232,83.4949948042325,40.30652840526929,40.385527013189474,40
97.5,83.7,83.5356206840857,83.07742712631094,83.1774460639574,40.358174620128295,40.45819355777476,40
100.0,83.4,83.31300581665408,82.75369304803358,82.9060840957938,40.40692172086028,40.5593127686205,40
103.0,83.2,83.09203842311864,82.4198632116598,82.61739653698245,40.47464188613618,40.672175211458836,40
106.0,83.0,82.85837672536981,82.09268442060309,82.34500122060935,40.51337550476046,40.765692304766716,40
109.0,82.8,82.6699738260637,81.7817331798852,82.09005103895001,40.57992278711369,40.8882406461785,40
112.0,82.7,82.51476245148906,81.51552780798309,81.86374562274099,40.65101682874807,40.99923464350597,40
115.0,82.50000000000001,82.33762776013772,81.23578557184742,81.63535392574452,40.702273834393196,41.101842188290306,40
118.0,82.4,82.21476245148908,80.95805004851125,81.44788156484512,40.76688088664396,41.256712402977826,40
122.0,82.2,82.04928032556397,80.67203171505628,81.22830679495105,40.82097353061292,41.37724861050769,40
125.0,82.1,81.91476245148908,80.40059855933431,81.03118496206217,40.88357748942691,41.51416389215477,40
128.0,82.0,81.76090170960879,80.1066439373139,80.81024711467644,40.950654594932345,41.65425777229488,40
132.0,81.8,81.61725487435673,79.82019256032986,80.60310348883208,41.014151385524656,41.797062314026874,40
136.0,81.7,81.47222859343948,79.54269792349825,80.40997047511478,41.062258118324706,41.92953066994123,40
140.0,81.49999999999999,81.2722285934395,79.19900684179125,80.15721561260288,41.11501298083661,42.07322175164825,40
145.0,81.40000000000002,81.14063796503014,78.8918639321238,79.94396587998575,41.19667208504438,42.24877403290634,40
150.0,81.2,81.01725487435674,78.63799200721964,79.77668192426339,41.24057295009335,42.3792628671371,40
155.0,81.10000000000001,80.89428176701229,78.42746393420339,79.63504233641336,41.259239430598925,42.4668178328089,40
160.0,81.0,80.82896215694926,78.23382554610755,79.51237925518004,41.31658290176922,42.595136610841706,40
165.0,81.0,80.76090170960879,78.09007037246103,79.44431558788733,41.31658612172146,42.67083133714776,40
170.0,81.0,80.76090170960879,77.99461858529502,79.41014320740082,41.35075850220797,42.76628312431377,40
175.0,81.0,80.76090170960879,77.92834582345944,79.39678365389452,41.36411805571427,42.83255588614935,40
180.0,81.0,80.76090170960879,77.88471324870392,79.39085379652161,41.37004791308718,42.87618846090487,40
185.0,81.0,80.81725487435673,77.89313156236797,79.44540046956331,41.371854404793424,42.924123311988765,40
190.0,81.10000000000001,80.93762776013772,77.95816950846556,79.55181779817198,41.385809961965734,42.979458251672156,40
195.0,81.3,81.06090170960879,78.06206086893015,79.68486322066066,41.376038488948126,42.99884084067864,40
200.0,81.40000000000002,81.23762776013773,78.20248112555699,79.85631497406762,41.38131278607011,43.03514663458074,40
206.0,81.6,81.36090170960877,78.32310545788168,80.00364304044926,41.357258669159506,43.03779625172709,40
212.0,81.6,81.4376277601377,78.4045535801509,80.09433991129306,41.34328784884464,43.0330741799868,40
218.0,81.6,81.40354610191524,78.36884280994023,80.07998569999687,41.32356040191837,43.034703291975006,40
224.0,81.40000000000002,81.25837672536981,78.23201540518936,79.9353434801075,41.32303324526231,43.026361320180456,40
230.0,81.10000000000001,80.95837672536983,77.9596934435433,79.6717364818952,41.286640243474636,42.99868328182653,40
236.0,80.6,80.49203842311861,77.52656119561428,79.231873311655,41.26016511146362,42.96547722750434,40
240.0,80.09999999999998,79.95837672536982,77.0292620361578,78.73526019281523,41.223116532554585,42.929114689212014,40
250.0,79.7,79.51476245148908,76.58670727013829,78.27411850779596,41.240643943693115,42.928055181350786,40
258.0,79.4,79.25837672536981,76.3572300910194,78.05016520754015,41.20821151782967,42.90114663435041,40
265.0,79.4,79.2699738260637,76.38018597805497,78.06164160010333,41.208332225960376,42.88978784800874,40
272.0,79.6,79.43762776013772,76.52773644445499,78.2020383918121,41.23558936832562,42.90989131568273,40
280.0,79.8,79.6376277601377,76.70431765178233,78.38627925484874,41.25134850528896,42.93331010835537,40
290.0,80.00000000000001,79.7722285934395,76.8037412327985,78.49034040538127,41.28188818805822,42.96848736064099,40
300.0,80.2,79.94063796503015,76.88338785351966,78.59497008396586,41.34566788106429,43.057250111510484,40
307.0,80.39999999999999,80.11881952234125,76.96996784546731,78.71181933635772,41.407000185983534,43.148851676873946,40
315.0,80.6,80.29882484139397,77.04569802444554,78.82016265826994,41.47866218312403,43.25312681694842,40
325.0,80.8,80.49882484139398,77.08531462693726,78.90950854767806,41.589316293715925,43.41351021445672,40
335.0,80.9,80.52231331322461,76.99569646045698,78.87561225189143,41.64670106133319,43.52661685276763,40
345.0,80.9,80.50279053944192,76.84083390543812,78.76913673452299,41.73365380491893,43.6619566340038,40
355.0,80.9,80.50279053944192,76.65961226381688,78.67355008072927,41.82924045871265,43.843178275625036,40
365.0,80.9,80.47206634345427,76.49987294416013,78.59053941908338,41.88152692437089,43.97219339929414,40
375.0,80.9,80.53820627595418,76.41675047278012,78.56646183363748,41.971744442316705,44.12145580317406,40
387.0,81.0,80.65992778156316,76.44773875280256,78.65854005700884,42.00138772455432,44.21218902876059,40
400.0,81.3,80.95992778156314,76.68335033821178,78.95467353602433,42.00525424553881,44.27657744335136,40
412.0,81.8,81.42625142785319,77.05346685827782,79.3720020252909,42.05424940256229,44.37278456957537,40
425.0,82.2,81.85992778156314,77.45956668899203,79.82479120896859,42.03513657259455,44.40036109257112,40
437.0,82.59999999999998,82.27919595457637,77.86203433589503,80.25311008511896,42.026085869457404,44.417161618681334,40
450.0,82.89999999999999,82.57919595457635,78.13090074855499,80.54771987642295,42.0314760781534,44.448295206021356,40
462.0,83.0,82.64803265884557,78.13140420044998,80.59034115427248,42.057691504573086,44.51662845839559,40
475.0,82.50000000000001,82.17919595457636,77.6189688215115,80.10812122033694,42.07107473423942,44.560227133064856,40
487.0,81.6,81.25992778156314,76.65797293072235,79.17240673973303,42.0875210418301,44.601954850840784,40
500.0,81.2,80.83820627595418,76.15166174412775,78.71305393425389,42.125152341700286,44.68654453182643,40
515.0,81.7,81.25320671702431,76.474725894391,79.08759479073596,42.16561192628835,44.77848082263331,40
530.0,82.2,81.71284853824173,76.77879499774858,79.45669800368617,42.25615053455556,44.93405354049315,40
545.0,82.2,81.76062442988025,76.65328699896371,79.39229477356447,42.36832965631578,45.107337430916544,40
560.0,82.0,81.54256778083912,76.27839500218552,79.09892368859384,42.44364409224528,45.2641727786536,40
580.0,81.8,81.21603415244918,75.8170312277623,78.69559814286895,42.52043600958024,45.39900292468688,40
600.0,81.40000000000002,80.83737081041468,75.28862366445156,78.24846490999208,42.5889059004226,45.54874714596312,40
615.0,81.10000000000001,80.60345090666077,74.90042253014127,77.93004062692764,42.67341027973313,45.7030283765195,40
630.0,81.10000000000001,80.53737081041467,74.74115178190034,77.8325066307594,42.704864179655274,45.79621902851433,40
650.0,81.2,80.63737081041468,74.71420368815313,77.88065473477023,42.75671607564445,45.923167122261546,40
670.0,81.40000000000002,80.81603415244918,74.7890637677523,78.02729365392936,42.788740498519815,46.02697038469688,40
690.0,82.2,81.59861350039958,75.43981447535475,78.73721136433271,42.86140213606687,46.15879902504483,40
710.0,82.0,81.38152161216026,75.0704472808355,78.44933320531621,42.93218840684405,46.31107433132476,40
730.0,80.2,79.49446260845681,73.0201468388945,76.48960436471964,43.004858243737175,46.47431576956231,40
750.0,78.7,78.0270214977508,71.39408030862988,74.94530190549854,43.081719592252256,46.63294118912091,40
775.0,78.0,77.28982889087509,70.47779545956432,74.13135725549553,43.158471635379556,46.812033431310766,40
800.0,78.0,77.18711291290847,70.22183469036739,73.97958892878498,43.2075239841235,46.96527822254109,40
825.0,77.89999999999999,77.08445711618081,69.95319520434653,73.82578486707256,43.25867224910826,47.13126191183429,40
850.0,78.2,77.36917740552829,70.09546889312533,74.0710065521908,43.298170853337496,47.27370851240296,40
875.0,78.60000000000001,77.7083223298793,70.28244749196047,74.35895314953744,43.34936918034185,47.425874837918826,40
900.0,78.4,77.5468135888801,69.98132279860612,74.14826307152863,43.39855051735147,47.565490790273984,40
925.0,78.1,77.21984454528594,69.51703522557445,73.77699248793523,43.442852057350706,47.70280931971149,40
950.0,78.3,77.39870163146368,69.50458899427714,73.84713775876575,43.551563872697926,47.89411263718654,40
975.0,79.1,78.13813905410765,70.03764547246534,74.48792471457772,43.65021433952994,48.10049358164231,40
1000.0,80.39999999999999,79.3527545176952,71.04396546436753,75.55982355575834,43.79293096193686,48.30878905332767,40
1030.0,81.40000000000002,80.33935183950027,71.86245246521867,76.45139622556263,43.887955613937635,48.4768993742816,40
1060.0,81.2,80.06852301709479,71.39906517390307,76.09408644325914,43.974436573835646,48.66945784319172,40
1090.0,80.5,79.36341124964981,70.56487882250188,75.3363533456252,44.027057904024616,48.79853242714793,40
1120.0,80.9,79.74246169905275,70.78069600668107,75.5863459206724,44.156115778380354,48.961765692371685,40
1150.0,81.10000000000001,79.87685436210514,70.82727530117455,75.68467456026896,44.192179801836176,49.04957906093058,40
1180.0,81.3,80.10247292985446,70.88757170135618,75.7652739057295,44.337199024124956,49.21490122849828,40
1220.0,81.6,80.28451019832319,70.85845001985128,75.79368701075954,44.49082318756365,49.426060178471914,40
1250.0,81.6,80.15126714365994,70.4172422427924,75.41045500566797,44.740812137991966,49.73402490086754,40
1280.0,82.7,81.23088689074937,71.26734792878287,76.33919618775114,44.89169070299823,49.963538961966506,40
1320.0,84.6,83.07380226314518,73.02703984720263,78.14387291230067,44.92992935084452,50.04676241594255,40
1360.0,84.2,82.61356980872044,72.48082237352482,77.61536042649374,44.998209382226705,50.132747435195625,40
1400.0,80.8,79.12417636827226,68.64933839973747,73.84022257243497,45.28395379583729,50.474837968534786,40
1450.0,79.9,77.99495385339884,67.14445839589463,72.48876864684198,45.506185206556864,50.85049545750421,40
1500.0,81.3,79.38186099573531,68.44443824856232,73.84093432384803,45.54092667188728,50.93742274717299,40
1550.0,82.4,80.35480469164953,69.34616832035134,74.77801746443026,45.57678722721927,51.008636371298195,40
1600.0,82.59999999999998,80.44567754839277,69.34126373226792,74.8007054165866,45.64497213180617,51.10441381612485,40
1650.0,81.8,79.61934719738245,68.4464780813435,73.89288972271547,45.72645747466699,51.17286911603895,40
1700.0,82.3,80.03084112714663,68.76670466099999,74.25969113151037,45.771149995636264,51.26413646614664,40
1750.0,82.4,80.05488808970915,68.68585779086179,74.22115106874456,45.83373702096459,51.36903029884736,40
1800.0,81.6,79.05947811051418,67.52313739195624,73.22584460055842,45.83363350995576,51.53634071855794,40
1850.0,81.3,78.73094464060092,67.17832242984782,72.87891867922053,45.85202596138039,51.5526222107531,40
1900.0,81.0,78.41732472891222,66.90363186392996,72.5108373172343,45.906487411677915,51.51369286498226,40
1950.0,79.9,77.37742587209483,65.94683284274393,71.34381841480341,46.033607457291424,51.4305930293509,40
2000.0,78.4,76.24493255662682,64.93979492185491,70.03824542325792,46.2066871333689,51.30513763477191,40
2060.0,75.7,74.06956690985065,62.95270094489143,67.70448146254103,46.365085447309625,51.11686596495922,40
2120.0,75.00000000000001,73.0595591551476,61.64281328948219,67.11758369024187,45.941975464905724,51.416745865665405,40
2180.0,76.49999999999999,74.19177290213587,62.61645084720345,68.4612012243061,45.73057167782977,51.575322054932414,40
2240.0,77.3,74.5642107723081,62.80088100643134,69.00395817552325,45.56025259678485,51.76332976587676,40
2300.0,77.59999999999998,75.14746023600459,63.563584032796044,69.5675464246175,45.57991381138709,51.58387620320855,40
2360.0,79.7,77.15220766419225,65.53673444434988,71.69204622861378,45.46016143557847,51.61547321984237,40
2400.0,80.7,78.26354741583138,66.73492168642186,72.78632658269122,45.477220833140166,51.52862572940953,40
2500.0,79.7,77.91875958698698,66.62825798180363,72.31733552153302,45.601424065453955,51.29050160518335,40
2580.0,78.2,76.77002226329566,65.56019547374193,71.06701103770952,45.70301122558614,51.20982678955373,40
2650.0,78.8,77.37025314839606,66.1287799634405,71.61243068566519,45.75782246273087,51.24147318495557,40
2720.0,80.39999999999999,79.01176478240308,67.78294774898838,73.22578064979776,45.78598413260532,51.2288170334147,40
2800.0,81.3,79.89870639493097,68.66582770941338,74.09047293991495,45.80823345501602,51.23287868551759,40
2900.0,81.9,80.7224277859218,69.56057078827747,74.86337306081407,45.859054725107725,51.16185699764432,40
3000.0,81.0,80.23061099709483,69.14249024557824,74.24168592552407,45.98892507157076,51.088120751516584,40
3070.0,79.4,78.86794510143311,67.82797493920391,72.78825685410139,46.07968824733172,51.039970162229196,40
3150.0,79.1,78.77280909955486,67.75883780100769,72.65521366574482,46.11759543381004,51.013971298547176,40
3250.0,79.8,79.6030649585561,68.61603818751891,73.45900895853136,46.14405600002475,50.98702677103719,40
3350.0,80.3,80.13794733611822,69.150237539401,73.99879539539432,46.13915194072389,50.98770979671721,40
3450.0,80.39999999999999,80.33515657895872,69.37223190071045,74.1902614824495,46.14489509650922,50.96292467824827,40
3550.0,81.6,81.47974731136897,70.51091680764104,75.36292670640766,46.116820604961305,50.96883050372793,40
3650.0,81.7,81.59155600309278,70.62856424966016,75.48007462546241,46.11148137763037,50.96299175343262,40
3750.0,82.7,82.54640387537658,71.57796793328727,76.45109723524496,46.095306640131625,50.968435942089314,40
3870.0,83.1,82.90252947931296,71.92820622494226,76.81486199701239,46.087667482300574,50.9743232543707,40
4000.0,83.5,83.40252947931296,72.4452960359736,77.33062495697071,46.07190452234225,50.95723344333936,40
4120.0,83.5,83.31400942974116,72.33033111286771,77.22361386340383,46.090395566337335,50.98367831687345,40
4250.0,82.7,82.60252947931296,71.63422702275552,76.51343394285742,46.089095536455545,50.96830245655744,40
4370.0,81.7,81.51400942974117,70.53922500425796,75.4273466935038,46.08666273623737,50.97478442548321,40
4500.0,81.10000000000001,80.91400942974116,69.93515608920765,74.82559410636799,46.08841532337317,50.978853340533504,40
