Freq "Sound Power"
22.4 64.0829720379796
23.0 64.72055779224152
23.6 65.34736966590638
24.0 65.97886210324437
25.0 66.5815275818836
25.8 67.1778891518824
26.5 67.7780121840896
27.2 68.37593397354968
28.0 68.95323553518925
29.0 69.54495282987268
30.0 70.11666786676284
30.7 70.69071065228539
31.5 71.2614495456907
32.5 71.84679792713399
33.5 72.42153536794335
34.5 72.9809060813624
35.5 73.57182771419254
36.5 74.15650318514922
37.5 74.73891721365472
38.7 75.3375970407952
40.0 75.94110350460089
41.2 76.5497924163376
42.5 77.16203190519255
43.7 77.78747159767067
45.0 78.41044980583536
46.2 79.05573539092772
47.5 79.70440087119003
48.7 80.32793030872736
50.0 80.96603359641612
51.5 81.58694841572786
53.0 82.18206103782613
54.5 82.77271911417142
56.0 83.31763741986111
58.0 83.83470501031344
60.0 84.30574635933144
61.5 84.71977555885286
63.0 85.07302046420564
65.0 85.37711398029442
67.0 85.601178548682
69.0 85.75584534179025
71.0 85.8455310815066
73.0 85.84499069220675
75.0 85.79756724149368
77.5 85.65719460629663
80.0 85.47417615111439
82.5 85.25893453593464
85.0 85.00975617390115
87.5 84.70865174292423
90.0 84.40888001637535
92.5 84.09866253968093
95.0 83.76409746213513
97.5 83.42552839213373
100.0 83.10179431385637
103.0 82.7679644774826
106.0 82.44078568642588
109.0 82.12983444570798
112.0 81.86362907380588
115.0 81.5838868376702
118.0 81.30615131433404
122.0 81.02013298087907
125.0 80.7486998251571
128.0 80.45474520313668
132.0 80.16829382615263
136.0 79.89079918932104
140.0 79.54710810761404
145.0 79.23996519794659
150.0 78.98609327304244
155.0 78.77556520002618
160.0 78.58192681193034
165.0 78.43817163828382
170.0 78.3427198511178
175.0 78.27644708928223
180.0 78.23281451452671
185.0 78.24123282819076
190.0 78.30627077428835
195.0 78.41016213475292
200.0 78.55058239137978
206.0 78.67120672370449
212.0 78.7526548459737
218.0 78.71694407576302
224.0 78.58011667101215
230.0 78.30779470936609
236.0 77.87466246143707
240.0 77.3773633019806
250.0 76.93480853596107
258.0 76.7053313568422
265.0 76.72828724387776
272.0 76.87583771027779
280.0 77.05241891760512
290.0 77.15184249862129
300.0 77.23148911934247
307.0 77.3180691112901
315.0 77.39379929026832
325.0 77.43341589276005
335.0 77.34379772627977
345.0 77.18893517126092
355.0 77.00771352963967
365.0 76.84797420998292
375.0 76.76485173860291
387.0 76.79584001862536
400.0 77.03145160403457
412.0 77.4015681241006
425.0 77.80766795481482
437.0 78.21013560171782
450.0 78.47900201437778
462.0 78.47950546627277
475.0 77.9670700873343
487.0 77.00607419654514
500.0 76.49976300995054
515.0 76.82282716021379
530.0 77.12689626357137
545.0 77.00138826478651
560.0 76.62649626800831
580.0 76.16513249358509
600.0 75.63672493027435
615.0 75.24852379596406
630.0 75.08925304772312
650.0 75.06230495397593
670.0 75.13716503357507
690.0 75.78791574117751
710.0 75.41854854665831
730.0 73.3682481047173
750.0 71.74218157445269
775.0 70.8258967253871
800.0 70.56993595619018
825.0 70.30129647016932
850.0 70.4435701589481
875.0 70.63054875778327
900.0 70.3294240644289
925.0 69.86513649139725
950.0 69.85269026009993
975.0 70.38574673828812
1000.0 71.39206673019034
1030.0 72.21055373104146
1060.0 71.74716643972585
1090.0 70.91298008832469
1120.0 71.12879727250386
1150.0 71.17537656699734
1180.0 71.23567296717897
1220.0 71.20655128567408
1250.0 70.76534350861519
1280.0 71.61544919460566
1320.0 73.37514111302542
1360.0 72.82892363934761
1400.0 68.99743966556026
1450.0 67.49255966171744
1500.0 68.79253951438511
1550.0 69.69426958617412
1600.0 69.68936499809071
1650.0 68.79457934716629
1700.0 69.11480592682278
1750.0 69.03395905668457
1800.0 67.87123865777903
1850.0 67.52642369567062
1900.0 67.25173312975275
1950.0 66.29493410856672
2000.0 65.2878961876777
2060.0 63.300802210714224
2120.0 61.99091455530498
2180.0 62.964552113026244
2240.0 63.148982272254145
2300.0 63.911685298618835
2360.0 65.88483571017267
2400.0 67.08302295224462
2500.0 66.97635924762642
2580.0 65.9082967395647
2650.0 66.47688122926328
2720.0 68.13104901481117
2800.0 69.01392897523617
2900.0 69.90867205410028
3000.0 69.49059151140104
3070.0 68.17607620502672
3150.0 68.10693906683048
3250.0 68.9641394533417
3350.0 69.4983388052238
3450.0 69.72033316653325
3550.0 70.85901807346382
3650.0 70.97666551548294
3750.0 71.92606919911006
3870.0 72.27630749076503
4000.0 72.79339730179639
4120.0 72.6784323786905
4250.0 71.98232828857832
4370.0 70.88732627008075
4500.0 70.28325735503044
4620.0 70.27208633373267
4750.0 69.51370310401148
4870.0 69.8831140674876
5000.0 71.03563654822965
5150.0 70.58358609821762
5300.0 70.72871737006014
5450.0 71.69901207961014
5600.0 71.12918885666704
5800.0 70.777577772079
6000.0 69.93420038802452
6150.0 69.83503464148818
6300.0 70.34555914279223
6500.0 70.60687626723389
6700.0 72.64142800379075
6900.0 72.23550793176626
7100.0 71.99927072371355
7300.0 71.12633473102738
7500.0 71.51867101223958
7750.0 71.98877585456445
8000.0 72.1769782865197
8250.0 71.48319786839471
8500.0 71.83549947102723
8750.0 69.5486857264694
9000.0 69.03549696262294
9250.0 70.71375218419436
9500.0 70.93557717912344
9750.0 70.58326382517326
10000.0 71.03549471811975
10300.0 71.33548186411166
10600.0 71.08317062914739
10900.0 70.73549706750462
11200.0 71.33548059593974
11500.0 72.09935617122157
11800.0 71.39934786466756
12200.0 70.78877052536174
12500.0 71.03547609545748
12800.0 69.58347289108217
13200.0 71.5354760967822
13600.0 70.29340726912099
14000.0 70.90037914396937
14500.0 70.19936069282221
15000.0 69.635497103946
15500.0 69.4993469718683
16000.0 68.69380259791615
16500.0 71.09934536898878
17000.0 71.03442035110358
17500.0 72.83549406857689
18000.0 74.9832155400347
18500.0 74.8993475654002
19000.0 76.08307291189813
19500.0 73.31343078700648
