Freq "Ceiling Bounce"
22.4 66.89486360477318
23.0 67.99866952755622
23.6 69.32973585597068
24.0 70.72973585597069
25.0 72.06513285845588
25.8 73.46513285845589
26.5 74.63431960259351
27.2 75.5680941348246
28.0 76.8343196025935
29.0 77.83431960259352
30.0 79.07049963125746
30.7 80.20399504248599
31.5 81.24042752142435
32.5 82.27049963125748
33.5 83.04042752142433
34.5 83.87415477036836
35.5 84.44042752142434
36.5 85.31083738012347
37.5 86.11083738012346
38.7 86.61083738012346
40.0 86.77739490312882
41.2 86.74805641483601
42.5 87.54805641483603
43.7 89.1817246987611
45.0 91.38172469876109
46.2 93.24805641483601
47.5 94.84805641483602
48.7 96.18581504093723
50.0 97.44805641483603
51.5 98.5858150409372
53.0 99.5858150409372
54.5 100.48581504093723
56.0 101.61919299047312
58.0 102.75720229941055
60.0 103.85720229941055
61.5 104.65720229941054
63.0 105.25720229941055
65.0 105.55720229941055
67.0 105.85720229941055
69.0 106.05720229941055
71.0 106.42905755094428
73.0 106.85720229941055
75.0 107.35720229941055
77.5 107.82905755094428
80.0 108.25720229941054
82.5 108.72905755094428
85.0 109.12905755094427
87.5 109.39575562110156
90.0 109.42905755094426
92.5 109.22905755094429
95.0 108.89575562110157
97.5 108.49575562110158
100.0 108.19575562110158
103.0 108.02905755094427
106.0 108.0678604149175
109.0 108.19575562110158
112.0 108.42905755094426
115.0 108.62905755094428
118.0 108.76786041491751
122.0 108.8678604149175
125.0 108.9678604149175
128.0 108.9678604149175
132.0 109.0678604149175
136.0 109.1678604149175
140.0 109.1678604149175
145.0 109.24042597600186
150.0 109.20721143960972
155.0 109.1678604149175
160.0 109.1072114396097
165.0 108.94042597600185
170.0 108.90721143960971
175.0 108.98002523499025
180.0 108.94042597600185
185.0 108.50721143960972
190.0 108.08002523499025
195.0 107.90721143960971
200.0 107.78002523499025
206.0 107.54042597600186
212.0 107.18002523499024
218.0 106.98002523499025
224.0 107.88002523499026
230.0 109.02017652373895
236.0 109.4532924284596
240.0 109.35329242845958
250.0 109.09369047944813
258.0 108.92700818806921
265.0 108.96765033236149
272.0 108.99369047944812
280.0 109.0676503323615
290.0 109.0676503323615
300.0 109.04205118977725
307.0 108.88349238738978
315.0 108.68349238738978
325.0 108.48349238738979
335.0 108.3254934366974
345.0 108.00081058473144
355.0 107.70081058473144
365.0 107.67655328995102
375.0 107.91959622432894
387.0 108.2959951909567
400.0 108.43983993343551
412.0 108.21688508828
425.0 107.86153168639059
437.0 107.28466082552637
450.0 106.86296734360678
462.0 106.78813742195273
475.0 106.71471098224956
487.0 106.32315820151224
500.0 106.1214528959573
515.0 106.08434393977139
530.0 106.36817392517301
545.0 106.6696872291045
560.0 106.1604799177181
580.0 105.18461248716403
600.0 104.61122584688282
615.0 104.46816411710424
630.0 104.17602787420665
650.0 103.49424329038769
670.0 102.64110043779732
690.0 101.941203144011
710.0 101.20447426376775
730.0 100.05296377611397
750.0 98.6198417023655
775.0 97.39071812751821
800.0 97.79685507382706
825.0 99.77674335010076
850.0 101.37071396682984
875.0 102.33763628440678
900.0 102.94315839674442
925.0 103.7295453624387
950.0 104.59876285987951
975.0 105.04906733925036
1000.0 105.6291238481742
1030.0 106.1291238481742
1060.0 106.52912384817421
1090.0 107.02912384817421
1120.0 107.06255697059984
1150.0 106.93518560425046
1180.0 107.08813742195274
1220.0 107.30019807367614
1250.0 107.18834962031784
1280.0 106.73085805847249
1320.0 106.20096082234642
1360.0 105.58503211325738
1400.0 105.05895706142203
1450.0 104.50116277380286
1500.0 103.88954526365883
1550.0 103.45384500743573
1600.0 103.35818889017082
1650.0 102.99541522052228
1700.0 101.70121768450102
1750.0 100.12195012787454
1800.0 99.454636463762
1850.0 99.85863793982138
1900.0 100.76817392517302
1950.0 101.63526976436992
2000.0 102.0348072312781
2060.0 102.20235672617628
2120.0 102.45564989811113
2180.0 102.01876837963732
2240.0 100.7394902740563
2300.0 99.51729048467638
2360.0 98.70659519872552
2400.0 98.93802478078743
2500.0 99.79339784962067
2580.0 100.21920343964933
2650.0 100.52716587483401
2720.0 101.01020987763675
2800.0 101.52716587483403
2900.0 101.50901644023241
3000.0 101.00954544390956
3070.0 101.19215980487338
3150.0 102.26342172967264
3250.0 102.51647934022172
3350.0 100.54120314401099
3450.0 98.37328237930089
3550.0 99.19889834079939
3650.0 101.3608823515047
3750.0 102.39113273802256
3870.0 101.73975907991314
4000.0 100.30866793338208
4120.0 99.63154878394273
4250.0 99.51603515001156
4370.0 99.45115923328316
4500.0 100.60603535121035
4620.0 100.55464623923754
4750.0 99.76976374734276
4870.0 98.92495995571277
5000.0 99.02426899385763
5150.0 99.06938866569388
5300.0 100.52062261846567
5450.0 100.64029604583737
5600.0 100.67594187071356
5800.0 99.96662802269586
6000.0 99.94858352083747
6150.0 100.67842078910506
6300.0 100.21886782553622
6500.0 99.91624081362906
6700.0 99.87902453945631
6900.0 99.43967142521657
7100.0 98.44789983602314
7300.0 98.2341516822813
7500.0 98.26177552173141
7750.0 98.20907070276223
8000.0 99.5094093633573
8250.0 99.51624081362907
8500.0 98.85122922321908
8750.0 102.40751005541344
9000.0 103.57881967516059
9250.0 102.66278876085492
9500.0 100.14042794524147
9750.0 97.31120777172575
10000.0 98.63703329645257
10300.0 105.1484362030575
10600.0 99.8832902557894
10900.0 100.07072338141617
11200.0 99.15469596569864
11500.0 94.9633617558095
11800.0 96.74240297662891
12200.0 99.35455332700246
12500.0 95.97658935236754
12800.0 96.3156249220076
13200.0 95.41647934022174
13600.0 95.4604799177181
14000.0 99.45221026565089
14500.0 99.71895436339187
15000.0 96.5379025241722
15500.0 95.63283889446792
16000.0 98.77416347389669
16500.0 96.9466165878606
17000.0 96.37221153397518
17500.0 86.11945118124001
18000.0 86.61710203366013
18500.0 75.83539135894108
19000.0 84.77095243962668
19500.0 78.02625405085163
