Freq "Estimated In-Room Response"
20.5078 65.38757727917722
21.9727 65.98495043039539
23.4375 67.4541349141214
24.9023 68.52725260832348
26.3672 69.2630077666714
27.832 69.93680323839715
29.2969 70.70279471470037
30.7617 71.64340193852534
32.2266 72.40796793359213
33.6914 73.22555424259276
35.1562 74.06705742001397
36.6211 74.74585139187352
38.0859 75.4986732623142
39.5508 76.1405451062746
41.0156 76.84534571378965
42.4805 77.52297121497831
43.9453 78.19148330526154
45.4102 78.81764080949284
46.875 79.45702057351116
48.3398 80.04661853432506
51.2695 81.26434868775634
52.7344 81.78842224709653
54.1992 82.3095678968534
55.6641 82.83450608057254
58.5938 83.81644662876911
60.0586 84.23952322983
62.9883 84.97709795574741
64.4531 85.27399912417077
67.3828 85.74658103494306
68.8477 85.92118874176283
71.7773 86.12962642646724
74.707 86.19019763212968
77.6367 86.18074126146705
79.1016 86.12963615512972
82.0312 85.9884784041867
84.9609 85.75506832411928
87.8906 85.5428057296511
90.8203 85.4526532953693
95.2148 85.12945238069999
98.1445 84.89032253963565
101.074 84.64536978983352
105.469 84.34468268145734
108.398 84.100617301124
112.793 83.72558337726703
117.188 83.24819632149025
120.117 83.10813176004662
124.512 83.19604729722438
128.906 82.85431266031023
133.301 82.62486706934236
139.16 82.4539088116987
143.555 82.3078480648628
147.949 82.64188727151368
153.809 82.88510343826688
159.668 82.32755164321352
165.527 81.99565603602122
171.387 82.17864083347875
177.246 82.08640387552015
183.105 81.6930206843226
188.965 81.79493826773064
196.289 81.7178817626587
203.613 81.44020672240617
210.938 81.11588647689423
218.262 81.23631156269678
225.586 80.82976195528167
232.91 80.55725130591344
241.699 80.45367630777267
250.488 82.3572045775269
259.277 81.72875941085647
268.066 81.67317591032922
276.855 81.750318807446
287.109 81.26970708516316
297.363 81.00716714310272
307.617 81.00373271967457
319.336 81.22804502628779
329.59 81.3897671722083
341.309 80.81870042799675
353.027 80.46267804961296
366.211 80.42290169096155
379.395 81.01245597582538
392.578 82.30210732372832
405.762 81.75688515511338
420.41 81.8381850247678
435.059 81.02245901723158
451.172 80.18807993327873
465.82 81.37359742734166
483.398 81.9184631829416
499.512 82.26406305517808
517.09 81.77195767502947
536.133 82.50009602088821
555.176 83.3039016847038
574.219 82.34300476466059
594.727 82.85681305088534
615.234 82.654382930936
637.207 83.21651010852018
659.18 83.4723645126295
682.617 82.15950399852322
707.52 82.06168164895351
732.422 81.83700219291713
757.324 81.7513670688666
785.156 81.01664917453358
811.523 79.74433043521368
840.82 81.42333418179473
870.117 81.77138617765523
900.879 80.92348241753665
933.105 81.7493774442502
965.332 82.06286387611823
1000.49 82.66701873878098
1035.64 82.94240197472688
1072.27 83.50199708270222
1108.89 83.32872265482358
1148.44 83.21982434890283
1189.45 83.10029257402891
1230.47 83.28916382966692
1274.41 82.96842904353267
1319.82 83.54671568274972
1366.7 83.35783786018256
1413.57 83.52840721045501
1463.38 83.36465496057662
1516.11 83.34243820016636
1568.85 82.9843453582618
1624.51 82.85699963113491
1681.64 82.72909155250285
1741.7 82.54594506826443
1803.22 81.97326414449198
1866.21 81.21689709391579
1932.13 80.89433821059866
1999.51 80.60550591224707
2069.82 80.28058864367667
2143.07 79.41356198008441
2219.24 79.09699605314697
2296.88 79.65414924950946
2378.91 79.8042143685948
2462.4 79.22874704910448
2548.83 79.39036951392653
2639.65 79.87270175524489
2731.93 79.93680958849107
2828.61 80.89936454038677
2928.22 81.34904837994263
3030.76 82.6598680356432
3137.7 83.36295676985932
3249.02 82.77406493886669
3363.28 83.06784849218421
3481.93 83.13804019465643
3604.98 82.894075538209
3732.42 82.72372864549145
3864.26 82.8269256739347
4000.49 83.43568497938531
4141.11 83.61279996947762
4287.6 83.50316900916869
4438.48 83.58772970459218
4595.21 83.07956359645158
4756.35 82.99612345555158
4924.8 82.69985060774395
5097.66 82.4966164772641
5277.83 81.86779512127092
5463.87 81.2550410535362
5657.23 80.66671265174462
5856.45 80.00842611209951
6062.99 79.72099350415877
6276.86 79.74319465375281
6498.05 79.52640075749433
6726.56 79.52834085950208
6963.87 79.26717369372669
7209.96 79.53004451384966
7464.84 79.75336628995674
7727.05 79.82636790944362
7999.51 80.08838760376824
8282.23 80.03612809569097
8573.73 79.81543811881198
8876.95 80.01685319332412
9188.96 80.02253608071202
9514.16 80.16669356223821
9849.61 80.39597275888003
10196.8 80.4121482004776
10555.7 80.27736303142275
10927.7 79.87956444538658
11313.0 79.16672084059005
11712.9 78.60429282036658
12126.0 78.21774294208852
12553.7 77.33643737940261
12996.1 77.00693433892859
13454.6 76.56409359879659
13929.2 76.40316257164407
14419.9 76.06415388819666
14928.2 75.86329526717186
15455.6 75.50397982730485
16000.5 74.73631178765307
16564.5 74.26423660405594
17148.9 73.76107626353355
17752.4 74.30329964129807
18379.4 72.49163896584442
19026.9 70.88264476954497
19697.8 69.71433539557135
19999.5 69.3993720965856
