Freq,Floor Bounce,Ceiling Bounce,Front Wall Bounce,Side Wall Bounce,Rear Wall Bounce,Total Early Reflection
22.4,29.633589826879955,30.403069571042522,29.614427463397448,30.015672344054366,32.11953552840646,30.464271132004228
23.0,29.633589826879955,30.538211298887433,29.628807156745268,30.018383006631268,32.11583643724026,30.493020082222245
23.6,29.600767494455596,30.638211298887427,29.643472673020767,30.040609446113706,32.09761421187861,30.509186754869205
24.0,29.5007674944556,30.73821129888742,29.614427463397448,29.981263035415395,32.03765521066299,30.48140578813903
25.0,29.400000000000006,30.838211298887444,29.614427463397448,29.96903111228579,31.938345912636663,30.45662873280517
25.8,29.266921851160504,30.971508007869375,29.599999999999994,29.943801480418443,31.857037536975128,30.43605707770135
26.5,29.03358982687999,31.17150800786939,29.614755315292115,29.919128804590315,31.74023638601662,30.413669142432212
27.2,28.900767494455607,31.406905010354564,29.70132328177695,29.955152485158493,31.655546917012146,30.45031493461596
28.0,28.73821129888742,31.806905010354598,29.818055890593882,30.058219457688267,31.602887685177564,30.555846693680934
29.0,28.742830304719746,32.2760917544922,30.049726437334073,30.243422401907935,31.65541238617604,30.77058486620456
30.0,28.812271783156177,32.87609175449222,30.45762706050786,30.620098842767618,31.813499733424095,31.12788698896057
30.7,29.056672559300495,33.57609175449221,30.979729312456215,31.11384684699621,32.087047356055876,31.610959239953814
31.5,29.465888460596886,34.47609175449222,31.64555319279856,31.769366033578507,32.52045076169179,32.27241957270212
32.5,30.10473530118577,35.47609175449222,32.50796546949519,32.60869062624954,33.11593202734488,33.09936441435494
33.5,30.816277831777484,36.37609175449221,33.38720949724103,33.457379197305016,33.71298798579335,33.90843612161896
34.5,31.648983591508426,37.37609175449221,34.29337984021399,34.376960411967076,34.40463779279017,34.80332882168477
35.5,32.648983591508426,38.4760917544922,35.37030082040084,35.39874748475225,35.18479532161908,35.81853628852181
36.5,33.61627783177747,39.37609175449222,36.29795669623158,36.29441832931606,35.878773924086175,36.69444802318141
37.5,34.61627783177747,40.3404416794549,37.27030082040082,37.262832766573155,36.630958500843235,37.6301080137693
38.7,35.776627982539054,41.30690501035458,38.33847136734725,38.275956879134185,37.46744805711552,38.623519718041365
40.0,36.60473530118577,41.87150800786938,39.038471367347256,38.9375175717926,37.98350989002017,39.25231592354669
41.2,37.56588846059687,42.540441679454915,39.86384009868894,39.72385415130992,38.65170559471302,40.005638026861675
42.5,38.49471929119204,43.17150800786939,40.64533046213036,40.468529072958646,39.31433743574564,40.72675515259654
43.7,39.35667255930049,43.67150800786938,41.31268982148532,41.14118618155352,39.93235033336134,41.35399582602278
45.0,40.18623512455237,44.17150800786939,41.95181557517445,41.755699240537325,40.52148365375423,41.959036760464116
46.2,40.916279400836416,44.503069571042516,42.490984449183244,42.276785262041614,41.051728891555996,42.451698667823976
47.5,41.64283030471972,44.86845083805433,43.043051320949644,42.82275443797542,41.607178739985656,42.969341808758685
48.7,42.242830304719746,45.13513059177983,43.46763605927762,43.24866750407264,42.05363754425632,43.37570382512138
50.0,42.83821129888743,45.36845083805433,43.876987768473754,43.65120715188462,42.47964110875607,43.763692125345926
51.5,43.338211298887416,45.50076749445563,44.202228112122015,43.98616502034227,42.88171883532583,44.076555168119256
53.0,43.77001488257477,45.70076749445562,44.55588661116742,44.31300422535591,43.212717649602666,44.39277459511737
54.5,44.170014882574776,45.8669218511605,44.81045298248553,44.600942003349786,43.552862370714934,44.669010071985696
56.0,44.53513059177982,46.000767494455616,45.1248458197569,44.89942694268669,43.87312394969268,44.943495351697734
58.0,44.93513059177984,46.16692185116051,45.45098335039172,45.186770588600666,44.20292732758517,45.23591764721921
60.0,45.33513059177983,46.400000000000006,45.77788361157317,45.518701567094496,44.5902219212396,45.5641573729267
61.5,45.80076749445561,46.7,46.177883611573165,45.92435639740856,44.987128211953134,45.95334964784931
63.0,46.30076749445563,47.099999999999994,46.66264712636357,46.40918419030932,45.51164180112478,46.42751612706266
65.0,46.83358982687999,47.5,47.13305443852488,46.85649194045439,45.98087486665324,46.88904019968241
67.0,47.43358982687997,47.96692185116051,47.674611929734425,47.39196781912938,46.53030504067348,47.42524965540868
69.0,48.100767494455624,48.46692185116049,48.27461192973442,48.017370813595505,47.16374168512722,48.026937049559024
71.0,48.766921851160504,49.0669218511605,48.95971162456,48.664947784293275,47.82937355397695,48.678772388795124
73.0,49.53358982687996,49.66692185116051,49.64510093472826,49.353324221986284,48.53418306657247,49.3662113311687
75.0,50.3,50.30076749445563,50.359711624560006,50.08058332169085,49.25845220325445,50.078624316489666
77.5,51.099999999999994,51.000767494455616,51.11573126164822,50.829578423487064,50.02054126434609,50.83183122164128
80.0,51.83358982687999,51.63358982687997,51.815731261648224,51.53852391895798,50.74094193062476,51.53032642010828
82.5,52.599999999999994,52.30076749445561,52.52946066855591,52.23710580813993,51.4607004846406,52.24391552483148
85.0,53.3,52.90076749445562,53.243465086978986,52.936420704058264,52.1340342054488,52.92224926590944
87.5,54.0,53.500767494455616,53.85774911351314,53.554892214005875,52.78089083381968,53.55881916210214
90.0,54.599999999999994,54.03513059177983,54.472317384978226,54.16486970633437,53.390860906090126,54.15275064991526
92.5,55.166921851160495,54.5007674944556,54.971662753918906,54.67505593010924,53.895953221107774,54.66378464323236
95.0,55.66692185116051,54.93513059177984,55.471662753918906,55.1343788925837,54.358908515329304,55.13685223734669
97.5,56.20000000000002,55.36845083805433,55.971662753918906,55.63367738872145,54.84802001094346,55.62975747543382
100.0,56.73358982687998,55.83513059177983,56.471662753918906,56.15259013741898,55.36868776526953,56.13844324660191
103.0,57.3669218511605,56.36845083805433,57.057424491358134,56.72385690711074,55.947406375844565,56.721370985435186
106.0,57.96692185116051,56.90306957104252,57.65742449135814,57.323856907110724,56.54162802055801,57.308419935871925
109.0,58.599999999999994,57.46845083805432,58.2716627539189,57.90345351146746,57.1260142440068,57.906258641220475
112.0,59.266921851160504,58.00306957104253,58.915083142438846,58.53461266071173,57.75280354078484,58.5305157865572
115.0,59.8669218511605,58.57150800786938,59.471662753918906,59.083168818768655,58.29931871048039,59.096243906427446
118.0,60.30076749445561,58.93821129888744,59.929133924942875,59.5343788925837,58.74214255008424,59.528411878594184
122.0,60.80076749445561,59.33821129888743,60.37166275391891,59.97436587062488,59.18367628795714,59.97669590288703
125.0,61.26692185116049,59.73821129888742,60.81475531529209,60.38500830000139,59.593990387881576,60.40605091933706
128.0,61.73435140868503,60.10690501035458,61.24346508697897,60.814896086699946,60.01567828699268,60.83309331444235
132.0,62.16692185116051,60.438211298887424,61.65742449135814,61.21489608669995,60.41567272541785,61.2326805795616
136.0,62.60076749445561,60.838211298887416,62.07199384997416,61.61584647622263,60.80987503153615,61.64354146509345
140.0,63.00076749445563,61.10690501035458,62.44346508697899,61.936903726266905,61.16199045556462,61.99206372883617
145.0,63.20076749445562,61.30690501035458,62.64346508697898,62.14715567729701,61.366869633538755,62.19489622572071
150.0,63.40076749445561,61.40690501035459,62.78683695097146,62.25692367468764,61.47710461771848,62.33352350668726
155.0,63.40076749445561,61.37609175449221,62.80097926743463,62.27851582769051,61.476739033788334,62.335900133030734
160.0,63.30076749445561,61.24283030471973,62.72977995082829,62.13986435907715,61.37100832604652,62.22847868513472
165.0,63.168450838054326,61.006905010354586,62.54346508697898,61.9505915667244,61.171127553009626,62.045407538707565
170.0,62.93435140868503,60.742830304719746,62.28683695097148,61.71028059713103,60.90269707284436,61.79472585882222
175.0,62.70076749445562,60.442830304719735,62.07264843113158,61.4505915667244,60.660753443573796,61.548666350230434
180.0,62.500767494455616,60.242830304719746,61.85905509047515,61.21305440700462,60.4029393679093,61.32888837736799
185.0,62.40076749445562,60.04283030471974,61.715731261648216,61.04397772770014,60.255973156737014,61.18261059063383
190.0,62.30076749445561,59.942830304719735,61.659055090475164,60.97534456615614,60.15597315673702,61.098525146973145
195.0,62.20076749445562,59.81227178315619,61.53044092512276,60.815785554763465,59.98789840191323,60.964864935155305
200.0,62.0007674944556,59.54283030471973,61.33044092512277,60.60679305187172,59.77195668655864,60.7499958234753
206.0,61.73435140868503,59.21227178315618,61.07361898907655,60.28892931446613,59.44675399492198,60.45682887381122
212.0,61.43435140868503,58.81227178315618,60.71702755348619,59.92218615372505,59.062771427907975,60.10276033625409
218.0,61.16692185116051,58.479287326074314,60.4317328344666,59.61341150706588,58.70519085463387,59.79946924728233
224.0,61.000767494455616,58.21227178315618,60.202608739473305,59.37450860241499,58.437498995075444,59.57431561926738
230.0,60.80076749445561,57.91916705502754,59.98780434360353,59.095766748570085,58.16455023505583,59.331182344232104
236.0,60.53435140868501,57.54898514879551,59.73173283446661,58.818962994546695,57.84973285343007,59.04298173254993
240.0,60.33435140868504,57.2489851487955,59.47456724492167,58.531807777516775,57.550195968300955,58.7839126534752
250.0,60.13435140868502,56.91916705502754,59.26066292152855,58.25458174921377,57.250441010556,58.53310634118756
258.0,59.93435140868502,56.61916705502753,59.01862915413241,57.946837807637124,56.95198873075982,58.27473734977609
265.0,59.634351408685035,56.15667255930049,58.68941675558173,57.580713511857496,56.55863309148225,57.91990200988943
272.0,59.268450838054335,55.7566725593005,58.31862915413241,57.15322279367477,56.144486685867676,57.529916201464204
280.0,59.06845083805433,55.356672559300506,58.03332902223298,56.85322279367476,55.80988614392696,57.2454581987445
290.0,59.034351408685026,55.194719291192044,57.99040609132021,56.70932473527532,55.68988394827706,57.160603232000284
300.0,59.06845083805433,55.06588846059687,57.97780916640859,56.65578539505539,55.58888858158409,57.128009029085746
307.0,58.93435140868503,54.86588846059688,57.848319963035166,56.44023653281876,55.356171213949295,56.95859477607122
315.0,58.634351408685035,54.337527773000275,57.52087159112948,56.03715696035559,54.90461708578748,56.585102303820975
325.0,58.33435140868502,53.87662798253905,57.17780916640859,55.625192344998325,54.409905911106875,56.20964286671004
335.0,58.26845083805432,53.61627783177747,57.094530659819156,55.465216848145246,54.14596959370121,56.07478631895928
345.0,58.33435140868502,53.48888547155002,57.124386110930004,55.41575599007092,53.92977925954045,56.05446819458041
355.0,58.368450838054315,53.335462631346815,57.18253546892706,55.361022155030795,53.7122501682971,56.02883859802313
365.0,58.46845083805432,53.250621280103644,57.26897308764116,55.36008499948568,53.51148358283504,56.05399663469848
375.0,58.668450838054326,53.2672655885961,57.42720168657104,55.47208504060933,53.377574267076966,56.17276875412729
387.0,58.93435140868503,53.40982855556754,57.741539215649425,55.686024376780935,53.357767829356135,56.401208489900725
400.0,59.20076749445562,53.52875610128315,57.97142108736453,55.86021740470042,53.24653745479482,56.59110954177238
412.0,59.20076749445562,53.404976686768066,57.98662687546404,55.82244238439438,52.88202125350688,56.54425547905704
425.0,58.96692185116051,53.14915203998831,57.78662687546402,55.588168258408786,52.31177054774153,56.28977411229556
437.0,58.76692185116049,52.94915203998829,57.6121375454769,55.379287885015046,51.7730733075136,56.06936504874287
450.0,58.53435140868501,52.80330383828928,57.39803157706356,55.1546136798122,51.20059423729788,55.82763786548739
462.0,58.3669218511605,52.70330383828929,57.33874793859184,55.04878078547746,50.784309894783036,55.69226227355264
475.0,58.46692185116049,52.90330383828929,57.48170461979825,55.178534528015604,50.62773683579822,55.80408047209302
487.0,58.79999999999998,53.40330383828929,57.88202008437625,55.54411498853439,50.75608107447388,56.16794777529434
500.0,59.33358982687999,54.0033038382893,58.45221130127227,56.12017652576358,51.13599389384527,56.71820405045138
515.0,59.53358982687996,54.3586572401787,58.69497765699282,56.33403510357215,51.206706924031636,56.9432486031866
530.0,59.36692185116051,54.3586572401787,58.60942178676625,56.254128083099005,51.008935541651226,56.83304139700583
545.0,59.168450838054326,54.28161208533422,58.49497765699283,56.0740566528261,50.82780026465866,56.677964600529975
560.0,58.768450838054335,54.081612085334214,58.1538369797517,55.7244715071365,50.49935417150894,56.331791245753706
580.0,58.33663575667187,53.737767342855406,57.76910435091776,55.28950563556745,50.108517138731514,55.92648655965833
600.0,58.036635756671856,53.52875610128315,57.49684417735,54.95191235284183,49.86192246500673,55.642424284203884
615.0,57.57150800786938,53.22875610128314,57.12772665197376,54.53043296185763,49.52083768466608,55.241402130610666
630.0,57.07609175449221,52.86136837622763,56.70003015337541,54.04024304063236,49.09831295525164,54.788031823899885
650.0,56.940441679454906,52.82875610128315,56.65852651413465,53.94013779391443,49.006912462411464,54.703434497261355
670.0,56.84576719438469,52.82875610128315,56.60447969865261,53.82217655996675,48.93364767255244,54.6311993001308
690.0,56.58219967332303,52.66136837622764,56.44867335264068,53.587458029106955,48.64774514038628,54.418158691831565
710.0,56.51592692226707,52.70497668676808,56.46431425981987,53.48274601619127,48.52768370844859,54.38386308558307
730.0,56.352609532022186,52.64915203998831,56.423649154862034,53.37104574227769,48.33674751447886,54.28207470271883
750.0,56.25260953202216,52.62602452356691,56.367001245158406,53.214133473840505,48.07558535797405,54.18976914964661
775.0,56.82349685065981,53.303303838289295,57.055419062494366,53.78027086390709,48.52521832135403,54.80815007912916
800.0,57.58982856673471,54.148520154588056,57.92629969038987,54.55404461327531,49.12221035613297,55.61442173271459
825.0,57.82758719283592,54.5033038382893,58.24238676155986,54.74911476663311,49.07888039379381,55.87709079127461
850.0,57.69897445130924,54.42602452356692,58.171291961166744,54.551503431814666,48.68251177575125,55.75455043953687
875.0,57.37082970284298,54.22602452356692,57.94398885019605,54.18620901190236,48.04422748226975,55.46364068417715
900.0,56.9096325668162,53.904976686768066,57.53151109653764,53.64103263008565,47.25238301733398,55.01725693650104
925.0,56.6096325668162,53.66136837622763,57.24795247083182,53.25121729976678,46.63037762296584,54.7085779465872
950.0,56.848983591508414,53.98538710465898,57.5514576456014,53.42528047033716,46.54137383088067,54.965414173341486
975.0,57.348983591508414,54.567265588596115,58.06272615755047,53.83139727958962,46.70825046359879,55.46044796983739
1000.0,57.38219812790055,54.66726558859611,58.08106606182241,53.74621708939655,46.434795300639394,55.47522880878884
1030.0,57.48219812790056,54.709828555567555,58.155276081426706,53.776627832914755,46.2223639225401,55.539444077800155
1060.0,58.00963256681621,55.10982855556756,58.62758020744903,54.15500725199692,46.42055180018346,55.998636283759964
1090.0,58.13752777300027,55.20497668676808,58.71352438913975,54.16909022325605,46.243547330823716,56.08453110923844
1120.0,57.99897445130925,54.92602452356692,58.48792700659544,53.91201607341678,45.83770655419109,55.87076959761434
1150.0,58.02758719283591,54.8264329774251,58.41824270116351,53.871069258986,45.61165332091157,55.8292802543327
1180.0,58.219167055027526,54.85098823501218,58.56102729029814,54.018829952915354,45.61276262845868,55.96780950452319
1220.0,58.4457671943847,54.936380880391454,58.62992432109263,54.15562370470619,45.592236645467295,56.0998478375264
1250.0,58.40690501035459,54.71664590330461,58.45613494728727,54.077084165954346,45.36720783868718,55.97720869469876
1280.0,58.43821129888744,54.56493035341096,58.29941982976108,54.08463199473998,45.21786774134519,55.90931502671174
1320.0,58.63513059177983,54.64577223479651,58.30770740870115,54.277795089506185,45.284223180845586,56.02191319784933
1360.0,58.76692185116049,54.69727311966744,58.24635185881124,54.46947107638579,45.33265677826918,56.08428557676392
1400.0,58.56692185116049,54.41664590330461,57.939380282136256,54.372578717759055,45.10696253518273,55.851745421626106
1450.0,58.53358982687996,54.28888863538651,57.677891175019965,54.39411904475759,45.02454098482757,55.73941852096668
1500.0,58.600767494455624,54.262513220655194,57.585989251240875,54.61725578645505,45.0908606336037,55.767635555148374
1550.0,58.46845083805432,53.992200471515716,57.32652481030098,54.619524482893155,44.97744002517601,55.59916882720236
1600.0,58.26845083805432,53.713956520882746,57.03586734214173,54.59232536193926,44.86362328937608,55.39138734611015
1650.0,58.100767494455624,53.29179815677408,56.79040609132019,54.544593486188234,44.756455294269074,55.18877135443705
1700.0,57.66769521305294,52.648056647556146,56.34577492219542,54.26653175341416,44.451037607896694,54.7553442156112
1750.0,57.53513059177983,52.21457895753311,56.203319286139205,54.31550316444435,44.42394029002408,54.619257105705515
1800.0,58.00306957104253,52.39179815677409,56.74678994296994,54.919077185083324,45.08059044621339,55.10615346330573
1850.0,58.03964531976001,52.091798156774075,56.89371824189381,55.1702720006937,45.32088551991001,55.18674314860479
1900.0,57.50906430015982,51.21457895753311,56.499330310390775,54.88024103886529,45.008447089488186,54.71793499055998
1950.0,56.984934924608496,50.21457895753309,56.03712945985647,54.453602054652364,44.626054988206675,54.195920232491446
2000.0,56.76419800295963,49.6377673428554,55.960639772351556,54.45506096081823,44.61040221800519,54.045122004789036
2060.0,56.684933415315,49.1517743753474,56.01298421360616,54.59964968356253,44.74147749337757,54.034113897223506
2120.0,56.771829783100145,48.85866027600835,56.19536754131177,54.853632607179975,44.942938010904854,54.169091764743314
2180.0,57.002653132516144,48.76283617001535,56.51950706046556,55.25986925285464,45.268897521790024,54.45532430386078
2240.0,57.17406327003758,48.66419800295965,56.74099237606018,55.55243398866142,45.5086976585624,54.65992675115248
2300.0,57.294702186210245,48.51430637862282,56.8644534517348,55.78553394891705,45.62748652491794,54.79619960198272
2360.0,57.31347960017949,48.44136150423587,56.88451953077595,55.90405336441552,45.64046159878062,54.83626811373725
2400.0,57.34836735062423,48.412271783156186,56.85390986054669,56.003867505482475,45.61594283776644,54.86270802179047
2500.0,57.526190343701586,48.65768127821953,56.91885730468795,56.187787366165026,45.74774391822007,55.008751091424585
2580.0,57.66226611626817,48.93647412390416,56.95606216842157,56.3409746228203,45.83121505083821,55.12440954351375
2650.0,57.938780852751606,49.509209252269386,57.05669984177953,56.52933064069612,45.98602423193482,55.33672099522008
2720.0,58.085831712425815,50.10920925226938,56.99844528075674,56.61344391706287,46.03880060396955,55.430192570493546
2800.0,58.136972130231044,50.601318279521124,56.82733515708934,56.50981338783856,45.923111958349125,55.40199992428353
2900.0,58.34049153814307,51.43257218046557,56.87828015979562,56.63309298601294,46.041482726281345,55.586140901446015
3000.0,58.6086769027542,52.28623512455238,56.94300934420967,56.76016433495887,46.12721410540149,55.80943009350527
3070.0,58.79850202280639,53.15237800738082,57.01600020542196,56.84575385442628,46.226899005427086,56.0067877503527
3150.0,58.737059520019216,53.78623512455238,56.920467227592695,56.74774676477543,46.06931790459841,56.00370963916768
