Freq "Rear Wall Bounce"
22.4 32.11953552840644
23.0 32.11583643724024
23.6 32.097614211878586
24.0 32.03765521066297
25.0 31.93834591263667
25.8 31.857037536975135
26.5 31.740236386016626
27.2 31.655546917012153
28.0 31.60288768517757
29.0 31.655412386176046
30.0 31.813499733424102
30.7 32.08704735605588
31.5 32.5204507616918
32.5 33.11593202734489
33.5 33.712987985793355
34.5 34.404637792790176
35.5 35.18479532161907
36.5 35.878773924086154
37.5 36.63095850084324
38.7 37.467448057115526
40.0 37.98350989002018
41.2 38.65170559471303
42.5 39.31433743574562
43.7 39.932350333361335
45.0 40.52148365375424
46.2 41.051728891556
47.5 41.60717873998565
48.7 42.053637544256325
50.0 42.47964110875606
51.5 42.88171883532582
53.0 43.21271764960267
54.5 43.55286237071491
56.0 43.87312394969269
58.0 44.20292732758518
60.0 44.59022192123961
61.5 44.98712821195313
63.0 45.51164180112479
65.0 45.980874866653245
67.0 46.530305040673476
69.0 47.16374168512723
71.0 47.82937355397696
73.0 48.534183066572474
75.0 49.25845220325444
77.5 50.020541264346086
80.0 50.740941930624764
82.5 51.460700484640576
85.0 52.13403420544879
87.5 52.78089083381969
90.0 53.39086090609013
92.5 53.89595322110778
95.0 54.3589085153293
97.5 54.848020010943465
100.0 55.36868776526952
103.0 55.94740637584457
106.0 56.541628020558
109.0 57.126014244006775
112.0 57.752803540784846
115.0 58.299318710480385
118.0 58.742142550084246
122.0 59.18367628795715
125.0 59.59399038788158
128.0 60.01567828699269
132.0 60.415672725417856
136.0 60.809875031536144
140.0 61.16199045556463
145.0 61.36686963353875
150.0 61.47710461771849
155.0 61.47673903378834
160.0 61.37100832604653
165.0 61.17112755300963
170.0 60.902697072844354
175.0 60.66075344357379
180.0 60.402939367909305
185.0 60.25597315673701
190.0 60.155973156737026
195.0 59.98789840191322
200.0 59.77195668655862
206.0 59.446753994921984
212.0 59.06277142790797
218.0 58.70519085463386
224.0 58.43749899507545
230.0 58.16455023505582
236.0 57.84973285343006
240.0 57.55019596830096
250.0 57.250441010555996
258.0 56.95198873075983
265.0 56.55863309148226
272.0 56.14448668586767
280.0 55.80988614392695
290.0 55.689883948277064
300.0 55.588888581584065
307.0 55.3561712139493
315.0 54.904617085787486
325.0 54.409905911106854
335.0 54.14596959370119
345.0 53.929779259540446
355.0 53.71225016829711
365.0 53.51148358283505
375.0 53.37757426707696
387.0 53.35776782935613
400.0 53.24653745479481
412.0 52.882021253506885
425.0 52.311770547741524
437.0 51.77307330751359
450.0 51.20059423729787
462.0 50.78430989478304
475.0 50.627736835798224
487.0 50.75608107447389
500.0 51.13599389384526
515.0 51.20670692403164
530.0 51.008935541651205
545.0 50.82780026465867
560.0 50.49935417150895
580.0 50.10851713873151
600.0 49.86192246500672
615.0 49.520837684666084
630.0 49.09831295525165
650.0 49.00691246241146
670.0 48.93364767255243
690.0 48.64774514038627
710.0 48.527683708448585
730.0 48.336747514478866
750.0 48.075585357974056
775.0 48.525218321354025
800.0 49.122210356132946
825.0 49.0788803937938
850.0 48.682511775751244
875.0 48.044227482269754
900.0 47.25238301733399
925.0 46.630377622965845
950.0 46.54137383088068
975.0 46.70825046359878
1000.0 46.4347953006394
1030.0 46.222363922540104
1060.0 46.42055180018347
1090.0 46.24354733082372
1120.0 45.837706554191094
1150.0 45.61165332091158
1180.0 45.612762628458675
1220.0 45.5922366454673
1250.0 45.36720783868717
1280.0 45.21786774134518
1320.0 45.28422318084559
1360.0 45.33265677826919
1400.0 45.10696253518271
1450.0 45.024540984827574
1500.0 45.09086063360369
1550.0 44.977440025176016
1600.0 44.863623289376086
1650.0 44.75645529426907
1700.0 44.45103760789667
1750.0 44.423940290024085
1800.0 45.08059044621337
1850.0 45.320885519910014
1900.0 45.00844708948819
1950.0 44.62605498820667
2000.0 44.6104022180052
2060.0 44.74147749337758
2120.0 44.94293801090485
2180.0 45.26889752179002
2240.0 45.508697658562376
2300.0 45.627486524917934
2360.0 45.64046159878061
2400.0 45.61594283776643
2500.0 45.74774391822006
2580.0 45.83121505083819
2650.0 45.98602423193481
2720.0 46.03880060396954
2800.0 45.92311195834912
2900.0 46.04148272628135
3000.0 46.127214105401485
3070.0 46.22689900542708
3150.0 46.069317904598414
3250.0 45.62214956569746
3350.0 45.33203204956501
3450.0 45.188569659464555
3550.0 44.62163200835385
3650.0 43.94773051100055
3750.0 43.743872786290616
3870.0 43.93076584393115
4000.0 44.26569944370913
4120.0 44.68636697972499
4250.0 44.83930989587706
4370.0 44.90707039365676
4500.0 44.93741826231285
4620.0 44.95398626065296
4750.0 44.92311885562295
4870.0 44.80545734928186
5000.0 44.50711963733841
5150.0 43.98366017481549
5300.0 43.64033872711297
5450.0 43.516878620309164
5600.0 43.2001929664139
5800.0 42.5678190809627
6000.0 41.82754478716749
6150.0 41.3433529130017
6300.0 41.0950542873998
6500.0 40.68818150635176
6700.0 40.239163488982804
6900.0 39.796147996770024
7100.0 39.71559525887678
7300.0 39.447081152383724
7500.0 38.92743424894571
7750.0 38.47301821498582
8000.0 38.06932581595769
8250.0 37.918127672674565
8500.0 37.62577645787359
8750.0 37.19124687866732
9000.0 36.656329237341104
9250.0 35.96646807743661
9500.0 35.33885178422529
9750.0 34.9390258149594
10000.0 34.50627860835386
10300.0 34.08978727383113
10600.0 33.53025756098288
10900.0 32.95914503947902
11200.0 32.36094265471298
11500.0 31.710692552756463
11800.0 31.32586681139305
12200.0 31.039024001394502
12500.0 30.876448394170133
12800.0 30.685849976866173
13200.0 30.637173050692248
13600.0 30.722346849645824
14000.0 30.972359732746646
14500.0 31.29190574290076
15000.0 31.78838610131789
15500.0 32.00945228246207
16000.0 31.94141607792279
16500.0 31.563704525571957
17000.0 31.026490269747377
17500.0 30.563166826022957
18000.0 29.850624070844766
18500.0 28.946656774693146
19000.0 28.334943300880873
19500.0 28.28593319713324
