Freq "Floor Bounce"
22.4 34.630522134239044
23.0 35.83052213423903
23.6 38.130522134239044
24.0 40.03052213423905
25.0 40.79487205920174
25.8 42.33052213423906
26.5 43.53052213423905
27.2 44.03052213423905
28.0 44.03052213423905
29.0 45.130522134239044
30.0 45.36133539010143
30.7 46.23052213423904
31.5 47.961335390101425
32.5 48.961335390101425
33.5 50.03052213423905
34.5 51.86133539010143
35.5 54.33052213423906
36.5 56.53052213423905
37.5 58.8972606844666
38.7 61.56133539010142
40.0 64.03052213423905
41.2 66.53052213423905
42.5 69.23052213423904
43.7 72.43052213423904
45.0 74.43052213423904
46.2 75.86133539010142
47.5 77.63052213423904
48.7 79.16133539010143
50.0 80.56133539010142
51.5 81.83052213423906
53.0 82.93052213423906
54.5 83.89726068446657
56.0 84.69726068446657
58.0 85.23052213423904
60.0 85.73052213423904
61.5 86.03052213423905
63.0 86.23052213423904
65.0 86.36133539010143
67.0 86.53052213423905
69.0 86.79726068446658
71.0 87.03052213423905
73.0 87.23052213423905
75.0 87.53052213423906
77.5 87.83052213423906
80.0 87.99726068446657
82.5 88.06670216290301
85.0 88.13052213423904
87.5 88.13052213423904
90.0 88.03052213423905
92.5 87.73052213423904
95.0 87.33052213423905
97.5 87.03052213423905
100.0 86.86670216290302
103.0 86.86670216290302
106.0 87.00019757413152
109.0 87.23052213423905
112.0 87.50019757413152
115.0 87.66670216290302
118.0 87.76670216290302
122.0 87.80019757413153
125.0 87.76670216290302
128.0 87.63663005306988
132.0 87.50019757413152
136.0 87.33663005306988
140.0 87.1366300530699
145.0 86.83663005306988
150.0 86.70341552854234
155.0 86.73663005306987
160.0 86.83663005306988
165.0 87.03663005306987
170.0 87.1366300530699
175.0 87.00703991176901
180.0 86.80703991176901
185.0 86.507039911769
190.0 86.24425894648157
195.0 85.94425894648155
200.0 85.58201757258276
206.0 85.34425894648155
212.0 85.48201757258276
218.0 85.78201757258276
224.0 86.25340483105609
230.0 86.69195815274712
236.0 86.89195815274711
240.0 86.82526008258982
250.0 86.66406294656304
258.0 86.46406294656305
265.0 86.30341397125525
272.0 86.17622776663578
280.0 86.07622776663578
290.0 86.01637905538449
300.0 85.88989301109366
307.0 85.73084667706837
315.0 85.58989301109366
325.0 85.43084667706836
335.0 85.30505165985048
345.0 85.10505165985047
355.0 85.00505165985048
365.0 84.94680936784484
375.0 85.04680936784483
387.0 85.04680936784483
400.0 84.94680936784484
412.0 84.64680936784484
425.0 84.17235827739533
437.0 83.63084667706836
450.0 83.23084667706837
462.0 83.01637905538449
475.0 83.17622776663579
487.0 83.50341397125527
500.0 83.93662850764738
515.0 84.4366285076474
530.0 84.8831228334248
545.0 84.95704193870048
560.0 84.81309065575518
580.0 84.50620475509425
600.0 84.02385024341413
615.0 83.57081808287691
630.0 83.30377928144404
650.0 83.02706059011804
670.0 82.92893396323367
690.0 82.85932386095541
710.0 82.67131667981499
730.0 82.19640327068811
750.0 81.19359965956941
775.0 79.86842546090809
800.0 78.8932165936356
825.0 78.45041112837868
850.0 78.73087108167425
875.0 79.51246560124946
900.0 80.24914967093888
925.0 80.89858812909534
950.0 81.36377699871072
975.0 81.70341552854235
1000.0 81.97792723040664
1030.0 82.08369714854106
1060.0 82.28369714854105
1090.0 82.38369714854105
1120.0 82.47035730201391
1150.0 82.55985438707344
1180.0 82.65671499370703
1220.0 82.66926561608162
1250.0 82.62269712179477
1280.0 82.61466693441749
1320.0 82.77070653024674
1360.0 82.98470222706533
1400.0 83.12862232491824
1450.0 82.99044082958326
1500.0 82.509995402609
1550.0 82.12695158715677
1600.0 81.68217669102482
1650.0 81.34836981369732
1700.0 81.16899900884086
1750.0 80.74080934876146
1800.0 80.35515959306758
1850.0 80.07737400690681
1900.0 79.920404398356
1950.0 79.85125824021704
2000.0 79.82581714728889
2060.0 79.46029863817833
2120.0 78.71492830722612
2180.0 78.15344556709545
2240.0 77.67901875644549
2300.0 77.23505649757477
2360.0 77.04735808252488
2400.0 76.92241837462751
2500.0 76.87466619301978
2580.0 76.92075801780064
2650.0 76.73376404484672
2720.0 76.84636318785934
2800.0 77.01878541525079
2900.0 77.00806178370513
3000.0 77.19510251552256
3070.0 77.51878308876779
3150.0 77.97257402685894
3250.0 78.51323031585022
3350.0 78.51323031585022
3450.0 77.76043860002008
3550.0 77.2251892254651
3650.0 77.67642974676795
3750.0 78.29935610031652
3870.0 78.29233105567015
4000.0 78.4810758141634
4120.0 78.7940946661867
4250.0 78.51843157258097
4370.0 78.19745141082225
4500.0 77.35341638182142
4620.0 77.97901875644548
4750.0 78.87847797763779
4870.0 78.75477609986373
5000.0 78.72549989622371
5150.0 78.72330501610699
5300.0 78.50602934602188
5450.0 78.29490115979677
5600.0 78.54565626506324
5800.0 78.39233105567016
6000.0 77.9935700693363
6150.0 78.4402675190728
6300.0 79.10562539275101
6500.0 78.75660789082667
6700.0 78.83265117766203
6900.0 78.55075585864802
7100.0 77.60532937592171
7300.0 76.73276463643667
7500.0 75.28596837103798
7750.0 74.91891698087008
8000.0 76.00117409510524
8250.0 76.37294588174632
8500.0 78.23879240783279
8750.0 79.42553389771484
9000.0 80.08790599048321
9250.0 80.12835750010818
9500.0 78.85647934603764
9750.0 77.90807503932366
10000.0 77.17196089763624
10300.0 78.05099004619788
10600.0 80.03930077256359
10900.0 80.30185900578404
11200.0 79.03141136771289
11500.0 79.77011128889384
11800.0 79.58701691753606
12200.0 77.45191010075725
12500.0 71.92284916894724
12800.0 74.8636381031652
13200.0 68.95899129250047
13600.0 70.93087108167425
14000.0 76.67346272339483
14500.0 77.82161500111809
15000.0 78.22539363083699
15500.0 73.85665422053972
16000.0 76.45512142215162
16500.0 72.49166653819344
17000.0 72.24567709588086
17500.0 64.79478206071528
18000.0 63.500533722915605
18500.0 66.80164087865779
19000.0 61.59936358406139
19500.0 64.5476210680618
