Freq,On Axis,Listening Window,Sound Power,Early Reflections,Early Reflections DI,Sound Power DI,DI offset
22.4,12.000000000000014,12.960836507101263,15.08259200861933,14.839658260718537,38.121178246382726,37.87824449848193,40
23.0,12.59999999999998,14.113688448626604,15.362692244225926,15.25571606490037,38.857972383726235,38.75099620440068,40
23.6,13.300000000000026,15.517990564573367,15.564070869537332,15.683406129020838,39.83458443555253,39.953919695036035,40
24.0,14.59999999999998,16.730494904966477,16.393914310334722,16.556206922889302,40.174287982077175,40.336580594631755,40
25.0,15.899999999999991,17.976211561133866,17.600932386548337,17.618356836401702,40.357854724732164,40.37527917458553,40
25.8,17.39999999999999,19.654387645515882,19.367214920553423,19.127873483985653,40.52651416153023,40.28717272496246,40
26.5,21.700000000000003,24.732296547990117,24.207850642211284,23.745245950653512,40.987050597336605,40.52444590577883,40
27.2,25.39999999999999,29.412590485940157,27.30228523594549,27.573842102419817,41.83874838352034,42.11030524999467,40
28.0,28.000000000000014,32.84224499104461,29.422502373547914,30.36536676264889,42.47687822839572,43.419742617496695,40
29.0,30.000000000000014,35.70866218263187,31.269358193956336,32.736422794027945,42.972239388603924,44.43930398867553,40
30.0,31.700000000000003,37.87358706684718,32.77724507622112,34.5576322972931,43.31595476955408,45.09634199062606,40
30.7,33.8,38.4284503142636,34.068151632761655,35.458760115415274,42.969690198848326,44.360298681501945,40
31.5,35.89999999999999,39.057142312326945,35.63178206893902,36.56505127767254,42.49209103465441,43.42536024338793,40
32.5,38.8,40.8422466929204,39.22189996068845,39.455892970324484,41.38635372259591,41.62034673223195,40
33.5,40.89999999999999,43.13990382391076,42.5058769289618,42.182060468743785,40.95784335516697,40.63402689494896,40
34.5,42.39999999999999,44.94748002587217,44.798267003781135,44.15400278163811,40.793477244234055,40.14921302209103,40
35.5,43.000000000000014,44.609624679459856,45.20473587758967,44.56314223395579,40.04648244550407,39.404888801870186,40
36.5,41.39999999999999,41.77358325600126,42.33296738305454,42.637017039265785,39.136566216735474,39.44061587294672,40
37.5,41.7,43.31788605791918,43.01523132840508,43.65520176651053,39.66268429140865,40.3026547295141,40
38.7,42.8,45.73945652930324,43.920851340684564,44.95351028200197,40.78594624730127,41.818605188618676,40
40.0,47.3,47.96976929380604,47.750193674613044,48.24430258246265,39.72546671134339,40.219575619192995,40
41.2,51.10000000000001,49.92036643394256,51.00933286504387,51.006944777078004,38.91342165686456,38.91103356889869,40
42.5,53.60000000000001,52.02299670710512,53.35935368084843,53.233091247551116,38.78990545955401,38.66364302625669,40
43.7,54.89999999999999,54.2079846778086,54.810997773138425,54.82950967250197,39.378475005306626,39.39698690467017,40
45.0,56.2,56.05649616110718,56.061138990402625,56.211393406342026,39.84510275476515,39.99535717070455,40
46.2,59.10000000000001,59.29898979022671,59.0871624705684,59.4042311584178,39.89475863180891,40.21182731965831,40
47.5,62.2,63.34380563003036,62.732173095185814,63.522416522324065,39.821389107706295,40.611632534844546,40
48.7,62.89999999999999,62.38514670180844,61.46567529398625,62.679052734895706,39.70609396691273,40.919471407822186,40
50.0,64.3,63.46994686906784,62.28721574180538,63.53219274451662,39.93775412455122,41.18273112726246,40
51.5,65.5,64.96499125753407,63.264676097349465,64.29657775327375,40.668413504260315,41.7003151601846,40
53.0,67.40000000000002,66.97851981909231,65.1685888732776,66.1215353982381,40.85698442085422,41.80993094581471,40
54.5,69.7,69.20006370296436,67.4863680008539,68.36814051031855,40.8319231926458,41.713695702110456,40
56.0,71.5,71.0759070213675,69.39703662141343,70.24465238369409,40.83125463767341,41.678870399954064,40
58.0,73.3,73.00921655571085,71.20586020352083,72.05019649458467,40.95902006112618,41.80335635219002,40
60.0,74.99999999999999,74.70509952830535,72.92704481678636,73.76660897056816,40.9384905577372,41.77805471151899,40
61.5,76.6,76.2815175186154,74.70622803028864,75.49949353173841,40.78202398687699,41.57528948832676,40
63.0,78.2,77.81884974751381,76.41071916253276,77.12486823206449,40.69398151544932,41.40813058498105,40
65.0,79.60000000000001,79.21690280877593,77.96084667874065,78.60517721618221,40.611725592593714,41.256056130035276,40
67.0,80.8,80.49338497700394,79.15056984024883,79.81551633327022,40.67786864373372,41.34281513675511,40
69.0,81.7,81.45890536322388,80.14859337445223,80.80293847555092,40.65596688767296,41.310311988771645,40
71.0,82.2,82.0807862876883,80.97319157215328,81.54610658645542,40.534679701232875,41.107594715535015,40
73.0,82.6,82.58925841531061,81.69469595282288,82.17700957885923,40.41224883645138,40.89456246248773,40
75.0,83.2,83.1669218511605,82.45465500749161,82.84173536336414,40.32518648779636,40.712266843668885,40
77.5,83.8,83.81148068598391,83.24020594906645,83.53771292467236,40.27376776131155,40.57127473691746,40
80.0,84.2,84.18925841531062,83.77073496362304,83.98386319051632,40.2053952247943,40.41852345168758,40
82.5,84.60000000000001,84.58925841531062,84.31534814985646,84.46349882407877,40.125759591231855,40.27391026545416,40
85.0,85.1,85.06717965375995,84.9114805201449,84.99617056731522,40.07100908644473,40.155699133615045,40
87.5,85.5,85.45662093398623,85.34513131378954,85.39567593580237,40.06094499818386,40.11148962019669,40
90.0,85.7,85.68925841531062,85.52296430398246,85.60488265254959,40.08437576276103,40.166294111328156,40
92.5,85.8,85.87797591781379,85.4948913325222,85.70144785486666,40.17652806294713,40.383084585291584,40
95.0,86.2,86.21148068598391,85.65500482735224,85.9586305932969,40.25285009268701,40.55647585863167,40
97.5,86.39999999999999,86.45583957685776,85.817509839144,86.17738576243322,40.27845381442454,40.63832973771376,40
100.0,86.5,86.62318560174545,85.90867296487954,86.29323333545365,40.3299522662918,40.714512636865905,40
103.0,86.7,86.7340975629221,86.07291186945321,86.43856198123619,40.29553558168591,40.661185693468894,40
106.0,86.8,86.81122549985841,86.19708070508877,86.54978467483605,40.26144082502236,40.61414479476964,40
109.0,86.9,86.933843702321,86.23023138471675,86.6245180170532,40.309325685267794,40.703612317604254,40
112.0,86.9,86.94472895057721,86.12993794825076,86.56824194846189,40.376487002115326,40.81479100232646,40
115.0,86.9,86.95583957685777,86.02064681064009,86.51332662105771,40.442512955800055,40.93519276621768,40
118.0,87.0,86.9669218511605,86.0006310436524,86.50876118211788,40.45816066904263,40.9662908075081,40
122.0,86.9,86.93358982687998,85.88749480698282,86.4243724529746,40.509217373905386,41.046095019897166,40
125.0,86.9,86.9114806859839,85.84226578124832,86.40758553633678,40.50389514964712,41.06921490473559,40
128.0,86.9,86.9114806859839,85.81613707865354,86.37145910637348,40.540021579610425,41.09534360733036,40
132.0,87.0,86.9669218511605,85.87648134356792,86.42051569900241,40.5464061521581,41.09044050759259,40
136.0,87.0,86.98951489542682,85.88955566753718,86.43703364687961,40.55248124854721,41.09995922788964,40
140.0,87.10000000000001,87.02293110248063,85.80488753813528,86.41017965567782,40.612751446802804,41.21804356434535,40
145.0,87.10000000000001,87.05660314969003,85.6357062653134,86.32375910305188,40.73284404663815,41.42089688437663,40
150.0,87.2,87.10229639130465,85.52610867940665,86.29113467833452,40.81116171297013,41.576187711898,40
155.0,87.2,87.06845670446245,85.36160360392341,86.20130809863927,40.867148605823175,41.706853100539035,40
160.0,87.2,87.07950687011969,85.2250920415285,86.1514956189226,40.92801125119709,41.85441482859119,40
165.0,87.2,87.1130058166541,85.43373979194061,86.24775273711587,40.86525307953822,41.679266024713485,40
170.0,87.2,87.12293110248063,85.78867441499708,86.41576676330872,40.70716433917191,41.33425668748356,40
175.0,87.3,87.19052899113585,85.79024613368216,86.42780724975115,40.762721741384695,41.40028285745369,40
180.0,87.40000000000002,87.1910477580943,85.60176924450312,86.33002327825866,40.861024479835635,41.58927851359118,40
185.0,87.40000000000002,87.2356206840857,85.47210643028173,86.27443619301684,40.96118449106886,41.763514253803976,40
190.0,87.6,87.31529034765104,85.35783973583514,86.21848913966467,41.096801207986374,41.9574506118159,40
195.0,87.7,87.48154004111531,85.45467734145625,86.32561319825791,41.1559268428574,42.02686269965906,40
200.0,87.9,87.68405159795618,85.51751749474472,86.44373322108756,41.24031837686863,42.16653410321146,40
206.0,88.1,87.7958486077731,85.37101183280743,86.44503627890498,41.350812328868116,42.42483677496567,40
212.0,88.2,87.90761365943237,85.06772366290019,86.36083942335245,41.546774236079926,42.83988999653218,40
218.0,88.4,88.03079481760015,84.81964604099348,86.33040899798277,41.70038581961738,43.21114877660668,40
224.0,88.4,88.05255333093841,84.63826107312437,86.28094227512086,41.771611055817544,43.41429225781404,40
230.0,88.4,88.05255333093841,84.6563518778004,86.34027222680767,41.71228110413074,43.396201453138005,40
236.0,88.3,88.06090170960879,84.67998260431568,86.37742776996238,41.683473939646404,43.3809191052931,40
240.0,88.2,88.03762776013771,84.56070758583795,86.33846921690224,41.69915854323547,43.476920174299764,40
250.0,88.2,88.04727259632452,84.46815392430314,86.32639795278845,41.720874643536064,43.57911867202138,40
258.0,88.2,88.04727259632452,84.4255138975735,86.29731407192824,41.74995852439628,43.62175869875102,40
265.0,88.2,88.04727259632452,84.50253029878726,86.32461904861503,41.722653547709484,43.544742297537255,40
272.0,88.1,87.94727259632451,84.52289187885593,86.31349569650477,41.633776899819736,43.42438071746858,40
280.0,87.9,87.80152320950181,84.51339686225107,86.21764029923493,41.58388291026688,43.28812634725074,40
290.0,87.7,87.6015232095018,84.20600931521899,85.9433742820151,41.65814892748671,43.395513894282814,40
300.0,87.6,87.49052899113586,83.94191416012693,85.72380379604861,41.76672519508725,43.54861483100893,40
307.0,87.40000000000002,87.3792497982632,83.94569023769972,85.66573446381649,41.71351533444671,43.43355956056348,40
315.0,87.49999999999999,87.45660314969003,84.0864839627311,85.80435327674019,41.65224987294984,43.37011918695893,40
325.0,87.7,87.62293110248063,84.03730979994097,85.85751712495176,41.76541397752888,43.585621302539664,40
335.0,87.9,87.7020406649343,83.697357447496,85.66439014751143,42.037650517422875,44.0046832174383,40
345.0,87.8,87.48232889564586,83.01591177772973,85.21448839412047,42.2678405015254,44.46641711791614,40
355.0,87.6,87.34980404287097,82.64834326222237,84.9727200993138,42.37708394355717,44.7014607806486,40
365.0,87.6,87.32725112058156,82.5737776721282,84.97293561341121,42.354315507170355,44.75347344845336,40
375.0,87.49999999999999,87.2381528844336,82.42535185443823,84.82824721843038,42.409905666003226,44.81280102999537,40
387.0,87.40000000000002,87.19506220537299,82.16594644876548,84.66529507914977,42.52976712622322,45.02911575660751,40
400.0,87.3,87.07301300453246,81.84393238738575,84.40388438699269,42.66912861753977,45.22908061714671,40
412.0,87.3,87.0411627254972,81.65393903105785,84.3077714413258,42.733391284171404,45.387223694439356,40
425.0,87.3,87.08353199457935,81.65628547235393,84.35072856547025,42.7328034291091,45.42724652222542,40
437.0,87.3,87.07274369025826,81.79134793215705,84.38554946516216,42.68719422509611,45.28139575810121,40
450.0,87.10000000000001,86.83026852388353,81.59950002676713,84.16375474112225,42.666513782761285,45.2307684971164,40
462.0,87.0,86.675999067054,81.27552062514691,83.83827180966729,42.8377272573867,45.40047844190708,40
475.0,87.10000000000001,86.7116330606331,81.10344816830867,83.67925000616192,43.03238305447118,45.60818489232443,40
487.0,87.2,86.81163306063308,80.9616774836773,83.60530345404065,43.20632960659243,45.84995557695578,40
500.0,87.2,86.7920621085173,80.61559876284453,83.39858994575903,43.39347216275827,46.17646334567277,40
515.0,87.10000000000001,86.57498971514062,79.99336764668686,82.97646860989546,43.598521105245155,46.581622068453754,40
530.0,86.8,86.30987229549906,79.50569530155421,82.61297807186288,43.69689422363618,46.80417699394485,40
545.0,86.7,86.12243697657512,78.9570886938814,82.20859288220247,43.91384409437265,47.165348282693714,40
560.0,86.6,86.01581203059284,78.63066479137747,81.95742949599831,44.05838253459453,47.38514723921537,40
580.0,86.6,86.0620131956719,78.61104983554765,81.96621220818157,44.09580098749032,47.45096336012425,40
600.0,86.6,86.0620131956719,78.58800760890593,81.91702504222357,44.144988153448324,47.47400558676597,40
615.0,86.6,86.02135496993786,78.337512425171,81.6825408039904,44.338814165947454,47.68384254476686,40
630.0,86.9,86.27099626625433,78.41657553719537,81.74605041429054,44.52494585196379,47.85442072905896,40
650.0,87.3,86.64877117388197,78.5810667621201,81.89060597702732,44.75816519685465,48.067704411761866,40
670.0,87.3,86.58148067347285,78.14235560182293,81.6092072925765,44.972273380896354,48.439125071649926,40
690.0,87.49999999999999,86.580487714592,77.63778210332165,81.32168337471158,45.25880433988041,48.94270561127034,40
710.0,87.8,86.92905882129517,77.84397632658555,81.57667417976727,45.352384641527905,49.085082494709624,40
730.0,88.1,87.33555705539965,78.23273205822822,81.9315389720907,45.40401808330894,49.102824997171425,40
750.0,88.2,87.3842796934049,78.10109489231469,81.83505156434911,45.54922812905579,49.283184801090215,40
775.0,88.59999999999998,87.6811159064983,78.21124275818325,82.11838009687949,45.562735809618815,49.46987314831506,40
800.0,88.8,87.95071213048378,78.51820679357685,82.4360119665032,45.51470016398058,49.43250533690693,40
825.0,89.0,88.04790771510612,78.60831382558827,82.50888494023634,45.53902277486978,49.43959388951785,40
850.0,88.89999999999999,87.80985926607411,78.14092761301619,82.09134207398438,45.718517192089735,49.668931653057925,40
875.0,88.50000000000001,87.30914241440647,77.33194984701352,81.52591949719141,45.783222917215056,49.97719256739295,40
900.0,88.59999999999998,87.47436629156884,77.36852564380777,81.66934431741333,45.80502197415551,50.10584064776107,40
925.0,88.8,87.65279321680127,77.4512579662611,81.78461463012124,45.86817858668003,50.201535250540175,40
950.0,89.1,87.99184069248822,78.05288778552203,82.24503063499324,45.74681005749498,49.93895290696619,40
975.0,89.4,88.20535888461329,78.27661719038436,82.4808655738405,45.724493310772786,49.92874169422893,40
1000.0,89.4,88.39370804683955,78.79284991717358,82.83076008924492,45.56294795759463,49.600858129665966,40
1030.0,89.4,88.15798542181905,78.73564024167847,82.71110549794172,45.44687992387733,49.42234518014058,40
1060.0,88.89999999999999,87.6096799028154,78.01697855321406,82.11157952630079,45.498100376514614,49.59270134960134,40
1090.0,88.59999999999998,87.45036060209964,78.071332231858,82.0910382646144,45.35932233748524,49.37902837024164,40
1120.0,88.50000000000001,87.32706592596405,78.15794886204992,82.08572790045574,45.24133802550831,49.16911706391413,40
1150.0,88.3,87.14725434687655,78.26080125059558,82.04803444541898,45.09921990145757,48.886453096280974,40
1180.0,87.7,86.3484414218247,77.64751079691234,81.35250975630747,44.99593166551723,48.70093062491236,40
1220.0,87.2,85.99909784370826,77.60745189062914,81.01306284243908,44.98603500126917,48.39164595307912,40
1250.0,86.7,85.55738261379575,77.30951814366462,80.61030236231439,44.94708025148137,48.247864470131134,40
1280.0,86.00000000000001,85.16879594762189,77.72113011065005,80.62597311383972,44.54282283378217,47.44766583697184,40
1320.0,86.09999999999998,85.1216622100205,77.73583582856187,80.6004170727732,44.521245137247305,47.38582638145863,40
1360.0,86.00000000000001,84.76604880938177,77.39899853618657,80.19571764607694,44.57033116330483,47.367050273195204,40
1400.0,86.00000000000001,84.5779975544661,76.73243217737634,79.83979848033748,44.738199074128616,47.845565377089756,40
1450.0,86.39999999999999,84.68245048739124,76.01495578782655,79.61609662143313,45.066353865958106,48.667494699564685,40
1500.0,86.3,84.7243405116382,75.66062840134254,79.51503914285783,45.20930136878037,49.06371211029567,40
1550.0,86.8,85.06504770411598,75.57908483410688,79.74538199546012,45.31966570865586,49.485962870009104,40
1600.0,87.49999999999999,85.7574435397623,76.20082759194487,80.48005355367458,45.27738998608773,49.556615947817434,40
1650.0,87.40000000000002,85.6289984893745,75.9322878161731,80.29311668625901,45.335881803115484,49.696710673201395,40
1700.0,87.10000000000001,85.47524368186504,75.8750400875871,80.1301843632981,45.34505931856694,49.60020359427794,40
1750.0,86.8,85.0552299705041,75.54400299162957,79.76977276078138,45.28545720972272,49.51122697887453,40
1800.0,86.39999999999999,84.90353552781697,75.89482653812925,79.82242651382633,45.08110901399064,49.00870898968772,40
1850.0,85.9,84.20587978513547,75.14891517012266,79.1364178379806,45.06946194715486,49.0569646150128,40
1900.0,85.4,83.83452438780185,75.41907321842326,79.10695675957881,44.72756762822304,48.415451169378585,40
1950.0,84.60000000000001,83.09812285001843,74.85187888589388,78.40938365233042,44.68873919768801,48.246243964124545,40
2000.0,84.3,82.85000632302852,74.94912773477449,78.38187378716661,44.46813253586191,47.90087858825403,40
2060.0,85.2,83.55122654619167,75.21368105266599,78.86768265934643,44.68354388684524,48.33754549352568,40
2120.0,85.7,83.73716883299035,74.35817304269297,78.60958551437353,45.127583318616814,49.37899579029738,40
2180.0,85.9,83.79539636159973,73.95879629659812,78.53262501104385,45.26277135055588,49.836600065001605,40
2240.0,86.39999999999999,84.07397618552235,73.94250442541362,78.72035724427721,45.353618941245145,50.13147176010874,40
2300.0,86.8,84.28320611991256,74.06373798873597,78.95988725537359,45.323318864538976,50.2194681311766,40
2360.0,87.0,84.50313591855338,74.30717245974046,79.20080351968028,45.302332398873105,50.195963458812926,40
2400.0,87.10000000000001,84.55020653439537,74.26433831770494,79.20470273865966,45.34550379573571,50.28586821669043,40
2500.0,87.2,84.62477172616016,74.4399019933477,79.3502676049222,45.27450412123797,50.18486973281246,40
2580.0,87.10000000000001,84.53298682073189,74.38973057845212,79.30502966018624,45.22795716054566,50.143256242279776,40
2650.0,87.3,84.56883553771893,74.38326887350097,79.32619999177665,45.24263554594228,50.18556666421796,40
2720.0,87.2,84.47524422259276,74.29304437845862,79.2217552061338,45.25348901645896,50.182199844134146,40
2800.0,87.3,84.58874911489941,74.4547769990228,79.3653111428096,45.22343797208981,50.13397211587662,40
2900.0,87.3,84.48186857107738,74.31909825195193,79.27262146445366,45.20924710662372,50.16277031912546,40
3000.0,87.49999999999999,84.49412010808787,74.1176505252957,79.20154526564728,45.29257484244059,50.37646958279217,40
3070.0,87.49999999999999,84.58897593835376,74.19215751413888,79.26670627088292,45.322269667470835,50.39681842421487,40
3150.0,87.40000000000002,84.59873606023753,74.3314450255006,79.32317849283724,45.275557567400284,50.26729103473693,40
3250.0,87.40000000000002,84.63628422689344,74.32147945440488,79.32272937517966,45.313554851713775,50.31480477248856,40
3350.0,86.9,84.48815528386754,74.09424964942684,79.13057050911266,45.35758477475488,50.3939056344407,40
3450.0,86.8,84.52614048442622,74.1174741898582,79.14584112177441,45.38029936265181,50.40866629456802,40
3550.0,87.10000000000001,84.52880421901123,74.04214372416658,79.13785910668302,45.39094511232821,50.48666049484466,40
3650.0,87.6,84.21638751497642,73.50347768610253,78.82919972822722,45.387187786749195,50.71290982887389,40
3750.0,88.1,84.31280578263879,73.60301022881697,78.98051983777107,45.33228594486772,50.70979555382182,40
3870.0,88.3,84.10780970845563,73.26421995583264,78.74021859800268,45.36759111045295,50.84358975262299,40
4000.0,88.2,84.09811488088988,73.31086876526889,78.74084976354527,45.35726511734461,50.78724611562099,40
4120.0,88.0,84.054943390177,73.55331033530369,78.7161458790175,45.3387975111595,50.50163305487331,40
