Freq "Floor Bounce"
20.5078 59.14738696720363
21.9727 59.364193153106754
23.4375 60.64004371376322
24.9023 62.45036951666265
26.3672 63.72098585685954
27.832 65.06458373537772
29.2969 66.62951562902964
30.7617 68.38187987769122
32.2266 69.84835540229179
33.6914 71.18270355860349
35.1562 72.54042611391421
36.6211 73.82762389158536
38.0859 74.94737728331876
39.5508 75.96948239034893
41.0156 76.93321381463737
42.4805 77.83363783723763
43.9453 78.62143663515067
45.4102 79.2995433282938
46.875 79.87631792523356
48.3398 80.41304560669019
51.2695 81.42023928204058
52.7344 81.85878116797488
54.1992 82.18048174485708
55.6641 82.43400196002406
58.5938 83.00227750131388
60.0586 83.25490270650704
62.9883 83.6738708360299
64.4531 83.86744212871483
67.3828 84.19705697761337
68.8477 84.3227834396805
71.7773 84.53063956812338
74.707 84.74849418163542
77.6367 84.93319888460536
79.1016 84.97262627635591
82.0312 85.06011606867844
84.9609 85.16937084639224
87.8906 85.24227657978011
90.8203 85.38012693521696
95.2148 85.51341600410507
98.1445 85.53805805814147
101.074 85.57883851945658
105.469 85.5782341403588
108.398 85.54098769232837
112.793 85.4832929706561
117.188 85.37290032668123
120.117 85.3773295696726
124.512 85.43884305061303
128.906 85.29553066524252
133.301 85.17484570199748
139.16 85.13997790096585
143.555 85.22647025491523
147.949 85.28968417429898
153.809 85.27831995002138
159.668 85.0395394414193
165.527 85.02105075994655
171.387 84.96583235930771
177.246 84.79553380288266
183.105 84.69523551008567
188.965 84.65053740494085
196.289 84.65907401913208
203.613 84.37147610343003
210.938 84.3486126940885
218.262 83.95931139464388
225.586 83.71413924562977
232.91 83.61991618117106
241.699 83.64625694697654
250.488 84.58014359682194
259.277 84.90612446177313
268.066 84.15452239001972
276.855 83.90194480853606
287.109 83.94426180864465
297.363 83.48003054902362
307.617 83.56883000982162
319.336 83.46134505819347
329.59 83.21771219094995
341.309 83.16389420482629
353.027 82.51832718488741
366.211 82.87987455477007
379.395 83.42693242282554
392.578 83.90697326259223
405.762 83.61022782951443
420.41 83.23989167704661
435.059 83.33074134345901
451.172 83.1056215572721
465.82 83.78162458716345
483.398 83.84409356273855
499.512 82.72595844347683
517.09 82.89145211161053
536.133 84.14382492616987
555.176 84.86037379254097
574.219 84.55291562015965
594.727 85.28947424955271
615.234 85.48922932828077
637.207 85.06192119508933
659.18 84.63710088757011
682.617 82.34611624336682
707.52 82.17003507160157
732.422 82.9702740684287
757.324 84.04132710042525
785.156 83.51297809106411
811.523 82.31201848911567
840.82 82.50057197190749
870.117 83.52842187159784
900.879 82.31402474179147
933.105 82.08721845984942
965.332 82.61689283121738
1000.49 82.67089900626246
1035.64 82.60847386166458
1072.27 83.09461040037398
1108.89 83.21534656600596
1148.44 82.50340844383533
1189.45 82.19671142672657
1230.47 80.48285418214745
1274.41 78.44930687083641
1319.82 77.70246428121675
1366.7 77.7153560508467
1413.57 75.92604098565619
1463.38 76.20740331554651
1516.11 77.31787081945554
1568.85 77.14693211921072
1624.51 76.50857606944564
1681.64 75.95331463285432
1741.7 76.51665251645736
1803.22 76.25279834008674
1866.21 76.41885488481624
1932.13 75.91643145755035
1999.51 76.55566777302643
2069.82 76.58248960527416
2143.07 76.76578988111329
2219.24 78.20957205492354
2296.88 78.35798033538111
2378.91 78.79858941702034
2462.4 79.69784332151968
2548.83 80.34254644940081
2639.65 80.3694740771463
2731.93 81.45579282106367
2828.61 82.20279225604332
2928.22 82.687429175626
3030.76 82.91739700012457
3137.7 83.39091107594668
3249.02 83.32937426753907
3363.28 83.18702810964638
3481.93 83.20660332723139
3604.98 83.57223007729326
3732.42 83.73247966743425
3864.26 83.90520299463313
4000.49 84.24664116029508
4141.11 84.72249322911686
4287.6 84.68229537424156
4438.48 84.3920032794385
4595.21 84.63096672453344
4756.35 84.46687627681276
4924.8 84.34331492382928
5097.66 83.92985686230152
5277.83 83.73519997315697
5463.87 83.6565533895802
5657.23 83.28818819388152
5856.45 83.16305830760419
6062.99 83.18734371659379
6276.86 83.34775149948422
6498.05 83.23061690597847
6726.56 83.07402007292939
6963.87 82.80965480267191
7209.96 82.43236634504584
7464.84 82.18314278276071
7727.05 81.56562765816895
7999.51 80.87262199204321
8282.23 80.36878237503736
8573.73 80.2275760775894
8876.95 79.87793405081246
9188.96 79.01399828662707
9514.16 78.45966740041365
9849.61 78.42052193876297
10196.8 78.37104223630594
10555.7 77.91124934612796
10927.7 77.72288433342513
11313.0 78.16793800078133
11712.9 78.44728562741832
12126.0 79.00701681946921
12553.7 79.73221526318702
12996.1 79.87071919470586
13454.6 79.26175322575526
13929.2 80.427331572707
14419.9 81.43219934102447
14928.2 81.55239997102984
15455.6 81.02137611958274
16000.5 80.09326527267308
16564.5 78.99039579040459
17148.9 77.99457881902283
17752.4 76.48984631899444
18379.4 74.8891100901358
19026.9 72.88750805097212
19697.8 70.96006319665669
19999.5 70.38946577525867
