Freq "Front Wall Bounce"
20.5078 58.00139804021569
21.9727 58.158589081576565
23.4375 59.59525611026817
24.9023 61.68829114800141
26.3672 63.00182118517503
27.832 64.51397599032254
29.2969 66.2154286848803
30.7617 68.03745741901983
32.2266 69.56241447340263
33.6914 70.94402404855448
35.1562 72.34203138378368
36.6211 73.64984441526607
38.0859 74.78837805158534
39.5508 75.82476836591657
41.0156 76.8004361764441
42.4805 77.71235419698986
43.9453 78.50808691361057
45.4102 79.19042070093519
46.875 79.768786454206
48.3398 80.31210527830251
51.2695 81.31791062265003
52.7344 81.75530047148631
54.1992 82.07337494949141
55.6641 82.32898720721315
58.5938 82.9054044900067
60.0586 83.15546628007033
62.9883 83.57241452152607
64.4531 83.76270800124794
67.3828 84.08439641327307
68.8477 84.20409442277003
71.7773 84.40671793820525
74.707 84.61617961877212
77.6367 84.79338739498982
79.1016 84.83079413592463
82.0312 84.9144511772104
84.9609 85.01366729086632
87.8906 85.08411592839683
90.8203 85.23014369229689
95.2148 85.3638332473422
98.1445 85.3834196180802
101.074 85.41212442761133
105.469 85.3932148603038
108.398 85.33829020672218
112.793 85.25791442603202
117.188 85.10372350505114
120.117 85.12455333392212
124.512 85.24854178153296
128.906 85.10532857498677
133.301 84.97064761287885
139.16 84.878543526756
143.555 84.95700656607085
147.949 85.08351290468198
153.809 85.12031135940018
159.668 84.83414232843157
165.527 84.80590716431466
171.387 84.72823264222168
177.246 84.57044642419747
183.105 84.46119905490492
188.965 84.49241562325093
196.289 84.32774748218245
203.613 84.1046546006972
210.938 84.07703825741532
218.262 83.688559698365
225.586 83.35056636296471
232.91 83.15166367490087
241.699 83.0812237697441
250.488 84.24142143520386
259.277 84.75494335927661
268.066 83.86857004120964
276.855 83.57702104854428
287.109 83.65866591144916
297.363 83.28514267194757
307.617 83.10987122628647
319.336 82.92568745722052
329.59 83.06279623939788
341.309 82.86094501114572
353.027 82.17073144145256
366.211 82.44262205947703
379.395 83.05458815504545
392.578 83.52025270237012
405.762 83.34371731771238
420.41 83.25116746240263
435.059 83.36104604022661
451.172 83.41230718111038
465.82 83.9181234542898
483.398 84.12567067175567
499.512 82.9984732737392
517.09 82.95018909724948
536.133 84.22605697323301
555.176 84.82972815346956
574.219 84.81790109131609
594.727 85.39981439988088
615.234 85.92836697092973
637.207 86.4046419335077
659.18 86.13068420387368
682.617 84.63105448458128
707.52 84.37488101680503
732.422 84.1495345425176
757.324 85.32481167500492
785.156 85.44862254928759
811.523 84.5566825843434
840.82 84.72346135449777
870.117 86.01763631780696
900.879 85.51912150080999
933.105 85.20809217943547
965.332 85.15752572135884
1000.49 86.17515066288593
1035.64 85.80740270249638
1072.27 85.87931584100721
1108.89 86.54438586255404
1148.44 86.50798652611475
1189.45 85.61248946321155
1230.47 84.78138359890863
1274.41 83.31877869354577
1319.82 82.54730173530285
1366.7 82.86630164929139
1413.57 83.52012453557089
1463.38 84.27434457865833
1516.11 84.5113592256452
1568.85 84.06485801496859
1624.51 84.19860394845784
1681.64 84.22229664125885
1741.7 84.77120008605387
1803.22 84.99784972660778
1866.21 84.44273423409035
1932.13 84.47314578143343
1999.51 84.68467378935476
2069.82 85.1303571464464
2143.07 84.34704145783714
2219.24 83.8685546699547
2296.88 84.33123639008586
2378.91 84.24282118083535
2462.4 84.0781673526136
2548.83 84.3264860346211
2639.65 85.06934820386292
2731.93 84.33684706117532
2828.61 84.58547481950305
2928.22 85.18354686050995
3030.76 85.71640739995146
3137.7 85.44899959256091
3249.02 86.04160849305846
3363.28 85.64991939644986
3481.93 85.32354808092384
3604.98 85.54293879989191
3732.42 85.6963125301244
3864.26 85.58501078476607
4000.49 85.73690388395707
4141.11 86.18913271195898
4287.6 85.78660665984756
4438.48 86.39416314489512
4595.21 86.2250333834415
4756.35 86.20867155088833
4924.8 85.82173725261364
5097.66 85.35535025021532
5277.83 84.98553944201636
5463.87 84.51641811423812
5657.23 84.39568930453248
5856.45 84.42404291933191
6062.99 84.28778117962356
6276.86 84.54473686875491
6498.05 84.39421486983478
6726.56 84.41425383561737
6963.87 84.15527545442544
7209.96 83.7513438542241
7464.84 83.53358052160475
7727.05 82.93191659465973
7999.51 82.3201898972755
8282.23 82.30511405857104
8573.73 82.51779528942319
8876.95 82.61791904611191
9188.96 82.41155546127348
9514.16 82.28608738019905
9849.61 82.37444526522552
10196.8 82.4359877776045
10555.7 82.32963575166718
10927.7 82.47294069382428
11313.0 82.50469557825656
11712.9 82.36815586065708
12126.0 82.66905448471046
12553.7 83.37274251539768
12996.1 84.2723322956788
13454.6 84.9365631503092
13929.2 85.04495934991265
14419.9 84.74212517967099
14928.2 84.423699360059
15455.6 84.02437038892981
16000.5 83.41371853789647
16564.5 82.77429067212611
17148.9 81.94341921832432
17752.4 81.10727144862614
18379.4 80.4132492872871
19026.9 79.40979115676524
19697.8 78.0638989070622
19999.5 77.83972745149111
