Freq "Estimated In-Room Response"
20.5078 47.46895473972725
21.9727 54.48675209733585
23.4375 56.29199790069822
24.9023 60.14212618243198
26.3672 61.43154631784964
27.832 64.56965093821529
29.2969 66.87590937964379
30.7617 69.0566972289854
32.2266 71.15269582760355
33.6914 73.0904864279121
35.1562 74.84502302733074
36.6211 76.45951999638142
38.0859 77.72699468904678
39.5508 78.93181005350718
41.0156 79.95517836042616
42.4805 80.79248160479914
43.9453 81.54793356773206
45.4102 82.0927861134068
46.875 82.555591651492
48.3398 82.93894604471069
51.2695 83.51171073072146
52.7344 83.72351311296345
54.1992 83.90116808852412
55.6641 84.0355271865075
58.5938 84.25082569592911
60.0586 84.36252332141703
62.9883 84.483185440355
64.4531 84.42714483866516
67.3828 84.55293473466861
68.8477 84.64405838864386
71.7773 84.71707624086133
74.707 84.74375804905286
77.6367 84.75873795860363
79.1016 84.75721422314112
82.0312 84.6059061018962
84.9609 84.54254909008037
87.8906 84.65315374605703
90.8203 84.79721974511497
95.2148 84.78334559139198
98.1445 84.74092564056212
101.074 84.68470640681412
105.469 84.4838551772468
108.398 84.56144713054087
112.793 84.47465345133331
117.188 84.38091277278973
120.117 84.5460827378413
124.512 84.5706289121975
128.906 84.45569132100225
133.301 84.3260433419093
139.16 84.00978296084283
143.555 83.98060857282246
147.949 84.27194712457256
153.809 84.08919798806744
159.668 83.94587180784724
165.527 83.77801688938766
171.387 83.97503333190295
177.246 83.83974524188795
183.105 83.72115482679484
188.965 83.65194323033897
196.289 83.13353837391061
203.613 82.68557236319396
210.938 83.11429020723793
218.262 82.9659460843315
225.586 82.79422235858134
232.91 83.28124942640866
241.699 82.51210901787785
250.488 83.01233735835916
259.277 83.31663619618196
268.066 83.0287098243332
276.855 82.59981764897034
287.109 82.6428351624778
297.363 82.84873032690798
307.617 82.33843483333466
319.336 81.76878107651511
329.59 82.32885163778357
341.309 82.54622807077097
353.027 83.27009070705495
366.211 82.67863421147578
379.395 82.42568827931626
392.578 82.09244885387827
405.762 82.19447832931145
420.41 81.6234012992661
435.059 81.86938714730121
451.172 81.29996579482707
465.82 80.88021208725647
483.398 81.21147712932412
499.512 80.44233382286066
517.09 80.9120621661581
536.133 81.06755670518564
555.176 80.58022182492056
574.219 80.61133280601624
594.727 79.41085261321915
615.234 78.9416931921748
637.207 81.81438144535015
659.18 81.82774559761464
682.617 82.30102076378706
707.52 81.83012244407755
732.422 80.13280083785261
757.324 80.22113321491784
785.156 80.38155547799448
811.523 81.3947192478942
840.82 81.67870933497527
870.117 83.19989318091697
900.879 82.81827167281347
933.105 82.22506411690667
965.332 82.25174387511518
1000.49 82.0986696290831
1035.64 81.11834542566255
1072.27 80.64457840072079
1108.89 80.58906071071578
1148.44 80.57727099007316
1189.45 80.25826026283751
1230.47 79.91087777218694
1274.41 79.53291037343347
1319.82 79.50906095198573
1366.7 79.35626927135158
1413.57 79.09919884659296
1463.38 79.25490835543454
1516.11 78.76317637728567
1568.85 78.58299315954581
1624.51 78.41143110871073
1681.64 79.18507508522488
1741.7 79.72328680298256
1803.22 79.59422294785641
1866.21 79.3523893034457
1932.13 79.02024081578051
1999.51 79.40824013866751
2069.82 79.67235814302259
2143.07 79.6202771115612
2219.24 79.6210252323732
2296.88 79.50317182207164
2378.91 79.21196595888729
2462.4 79.74139999018294
2548.83 80.26862491524197
2639.65 80.25963688941516
2731.93 79.95996249403814
2828.61 80.01597237098832
2928.22 80.24976384562922
3030.76 80.2935419875266
3137.7 80.54456527147416
3249.02 80.0762858715498
3363.28 80.81409789428483
3481.93 80.67979344791469
3604.98 81.06657355663953
3732.42 80.94050767124934
3864.26 80.54982636690922
4000.49 80.15515905823224
4141.11 79.82220736310737
4287.6 79.69111733280025
4438.48 79.83060520803477
4595.21 79.88975212554848
4756.35 80.35006174012865
4924.8 80.42032932331097
5097.66 80.75177018029306
5277.83 80.95254172374253
5463.87 80.6471388219397
5657.23 80.68886122687826
5856.45 80.6647455732449
6062.99 80.76395385301417
6276.86 80.7641069464338
6498.05 80.81021816287175
6726.56 81.09736497719688
6963.87 81.27295302963842
7209.96 81.14519686112376
7464.84 80.9727426832162
7727.05 80.95288156926189
7999.51 80.84409051722568
8282.23 80.64130642220961
8573.73 80.23853107603905
8876.95 79.6539188966269
9188.96 79.26061844824417
9514.16 79.44095496437845
9849.61 79.52413014197175
10196.8 79.25094915178475
10555.7 78.75161144351131
10927.7 78.7540851691955
11313.0 79.85632257604837
11712.9 80.53367702281848
12126.0 80.6835778599993
12553.7 80.95017284887062
12996.1 81.1328458655199
13454.6 81.4037740911907
13929.2 81.78306289549383
14419.9 82.27083123213463
14928.2 81.64769969733348
15455.6 80.33006054865544
16000.5 79.56978835602291
16564.5 80.0972031787586
17148.9 80.91425542395321
17752.4 80.95752750975039
18379.4 79.17135890758726
19026.9 78.0173961555903
19697.8 76.01795244858121
19999.5 74.00602618663264
