Freq "Listening Window"
22.4 3.5932556543461374
23.0 2.7879072360283885
23.6 2.7072032640593306
24.0 4.321390314510836
25.0 5.480406150775366
25.8 6.294499345225631
26.5 6.895554215258443
27.2 7.509838979411171
28.0 8.141868880942553
29.0 8.776633148140206
30.0 9.862330019681593
30.7 11.567699189789266
31.5 12.737629862786406
32.5 13.698765604438393
33.5 14.500910050788661
34.5 15.171894267092284
35.5 15.913586573514749
36.5 17.504385139366917
37.5 18.72489807006417
38.7 19.65128460786275
40.0 20.332768436780782
41.2 20.818725372770217
42.5 21.856248192546218
43.7 22.91201009339622
45.0 23.69999341228575
46.2 24.34014559115232
47.5 25.143623665040877
48.7 26.691850011753672
50.0 28.035748941449242
51.5 29.19391910275931
53.0 30.351080322390175
54.5 31.83638387131677
56.0 33.20138672650896
58.0 34.46482068959054
60.0 35.966239571373535
61.5 37.506499645294696
63.0 39.25201800527134
65.0 41.487498307054835
67.0 44.436550761747725
69.0 46.95300037424482
71.0 47.73962538115998
73.0 48.5238299712035
75.0 48.65398702031544
77.5 49.277014583800565
80.0 50.092516365736685
82.5 51.51566592046629
85.0 53.06814115145687
87.5 54.65370957057475
90.0 56.11313211664563
92.5 57.339562272802056
95.0 58.37405286109957
97.5 59.59173967954332
100.0 60.82214408005518
103.0 61.91776092517041
106.0 62.98215581455588
109.0 64.25752601938076
112.0 65.38749142918314
115.0 66.33078034429816
118.0 67.24079722297742
122.0 68.0515049223904
125.0 68.70596782618544
128.0 69.17236808793086
132.0 69.66148142679376
136.0 70.12728389647714
140.0 70.43933371118482
145.0 70.86148721592667
150.0 71.09411978540996
155.0 71.29411978540998
160.0 71.43801314760972
165.0 71.55991896369869
170.0 71.5928215260565
175.0 71.58171484113777
180.0 71.58171484113777
185.0 71.58171484113777
190.0 71.53851870312863
195.0 71.53851870312863
200.0 71.54923201486967
206.0 71.5718428151422
212.0 71.5718428151422
218.0 71.60620195877897
224.0 71.60595023220702
230.0 71.57338367213522
236.0 71.58425866943708
240.0 71.5293297661272
250.0 71.51805930168507
258.0 71.50701705478355
265.0 71.42907354407484
272.0 71.37394545522044
280.0 71.26279032922821
290.0 71.17320179027129
300.0 71.0732017902713
307.0 70.92832215497629
315.0 70.72966441784759
325.0 70.61839482296119
335.0 70.5183948229612
345.0 70.44015549997742
355.0 70.41890266725119
365.0 70.50860032111402
375.0 70.63090492045473
387.0 70.86686317857539
400.0 71.03214016022254
412.0 71.33333542226255
425.0 71.57810958200183
437.0 71.7132341542639
450.0 71.89024220097252
462.0 71.9124072550021
475.0 71.86848918494245
487.0 71.75638596973594
500.0 71.60202312934105
515.0 71.45412656583598
530.0 71.299311313017
545.0 71.16516968515148
560.0 71.13116103448678
580.0 71.13192942174041
600.0 71.24491259871193
615.0 71.30262858127014
630.0 71.38209871525285
650.0 71.47279242170181
670.0 71.47163239395036
690.0 71.44945587183824
710.0 71.44889411560551
730.0 71.38327135727124
750.0 71.36121653410315
775.0 71.33297994722275
800.0 71.29062236500577
825.0 71.36875098099694
850.0 71.48478058190193
875.0 71.55201824526273
900.0 71.57411155863743
925.0 71.46034051290637
950.0 71.59424282190722
975.0 71.88718661829658
1000.0 72.23709428076293
1030.0 72.07329888335924
1060.0 71.40714483913584
1090.0 70.84567649561446
1120.0 70.97054637756305
1150.0 71.8022067785029
1180.0 72.40457602993447
1220.0 72.32577283643366
1250.0 71.47119291984919
1280.0 70.45666340481432
1320.0 70.80364536300743
1360.0 71.83439036097515
1400.0 71.96038469704258
1450.0 71.38399172238093
1500.0 70.90104179494413
1550.0 71.31753718068838
1600.0 71.96802230130419
1650.0 71.86423879163176
1700.0 71.27438607081085
1750.0 70.90395874278916
1800.0 71.37316698493545
1850.0 71.8250039121894
1900.0 71.56474341331578
1950.0 71.4754851838027
2000.0 71.83939815621824
2060.0 71.99499198576294
2120.0 71.81141662741656
2180.0 71.70848671435238
2240.0 71.67316504915249
2300.0 71.43195471856214
2360.0 71.44507925710288
2400.0 71.7770686720954
2500.0 71.78348142454543
2580.0 71.66168583147791
2650.0 71.44346251034979
2720.0 71.22160588620162
2800.0 71.70240391476317
2900.0 71.47449211820887
3000.0 71.36617910856145
3070.0 71.55612299555943
3150.0 71.33598717156035
3250.0 71.35629321429491
3350.0 71.04239099450879
3450.0 70.66301908806469
3550.0 70.43364614447816
3650.0 70.7559891526609
3750.0 71.00984223592253
3870.0 71.56536137450233
4000.0 71.77173548720225
4120.0 71.5695023385733
4250.0 71.5788472378551
4370.0 71.60738445926768
4500.0 71.24295133056543
4620.0 71.36942228876204
4750.0 71.86680707356942
4870.0 71.72756783622333
5000.0 71.4002430201825
5150.0 71.00255265319832
5300.0 71.22377290260441
5450.0 71.56067897662021
5600.0 71.15630262439952
5800.0 71.15845693887351
6000.0 71.24465000743244
6150.0 70.28776346401341
6300.0 69.56909107613001
6500.0 70.35295445306153
6700.0 70.37241707792806
6900.0 70.34115574365302
7100.0 70.53513312990357
7300.0 70.68482671369954
7500.0 71.01527991259805
7750.0 71.17352251676341
8000.0 71.04371276889901
8250.0 70.43094240811212
8500.0 70.13258414834777
8750.0 69.84099673088849
9000.0 69.60627592087312
9250.0 69.54378949344554
9500.0 69.4138402380509
9750.0 69.67456741577965
10000.0 69.81010115223043
10300.0 69.72498014001569
10600.0 69.125419749625
10900.0 68.73660103140762
11200.0 68.36502914271838
11500.0 68.57414774379262
11800.0 69.12884372318818
12200.0 69.5774869564136
12500.0 70.64352273123416
12800.0 71.51826083367234
13200.0 71.41507421134482
13600.0 70.75330089601893
14000.0 70.10844138171979
14500.0 69.91837416641039
15000.0 70.13014839048262
15500.0 69.74938709446643
16000.0 70.52294003713487
16500.0 69.70166148939906
17000.0 68.12890794824607
17500.0 68.47400553177111
18000.0 67.63777481430583
18500.0 66.46421903729089
19000.0 64.50826588109582
19500.0 62.52884794751485
