Freq "Sound Power"
22.4 4.5439981004493575
23.0 4.121607637711037
23.6 4.288148084192329
24.0 6.091462292695297
25.0 7.426846182463748
25.8 8.343956906633736
26.5 9.045686546335219
27.2 9.72869791112089
28.0 10.385472035948482
29.0 11.040088123269584
30.0 12.072230456696957
30.7 13.737085743180785
31.5 14.846288178881139
32.5 15.692808506955203
33.5 16.33412811138527
34.5 16.825175437966777
35.5 17.353184600321697
36.5 18.6826880283368
37.5 19.709604011496452
38.7 20.40063123178271
40.0 20.879184784824673
41.2 21.14714025863941
42.5 21.99730028425367
43.7 22.849862364812026
45.0 23.460057834973043
46.2 23.941219218679805
47.5 24.575193378333438
48.7 25.94321086145854
50.0 27.143594253223284
51.5 28.214146812217393
53.0 29.298662805330252
54.5 30.74413473579716
56.0 32.10480670224851
58.0 33.40909481041115
60.0 34.96268607737869
61.5 36.58759555777277
63.0 38.41502627338002
65.0 40.777915769753434
67.0 43.89842587474811
69.0 46.64817362440226
71.0 47.72064162628743
73.0 48.7800940529209
75.0 49.21667789202013
77.5 50.03136036453378
80.0 50.951415503861114
82.5 52.36931671377897
85.0 53.8098267275286
87.5 55.291737876078145
90.0 56.56096664352839
92.5 57.62741196385207
95.0 58.57427224907423
97.5 59.73807463084357
100.0 60.940846831525874
103.0 62.02993467411113
106.0 63.115351223067606
109.0 64.44789146574888
112.0 65.62942017620078
115.0 66.63893288088053
118.0 67.60378402601896
122.0 68.44855886633968
125.0 69.1563686384507
128.0 69.60811491183281
132.0 70.10345257500536
136.0 70.55755340374293
140.0 70.84329596037006
145.0 71.24459743433547
150.0 71.49364792197504
155.0 71.68655090826833
160.0 71.82567592655745
165.0 71.93949032725163
170.0 71.95074744591255
175.0 71.92767026976563
180.0 71.9087015575735
185.0 71.8825528023751
190.0 71.84265474120579
195.0 71.83486976917285
200.0 71.81819438933641
206.0 71.79774311807111
212.0 71.76903717514858
218.0 71.75462564673822
224.0 71.7170449758666
230.0 71.6287998423657
236.0 71.60253393979507
240.0 71.53260960770838
250.0 71.47448182426247
258.0 71.42542798214416
265.0 71.34743975461599
272.0 71.27797420917122
280.0 71.16905715250533
290.0 71.0650914139075
300.0 70.95431696156913
307.0 70.78190700932569
315.0 70.55013549078183
325.0 70.38307813776333
335.0 70.20708676219067
345.0 70.00728540405608
355.0 69.87197823044643
365.0 69.79397607347248
375.0 69.77308132665232
387.0 69.83590481245254
400.0 69.86952458128864
412.0 70.02053378442793
425.0 70.18217112201145
437.0 70.2404174651777
450.0 70.34833074900271
462.0 70.31375556898973
475.0 70.2515395812953
487.0 70.07757677913409
500.0 69.85122477852735
515.0 69.63814464454602
530.0 69.41008792380612
545.0 69.20438044007543
560.0 69.05168571273325
580.0 68.96838417172464
600.0 68.95714240892782
615.0 68.9290731351665
630.0 68.93275989767405
650.0 68.94866899599651
670.0 68.90592369000149
690.0 68.8736441278194
710.0 68.8436809332219
730.0 68.80864914421963
750.0 68.81556845611846
775.0 68.84518735743993
800.0 68.84240710735374
825.0 68.90082057262725
850.0 68.93947802944747
875.0 68.83637998314379
900.0 68.64202440148753
925.0 68.37014662580042
950.0 68.39876054245721
975.0 68.64571156046533
1000.0 68.93731895407083
1030.0 68.64098125399383
1060.0 67.66739000419014
1090.0 66.50930897447556
1120.0 66.074112688232
1150.0 66.98180821914282
1180.0 67.9160330345481
1220.0 67.7775286987879
1250.0 66.59790083869348
1280.0 65.33986899064453
1320.0 65.5656262011027
1360.0 66.57932384177195
1400.0 66.74881173627102
1450.0 66.17850845757867
1500.0 65.58513573821155
1550.0 65.76876448952677
1600.0 66.16228221940565
1650.0 65.7980288814477
1700.0 64.97837331065614
1750.0 64.66887295545229
1800.0 65.33296449336684
1850.0 65.56038055984274
1900.0 65.12075341832633
1950.0 65.35154060445896
2000.0 65.95192529333019
2060.0 66.00041156748262
2120.0 65.8946456474327
2180.0 66.20447447506781
2240.0 66.47075940793097
2300.0 66.26116238475792
2360.0 66.23335572698744
2400.0 66.46673693716451
2500.0 66.02115075853847
2580.0 65.67809512459522
2650.0 65.64938080616264
2720.0 65.67165873091366
2800.0 66.34725929591032
2900.0 65.71455344744405
3000.0 64.83519039486251
3070.0 64.5808453590297
3150.0 64.0792003238806
3250.0 63.914401392868655
3350.0 63.29593259743473
3450.0 62.79727217846842
3550.0 62.49762783317382
3650.0 62.78852251669268
3750.0 63.04705620916778
3870.0 63.68813328124665
4000.0 64.15780374381607
4120.0 64.31950232050772
4250.0 64.78740062635129
4370.0 65.33660182559828
4500.0 65.37453364608028
4620.0 66.12801430075052
4750.0 66.67437112243684
4870.0 66.3094737915183
5000.0 65.59047577200752
5150.0 64.78567799492087
5300.0 64.6189414603415
5450.0 64.36991720015178
5600.0 63.27628046441268
5800.0 63.0498025545361
6000.0 62.940487858251316
6150.0 62.21254290957057
6300.0 62.52122862240161
6500.0 63.696225297913244
6700.0 62.74830233597052
6900.0 61.803859610973745
7100.0 61.25479010868841
7300.0 60.76565148460152
7500.0 60.6097092918115
7750.0 60.47773199274265
8000.0 60.19606650677832
8250.0 59.819475102135755
8500.0 60.209557214917766
8750.0 60.65946975402082
9000.0 61.1385410903256
9250.0 61.51216060689691
9500.0 61.637607632202474
9750.0 61.90337102740253
10000.0 61.93347645009763
10300.0 61.656406353630146
10600.0 60.960697520476714
10900.0 60.59895320159703
11200.0 60.60195918797754
11500.0 61.258102041098766
11800.0 62.452827079204
12200.0 63.34710849629157
12500.0 64.25189572110172
12800.0 64.8334330136713
13200.0 64.08745606413873
13600.0 62.75930404577457
14000.0 61.63809651434012
14500.0 61.299389396900395
15000.0 61.70697541376475
15500.0 61.8876817101723
16000.0 63.28155274116105
16500.0 62.897402486606865
17000.0 61.71192737860177
17500.0 61.90336438958143
18000.0 60.208650113630284
18500.0 58.90150964144985
19000.0 56.58508961218479
19500.0 54.09016020876251
