Freq "On Axis"
22.4 32.000000000000014
23.0 31.700000000000003
23.6 32.39999999999999
24.0 34.10000000000001
25.0 36.2
25.8 38.39999999999999
26.5 40.8
27.2 44.000000000000014
28.0 46.000000000000014
29.0 47.8
30.0 49.39999999999999
30.7 50.8
31.5 52.2
32.5 53.60000000000001
33.5 55.2
34.5 57.000000000000014
35.5 58.2
36.5 59.39999999999999
37.5 60.39999999999999
38.7 61.39999999999999
40.0 62.8
41.2 63.999999999999986
42.5 65.00000000000001
43.7 65.9
45.0 66.6
46.2 67.7
47.5 68.60000000000001
48.7 69.4
50.0 70.2
51.5 70.9
53.0 71.6
54.5 72.3
56.0 72.89999999999999
58.0 73.5
60.0 73.99999999999999
61.5 74.5
63.0 75.00000000000001
65.0 75.5
67.0 75.9
69.0 76.3
71.0 76.7
73.0 77.0
75.0 77.3
77.5 77.59999999999998
80.0 77.8
82.5 78.1
85.0 78.3
87.5 78.4
90.0 78.4
92.5 78.4
95.0 78.3
97.5 78.2
100.0 78.1
103.0 78.0
106.0 78.0
109.0 78.0
112.0 78.2
115.0 78.5
118.0 78.8
122.0 79.1
125.0 79.5
128.0 79.9
132.0 80.3
136.0 80.7
140.0 81.10000000000001
145.0 81.40000000000002
150.0 81.49999999999999
155.0 81.6
160.0 81.7
165.0 81.7
170.0 81.8
175.0 81.7
180.0 81.49999999999999
185.0 81.3
190.0 81.0
195.0 80.9
200.0 80.8
206.0 80.8
212.0 80.8
218.0 80.8
224.0 80.9
230.0 81.0
236.0 81.10000000000001
240.0 81.0
250.0 80.8
258.0 80.6
265.0 80.5
272.0 80.5
280.0 80.39999999999999
290.0 80.09999999999998
300.0 79.8
307.0 79.6
315.0 79.5
325.0 79.4
335.0 79.1
345.0 78.7
355.0 78.3
365.0 78.2
375.0 78.0
387.0 78.0
400.0 78.1
412.0 78.3
425.0 78.60000000000001
437.0 78.90000000000002
450.0 79.4
462.0 80.00000000000001
475.0 80.5
487.0 80.8
500.0 81.10000000000001
515.0 81.3
530.0 81.40000000000002
545.0 81.3
560.0 81.2
580.0 81.10000000000001
600.0 80.9
615.0 80.8
630.0 80.6
650.0 80.5
670.0 80.5
690.0 80.5
710.0 80.6
730.0 80.7
750.0 80.8
775.0 80.9
800.0 81.10000000000001
825.0 81.3
850.0 81.49999999999999
875.0 81.49999999999999
900.0 81.40000000000002
925.0 81.40000000000002
950.0 81.2
975.0 81.10000000000001
1000.0 80.9
1030.0 80.5
1060.0 80.09999999999998
1090.0 79.8
1120.0 79.6
1150.0 79.6
1180.0 79.7
1220.0 79.9
1250.0 80.00000000000001
1280.0 80.09999999999998
1320.0 80.3
1360.0 80.5
1400.0 80.8
1450.0 81.0
1500.0 81.40000000000002
1550.0 81.6
1600.0 81.8
1650.0 81.9
1700.0 81.8
1750.0 81.7
1800.0 81.40000000000002
1850.0 81.0
1900.0 80.5
1950.0 79.9
2000.0 79.2
2060.0 78.8
2120.0 78.60000000000001
2180.0 78.5
2240.0 78.4
2300.0 78.4
2360.0 78.60000000000001
2400.0 78.8
2500.0 79.2
2580.0 79.6
2650.0 79.8
2720.0 79.7
2800.0 79.5
2900.0 79.2
3000.0 79.2
3070.0 79.2
3150.0 79.1
3250.0 78.90000000000002
3350.0 78.60000000000001
3450.0 78.5
3550.0 78.7
3650.0 78.90000000000002
3750.0 78.99999999999999
3870.0 78.8
4000.0 78.8
4120.0 78.90000000000002
4250.0 79.1
4370.0 79.3
4500.0 79.4
4620.0 79.5
4750.0 79.7
4870.0 79.9
5000.0 79.8
5150.0 79.5
5300.0 79.3
5450.0 79.2
5600.0 79.1
5800.0 78.99999999999999
6000.0 78.8
6150.0 78.7
6300.0 78.90000000000002
6500.0 79.4
6700.0 80.2
6900.0 80.7
7100.0 81.0
7300.0 81.0
7500.0 81.0
7750.0 81.3
8000.0 81.40000000000002
8250.0 81.40000000000002
8500.0 81.2
8750.0 80.7
9000.0 80.39999999999999
9250.0 80.3
9500.0 80.09999999999998
9750.0 79.8
10000.0 79.4
10300.0 78.60000000000001
10600.0 77.89999999999999
10900.0 77.59999999999998
11200.0 77.2
11500.0 76.9
11800.0 76.6
12200.0 76.10000000000001
12500.0 75.5
12800.0 75.5
13200.0 75.09999999999998
13600.0 74.6
14000.0 74.3
14500.0 73.8
15000.0 73.5
15500.0 73.8
16000.0 74.7
16500.0 74.5
17000.0 74.7
17500.0 74.3
18000.0 73.90000000000002
18500.0 73.3
19000.0 72.7
19500.0 71.7
