Freq "Listening Window"
20.0 23.77464176642269
20.2909 24.07581630563689
20.586 24.829098794386567
20.8855 26.20681934970679
21.1893 27.99624598366111
21.4975 29.710775070551534
21.8102 31.207869062230998
22.1274 32.43186967157311
22.4492 33.38929972952562
22.7758 34.13502219688493
23.1071 34.76659502226971
23.4432 35.41364506213401
23.7841 36.198134325457914
24.1301 37.129747872832695
24.4811 38.13523292501782
24.8372 39.11851078813024
25.1984 40.013173106289486
25.5649 40.79522265342655
25.9368 41.48388953200603
26.3141 42.124139490231414
26.6968 42.76875010513123
27.0851 43.45643748284684
27.4791 44.20263680806434
27.8788 45.00074785052928
28.2843 45.82701444806614
28.6957 46.65574634475982
29.1131 47.46586204313422
29.5365 48.241370968284656
29.9661 48.97902703643766
30.402 49.685159340411985
30.8442 50.37330257457839
31.2929 51.05570246411247
31.748 51.729437784303485
32.2098 52.38615905706652
32.6783 53.00793600359526
33.1536 53.600279431977725
33.6359 54.168211496948544
34.1251 54.721164382746906
34.6215 55.2590985977136
35.125 55.78095690448224
35.6359 56.28072394601273
36.1543 56.760236464420586
36.6802 57.22308539766075
37.2137 57.671818482609254
37.755 58.11358900916839
38.3041 58.55343815593065
38.8613 58.99559594425811
39.4265 59.4371930027893
40.0 59.87184172588549
40.5818 60.30005666584066
41.1721 60.725430144637485
41.771 61.148555673295434
42.3785 61.56182236468368
42.9949 61.96776038851826
43.6203 62.37490188871057
44.2548 62.79312839215443
44.8985 63.21641538018392
45.5515 63.631944653466476
46.2141 64.03587267638258
46.8863 64.43924033252722
47.5683 64.8506511569039
48.2602 65.26425113076407
48.9621 65.66873595980165
49.6743 66.07237294350747
50.3968 66.48443149501526
51.1299 66.89744802814043
51.8736 67.29640290288653
52.6281 67.68720636996991
53.3936 68.07226868340844
54.1702 68.4509478224158
54.9581 68.82096526132638
55.7575 69.18039413422791
56.5685 69.52084213584311
57.3914 69.8462369909397
58.2261 70.15450561756474
59.073 70.43720753474547
59.9323 70.72085908720024
60.804 71.00617214526241
61.6884 71.25737107757752
62.5857 71.51419839970445
63.496 71.80586758397467
64.4196 72.05341763065145
65.3566 72.25558486064085
66.3073 72.47826023420197
67.2717 72.68539493446863
68.2502 72.86868400655571
69.2429 73.04871537329834
70.2501 73.20069168061667
71.2719 73.33045172803116
72.3086 73.44536502508363
73.3603 73.54768680235031
74.4274 73.63592456331655
75.5099 73.7077131591864
76.6083 73.78450031880149
77.7226 73.86107324430915
78.8531 73.92987674854531
80.0 73.98691159049228
81.1636 74.03774326905678
82.3442 74.06958945556934
83.5419 74.09168574059224
84.757 74.11404595329256
85.9899 74.13921456560249
87.2406 74.17371305562703
88.5096 74.21531059565706
89.797 74.26369035712406
91.1031 74.31301356024645
92.4282 74.3684779192735
93.7726 74.43193527994117
95.1366 74.50954768796029
96.5204 74.5957548205633
97.9243 74.68440689347216
99.3486 74.76842836812719
100.794 74.84804506355461
102.26 74.92400751411274
103.747 74.99851401650783
105.256 75.08131431470076
106.787 75.15799624933076
108.34 75.21246571777581
109.916 75.27865266548376
111.515 75.31567203179216
113.137 75.37663472397409
114.783 75.46266861207665
116.452 75.54883426653913
118.146 75.64821050577929
119.865 75.73801422916887
121.608 75.81866492316749
123.377 75.8942269741072
125.171 75.9685037475409
126.992 76.05428289903841
128.839 76.13877350197465
130.713 76.20218040546585
132.615 76.22124066508297
134.543 76.2189098801016
136.5 76.24756748300494
138.486 76.28155775911459
140.5 76.2293515789716
142.544 76.13347427368035
144.617 76.0987902505606
146.721 76.06841271538748
148.855 76.06246110419113
151.02 76.04648328010428
153.217 76.0260649197723
155.445 76.00358941565537
157.706 75.98944878355931
160.0 76.0079221548082
162.327 76.04168489763015
164.688 76.0839595937525
167.084 76.1119175911198
169.514 76.12940828120051
171.98 76.10534089726934
174.481 75.9980953186119
177.019 75.97316588903156
179.594 76.00796124620327
182.206 76.01026327732481
184.856 75.99639092921664
187.545 76.01922719611312
190.273 76.03370902756271
193.041 75.97163638912772
195.849 75.91340967231802
198.697 75.90256064350018
201.587 75.87080973409951
204.52 75.82455048685532
207.494 75.82838146292228
210.512 75.80899329724829
213.574 75.75706023636428
216.681 75.74541403221045
219.833 75.7583728889347
223.03 75.75930891188051
226.274 75.78267740664928
229.565 75.77548499693309
232.905 75.77227810202433
236.292 75.73352444287897
239.729 75.72772086213246
243.216 75.72187687788096
246.754 75.6832185049232
250.343 75.52265423080496
253.984 75.51545045917082
257.678 75.6004023856179
261.426 75.69783470668085
265.229 75.69214208111967
269.087 75.61297239642808
273.001 75.62267726628772
276.972 75.55584652558323
281.0 75.57666238653644
285.088 75.73377584990084
289.234 75.78515098504738
293.441 75.85502017452782
297.709 75.81167448398399
302.04 75.74599974254855
306.433 75.70462834406423
310.89 75.7127140336004
315.412 75.60277121104369
320.0 75.62256970594481
324.655 75.4789051410556
329.377 75.32293926857116
334.168 75.22422539160992
339.028 75.31866597530497
343.959 75.33958861049615
348.962 75.32885385364695
354.038 75.2315094622162
359.188 75.18883171898524
364.412 75.11778258597724
369.713 75.03969500566386
375.09 75.05114629611806
380.546 74.78565925333406
386.081 74.6774638015468
391.697 74.49251077407257
397.394 74.4904552434885
403.175 74.4371976404735
409.039 74.27685449015648
414.989 74.23225214331896
421.025 74.16868666216281
427.149 74.0299891638856
433.362 74.16093878889863
439.665 74.12555279334626
446.06 74.03207612405282
452.548 73.88492576771166
459.131 73.60727768070022
465.809 73.59313802108235
472.584 73.40320663100094
479.458 73.44553080025612
486.432 73.2879273081153
493.507 73.10674867121237
500.686 73.19318806913496
507.968 73.15199245100793
515.357 73.06866730262273
522.853 73.1056906300154
530.458 73.13391097594605
538.174 73.10119466936078
546.002 72.94420846779367
553.943 72.85827844839282
562.001 72.79145797424952
570.175 72.664831101638
578.469 72.59663105907445
586.883 72.50170495824062
595.419 72.37434109044577
604.08 72.25963530132846
612.866 72.15221172264616
621.78 72.06101224148551
630.824 71.98833263773517
640.0 71.92161208976532
649.309 71.86920800645342
658.753 71.81798651218008
668.335 71.7748018409329
678.056 71.72420821704343
687.919 71.67015355566627
697.925 71.60803034956517
708.077 71.54480633982718
718.376 71.47341761987379
728.825 71.39557408823455
739.426 71.31815830925284
750.181 71.24177891904054
761.093 71.17569059269464
772.163 71.12850048532788
783.394 71.10246248263361
794.789 71.10882462892354
806.349 71.14017114274168
818.078 71.2165243560194
829.977 71.32665130050934
842.05 71.46426246148859
854.298 71.61842894275927
866.724 71.78483412575085
879.33 71.96666044438095
892.12 72.14527534240997
905.097 72.31658574545676
918.262 72.48767479802316
931.618 72.64391271810194
945.169 72.79637529536672
958.917 72.9503250907648
972.864 73.10236645914853
987.015 73.25934748032945
1001.37 73.42621331687491
1015.94 73.59595547682457
1030.71 73.77524283159012
1045.71 73.9559994936876
1060.92 74.12825524997737
1076.35 74.28578749110989
1092.0 74.42124759979275
1107.89 74.52993324175922
1124.0 74.60235902580908
1140.35 74.64710144666229
1156.94 74.66026693344372
1173.77 74.6481396689465
1190.84 74.61782581674254
1208.16 74.58061047113533
1225.73 74.53896956041156
1243.56 74.5050402621286
1261.65 74.48207685864335
1280.0 74.46488258976208
1298.62 74.45876713453427
1317.51 74.45495534263388
1336.67 74.44139286736143
1356.11 74.42145797919608
1375.84 74.39580647984621
1395.85 74.3620216130585
1416.15 74.32642439932631
1436.75 74.290956381304
1457.65 74.25931124471987
1478.85 74.22427089912148
1500.36 74.18624974011087
1522.19 74.13263024750654
1544.33 74.05606675826328
1566.79 73.95685630720082
1589.58 73.83720208335757
1612.7 73.71347912021002
1636.16 73.60427555830009
1659.95 73.51743045719964
1684.1 73.46434817844882
1708.6 73.44114221136714
1733.45 73.42463480112733
1758.66 73.40206542219863
1784.24 73.3534982163741
1810.19 73.26980488470866
1836.52 73.15699966451905
1863.24 73.02936426746868
1890.34 72.89596712271741
1917.83 72.76260999920694
1945.73 72.62919162078433
1974.03 72.48011952592005
2002.74 72.31351138263214
2031.87 72.14072233579913
2061.43 71.98492225871284
2091.41 71.87125048393665
2121.83 71.82424820517072
2152.69 71.84067322344282
2184.01 71.9098210519168
2215.77 72.02515594108743
2248.0 72.17744780276222
2280.7 72.35740496769586
2313.87 72.53746701350126
2347.53 72.67660095635787
2381.68 72.73883002201596
2416.32 72.72953108124733
2451.46 72.7051583757962
2487.12 72.75990479161459
2523.3 72.9589144845501
2560.0 73.27490149034875
2597.24 73.61969902917907
2635.01 73.91646833293537
2673.34 74.13617489868706
2712.23 74.3106247798204
2751.68 74.48333702682599
2791.7 74.65118430822989
2832.31 74.76895121865333
2873.5 74.80634469987372
2915.3 74.78340231321948
2957.7 74.75617893683345
3000.72 74.76514548098709
3044.37 74.79499476291817
3088.65 74.79909421842488
3133.58 74.76574710109918
3179.16 74.71865556462888
3225.4 74.68511187227938
3272.31 74.64883954561682
3319.91 74.5802469460835
3368.2 74.47671204719074
3417.19 74.35358020395483
3466.89 74.2308232721664
3517.32 74.12409372129693
3568.48 74.07885391620901
3620.39 74.14697728145097
3673.05 74.31230579430814
3726.47 74.51963485366124
3780.67 74.75164630825967
3835.67 75.04046238873087
3891.46 75.37559276270345
3948.06 75.7014546330916
4005.49 76.00967409034361
4063.75 76.34370970502266
4122.86 76.69297341396289
4182.82 76.96335675841638
4243.66 77.04067898391338
4305.39 76.87160222273407
4368.01 76.49582074370971
4431.55 76.07393064236786
4496.01 75.76254882814666
4561.4 75.56302309456962
4627.75 75.40774685847974
4695.06 75.34648333887961
4763.35 75.40110643632084
4832.64 75.49240537771057
4902.93 75.62352246627245
4974.24 75.80318008884798
5046.6 75.94457128239907
5120.0 76.06542848599206
5194.47 76.20397032022916
5270.03 76.26641392029443
5346.68 76.25706057680259
5424.45 76.23774799851441
5503.35 76.17738722761938
5583.4 76.12562759209143
5664.61 76.12163109447926
5747.01 76.12034919694804
5830.6 76.14028376176529
5915.41 76.15219174154907
6001.45 76.13118903507281
6088.74 76.022051357744
6177.3 75.80571754406002
6267.15 75.58011177131661
6358.31 75.37355022294105
6450.8 75.30127440434215
6544.62 75.39294346931808
6639.82 75.53294815280019
6736.4 75.62814017261893
6834.38 75.65331464324167
6933.79 75.58364722077307
7034.64 75.54170900415048
7136.96 75.62270120153538
7240.77 75.67762045369938
7346.09 75.60809974057423
7452.94 75.53388342194538
7561.35 75.47643280372353
7671.33 75.34455236489983
7782.91 75.12563254624635
7896.12 74.95119994779209
8010.97 74.89401398624017
8127.49 74.90468127609896
8245.71 74.77290186611621
8365.65 74.48597172020524
8487.33 74.18584127427816
8610.78 73.81130764219101
8736.03 73.34532971347876
8863.09 73.28305976282999
8992.01 74.14055184183567
9122.8 75.41392077191846
9255.5 76.42060066403681
9390.12 76.86380803311674
9526.7 76.87863006979387
9665.27 76.68210817811038
9805.86 76.35637115438747
9948.49 76.08750808828619
10093.2 75.84870734088376
10240.0 75.74924557267477
10388.9 75.57553372975015
10540.1 75.44616034994021
10693.4 75.2971489376156
10848.9 75.24534534408775
11006.7 75.35808943447357
11166.8 75.3518609743283
11329.2 75.18460832141231
11494.0 74.84930121983531
11661.2 74.6280716924683
11830.8 74.52847369797408
12002.9 74.49122553571465
12177.5 74.30497313620911
12354.6 74.05632658935272
12534.3 73.69878811554062
12716.6 73.47406110754517
12901.6 73.42533484548127
13089.2 73.54179226167163
13279.6 73.67368241239154
13472.8 73.75125223126481
13668.8 73.74538252512096
13867.6 73.54086670170386
14069.3 73.33108351663533
14273.9 73.16282592370324
14481.5 73.10207717439721
14692.2 73.1302161692289
14905.9 73.13946959336387
15122.7 73.10628964807668
15342.7 73.15577941420865
15565.8 73.47650223139561
15792.2 73.8929612580747
16021.9 73.98713859705674
16255.0 73.79048659703047
16491.4 73.49769073136619
16731.3 73.31212313474047
16974.7 73.26662961825951
17221.6 73.36886060743686
17472.1 73.31300807182787
17726.2 72.928698745645
17984.0 72.40953446519146
18245.6 72.18030329175377
18511.0 72.3218137323147
18780.2 72.51328349241511
19053.4 72.54365757908063
19330.5 72.5008236121221
19611.7 72.54043648880682
19897.0 72.47665517953048
