Freq "Sound Power"
20.0 22.877746031410993
20.2909 23.175486705848954
20.586 23.92533346783992
20.8855 25.298553153632042
21.1893 27.0837354601737
21.4975 28.793629806783116
21.8102 30.28654798189669
22.1274 31.506362933307372
22.4492 32.45965807803887
22.7758 33.20192281738167
23.1071 33.830646521666694
23.4432 34.47566549411425
23.7841 35.25922883812723
24.1301 36.19093272507976
24.4811 37.19794475405479
24.8372 38.18330188816705
25.1984 39.08135796366955
25.5649 39.8679883674601
25.9368 40.561225746619755
26.3141 41.20667216123081
26.6968 41.85673508904077
27.0851 42.549090380682514
27.4791 43.30024291414131
27.8788 44.10208324350933
28.2843 44.93052694847026
28.6957 45.760141641459086
29.1131 46.569736406238604
29.5365 47.3429614542714
29.9661 48.07693160613596
30.402 48.77730901420554
30.8442 49.45878344320619
31.2929 50.1331240869616
31.748 50.798736427990036
32.2098 51.44719934967412
32.6783 52.06142757349133
33.1536 52.647022502080546
33.6359 53.20981750175113
34.1251 53.759131256434216
34.6215 54.29535086022263
35.125 54.816615126695964
35.6359 55.317641825213144
36.1543 55.799549089005495
36.6802 56.26565956121986
37.2137 56.71813109179152
37.755 57.16332400440058
38.3041 57.606418356326756
38.8613 58.05114128533171
39.4265 58.494229614448116
40.0 58.93003571573655
40.5818 59.358836689293696
41.1721 59.7847563339584
41.771 60.20806673085154
42.3785 60.622986451815876
42.9949 61.030430583786114
43.6203 61.43970094890173
44.2548 61.8612555739676
44.8985 62.28719674022673
45.5515 62.70487387980093
46.2141 63.11024807501697
46.8863 63.513216731816584
47.5683 63.92227209880083
48.2602 64.33165536149986
48.9621 64.73126959688906
49.6743 65.12924905165842
50.3968 65.53563672652422
51.1299 65.94469668425256
51.8736 66.34226623172107
52.6281 66.73371603332741
53.3936 67.12247252160815
54.1702 67.50619668112479
54.9581 67.88239018646581
55.7575 68.24679974389403
56.5685 68.5904910354188
57.3914 68.91548153080096
58.2261 69.21984698224786
59.073 69.49473298740814
59.9323 69.76910446157582
60.804 70.04477010086913
61.6884 70.28878199568277
62.5857 70.54074410912598
63.496 70.83196883015842
64.4196 71.08265554884748
65.3566 71.29015194498444
66.3073 71.51827104108472
67.2717 71.72990040677284
68.2502 71.91482768862677
69.2429 72.09349035081038
70.2501 72.24208082515017
71.2719 72.36746573084307
72.3086 72.47843466282708
73.3603 72.57829655244772
74.4274 72.66512227910877
75.5099 72.73523278416204
76.6083 72.8094024635434
77.7226 72.88099790271357
78.8531 72.94333898004876
80.0 72.99369802416226
81.1636 73.04134911737691
82.3442 73.07468074422749
83.5419 73.1045748500897
84.757 73.13923951941841
85.9899 73.17923258190288
87.2406 73.22686911645586
88.5096 73.27774062010434
89.797 73.32953123958794
91.1031 73.37634481415978
92.4282 73.42483100113253
93.7726 73.47808850303724
95.1366 73.54522757115305
96.5204 73.62418967973987
97.9243 73.71164857215128
99.3486 73.80223108420057
100.794 73.89455736528538
102.26 73.98270772840797
103.747 74.06331305395015
105.256 74.14318257199963
106.787 74.21013808560069
108.34 74.25651313414245
109.916 74.3213029736508
111.515 74.3654650761998
113.137 74.43638438375308
114.783 74.52931130498236
116.452 74.61714335054246
118.146 74.71604050128042
119.865 74.8062660269593
121.608 74.88926543146437
123.377 74.9667601382483
125.171 75.04080404133525
126.992 75.12463523897827
128.839 75.20881864586039
130.713 75.27423133375274
132.615 75.296213639205
134.543 75.29707899770636
136.5 75.32762843893126
138.486 75.36149818822469
140.5 75.30783143842044
142.544 75.20976167705717
144.617 75.17541265742801
146.721 75.14771430105874
148.855 75.1441559282467
151.02 75.12851372318687
153.217 75.10745971088934
155.445 75.08597482920914
157.706 75.07346254800751
160.0 75.09346054248851
162.327 75.12822056887603
164.688 75.17031038385447
167.084 75.19642277015953
169.514 75.2119609052496
171.98 75.19036687642148
174.481 75.08707269871593
177.019 75.0623155325792
179.594 75.09411740968058
182.206 75.0961313984741
184.856 75.09029061531984
187.545 75.11946533668504
190.273 75.12997769334885
193.041 75.06083317536314
195.849 75.00668448294607
198.697 75.00335422321912
201.587 74.96829300086546
204.52 74.91411543178336
207.494 74.91611460540585
210.512 74.8957931324038
213.574 74.8445088744711
216.681 74.8365603832039
219.833 74.84818692790572
223.03 74.8426727037274
226.274 74.8629813708863
229.565 74.85394511108805
232.905 74.84992841050494
236.292 74.81199961841679
239.729 74.80487074881961
243.216 74.79732119040816
246.754 74.75364674422323
250.343 74.58738313428732
253.984 74.57934028059165
257.678 74.65751480618671
261.426 74.74256688153287
265.229 74.73313287208617
269.087 74.65001892367292
273.001 74.64913177173658
276.972 74.57430999882965
281.0 74.58405759310504
285.088 74.72870398994678
289.234 74.76743715475496
293.441 74.8166281061115
297.709 74.75540680326186
302.04 74.66329098480185
306.433 74.59422193466614
310.89 74.57640188411105
315.412 74.43830118019015
320.0 74.42070867274445
324.655 74.23111308749833
329.377 74.03115569455323
334.168 73.87211275290105
339.028 73.90830725097189
343.959 73.85706159321481
348.962 73.77455435664281
354.038 73.59560882439652
359.188 73.46255909627381
364.412 73.30310639405819
369.713 73.12897893013819
375.09 73.03666831758045
380.546 72.67392668760803
386.081 72.4731900943615
391.697 72.1949333680761
397.394 72.10401606140118
403.175 71.98911512933708
409.039 71.76627785337703
414.989 71.67376041426562
421.025 71.57534911825113
427.149 71.41284304208058
433.362 71.52835645140182
439.665 71.48193765461204
446.06 71.3786737754449
452.548 71.2296910078223
459.131 70.950946307003
465.809 70.92835318931995
472.584 70.73303303890566
479.458 70.76809168907522
486.432 70.60964876617183
493.507 70.41462216285
500.686 70.48226119301698
507.968 70.41138724977577
515.357 70.28756927699008
522.853 70.28303903930289
530.458 70.26451058742822
538.174 70.17150391541612
546.002 69.94658158059863
553.943 69.78280067167435
562.001 69.63809219395444
570.175 69.42405067497396
578.469 69.27328771571163
586.883 69.09682044422844
595.419 68.90547787881694
604.08 68.74052865002949
612.866 68.61014225474847
621.78 68.5250369961282
630.824 68.4948255499395
640.0 68.50744536093289
649.309 68.56684192342357
658.753 68.6647492005787
668.335 68.7970158593371
678.056 68.9525239832073
687.919 69.11994744133814
697.925 69.29323163821304
708.077 69.46109254694693
718.376 69.61831596278924
728.825 69.7607337927353
739.426 69.88198127215107
750.181 69.98403284233198
761.093 70.06044385339709
772.163 70.1106553509464
783.394 70.13117699582233
794.789 70.12646583573245
806.349 70.09646204476063
818.078 70.04080043283739
829.977 69.95865911935577
842.05 69.85782357888137
854.298 69.73513762158697
866.724 69.59488696302472
879.33 69.44387556627788
892.12 69.29519726231013
905.097 69.15367270603015
918.262 69.0359632448029
931.618 68.95541008827158
945.169 68.9196739185676
958.917 68.94016018287948
972.864 69.01857115531946
987.015 69.14753606513983
1001.37 69.3127289517534
1015.94 69.5023111593618
1030.71 69.69222307537459
1045.71 69.86870817751668
1060.92 70.01578334689438
1076.35 70.11549542885136
1092.0 70.16007926203355
1107.89 70.1483901329956
1124.0 70.07656115101035
1140.35 69.95539401870693
1156.94 69.79359525368302
1173.77 69.60978831832925
1190.84 69.42488166450178
1208.16 69.26271307934765
1225.73 69.13882251639262
1243.56 69.06258253338729
1261.65 69.03512201831373
1280.0 69.03957838292193
1298.62 69.06201915001836
1317.51 69.08491615428088
1336.67 69.09218398169155
1356.11 69.0782150066771
1375.84 69.04474291997072
1395.85 68.99994810968616
1416.15 68.94988415825681
1436.75 68.9026535349837
1457.65 68.85550877431876
1478.85 68.79653853072423
1500.36 68.7131417206192
1522.19 68.58318073170476
1544.33 68.39730254024877
1566.79 68.15190682593905
1589.58 67.86069082329698
1612.7 67.5631536023648
1636.16 67.30116715002957
1659.95 67.11271790294867
1684.1 67.01387116537647
1708.6 66.98229917226402
1733.45 66.96714978538964
1758.66 66.91236809223702
1784.24 66.77463908078234
1810.19 66.5411502716493
1836.52 66.22760538664178
1863.24 65.88295109142614
1890.34 65.56666195709795
1917.83 65.32193800150637
1945.73 65.14750751330772
1974.03 65.0048672444651
2002.74 64.8438850640753
2031.87 64.6414059774994
2061.43 64.40788702490168
2091.41 64.19357617353273
2121.83 64.05300593758605
2152.69 64.00592817484997
2184.01 64.02879513206608
2215.77 64.0935990955885
2248.0 64.18706389445589
2280.7 64.32040138225071
2313.87 64.50407308069204
2347.53 64.72030911003345
2381.68 64.91615044392297
2416.32 65.06070470649031
2451.46 65.15833275611476
2487.12 65.27232322079742
2523.3 65.45599846237147
2560.0 65.70756822937206
2597.24 65.96886752821729
2635.01 66.18758850994729
2673.34 66.36270274977008
2712.23 66.54548687652982
2751.68 66.77021570834285
2791.7 67.0012043492661
2832.31 67.16238047286775
2873.5 67.22038253471653
2915.3 67.22843859510357
2957.7 67.28600764489421
3000.72 67.43502957427901
3044.37 67.6094097729852
3088.65 67.72183528139232
3133.58 67.75994213050413
3179.16 67.7864746820968
3225.4 67.85170928532581
3272.31 67.93282855281404
3319.91 67.97865477806965
3368.2 67.98710631164752
3417.19 67.99676987997198
3466.89 68.03049645830423
3517.32 68.08236182190691
3568.48 68.16293829712617
3620.39 68.28882189816608
3673.05 68.44659330350387
3726.47 68.60602498576874
3780.67 68.78119717751916
3835.67 69.00337847979955
3891.46 69.25281064070755
3948.06 69.49586554013914
4005.49 69.7522180823398
4063.75 70.07219867023485
4122.86 70.43641798584662
4182.82 70.76757540713828
4243.66 70.98009159194534
4305.39 70.99875980062762
4368.01 70.80072706986007
4431.55 70.48250038095426
4496.01 70.20188480308659
4561.4 69.99649737017333
4627.75 69.79181016078805
4695.06 69.5904817291918
4763.35 69.46195172599874
4832.64 69.41182333182223
4902.93 69.41905001302652
4974.24 69.46243248043318
5046.6 69.51372684095874
5120.0 69.58907874689328
5194.47 69.66484518491268
5270.03 69.67640679070222
5346.68 69.66106150851436
5424.45 69.65581413436696
5503.35 69.63099444408209
5583.4 69.61835433478129
5664.61 69.60654023189741
5747.01 69.57148479786358
5830.6 69.5493983858294
5915.41 69.5128679678753
6001.45 69.43712607605414
6088.74 69.27087720911268
6177.3 69.01511212404081
6267.15 68.73809996496831
6358.31 68.48617260269216
6450.8 68.36425427647316
6544.62 68.40313258305423
6639.82 68.52290173155077
6736.4 68.6248930244156
6834.38 68.71556249100061
6933.79 68.66055029295198
7034.64 68.48203129239288
7136.96 68.28152970891941
7240.77 68.0761981877621
7346.09 67.78587299316095
7452.94 67.54524152490202
7561.35 67.38102763727576
7671.33 67.2575923410956
7782.91 67.14993410561047
7896.12 67.12411610884921
8010.97 67.10905695852594
8127.49 67.06688861037969
8245.71 66.94774755698887
8365.65 66.77549039881418
8487.33 66.67259694927183
8610.78 66.51573066161656
8736.03 66.3634359932147
8863.09 66.49168529109869
8992.01 67.0026599403499
9122.8 67.5682824914437
9255.5 67.91072055591931
9390.12 67.89275499942855
9526.7 67.62384677249491
9665.27 67.22632552568537
9805.86 66.73519387557151
9948.49 66.35747781155342
10093.2 66.06412458193759
10240.0 65.97434416945718
10388.9 65.8711451016115
10540.1 65.81629278441248
10693.4 65.76883433698377
10848.9 65.74409598065184
11006.7 65.68760503489311
11166.8 65.48087683748443
11329.2 65.19134602451112
11494.0 64.84295624102677
11661.2 64.6941016864813
11830.8 64.75614940428166
12002.9 64.98241028234517
12177.5 65.1004555292458
12354.6 65.10466365339977
12534.3 64.96637953690797
12716.6 64.97559142080812
12901.6 65.16398084149742
13089.2 65.41736935902864
13279.6 65.52824851979048
13472.8 65.43031798644279
13668.8 65.16171209916901
13867.6 64.72476807560038
14069.3 64.32084223826212
14273.9 63.977052440246496
14481.5 63.84008252436388
14692.2 63.96474614250877
14905.9 64.11314494479868
15122.7 64.15309340071292
15342.7 64.12334546161865
15565.8 64.16605084778668
15792.2 64.23433914807156
16021.9 64.11700153429032
16255.0 63.86826105559663
16491.4 63.56500205042893
16731.3 63.30139130747315
16974.7 63.1569356145545
17221.6 63.19622282667021
17472.1 63.14751863877066
17726.2 62.851383092902964
17984.0 62.473445005617435
18245.6 62.376136481206316
18511.0 62.59390849687864
18780.2 62.7461740779365
19053.4 62.62159098394099
19330.5 62.33686439447234
19611.7 62.0918688690885
19897.0 61.73105595575812
