Freq,On Axis,Listening Window,Sound Power,Early Reflections,Early Reflections DI,Sound Power DI,DI offset
20.0,44.80561746149033,44.83556040985246,45.05754139538155,44.78895570650349,40.046604703348976,39.778019014470914,40
20.2909,45.48716894265587,45.51894356666676,45.72661117304733,45.46527337052049,40.05367019614627,39.79233239361943,40
20.586,46.138823727869294,46.17379934993289,46.36602215839781,46.1123622758974,40.061437074035496,39.80777719153508,40
20.8855,46.71858284219957,46.75775346921225,46.93339675949093,46.687689983697425,40.07006348551482,39.824356709721314,40
21.1893,47.19644799382294,47.23976401180343,47.39830857611838,47.16044897648453,40.0793150353189,39.84145543568505,40
21.4975,47.635868725932056,47.68282579511174,47.8244126826942,47.594674604686276,40.088151190425464,39.85841311241754,40
21.8102,48.097399763985635,48.14954541222835,48.27293156107402,48.05154524070801,40.09800017152034,39.87661385115433,40
22.1274,48.63004452142275,48.68693717726546,48.792478523326736,48.5793456498686,40.10759152739686,39.89445865393873,40
22.4492,49.25714274589606,49.31779935301748,49.40495074697091,49.20026658736592,40.11753276565156,39.912848606046566,40
22.7758,49.958914075500815,50.023446564721496,50.09231780127118,49.89619305515234,40.12725350956916,39.93112876345032,40
23.1071,50.68269654878915,50.750409090686475,50.80127339381394,50.61366747110256,40.136741619583916,39.94913569687253,40
23.4432,51.365490161746294,51.434393472899586,51.46803837835637,51.28889675228291,40.14549672061668,39.96635509454322,40
23.7841,51.96573705905692,52.03568025218655,52.05179527484975,51.881201485852245,40.15447876633431,39.9838849773368,40
24.1301,52.49043502201536,52.558520982388075,52.5588740703071,52.396521902130445,40.16199908025763,39.999646912080976,40
24.4811,52.969582003684906,53.03470468327063,53.01927178982348,52.865244831002656,40.16945985226798,40.015432893447155,40
24.8372,53.44561646077889,53.506771189650834,53.47642701055764,53.33039692361743,40.176374266033406,40.03034417909319,40
25.1984,53.95697531913126,54.01249257806441,53.96781907853702,53.82981311936712,40.182679458697294,40.04467349952739,40
25.5649,54.52021569277869,54.56891539883284,54.51085172779693,54.38067101853841,40.188244380294435,40.05806367103591,40
25.9368,55.12633621998853,55.166586688238766,55.09549042483039,54.97298829433831,40.19359839390046,40.07109626340838,40
26.3141,55.75021569277871,55.78139062949856,55.697532734022644,55.58265600741075,40.19873462208781,40.083857895475916,40
26.6968,56.36785547271879,56.38982405135576,56.29313673918617,56.185857521665866,40.20396652968989,40.09668731216959,40
27.0851,56.96270037465058,56.97639497497224,56.866111285019684,56.76628362956737,40.21011134540487,40.11028368995255,40
27.4791,57.53287654612831,57.537906340097834,57.414092834383524,57.32178494162454,40.21612139847329,40.12381350571431,40
27.8788,58.086948654784436,58.085367404759864,57.94745185454369,57.86261332274046,40.22275408201941,40.13791555021618,40
28.2843,58.639809240142554,58.63242342198839,58.47876943587772,58.40171795333475,40.23070546865364,40.15365398611067,40
28.6957,59.202582140905406,59.191649963203076,59.02176364405646,58.95233595535977,40.239314007843305,40.16988631914661,40
29.1131,59.778274876750714,59.76607594653221,59.578268902593166,59.516953056655694,40.24912288987652,40.187807043939046,40
29.5365,60.36000038608461,60.34898920625909,60.14223467746494,60.089031177586705,40.259958028672386,40.20675452879415,40
29.9661,60.94010578258438,60.93243560194898,60.70520322302248,60.660547978976496,40.271887622972486,40.2272323789265,40
30.402,61.509900998865106,61.50829892514422,61.259893042362606,61.223812850384576,40.28448607475964,40.24840588278161,40
30.8442,62.06527722274228,62.070655651876834,61.79992341400184,61.773125601407045,40.29753005046979,40.270732237874995,40
31.2929,62.61277751353563,62.62729622095347,62.333224245054495,62.315895259780504,40.311400961172964,40.29407197589897,40
31.748,63.155394695621666,63.1794143135684,62.861955157777274,62.85454027932849,40.32487403423991,40.31745915579113,40
32.2098,63.69175738299961,63.725665947469906,63.38543987999519,63.38799275326559,40.337673194204314,40.34022606747472,40
32.6783,64.21922002185715,64.26209111199717,63.89921897723241,63.91205630560009,40.350034806397076,40.36287213476476,40
33.1536,64.7344103588712,64.78460373959484,64.39948080267541,64.42305794996543,40.36154578962942,40.38512293691943,40
33.6359,65.23977850291095,65.29540441872382,64.88975066587798,64.92403113248298,40.37137328624084,40.405653752845836,40
34.1251,65.74423466516576,65.80295692206036,65.37754778616437,65.42272309607353,40.380233825986835,40.42540913589599,40
34.6215,66.2543223977777,66.31402601100734,65.87013653109818,65.92639595336071,40.38763005764663,40.44388947990916,40
35.125,66.77358696646593,66.83020084070199,66.36896700422284,66.4363572311442,40.39384360955779,40.46123383647915,40
35.6359,67.29830901100293,67.35055774194723,66.87253712032323,66.95120304118397,40.399354700763254,40.478020621624,40
36.1543,67.81957734898504,67.86509929348546,67.37078666737688,67.46081308461774,40.40428620886772,40.49431262610858,40
36.6802,68.33075738299961,68.36894589767735,67.8587518081104,67.9599603316511,40.408985566026246,40.51019408956695,40
37.2137,68.83093833054708,68.86086526833466,68.33397235425288,68.44674876176543,40.41411650656923,40.526892914081785,40
37.755,69.32702914687188,69.34946494983171,68.8054298203307,68.92961174646763,40.419853203364084,40.54403512950101,40
38.3041,69.82393833054708,69.8404805104325,69.27783517024375,69.413638120252,40.4268423901805,40.56264534018875,40
38.8613,70.32184774258647,70.33392043619902,69.7517140854503,69.89905921100073,40.43486122519829,40.58220635074872,40
39.4265,70.81312227184083,70.82291483341277,70.22017559548325,70.37906724492711,40.44384758848565,40.60273923792951,40
40.0,71.29830901100294,71.30797481362072,70.6831481802686,70.85360592205018,40.45436889157054,40.624826633352114,40
40.5818,71.77595442509565,71.78811288494012,71.14001454569701,71.32204023257967,40.46607265236045,40.648098339243106,40
41.1721,72.24114716104465,72.25671769350836,71.58523594040004,71.77872270097082,40.477994992537546,40.671481753108324,40
41.771,72.67971306812284,72.69928525329958,72.0038025507503,72.20859730603001,40.49068794726956,40.695482702549285,40
42.3785,73.07836990755297,73.10128885447892,72.38275596783018,72.59877253316607,40.502516321312854,40.718532886648745,40
42.9949,73.45457264217083,73.47986712258324,72.73862967739055,72.96553354473814,40.51433357784511,40.741237445192695,40
43.6203,73.83432007223517,73.85903752152551,73.0963210542476,73.33406829588135,40.524969225644156,40.76271646727791,40
44.2548,74.23298651331783,74.25634851635938,73.4726799951972,73.72126438436423,40.53508413199515,40.783668521162184,40
44.8985,74.64319765060296,74.66293763423576,73.85945599814566,74.11871838002799,40.544219254207775,40.8034816360901,40
45.5515,75.04695228385228,75.06113081528417,74.23845097318826,74.50860163503688,40.55252918024729,40.82267984209591,40
46.2141,75.44070897568139,75.44969315282313,74.60860949400951,74.88951492741228,40.56017822541085,40.841083658813616,40
46.8863,75.82500779156503,75.82794133139281,74.96873045967564,75.26081938460653,40.56712194678627,40.85921087171717,40
47.5683,76.20130803731067,76.19889476684226,75.32115636293386,75.62479537600233,40.57409939083993,40.877738403908396,40
48.2602,76.57068887114656,76.56564283586235,75.66972092287266,75.98500402858227,40.58063880728008,40.89592191298969,40
48.9621,76.935530783773,76.93067539886577,76.01570797960551,76.34280492970353,40.58787046916224,40.914967419260265,40
49.6743,77.28645208332435,77.28329950929945,76.3497312800423,76.68841738241828,40.594882126881174,40.93356822925715,40
50.3968,77.61729536894475,77.61729727748138,76.66486269765963,77.01511691318807,40.60218036429332,40.952434579821755,40
51.1299,77.93067843389557,77.93394914629154,76.9636941419558,77.32494954454963,40.608999601741914,40.97025500433574,40
51.8736,78.23744610866575,78.24344395628718,77.25581907957313,77.62741298261616,40.616030973671016,40.98762487671405,40
52.6281,78.53460148340466,78.54232818624502,77.53752958243048,77.91913902698795,40.623189159257066,41.004798603814535,40
53.3936,78.81914919435454,78.82580193111315,77.80508856990156,78.19585815496478,40.629943776148366,41.02071336121159,40
54.1702,79.09209542503669,79.09511765892447,78.05907672032822,78.45879188310356,40.63632577582091,41.036040938596244,40
54.9581,79.35212591247314,79.34978603685742,78.29846667658812,78.70723307700038,40.64255295985704,41.051319360269304,40
55.7575,79.59370110677648,79.58605699599663,78.5197315203696,78.93784314292242,40.64821385307421,41.066325475627025,40
56.5685,79.81588791553058,79.80233929829697,78.72112846945363,79.14869799780422,40.65364130049275,41.08121082884334,40
57.3914,80.015284549634,79.99905086063629,78.90223237757466,79.34001266252783,40.65903819810846,41.096818483061625,40
58.2261,80.18435340294062,80.16879761850379,79.05695790768746,79.50504843331755,40.663749185186234,41.11183971081633,40
59.073,80.32456133781085,80.3137455647767,79.1869851887187,79.64516152666717,40.66858403810953,41.126760376058,40
59.9323,80.45337710681352,80.45087643920161,79.309985003081,79.77743730369288,40.67343913550873,41.14089143612061,40
60.804,80.58459019698866,80.59065954750265,79.43659603414855,79.91222848997941,40.67843105752324,41.1540635133541,40
61.6884,80.70659019698866,80.72209834523855,79.55517137462199,80.03767209042597,40.68442625481258,41.16692697061656,40
62.5857,80.82077133495284,80.84275526947359,79.6639042677694,80.15205300535467,40.69070226411891,41.17885100170419,40
63.496,80.93407936476632,80.95742054942207,79.76707561611175,80.25983849773587,40.6975820516862,41.190344933310314,40
64.4196,81.02974663298984,81.04988057555835,79.84810082655727,80.34551135490253,40.70436922065582,41.201779749001076,40
65.3566,81.10279464498167,81.11454068990545,79.90000462690948,80.40275907075181,40.71178161915364,41.214536062995975,40
66.3073,81.16207021312078,81.16256644636512,79.93496533895417,80.44434679483201,40.718219651533104,41.22760110741095,40
67.2717,81.19549175970836,81.18442692534731,79.94286257987206,80.46039724750759,40.724029677839724,41.241564345475254,40
68.2502,81.21173894334424,81.19009150779601,79.93453409926748,80.46150706872882,40.72858443906719,41.25555740852853,40
69.2429,81.23168339315987,81.203726946172,79.93368746966874,80.47086610231577,40.73286084385623,41.27003947650326,40
70.2501,81.25573894334426,81.22556542451461,79.94144391709958,80.48884386551114,40.73672155900347,41.28412150741504,40
71.2719,81.27079472307365,81.24310630501105,79.9456696420726,80.50271069973014,40.74039560528091,41.29743666293845,40
72.3086,81.27968339315987,81.25443584347498,79.94448322035011,80.51016077678013,40.744275066694854,41.30995262312487,40
73.3603,81.27093625810681,81.24747609187914,79.92526370135884,80.49870315657986,40.74877293529927,41.32221239052029,40
74.4274,81.23403469757311,81.20961046257497,79.87542755147197,80.45629776579004,40.75331269678493,41.334182911103,40
75.5099,81.18162060279563,81.15254783640394,79.80558317900099,80.39418211642865,40.75836571997529,41.34696465740295,40
76.6083,81.11679497353927,81.08140609325204,79.72232951837674,80.31872709074334,40.762679002508705,41.3590765748753,40
77.7226,81.05612365432665,81.01356162760001,79.64193806455064,80.24655883996675,40.76700278763326,41.37162356304937,40
78.8531,81.0195994098641,80.97093474073694,79.58685695063289,80.19995741827441,40.77097732246253,41.384077790104044,40
80.0,80.99564795621815,80.94473402556076,79.54771826393815,80.16929707984812,40.77543694571264,41.39701576162261,40
81.1636,80.97217231553797,80.92397480925845,79.51319339325335,80.14309679805412,40.78087801120434,41.41078141600511,40
82.3442,80.94855109322847,80.90721618787279,79.48225446202585,80.12060269231823,40.78661349555456,41.42496172584694,40
83.5419,80.92178945817626,80.88768934906558,79.44834260471404,80.09497634342054,40.79271300564504,41.43934674435154,40
84.757,80.88089878358105,80.85208354289401,79.39884170757715,80.05405297223639,40.798030570657616,41.45324183531686,40
85.9899,80.84150322434036,80.81326151590636,79.34806606339447,80.01177780525614,40.80148371065022,41.46519545251189,40
87.2406,80.80564673447923,80.77453542108883,79.29827021581379,79.9698400025967,40.80469541849213,41.47626520527504,40
88.5096,80.77040509385317,80.7325547145183,79.2472187988548,79.92584219457763,40.806712519940675,41.4853359156635,40
89.797,80.72072929466643,80.6761009434164,79.18182960576947,79.86698048015019,40.80912046326621,41.494271337646936,40
91.1031,80.64961468174408,80.60121194018413,79.09733074199711,79.7886663600307,40.812545580153426,41.50388119818702,40
92.4282,80.53498358211169,80.48635467609245,78.9711213487302,79.66889770879821,40.817456967294234,41.51523332736225,40
93.7726,80.3973191644268,80.35154938893098,78.82380572772806,79.52903776464436,40.82251162428662,41.52774366120292,40
95.1366,80.29258989336537,80.2494561980959,78.70925252528048,79.42245832776369,40.82699787033221,41.54020367281542,40
96.5204,80.21135385283905,80.16799849493188,78.61709203191799,79.3383267191082,40.829671775823684,41.55090646301389,40
97.9243,80.14712908275118,80.09805557811431,78.53900511436868,79.2675087920248,40.83054678608951,41.559050463745635,40
99.3486,80.11543046033279,80.05872850084893,78.49251296967262,79.22725215600151,40.83147634484742,41.56621553117631,40
100.794,80.09676998695102,80.03394635805199,78.45998919833113,79.20071020433389,40.833236153718104,41.57395715972086,40
102.26,80.08714386711912,80.02164841136744,78.43828678726243,79.18479731402647,40.83685109734097,41.58336162410501,40
103.747,80.07452240649272,80.009757382494,78.41579295460865,79.16845821050124,40.84129917199276,41.59396442788535,40
105.256,80.06039291505809,79.99836265257775,78.3935047498905,79.15284462386784,40.84551802870992,41.60485790268726,40
106.787,80.0427571189422,79.98173185991082,78.3682039789753,79.13407806521438,40.84765379469644,41.61352788093552,40
108.34,79.99510560753825,79.93108145374092,78.31047527106385,79.0824939772506,40.84858747649031,41.620606182677065,40
109.916,79.9089533156019,79.8415165939193,78.2147591433236,78.99226000511996,40.849256588799335,41.62675745059569,40
111.515,79.85079307715877,79.77971774418776,78.1465238142238,78.92904450872683,40.85067323546093,41.633193929963966,40
113.137,79.83768256559125,79.76517676161781,78.12451346201306,78.91250328460941,40.852673477008395,41.64066329960475,40
114.783,79.83808854294574,79.76489721584534,78.11613020846403,78.90983505719257,40.85506215865277,41.64876700738131,40
116.452,79.83700911045223,79.7629712877449,78.10710662934893,78.9069078348737,40.8560634528712,41.65586465839597,40
118.146,79.8454144521327,79.76869328014007,78.10616693394522,78.91169761989501,40.85699566024506,41.66252634619485,40
119.865,79.86128781677847,79.78383215045552,78.11462395884782,78.92505636312157,40.858775787333954,41.66920819160771,40
121.608,79.88067962794302,79.80123363727643,78.12513003887894,78.93982744531797,40.86140619195845,41.67610359839749,40
123.377,79.9061106382742,79.82378931030176,78.14020039471256,78.95917431074686,40.8646149995549,41.6835889155892,40
125.171,79.93158084901737,79.84352217379353,78.15341901423209,78.97783877491568,40.86568339887785,41.690103159561446,40
126.992,79.94907195538677,79.85447013797823,78.1580751215829,78.9889924386734,40.86547769930482,41.69639501639533,40
128.839,79.96705572232094,79.87091974251854,78.16828197309626,79.0057982478815,40.86512149463704,41.70263776942228,40
130.713,79.97202256529482,79.87823811473561,78.16986904176103,79.01281706692485,40.865421047810756,41.70836907297458,40
132.615,79.94950233136697,79.85900049585987,78.14496384460259,78.99238571505647,40.8666147808034,41.71403665125729,40
134.543,79.9325007195578,79.84247528474074,78.12327193178439,78.97480311841579,40.86767216632495,41.719203352956356,40
136.5,79.93550831808335,79.84164075183841,78.11687575263575,78.973215424411,40.86842532742742,41.72476499920266,40
138.486,79.93602590403079,79.8373552819577,78.10742031983011,78.96830654459244,40.86904873736526,41.72993496212759,40
140.5,79.93756910596856,79.83719205049574,78.10198806187964,78.96730126396248,40.86989078653326,41.73520398861611,40
142.544,79.93664509002744,79.83631702189633,78.09574400532487,78.96559303318703,40.8707239887093,41.74057301657146,40
144.617,79.8737178496895,79.77277160430182,78.0276660409869,78.90146895877074,40.87130264553109,41.74510556331492,40
146.721,79.84727641947585,79.74289036869781,77.99410752069495,78.8719216203828,40.87096874831501,41.74878284800286,40
148.855,79.9168546172346,79.80790177175115,78.05512034873158,78.93699042016908,40.870911351582066,41.75278142301957,40
151.02,79.9844715523599,79.87195915150065,78.11568220679958,79.00130164461478,40.87065750688586,41.75627694470107,40
153.217,79.96561349490955,79.84983671488061,78.09010768673878,78.9795512595513,40.87028545532931,41.759729028141834,40
155.445,79.89726467241144,79.77795325976211,78.0141205496291,78.90726015874091,40.8706931010212,41.763832710133016,40
157.706,79.84242214884279,79.71992516127338,77.95149850851263,78.8484416466003,40.87148351467307,41.76842665276075,40
160.0,79.70710560753827,79.58192653345688,77.8082892818002,78.70946095021475,40.87246558324213,41.77363725165668,40
162.327,79.66180569393225,79.5359012091366,77.75750576797547,78.66229425251109,40.87360695662551,41.77839544116112,40
164.688,79.69146991960807,79.56395140130218,77.78204078710748,78.68991461367995,40.87403678762223,41.7819106141947,40
167.084,79.82914386711911,79.69815209110533,77.9116112021187,78.82339377664488,40.87475831446045,41.78654088898662,40
169.514,79.92434206666204,79.78885544084329,77.99820240519047,78.9146411455295,40.87421429531379,41.790653035652824,40
171.98,79.59712908275115,79.45765608468277,77.66436849734762,78.58444733684895,40.873208747833814,41.79328758733514,40
174.481,79.44393685928908,79.3013337521349,77.50516248404392,78.42764611597886,40.873687636156035,41.79617126809097,40
177.019,79.45372983339394,79.31006237434653,77.50829065039255,78.43397159139943,40.8760907829471,41.801771723953976,40
179.594,79.47846508353118,79.33290289591315,77.5252731892846,78.45519508574439,40.87770781016876,41.807629706628546,40
182.206,79.48817172954253,79.33999869817899,77.52860942648067,78.46213479352761,40.87786390465138,41.81138927169832,40
184.856,79.5464447925712,79.39347857844808,77.57930180884605,78.5149955349504,40.87848304349768,41.81417676960203,40
187.545,79.68472912037753,79.52487814775266,77.70660111571354,78.64551244315051,40.87936570460215,41.81827703203912,40
190.273,79.86750322434038,79.70281452865993,77.87888890027006,78.82271501709728,40.88009951156265,41.82392562838987,40
193.041,80.02133156436525,79.85430660523369,78.02548805248739,78.97277926941723,40.88152733581646,41.8288185527463,40
195.849,80.07508056249723,79.90651440930354,78.07293101913174,79.02274324160749,40.883771167696054,41.833583390171796,40
198.697,80.12121930932082,79.9476275145309,78.10865786406569,79.06237632721285,40.88525118731805,41.8389696504652,40
201.587,80.20307522283116,80.02254608354575,78.17645267697901,79.13387203193022,40.888674051615524,41.84609340656674,40
204.52,80.14004459629196,79.95429904476053,78.09964930306442,79.06036192889954,40.89393711586099,41.85464974169611,40
207.494,79.99914605312941,79.81349239088755,77.95148153269574,78.91643890304402,40.89705348784352,41.86201085819181,40
210.512,79.86404459629193,79.6775376773535,77.81008537989102,78.77951550221434,40.89802217513916,41.86745229746248,40
213.574,79.84935172268796,79.65696589776476,77.78178439125949,78.75535488351821,40.901611014246555,41.87518150650527,40
216.681,79.82772048529672,79.62975260393642,77.7433631413583,78.72150729719638,40.90824530674004,41.88638946257812,40
219.833,79.72272048529672,79.52034619863977,77.62279774707162,78.60626814163815,40.91407805700162,41.897548451568156,40
