Freq "Early Reflections"
20.0 44.78895570650349
20.2909 45.46527337052049
20.586 46.1123622758974
20.8855 46.687689983697425
21.1893 47.16044897648453
21.4975 47.594674604686276
21.8102 48.05154524070801
22.1274 48.5793456498686
22.4492 49.20026658736592
22.7758 49.89619305515234
23.1071 50.61366747110256
23.4432 51.28889675228291
23.7841 51.881201485852245
24.1301 52.396521902130445
24.4811 52.865244831002656
24.8372 53.33039692361743
25.1984 53.82981311936712
25.5649 54.38067101853841
25.9368 54.97298829433831
26.3141 55.58265600741075
26.6968 56.185857521665866
27.0851 56.76628362956737
27.4791 57.32178494162454
27.8788 57.86261332274046
28.2843 58.40171795333475
28.6957 58.95233595535977
29.1131 59.516953056655694
29.5365 60.089031177586705
29.9661 60.660547978976496
30.402 61.223812850384576
30.8442 61.773125601407045
31.2929 62.315895259780504
31.748 62.85454027932849
32.2098 63.38799275326559
32.6783 63.91205630560009
33.1536 64.42305794996543
33.6359 64.92403113248298
34.1251 65.42272309607353
34.6215 65.92639595336071
35.125 66.4363572311442
35.6359 66.95120304118397
36.1543 67.46081308461774
36.6802 67.9599603316511
37.2137 68.44674876176543
37.755 68.92961174646763
38.3041 69.413638120252
38.8613 69.89905921100073
39.4265 70.37906724492711
40.0 70.85360592205018
40.5818 71.32204023257967
41.1721 71.77872270097082
41.771 72.20859730603001
42.3785 72.59877253316607
42.9949 72.96553354473814
43.6203 73.33406829588135
44.2548 73.72126438436423
44.8985 74.11871838002799
45.5515 74.50860163503688
46.2141 74.88951492741228
46.8863 75.26081938460653
47.5683 75.62479537600233
48.2602 75.98500402858227
48.9621 76.34280492970353
49.6743 76.68841738241828
50.3968 77.01511691318807
51.1299 77.32494954454963
51.8736 77.62741298261616
52.6281 77.91913902698795
53.3936 78.19585815496478
54.1702 78.45879188310356
54.9581 78.70723307700038
55.7575 78.93784314292242
56.5685 79.14869799780422
57.3914 79.34001266252783
58.2261 79.50504843331755
59.073 79.64516152666717
59.9323 79.77743730369288
60.804 79.91222848997941
61.6884 80.03767209042597
62.5857 80.15205300535467
63.496 80.25983849773587
64.4196 80.34551135490253
65.3566 80.40275907075181
66.3073 80.44434679483201
67.2717 80.46039724750759
68.2502 80.46150706872882
69.2429 80.47086610231577
70.2501 80.48884386551114
71.2719 80.50271069973014
72.3086 80.51016077678013
73.3603 80.49870315657986
74.4274 80.45629776579004
75.5099 80.39418211642865
76.6083 80.31872709074334
77.7226 80.24655883996675
78.8531 80.19995741827441
80.0 80.16929707984812
81.1636 80.14309679805412
82.3442 80.12060269231823
83.5419 80.09497634342054
84.757 80.05405297223639
85.9899 80.01177780525614
87.2406 79.9698400025967
88.5096 79.92584219457763
89.797 79.86698048015019
91.1031 79.7886663600307
92.4282 79.66889770879821
93.7726 79.52903776464436
95.1366 79.42245832776369
96.5204 79.3383267191082
97.9243 79.2675087920248
99.3486 79.22725215600151
100.794 79.20071020433389
102.26 79.18479731402647
103.747 79.16845821050124
105.256 79.15284462386784
106.787 79.13407806521438
108.34 79.0824939772506
109.916 78.99226000511996
111.515 78.92904450872683
113.137 78.91250328460941
114.783 78.90983505719257
116.452 78.9069078348737
118.146 78.91169761989501
119.865 78.92505636312157
121.608 78.93982744531797
123.377 78.95917431074686
125.171 78.97783877491568
126.992 78.9889924386734
128.839 79.0057982478815
130.713 79.01281706692485
132.615 78.99238571505647
134.543 78.97480311841579
136.5 78.973215424411
138.486 78.96830654459244
140.5 78.96730126396248
142.544 78.96559303318703
144.617 78.90146895877074
146.721 78.8719216203828
148.855 78.93699042016908
151.02 79.00130164461478
153.217 78.9795512595513
155.445 78.90726015874091
157.706 78.8484416466003
160.0 78.70946095021475
162.327 78.66229425251109
164.688 78.68991461367995
167.084 78.82339377664488
169.514 78.9146411455295
171.98 78.58444733684895
174.481 78.42764611597886
177.019 78.43397159139943
179.594 78.45519508574439
182.206 78.46213479352761
184.856 78.5149955349504
187.545 78.64551244315051
190.273 78.82271501709728
193.041 78.97277926941723
195.849 79.02274324160749
198.697 79.06237632721285
201.587 79.13387203193022
204.52 79.06036192889954
207.494 78.91643890304402
210.512 78.77951550221434
213.574 78.75535488351821
216.681 78.72150729719638
219.833 78.60626814163815
223.03 78.5267163284345
226.274 78.41438139061489
229.565 78.40932474519731
232.905 78.48741782898671
236.292 78.52776247101649
239.729 78.60930105348017
243.216 78.71840583219938
246.754 78.75075554317097
250.343 78.7813220298982
253.984 78.88221428014621
257.678 78.91288816362452
261.426 78.87018321825782
265.229 78.83107618206455
269.087 78.43444724253196
273.001 78.35114458468041
276.972 78.45233527564777
281.0 78.47051878010674
285.088 78.47734119543055
289.234 78.49007152475612
293.441 78.60121893665185
297.709 78.62519314593307
302.04 78.63983891275657
306.433 78.32382438553061
310.89 78.40138541701171
315.412 78.46022977457733
320.0 78.30755972668848
324.655 77.97528786617798
329.377 77.9869970989233
334.168 77.98924602879204
339.028 77.98948255363128
343.959 78.0617900696513
348.962 78.15068752532363
354.038 78.22149988280252
359.188 78.39109546864964
364.412 78.38423411788324
369.713 78.34483025535631
375.09 78.51163014630633
380.546 78.63104843070118
386.081 78.64845713059765
391.697 78.68485067471373
397.394 78.82304328556152
403.175 78.70132417288721
409.039 78.62980224293484
414.989 78.62459435986702
421.025 78.6422806168693
427.149 78.59967702363399
433.362 78.58407289219431
439.665 78.65241862834932
446.06 78.51008485496526
452.548 78.47128656065703
459.131 78.35139309972604
465.809 78.36032309352893
472.584 78.23687604060778
479.458 78.13556561395038
486.432 78.07090181472837
493.507 77.9551894222635
500.686 77.85274455790682
507.968 77.77658612038212
515.357 77.71777119846763
522.853 77.67080251487427
530.458 77.64990501370376
538.174 77.65676072778925
546.002 77.6932039498806
553.943 77.7526784159179
562.001 77.84052798462405
570.175 77.95254075297662
578.469 78.08549248237844
586.883 78.22831195608475
595.419 78.37776550185785
604.08 78.52956966781035
612.866 78.67897917994672
621.78 78.82101447961189
630.824 78.95025529347724
640.0 79.05849418180688
649.309 79.14439056074059
658.753 79.20624304828624
668.335 79.24336690194085
678.056 79.25149457293128
687.919 79.23126547626116
697.925 79.18307509969162
708.077 79.1103432615125
718.376 79.01440033778773
728.825 78.90004108413032
739.426 78.77352629419522
750.181 78.6402490878788
761.093 78.50903093740449
772.163 78.38968071711669
783.394 78.28577405798988
794.789 78.20199259831391
806.349 78.14331485051288
818.078 78.11033423042217
829.977 78.09969994545912
842.05 78.10463814235712
854.298 78.11979435753136
866.724 78.13660172303759
879.33 78.15101113246439
892.12 78.15766120923493
905.097 78.15515411554964
918.262 78.14600203126548
931.618 78.1342727609081
945.169 78.1302264730265
958.917 78.14287273546728
972.864 78.18158591659858
987.015 78.25223040956851
1001.37 78.35674073256037
1015.94 78.49374251235287
1030.71 78.65154587179404
1045.71 78.81988892329358
1060.92 78.98239011581835
1076.35 79.11936844786344
1092.0 79.2197964572556
1107.89 79.27348243830757
1124.0 79.27414129118978
1140.35 79.22410839319362
1156.94 79.12732194241347
1173.77 78.99579712722806
1190.84 78.8479078034477
1208.16 78.70247262473714
1225.73 78.57794444139451
1243.56 78.48724256768973
1261.65 78.43399303859361
1280.0 78.41011648368122
1298.62 78.39992278495936
1317.51 78.384847216478
1336.67 78.34318494981355
1356.11 78.27008805514912
1375.84 78.16420549349918
1395.85 78.0384140145002
1416.15 77.91538540302713
1436.75 77.8171295023818
1457.65 77.76205093923758
1478.85 77.75224425285984
1500.36 77.77478357996067
1522.19 77.80145346737866
1544.33 77.80514872485973
1566.79 77.76257005184385
1589.58 77.66750547074463
1612.7 77.53437792640023
1636.16 77.3905651318244
1659.95 77.27162980681739
1684.1 77.20506681812489
1708.6 77.19356158384852
1733.45 77.21277076082569
1758.66 77.22241016421091
1784.24 77.18518536575854
1810.19 77.08053661075604
1836.52 76.9127844239895
1863.24 76.71314625240525
1890.34 76.52441315867036
1917.83 76.37844239579015
1945.73 76.28374620432947
1974.03 76.2161670026841
2002.74 76.1454120668239
2031.87 76.05978393890173
2061.43 75.9773224813959
2091.41 75.93687089582491
2121.83 75.97228149163091
2152.69 76.0792220597167
2184.01 76.21639806532676
2215.77 76.33582797986668
2248.0 76.41242398766934
2280.7 76.45848950040823
2313.87 76.50908645622198
2347.53 76.58904502501244
2381.68 76.69307395172476
2416.32 76.78948091743524
2451.46 76.85451219980823
2487.12 76.89078411532262
2523.3 76.92705826247949
2560.0 76.99080030095067
2597.24 77.07937783965204
2635.01 77.16838784929055
2673.34 77.24092718387621
2712.23 77.30720782968172
2751.68 77.39636748412855
2791.7 77.52088265762589
2832.31 77.66112791874502
2873.5 77.78531466018221
2915.3 77.87771480794771
2957.7 77.94930325323577
3000.72 78.01004003524889
3044.37 78.05281164156679
3088.65 78.06219548591933
3133.58 78.03666292679671
3179.16 77.98902047476766
3225.4 77.9300620829751
3272.31 77.85582176408073
3319.91 77.76491642461883
3368.2 77.67270368756778
3417.19 77.60136842366781
3466.89 77.54928912934398
3517.32 77.50086385502894
3568.48 77.45176566396552
3620.39 77.42572458081378
3673.05 77.45579220597327
3726.47 77.54826110205184
3780.67 77.65835729410804
3835.67 77.73331980324548
3891.46 77.76952574621441
3948.06 77.8024615639765
4005.49 77.82018693147512
4063.75 77.76012581774083
4122.86 77.62547874404281
4182.82 77.5003818123711
4243.66 77.39523936703674
4305.39 77.25841649476796
4368.01 77.15325551971564
4431.55 77.15445517633093
4496.01 77.14109851061009
4561.4 77.04544137965497
4627.75 77.01621748034036
4695.06 77.04966000123277
4763.35 76.99076068865303
4832.64 76.94535638510854
4902.93 77.02567076118308
4974.24 77.08699000502705
5046.6 77.16471003090781
5120.0 77.33795650790086
5194.47 77.42748703220721
5270.03 77.47073035892296
5346.68 77.59316591864618
5424.45 77.63463098712245
5503.35 77.65534907448873
5583.4 77.77785045659073
5664.61 77.85042273953093
5747.01 77.96292631703375
5830.6 78.12596251842875
5915.41 78.1716551807437
6001.45 78.22348640868177
6088.74 78.2250564316581
6177.3 78.14436060435207
6267.15 78.09799160356182
6358.31 78.02631911169209
6450.8 78.06291891556751
6544.62 78.1276365082632
6639.82 78.2079009328393
6736.4 78.31162590275268
6834.38 78.29149188085047
6933.79 78.17724085583271
7034.64 77.96795620273991
7136.96 77.728253905003
7240.77 77.40965455568946
7346.09 77.26776665751692
7452.94 77.30029741626481
7561.35 77.42679791072531
7671.33 77.6502829476086
7782.91 77.83393040587094
7896.12 77.91097020840715
8010.97 77.99464270381503
8127.49 78.0354319470515
8245.71 77.99150275403741
8365.65 77.89546864603294
8487.33 77.68594209445399
8610.78 77.31293675547866
8736.03 76.89912982836516
8863.09 76.47156237877167
8992.01 76.19694745246467
9122.8 76.12418232801714
9255.5 76.12925416614921
9390.12 76.18586137981288
9526.7 76.18073299480479
9665.27 76.079784807916
9805.86 75.95079084587486
9948.49 75.83076119981645
10093.2 75.84524923059764
10240.0 75.94673786570866
10388.9 76.12361368287418
10540.1 76.1884644419121
10693.4 76.24168523655455
10848.9 76.1923827977657
11006.7 76.09618110428369
11166.8 75.94648059743739
11329.2 75.76843166989264
11494.0 75.63482197184399
11661.2 75.68868149892845
11830.8 75.94908629465839
12002.9 76.26169480541904
12177.5 76.41949195492442
12354.6 76.42048553164328
12534.3 76.28419523822072
12716.6 76.14292879481289
12901.6 76.09304269610817
13089.2 76.33727822253755
13279.6 76.60743414189042
13472.8 76.72316594945053
13668.8 76.6185136842879
13867.6 76.35616887927225
14069.3 75.99768801236866
14273.9 75.59248944792152
14481.5 75.42422002807004
14692.2 75.47802785386853
14905.9 75.38261965194337
15122.7 74.89909318970618
15342.7 74.39774361371423
15565.8 74.19284000177335
15792.2 73.91688540571243
16021.9 73.3210465850315
16255.0 72.84196658204351
16491.4 73.7122861348147
16731.3 74.1277959694149
16974.7 73.78512339045682
17221.6 73.48461574164554
17472.1 73.09494642370957
17726.2 72.53108555779028
17984.0 71.89139085394386
18245.6 71.42937972528131
18511.0 71.19142879342154
18780.2 70.88548631620404
19053.4 70.3492999625483
19330.5 69.73339181258581
19611.7 69.40400108495007
19897.0 69.10332236437443
