Freq,Floor Bounce,Ceiling Bounce,Front Wall Bounce,Side Wall Bounce,Rear Wall Bounce,Total Early Reflection
20.5078125,69.60029823380216,66.3107107745945,75.63171061672404,74.47532861351641,74.93357148125122,73.3900553177991
23.4375,71.59208900528658,68.30250154607893,75.79818400539592,74.64180200218833,75.10004486992312,73.82646631940212
26.3671875,73.98045570450537,70.69086824529771,76.46374949611851,75.30736749291093,75.76561036064572,74.84836214892503
29.296875,76.20793373184907,72.91834627264143,77.45816477932172,76.30178277611412,76.76002564384892,76.1729214534885
32.2265625,78.22084266739597,74.93125520818833,78.64984568752482,77.49346368431722,77.95170655205202,77.6243960461207
35.15625,80.01709968643898,76.72751222723133,79.92769297756382,78.77131097435623,79.22955384209102,79.08395738453557
38.0859375,81.61286384659518,78.32327638738752,81.20970591701703,80.05332391380944,80.51156678154422,80.48287532172301
41.015625,83.02513343888036,79.73554597967271,82.43901499904821,81.28263299584063,81.74087586357543,81.78281773468468
43.9453125,84.27012092667326,80.98053346746562,83.58134135402872,82.42495935082113,82.88320221855592,82.9655799986854
46.875,85.36275703507177,82.07316957586413,84.61867198147011,83.46228997826252,83.92053284599733,84.0249347472887
49.8046875,86.31650001602877,83.02691255682112,85.54446849025922,84.38808648705162,84.84632935478642,84.96192453417952
52.734375,87.14398414688816,83.85439668768052,86.36003550686073,85.20365350365313,85.66189637138791,85.78227779762796
55.6640625,87.85689003067716,84.56730257146951,87.07142314113813,85.91504113793053,86.37328400566531,86.4942757678767
58.59375,88.36210444340132,85.05638168531566,87.58069927318367,86.43726826090253,86.86646363768634,86.99899751355034
61.5234375,88.80774288296064,85.52021735151325,88.03227675294778,86.91011504263456,87.30572182779329,87.45188031436929
64.453125,89.2037961905602,85.95036964198707,88.44148326612313,87.34370862267575,87.70427326216227,87.86244859824933
67.3828125,89.55279251654366,86.32338689488505,88.81043516748589,87.73670439135739,88.06200585040779,88.22861884638873
70.3125,89.85223682594152,86.62343111219404,89.13081075787785,88.0790625526092,88.36879903282797,88.54203327550456
73.2421875,90.09759845765234,86.83528915342706,89.38990778273916,88.35742657274042,88.61019606600837,88.79144673122201
76.171875,90.2848972870398,86.9672074585876,89.57702690505768,88.56112351488031,88.77485539462106,88.97032331403125
79.1015625,90.41242629614936,87.02600760016415,89.68951835455142,88.68657890416257,88.85951179906817,89.0772182155229
82.03125,90.48166915299737,87.03698378306729,89.73476162191554,88.74020556897543,88.87222031263342,89.12011807531455
84.9609375,90.49771594327773,87.01029843125733,89.73081801434401,88.73781446257104,88.83136316158262,89.11218844009183
87.890625,90.46927383711811,86.96922045023697,89.70096773640667,88.70197845475946,88.76192718513613,89.07284794083328
90.8203125,90.40826258702273,86.91545213484837,89.66789518540185,88.65526903885319,88.6875693522686,89.01935094052078
93.75,90.32874523468668,86.86029681056527,89.64408668085309,88.61374268190833,88.62274056937214,88.96553112287556
96.6796875,90.24461977237956,86.79647732663528,89.62909215944882,88.58142658169882,88.56747963746386,88.91504109521026
99.609375,90.16811575751673,86.73199183912774,89.60984535279037,88.55108746143765,88.50922012902949,88.86548958313374
102.5390625,90.11467397844861,86.6442702817718,89.57170407251502,88.51009688890622,88.43001417218908,88.80909377141568
105.46875,90.06796124156722,86.5863595431947,89.52092929019457,88.46217396416709,88.33716448298242,88.75140329023603
108.3984375,90.03138546566625,86.56873064427434,89.45798841016082,88.4083125108473,88.23054081382674,88.69495185812562
111.328125,90.00109151474643,86.57402530968352,89.39709450239042,88.35697588724628,88.12198522810466,88.64384937224817
114.2578125,89.97538901575928,86.59896590366765,89.35547825259215,88.32087955320169,88.02813108342112,88.60674265770456
117.1875,89.95486158264964,86.63778371622249,89.34689369032525,88.3100669543266,87.9627479304736,88.59059122446914
120.1171875,89.94321943826482,86.68620949416974,89.37530334930247,88.32693258243648,87.93048427797343,88.59800338700626
123.046875,89.9461822428914,86.7464579840447,89.43338290881866,88.36529617435261,87.92564736024394,88.62692495744878
125.9765625,89.96950828656763,86.82585785340441,89.50680618600734,88.41397294716359,87.93653448809869,88.67232316696962
128.90625,90.01701325128448,86.9326193535731,89.58182508288192,88.46298061728154,87.95289516656351,88.72935117211779
131.8359375,90.08946197913748,87.06859674303224,89.65205359804443,88.50882309238128,87.97211322924618,88.79588006983874
134.765625,90.18449415238294,87.22617390896947,89.72064533864203,88.55589330792483,88.00050098813784,88.87304836867199
137.6953125,90.29734592388479,87.38870682673767,89.79689625049933,88.61294293066057,88.04871117686224,88.96301406116433
140.625,90.42182892493128,87.53708892821805,89.88888449084958,88.68646517929491,88.12367551889986,89.0656064355142
143.5546875,90.55107826874396,87.65611953957313,89.99641929479388,88.77460402756898,88.22157402499647,89.17561259031065
146.484375,90.67809746785393,87.73957463949515,90.1081052444266,88.86525541079804,88.32612813826948,89.28257564135885
149.4140625,90.79625031587577,87.79003079384142,90.2046262400571,88.93965091981414,88.4134471036818,89.37316496782992
152.34375,90.89986484659526,87.81643180215221,90.26661082435945,88.98002422576543,88.46113276590634,89.4356459403906
155.2734375,90.98506372703821,87.8290298380513,90.28341793639103,88.97769066050955,88.45734284937596,89.46444835201767
158.203125,91.05050287008868,87.83630071063016,90.25871824011189,88.9378614273075,88.40600032341,89.46303033158003
161.1328125,91.09771919387711,87.84281518837294,90.21013594955156,88.87863217728365,88.32584837064822,89.443083218583
164.0625,91.1307159277126,87.85095196881053,90.16234785404292,88.8239827412672,88.2431928007093,89.42030733599785
166.9921875,91.15487258672712,87.8624861807828,90.13628669086428,88.79334013806513,88.1806529945725,89.40812444895904
169.921875,91.17542671949076,87.88064435702395,90.13947941575148,88.79290343646679,88.14710332410407,89.412473601329
172.8515625,91.19623550859932,87.90869530293497,90.16322973808285,88.81353208655345,88.13427296196302,89.42995648251018
175.78125,91.21921500745405,87.94821688223732,90.18843561458509,88.8368157099353,88.12234368765675,89.45069064957711
178.7109375,91.24457960757245,87.99668476869374,90.19708746784552,88.84606685882325,88.09153728030087,89.46435041379578
181.640625,91.27160006029749,88.04862327136084,90.1829571776731,88.83626214852356,88.03348757348265,89.46652489275951
184.5703125,91.29937509537226,88.0978945981352,90.1556299615797,88.81733895073118,87.95647296280885,89.46144850356346
187.5,91.32720016932544,88.14150783442935,90.13553586617,88.80897694988049,87.88175263339718,89.4597546087906
190.4296875,91.35441280547231,88.18064265214556,90.14247465278837,88.82936492236892,87.83251100353209,89.47226516611141
193.359375,91.37997345768245,88.21993263427527,90.18379549136435,88.8842271672566,87.82097481710329,89.50355594355057
196.2890625,91.40215890227556,88.26361966335146,90.2492643931155,88.9624415345709,87.84109228846653,89.54856309725719
199.21875,91.41868274357824,88.31232302720616,90.31561438558316,89.04093020855055,87.87137855326186,89.59433765596799
202.1484375,91.4271222229408,88.36101889080588,90.3583007497391,89.09589197477516,87.88630580756632,89.62596362624075
205.078125,91.4255334075059,88.4012388533326,90.36357943801386,89.11415248611999,87.86959352829416,89.6337697209183
208.0078125,91.41281183270073,88.42492137763625,90.33481154785179,89.09870409802102,87.82224356923575,89.61768319558102
210.9375,91.3886789675142,88.42871266136339,90.28992299178907,89.0660503808208,87.76144519277545,89.58657690164998
213.8671875,91.35333776533767,88.41440063588078,90.25156452524627,89.03680745979854,87.71094293497573,89.55284979780292
216.796875,91.30703319432985,88.38700908954179,90.23480422656036,89.02442461537382,87.6877494923323,89.52546502030015
219.7265625,91.24975905833047,88.35071962131519,90.23907271242624,89.02784360551419,87.69237867121801,89.50492664738093
222.65625,91.18127770816,88.30707257384259,90.24856385515314,89.03207880699438,87.70836297875528,89.48302446387663
225.5859375,91.10137184887719,88.25440889625204,90.24092485816873,89.01623810539175,87.71115453748548,89.44717882649684
228.515625,91.01019409238384,88.19021297605444,90.1991663240004,88.96464355096506,87.68112666579042,89.38739390120111
231.4453125,90.90841705916901,88.11273934644275,90.12063787634722,88.87530270362197,87.61357047067435,89.30180556605384
234.375,90.79716918300642,88.02305196439744,90.018633657582,88.76159491427114,87.52084276860121,89.19814377384596
237.3046875,90.67784458037295,87.92438387487147,89.9160535850897,88.64633023441733,87.42576728016672,89.09005714567404
240.234375,90.55194675552406,87.82163195227241,89.8339542143253,88.55097807937732,87.34951698814086,88.99061841815754
243.1640625,90.42116656601867,87.71953228345552,89.78118567565103,88.48545601433733,87.30021050838369,88.90626019402114
246.09375,90.28778033034462,87.62314487160366,89.7507925839576,88.44426981484187,87.26878569462606,88.83475373930665
249.0234375,90.1551887150604,87.53846903626436,89.72567866668373,88.41121050846803,87.2346192828219,88.76811086834519
251.953125,90.02835786912831,87.47443838907564,89.69025107616741,88.37020491524018,87.17771608974137,88.69932637931251
254.8828125,89.91377334891291,87.44226831756946,89.64146840345818,88.31612004281317,87.09060505576217,88.62890483315229
257.8125,89.81880211687125,87.45281654612387,89.59283543622409,88.2594465326756,86.98361268630623,88.56729781507039
260.7421875,89.75044423713526,87.5108614751941,89.5686823028096,88.22192013297948,86.8806949670879,88.53090487229629
263.671875,89.71378857547359,87.61102197967301,89.59121874862589,88.2251498621567,86.80751799331378,88.53367541947824
266.6015625,89.71076522254356,87.73783439435731,89.66753087899608,88.27833092577052,86.77791472862471,88.57909939202328
269.53125,89.73952822757205,87.87142174286942,89.78417152475203,88.37210872213203,86.78631171413953,88.65741323249523
272.4609375,89.79474150248556,87.99488909220193,89.91269534094602,88.4820110217411,86.81066191215476,88.74942692504902
275.390625,89.86864382463119,88.09907150954109,90.02256525330797,88.57942205160865,86.82378478254984,88.83457310567618
278.3203125,89.95251080964525,88.18241593426968,90.09415032746082,88.64376076919262,86.80638705795005,88.89880881254194
281.25,90.03806133722392,88.24780943808723,90.12552585760481,88.66990448443438,86.75503957722441,88.93875566705985
284.1796875,90.1184094852108,88.29913599549909,90.13065406095605,88.6678475461867,86.68168419986978,88.96056249146787
287.109375,90.18851834218313,88.3397705941073,90.1305799261547,88.65564602321402,86.60569326467115,88.97479282685984
290.0390625,90.24491465480573,88.37209313139927,90.14157649798722,88.64890265035184,86.54214045508968,88.98969512235229
292.96875,90.28460401302745,88.39766747552713,90.16535148533282,88.65142953131138,86.49162601384246,89.00572867855607
295.8984375,90.30354173003605,88.41640266377742,90.18598209762918,88.65151567214907,86.43716235160703,89.01343212685639
298.828125,90.30185235647619,88.42976592790208,90.1819326293882,88.63118632141325,86.35456157923787,89.00145950319548
301.7578125,90.28573319959588,88.43744034443131,90.14324273449017,88.58050736324921,86.23108415584902,88.96571895071666
304.6875,90.26370908104968,88.45173341512609,90.06185072751691,88.48489226411701,86.0228782268981,88.90171085621387
307.6171875,90.26026847924747,88.45870526574393,90.04287234302731,88.46069492954541,85.964453808266,88.88668863611983
310.546875,90.25092313667247,88.47115079200145,90.00373927787567,88.411303303681,85.8449226222994,88.855167314616
313.4765625,90.24472095431196,88.48649915643709,89.97982157601763,88.37731443674616,85.74640867683463,88.83415345364557
316.40625,90.23944268059672,88.50345725140187,89.96750442402441,88.35580692464549,85.66419778467011,88.8207449414756
319.3359375,90.23350384141786,88.52123235466374,89.95939131630121,88.34042627391278,85.59030098068423,88.81044406922449
322.265625,90.22780189393936,88.54019080820851,89.94923358940927,88.32564541087655,85.51846615135133,88.80032545187694
325.1953125,90.22288267865093,88.55971633217982,89.93021623181666,88.30424250688256,85.4396739769713,88.78651663366199
328.125,90.21911835715791,88.57814037851239,89.89925328993455,88.2717774946048,85.34809774143051,88.76672424728987
331.0546875,90.21680058286562,88.59328410251412,89.85874232020012,88.22886214668682,85.24391211087135,88.74144959412212
333.984375,90.21627970941474,88.60339398026119,89.81555243554445,88.18102822938494,85.13324475342102,88.7138328270712
336.9140625,90.21799862498595,88.60766411730172,89.77764348674609,88.13599205248018,85.0250225466882,88.68804749045545
339.84375,90.22247042070057,88.6066139280255,89.7501550996837,88.10004067967928,84.92670637054067,88.66735122177673
342.7734375,90.23018776456198,88.60163824366883,89.73309397070383,88.0752977272307,84.84092431314679,88.65267635758042
345.703125,90.24151140595723,88.59454455371552,89.72172535912068,88.05928455715662,84.76481628615943,88.64254033207192
348.6328125,90.25663432489733,88.58675406132427,89.70949305348817,88.04688170264562,84.6922805757235,88.63418224737927
351.5625,90.27556546320977,88.57914365040094,89.6916562316363,88.03348606354604,84.61779401358069,88.62532589751748
354.4921875,90.29808415083086,88.5719141383921,89.66778307973142,88.01756062529454,84.5396975729003,88.61547525546086
357.421875,90.32366190381975,88.56494722761941,89.6417110864685,88.00130365455536,84.46119532602296,88.6061059824925
360.3515625,90.35137257745409,88.55780343724987,89.61918813627496,87.98909137527164,84.3886360514373,88.59957785122873
363.28125,90.37976629761836,88.54979512306618,89.60448100811112,87.98470252983657,84.3280577237698,88.5974820362159
366.2109375,90.4069310077929,88.53968731217293,89.59792155442123,87.98885589849503,84.28189750765239,88.59933250962489
369.140625,90.43067297876809,88.52574234276477,89.59564937928158,87.99844638787414,84.24768666893851,88.60237885697698
372.0703125,90.44892763108913,88.50584313527094,89.59162755055647,88.00778082775312,84.2193597536854,88.6025951813125
375.0,90.46017026038861,88.47825802167813,89.58067715524938,88.01106212948899,84.19041862574956,88.59637965920265
377.9296875,90.46379289832177,88.44231768858688,89.56087013336293,88.00479644618329,84.1571467548924,88.58204734462886
380.859375,90.46025292887438,88.39905499088536,89.53414640040766,87.98896111543222,84.1203113305687,88.56047387949593
383.7890625,90.450961511763,88.35103688700896,89.50500653596507,87.96655854535031,84.08454223786823,88.53457052981291
386.71875,90.43801155474269,88.30185643488291,89.4782983392731,87.94199446222198,84.05598611319613,88.50809339861688
389.6484375,90.4237833487247,88.25505745590702,89.45734028081323,87.91929565769492,84.03953518770234,88.48433929089467
392.578125,90.41058104035767,88.21339569275702,89.44342794592473,87.9011558339773,84.03711451890749,88.46548342265916
395.5078125,90.40036993713659,88.17825484957964,89.43670129778238,87.88902318046087,84.04770094485573,88.45262003550206
398.4375,90.39456160851049,88.14975834861328,89.43744857730132,87.8838308125868,84.06868650815454,88.44626641675197
401.3671875,90.3938868717375,88.12699871327166,89.4469438230511,87.88664017550852,84.09754456082237,88.44681035999123
404.296875,90.39833116582545,88.1085697550255,89.46710260325236,87.89863303120421,84.13277654619367,88.45457678305696
407.2265625,90.40708591230694,88.0928143738051,89.49927236424477,87.92045779778331,84.1737417097381,88.46943561542179
410.15625,90.41864067162881,88.07818980167373,89.54283719246546,87.95136310625968,84.21964504556155,88.49032221254254
413.0859375,90.43100228618236,88.06341282792124,89.59456354881955,87.98868915252973,84.26846835771795,88.51498516002653
416.015625,90.44202685960084,88.04769794550782,89.64909684634637,88.02809750275233,84.31662804972105,88.54024584141607
418.9453125,90.44977317525687,88.0308013446741,89.7004369483404,88.06458650260218,84.35962221028018,88.56269358742361
421.875,90.45280577821964,88.01308715563796,89.74360618239459,88.09377121232912,84.39336763173384,88.57954137930511
424.8046875,90.45035500416851,87.99529148261695,89.7759089001468,88.11296857188628,84.41549863524179,88.5892698628215
427.734375,90.44230271227917,87.9782337549616,89.79729102728447,88.12165990901124,84.42604263871391,88.59183054194592
430.6640625,90.4290139893724,87.96223435516309,89.80979547756439,88.12118178949042,84.42708062977383,88.58829195541776
433.59375,90.4111698646399,87.94680777485281,89.81652529370756,88.11399222307656,84.42169622688229,88.58025827219028
436.5234375,90.38958191298806,87.93047537858654,89.82049900916434,88.10271683997901,84.4126218787261,88.56919924183295
439.453125,90.3651220573286,87.9111802294972,89.82382798800867,88.08944229693586,84.40119455416095,88.55606843201576
442.3828125,90.3387196044325,87.88681413784151,89.82737467849128,88.07536189322389,84.38698870944884,88.54120470615761
445.3125,90.31137701915135,87.8560658383378,89.83088626652837,88.0608296536062,84.36818743006492,88.52455248712154
448.2421875,90.28414334764696,87.8188073586278,89.83350461716766,88.04571807179668,84.34248190072636,88.505985933027
451.171875,90.25808874464808,87.77613247390912,89.83442489060208,88.029838679925,84.3080892113193,88.4856358841158
454.1015625,90.23415213577198,87.72980256815438,89.83340532356391,88.01329926465284,84.26446245205537,88.46400567497366
457.03125,90.2130289385919,87.68165740692773,89.83095929943866,87.99657014222241,84.21244904339146,88.4419157432578
459.9609375,90.19506957673286,87.63311650675527,89.82812806754532,87.98031212460083,84.15388667789462,88.42026699219113
462.890625,90.18024364614895,87.58516222240056,89.8259433086367,87.96501877378546,84.09086551823414,88.39975880507892
465.8203125,90.16815805721316,87.53852007915205,89.82485440294802,87.95068467815685,84.02494246760268,88.38064470003442
468.75,90.15814148161763,87.4939816581353,89.82436271302856,87.93665129391503,83.95675891711844,88.36264940821923
471.6796875,90.14938141058771,87.45244716333592,89.82313496914878,87.92180264333732,83.88608069255203,88.3450836768268
474.609375,90.14101770828015,87.41488774254695,89.81945573973489,87.90492713459844,83.81230935047574,88.32709523546056
477.5390625,90.13229352717357,87.38198271230316,89.81190969193071,87.88520087688615,83.73513263607127,88.3079847050532
480.46875,90.12265924219243,87.35394141841181,89.79986968369519,87.86249988583509,83.65497828035461,88.28743979613276
483.3984375,90.11183712436929,87.33031974865813,89.78365092488198,87.83738154789575,83.57308741076683,88.26557349956452
486.328125,90.09986974415051,87.31025491086264,89.7642766256547,87.81080436673332,83.49112060750704,88.24283173390917
489.2578125,90.08708323047036,87.29267580563761,89.74295025406384,87.78371297843864,83.41056903905954,88.21974943849682
492.1875,90.07404426837115,87.2766674663765,89.72068355169094,87.75670940733717,83.3322681296569,88.19679877913455
495.1171875,90.06146084776174,87.26169749172189,89.69784592420756,87.72985855523504,83.25626542527594,88.17422610213387
498.046875,90.04972433699173,87.24774049109496,89.67437949766448,87.70259603232543,83.18172003225374,88.15197246483709
500.9765625,90.03904905448428,87.23482565193785,89.6510401595344,87.67485741859335,83.10776112361486,88.13025671016842
503.90625,90.02629875147072,87.21839000975322,89.62111748758915,87.63498001869831,82.99815524475156,88.10111436953888
506.8359375,90.01942462487065,87.20852688521624,89.60425868682627,87.610256938283,82.92646161717944,88.0837356814695
509.765625,90.01388094628295,87.19982705064078,89.59081185921661,87.58743897673487,82.85608302183343,88.06840675773287
