Freq "Front Wall Bounce"
20.5078125 75.63171061672402
23.4375 75.79818400539591
26.3671875 76.46374949611851
29.296875 77.45816477932172
32.2265625 78.64984568752482
35.15625 79.92769297756382
38.0859375 81.20970591701702
41.015625 82.43901499904821
43.9453125 83.58134135402874
46.875 84.61867198147013
49.8046875 85.54446849025922
52.734375 86.36003550686073
55.6640625 87.07142314113813
58.59375 87.58069927318368
61.5234375 88.03227675294778
64.453125 88.44148326612313
67.3828125 88.81043516748589
70.3125 89.13081075787785
73.2421875 89.38990778273914
76.171875 89.57702690505768
79.1015625 89.68951835455144
82.03125 89.73476162191555
84.9609375 89.73081801434401
87.890625 89.70096773640667
90.8203125 89.66789518540185
93.75 89.64408668085308
96.6796875 89.62909215944882
99.609375 89.60984535279037
102.5390625 89.57170407251502
105.46875 89.52092929019457
108.3984375 89.45798841016082
111.328125 89.39709450239042
114.2578125 89.35547825259216
117.1875 89.34689369032525
120.1171875 89.37530334930247
123.046875 89.43338290881866
125.9765625 89.50680618600734
128.90625 89.58182508288189
131.8359375 89.65205359804443
134.765625 89.72064533864203
137.6953125 89.79689625049933
140.625 89.88888449084958
143.5546875 89.9964192947939
146.484375 90.10810524442658
149.4140625 90.20462624005711
152.34375 90.26661082435946
155.2734375 90.28341793639103
158.203125 90.25871824011188
161.1328125 90.21013594955156
164.0625 90.16234785404292
166.9921875 90.13628669086428
169.921875 90.1394794157515
172.8515625 90.16322973808285
175.78125 90.18843561458509
178.7109375 90.19708746784553
181.640625 90.18295717767312
184.5703125 90.1556299615797
187.5 90.13553586617002
190.4296875 90.14247465278837
193.359375 90.18379549136435
196.2890625 90.24926439311551
199.21875 90.31561438558316
202.1484375 90.35830074973912
205.078125 90.36357943801387
208.0078125 90.33481154785179
210.9375 90.28992299178907
213.8671875 90.25156452524627
216.796875 90.23480422656036
219.7265625 90.2390727124262
222.65625 90.24856385515312
225.5859375 90.24092485816871
228.515625 90.1991663240004
231.4453125 90.12063787634722
234.375 90.01863365758197
237.3046875 89.91605358508968
240.234375 89.8339542143253
243.1640625 89.78118567565103
246.09375 89.75079258395762
249.0234375 89.7256786666837
251.953125 89.69025107616741
254.8828125 89.64146840345816
257.8125 89.59283543622408
260.7421875 89.5686823028096
263.671875 89.59121874862588
266.6015625 89.66753087899608
269.53125 89.78417152475203
272.4609375 89.91269534094599
275.390625 90.02256525330797
278.3203125 90.09415032746082
281.25 90.12552585760483
284.1796875 90.13065406095605
287.109375 90.1305799261547
290.0390625 90.14157649798722
292.96875 90.16535148533282
295.8984375 90.18598209762918
298.828125 90.1819326293882
301.7578125 90.14324273449016
304.6875 90.06185072751691
307.6171875 90.04287234302733
310.546875 90.00373927787567
313.4765625 89.97982157601764
316.40625 89.96750442402441
319.3359375 89.95939131630121
322.265625 89.94923358940927
325.1953125 89.93021623181666
328.125 89.89925328993453
331.0546875 89.85874232020012
333.984375 89.81555243554445
336.9140625 89.77764348674609
339.84375 89.75015509968368
342.7734375 89.73309397070383
345.703125 89.72172535912065
348.6328125 89.70949305348816
351.5625 89.6916562316363
354.4921875 89.66778307973141
357.421875 89.6417110864685
360.3515625 89.61918813627496
363.28125 89.60448100811112
366.2109375 89.59792155442122
369.140625 89.5956493792816
372.0703125 89.59162755055644
375.0 89.58067715524938
377.9296875 89.56087013336293
380.859375 89.53414640040766
383.7890625 89.50500653596507
386.71875 89.47829833927311
389.6484375 89.45734028081323
392.578125 89.44342794592473
395.5078125 89.43670129778236
398.4375 89.43744857730134
401.3671875 89.44694382305111
404.296875 89.46710260325236
407.2265625 89.49927236424477
410.15625 89.54283719246546
413.0859375 89.59456354881955
416.015625 89.64909684634637
418.9453125 89.70043694834041
421.875 89.74360618239457
424.8046875 89.77590890014679
427.734375 89.79729102728446
430.6640625 89.80979547756439
433.59375 89.81652529370757
436.5234375 89.82049900916432
439.453125 89.82382798800867
442.3828125 89.8273746784913
445.3125 89.83088626652838
448.2421875 89.83350461716766
451.171875 89.83442489060208
454.1015625 89.83340532356391
457.03125 89.83095929943867
459.9609375 89.82812806754534
462.890625 89.82594330863671
465.8203125 89.82485440294803
468.75 89.82436271302856
471.6796875 89.8231349691488
474.609375 89.81945573973489
477.5390625 89.81190969193071
480.46875 89.79986968369519
483.3984375 89.783650924882
486.328125 89.7642766256547
489.2578125 89.74295025406386
492.1875 89.72068355169095
495.1171875 89.69784592420756
498.046875 89.67437949766446
500.9765625 89.6510401595344
503.90625 89.62111748758915
506.8359375 89.60425868682626
509.765625 89.5908118592166
512.6953125 89.58781826508987
515.625 89.5796188292581
518.5546875 89.57448406134642
521.484375 89.57141108450897
524.4140625 89.56950652169947
527.34375 89.56843196670692
530.2734375 89.56805650906773
533.203125 89.56828209289857
536.1328125 89.56917531116972
539.0625 89.57088316185641
541.9921875 89.57356875989748
544.921875 89.57734440989421
547.8515625 89.58226565474219
550.78125 89.588328313643
553.7109375 89.5954701045064
556.640625 89.60359575571559
559.5703125 89.61254729566075
562.5 89.62209426229774
565.4296875 89.63193608311008
568.359375 89.64170785363014
571.2890625 89.65101564175055
574.21875 89.65951282507208
577.1484375 89.66696761456808
580.078125 89.67332196051255
583.0078125 89.67879293201743
585.9375 89.68396749576594
588.8671875 89.69013660307618
591.796875 89.69904858103821
594.7265625 89.71046904055767
597.65625 89.72277612109224
600.5859375 89.73517925279006
603.515625 89.74719909057113
606.4453125 89.75826441370401
609.375 89.76725944919119
612.3046875 89.77268777084613
615.234375 89.77510847178914
618.1640625 89.7764367909214
621.09375 89.77758567387443
624.0234375 89.77891093379198
626.953125 89.7805009570695
629.8828125 89.78224869825506
632.8125 89.78394893582892
635.7421875 89.78533221079113
638.671875 89.78613057119536
641.6015625 89.78609568834221
644.53125 89.78503995846202
647.4609375 89.7828403420173
650.390625 89.77945371619444
653.3203125 89.7749008945118
656.25 89.7692630594934
659.1796875 89.76265099242485
662.109375 89.75520820118555
665.0390625 89.74706496117184
667.96875 89.73834182613327
670.8984375 89.7291335539397
673.828125 89.71950534966373
676.7578125 89.70947029439093
679.6875 89.69902895461965
682.6171875 89.68815019857875
685.546875 89.67679035094224
688.4765625 89.66490151946192
691.40625 89.65244983568851
694.3359375 89.63941048835181
697.265625 89.62577925897709
700.1953125 89.61157984217326
703.125 89.59685986976807
706.0546875 89.57379333339232
708.984375 89.55811528205459
711.9140625 89.542173763152
714.84375 89.52603991878046
717.7734375 89.51796826920466
720.703125 89.50172483949882
723.6328125 89.48544214253076
726.5625 89.46916746687032
729.4921875 89.45294162560273
732.421875 89.43679646104702
735.3515625 89.42075996295964
738.28125 89.40485742710388
741.2109375 89.38912087536583
744.140625 89.37357327323545
747.0703125 89.35825649165929
750.0 89.34320502814926
752.9296875 89.32846300592571
755.859375 89.31407246633694
758.7890625 89.30007710901668
761.71875 89.28652294293587
764.6484375 89.27345651492698
767.578125 89.2609130189214
770.5078125 89.24894272323135
773.4375 89.23758780855678
776.3671875 89.22688451416036
779.296875 89.21689653736266
782.2265625 89.2076662460003
785.15625 89.19926478943576
788.0859375 89.19175835238576
791.015625 89.18521974048615
793.9453125 89.17973975230376
796.875 89.17539004497789
799.8046875 89.17225255492372
802.734375 89.1704062318444
805.6640625 89.16990998107248
808.59375 89.17081804874783
811.5234375 89.17316730732622
814.453125 89.17697028289982
817.3828125 89.1822284276994
820.3125 89.18892534992082
823.2421875 89.19702001361513
826.171875 89.20646821594363
829.1015625 89.21721043381632
832.03125 89.22917534967111
834.9609375 89.24229206505075
837.890625 89.2564782089121
840.8203125 89.27166398276535
843.75 89.28775967538138
846.6796875 89.30468895762854
849.609375 89.32236820839951
852.5390625 89.34070221288454
855.46875 89.35960337170124
858.3984375 89.37897367508782
861.328125 89.39871052575005
864.2578125 89.41871581942492
867.1875 89.4388815826247
870.1171875 89.45910346281379
873.046875 89.47927896297224
875.9765625 89.49931120101864
878.90625 89.5191165033872
881.8359375 89.53860705697096
884.765625 89.55772288106715
887.6953125 89.57639961288824
890.625 89.59458406891282
893.5546875 89.61222039339877
896.484375 89.62927394689355
899.4140625 89.64568407091
902.34375 89.66139552533089
905.2734375 89.67634949493046
908.203125 89.69635484352017
911.1328125 89.7089692080864
914.0625 89.72050919432375
916.9921875 89.73086437950158
919.921875 89.73433883453433
922.8515625 89.74264590867665
925.78125 89.74953024997488
928.7109375 89.7549047121584
931.640625 89.7586971802017
934.5703125 89.7608519606415
937.5 89.76131896215234
940.4296875 89.7600719746624
943.359375 89.7570966071721
946.2890625 89.75238144658168
949.21875 89.7459390088964
952.1484375 89.73777025564951
955.078125 89.72788379883947
958.0078125 89.71629241277331
960.9375 89.7029928223921
963.8671875 89.68798878574174
966.796875 89.67127159634937
969.7265625 89.65283481726283
972.65625 89.63267434758775
975.5859375 89.61077637388226
978.515625 89.58715218822778
981.4453125 89.5618136147264
984.375 89.53478006140696
987.3046875 89.5061071511442
990.234375 89.47584183242702
993.1640625 89.44406902198503
996.09375 89.41088342015472
999.0234375 89.37638478456589
1001.953125 89.34070181542207
1004.8828125 89.30394672078894
1007.8125 89.26625465485789
1010.7421875 89.22775105723906
1013.671875 89.18855099471514
1016.6015625 89.14878329566224
1019.53125 89.10855589484935
1022.4609375 89.06797799824247
1025.390625 89.02714986238354
1028.3203125 88.98617980578933
1031.25 88.94516631751705
1034.1796875 88.90422064598563
1037.109375 88.86345543327388
1040.0390625 88.82298963745396
1042.96875 88.78296070058548
1045.8984375 88.7435078693854
1048.828125 88.70479037559369
1051.7578125 88.66696431599141
1054.6875 88.63020343521765
1057.6171875 88.59467818969397
1060.546875 88.5605650664707
1063.4765625 88.52803433299901
1066.40625 88.49725613644934
1069.3359375 88.46838895378298
1072.265625 88.44158195811967
1075.1953125 88.41697638232154
1078.125 88.39469468597838
1081.0546875 88.37485221299684
1083.984375 88.35754087230077
1086.9140625 88.34284735741227
1089.84375 88.3308347697795
1092.7734375 88.32155751600635
1095.703125 88.3150463685691
1098.6328125 88.31131972025011
1101.5625 88.31038564118434
1104.4921875 88.31222040932178
1107.421875 88.31679443746363
1110.3515625 88.33114952689404
1113.28125 88.34224791166461
1116.2109375 88.35585531742095
1119.140625 88.37188147535008
1122.0703125 88.39023359233236
1125.0 88.4023901050735
1127.9296875 88.42389146957649
1130.859375 88.44744146131573
1133.7890625 88.47292041273361
1136.71875 88.50020872284529
1139.6484375 88.529180559062
1142.578125 88.55970847544359
1145.5078125 88.59165543964707
1148.4375 88.62488983601403
1151.3671875 88.65926939171415
1154.296875 88.69464978469513
1157.2265625 88.73088299673674
1160.15625 88.76782216948581
1163.0859375 88.80532185255399
1166.015625 88.84323375532702
1168.9453125 88.8814130046095
1171.875 88.91973472209048
1174.8046875 88.95806158601586
1177.734375 88.99628402963563
1180.6640625 89.03429529735372
1183.59375 89.07200012288016
1186.5234375 89.10931946206891
1189.453125 89.14618051507856
1192.3828125 89.18253061894103
1195.3125 89.21830462521001
1198.2421875 89.25345841872593
1201.171875 89.28794647392064
1204.1015625 89.3217137408677
1207.03125 89.35471860767363
1209.9609375 89.38690279257106
1212.890625 89.41820375761291
1215.8203125 89.44856279917043
1218.75 89.47791278575419
1221.6796875 89.50618503370612
1224.609375 89.5333111408734
1227.5390625 89.55923086679012
1230.46875 89.58389016808442
1233.3984375 89.60724328183036
1236.328125 89.62925327749564
1239.2578125 89.64989709368572
1242.1875 89.66916604417047
1245.1171875 89.687069907928
1248.046875 89.70361846948265
1250.9765625 89.71885172477286
1253.90625 89.73279303281222
1256.8359375 89.7454990642608
1259.765625 89.75700704399539
1262.6953125 89.7673727029992
1265.625 89.77663851545304
1268.5546875 89.78485336934894
1271.484375 89.79206055117194
1274.4140625 89.79829929312577
1277.34375 89.80360795154338
1280.2734375 89.80802008890922
1283.203125 89.81156334979255
1286.1328125 89.81427485165479
1289.0625 89.81617955584764
1291.9921875 89.81731009215599
1294.921875 89.81769347807638
1297.8515625 89.81735758729951
1300.78125 89.816332217975
1303.7109375 89.81465209649531
1306.640625 89.81234237873201
1309.5703125 89.8071570757738
1312.5 89.80342374403006
1315.4296875 89.79915726494836
1318.359375 89.79438761040629
1321.2890625 89.78914722652273
1324.21875 89.78346207731411
1327.1484375 89.77737786736765
1330.078125 89.77378789303833
1333.0078125 89.76723799858301
1335.9375 89.76040962490788
1338.8671875 89.75335991602374
1341.796875 89.74614101273332
1344.7265625 89.73881778094271
1347.65625 89.73145014192737
1350.5859375 89.7241016125268
1353.515625 89.71683232811624
1356.4453125 89.70969607639601
1359.375 89.70274904749277
1362.3046875 89.69603710249837
1365.234375 89.68959326451302
1368.1640625 89.68344943611778
1371.09375 89.67762540803207
1374.0234375 89.67213607575017
1376.953125 89.6669758790983
1379.8828125 89.66214958364384
1382.8125 89.6576438230663
1385.7421875 89.65344483525034
1388.671875 89.64953668949349
1391.6015625 89.6459082198653
1394.53125 89.64253601916165
1397.4609375 89.63941545752715
1400.390625 89.63653268686484
1403.3203125 89.63388575014648
1406.25 89.63146989325591
1409.1796875 89.62929485852759
1412.109375 89.62737013951667
1415.0390625 89.62570844188363
1417.96875 89.62432946513596
1420.8984375 89.62324927881366
1423.828125 89.6224859338712
1426.7578125 89.62206305247324
1429.6875 89.62199296888839
1432.6171875 89.62229300909011
1435.546875 89.62297369886278
1438.4765625 89.62404238323614
1441.40625 89.62549770595166
1444.3359375 89.62734280709967
1447.265625 89.62956120911765
1450.1953125 89.63214512107385
1453.125 89.63507038811017
1456.0546875 89.63831402882589
1458.984375 89.64184687334891
1461.9140625 89.64563717280748
1464.84375 89.64965065860235
1467.7734375 89.65385464048686
1470.703125 89.6582047187081
1473.6328125 89.66267166451476
1476.5625 89.6672144325518
1479.4921875 89.67179910065578
1482.421875 89.6763965005607
1485.3515625 89.68097213467041
1488.28125 89.68550254954563
1491.2109375 89.68996266257497
1494.140625 89.69433022746524
1497.0703125 89.6985825874365
1500.0 89.70270337225742
1502.9296875 89.70667719313619
1505.859375 89.71048708144082
1508.7890625 89.714123946362
1511.71875 89.71894212145506
1514.6484375 89.72207672756194
1517.578125 89.72500592233995
1520.5078125 89.72771904252161
1523.4375 89.7302121427921
1526.3671875 89.73248078001502
1529.296875 89.73452227142303
1532.2265625 89.73633235140889
1535.15625 89.73680283031774
1538.0859375 89.73826398468623
1541.015625 89.7394809104679
1543.9453125 89.74044028263718
1546.875 89.74114055818697
1549.8046875 89.74156130547242
1552.734375 89.74169061293294
1555.6640625 89.74151078050855
1558.59375 89.74099911151453
1561.5234375 89.74014136151752
1564.453125 89.73891362135848
1567.3828125 89.73729771391827
1570.3125 89.73527688003414
1573.2421875 89.73283041096559
1576.171875 89.72994628263999
1579.1015625 89.72661073409759
1582.03125 89.72281298823897
1584.9609375 89.71855154428879
1587.890625 89.71382076227597
1590.8203125 89.70861834357062
1593.75 89.70295215544704
1596.6796875 89.69681977159985
1599.609375 89.69023441418852
1602.5390625 89.6831974791515
1605.46875 89.67572010588468
1608.3984375 89.66781472209215
1611.328125 89.65949272311927
1614.2578125 89.65076045958693
1617.1875 89.64163755550202
1620.1171875 89.63213035839678
1623.046875 89.6222580864629
1625.9765625 89.6120377529456
1628.90625 89.60148546010362
1631.8359375 89.59062133255247
1634.765625 89.57946729484101
1637.6953125 89.56804382260513
1640.625 89.55638106902758
1643.5546875 89.54449685763143
1646.484375 89.53241703446726
1649.4140625 89.52016932006472
1652.34375 89.50777319153332
1655.2734375 89.49525098042
1658.203125 89.48262036756282
1661.1328125 89.46989939943629
1664.0625 89.45710082918792
1666.9921875 89.44423442084516
1669.921875 89.43130615524855
1672.8515625 89.41832761377611
1675.78125 89.40529740609799
1678.7109375 89.39222805064905
1681.640625 89.37910993604471
1684.5703125 89.36595655769996
1687.5 89.35276840127474
1690.4296875 89.33956012743035
1693.359375 89.32633059702293
1696.2890625 89.31309711140669
1699.21875 89.29987342653446
1702.1484375 89.28667465542625
1705.078125 89.27351628398269
1708.0078125 89.26042065903792
1710.9375 89.24740501339646
1713.8671875 89.22838236766813
1716.796875 89.2156633544134
1719.7265625 89.20308035679473
1722.65625 89.19064631394771
1725.5859375 89.1783807142676
1728.515625 89.1662924948882
1731.4453125 89.15440126479888
1734.375 89.14271538147928
1737.3046875 89.1373059978452
1740.234375 89.12595939242107
1743.1640625 89.114852742972
1746.09375 89.10399060805483
1749.0234375 89.09338525375694
1751.953125 89.08303961376862
1754.8828125 89.07295898688488
1757.8125 89.06314766269799
1760.7421875 89.05360726246246
1763.671875 89.04434041386
1766.6015625 89.03534958054844
1769.53125 89.02663282154867
1772.4609375 89.01819559975448
1775.390625 89.01003420634541
1778.3203125 89.00215118986712
1781.25 88.99454611499014
1784.1796875 88.9872108430593
1787.109375 88.98014101852812
1790.0390625 88.97333039062929
1792.96875 88.96677271554343
1795.8984375 88.96045292496756
1798.828125 88.95436136398075
1801.7578125 88.94849081673708
1804.6875 88.94282784093163
1807.6171875 88.9373591409581
1810.546875 88.93208366199764
1813.4765625 88.92699432138794
1816.40625 88.92209353062597
1819.3359375 88.91737317090514
1822.265625 88.91285001488825
1825.1953125 88.90852522231303
1828.125 88.9044172915575
1831.0546875 88.90053624878486
1833.984375 88.8968944910506
1836.9140625 88.8935150651202
1839.84375 88.89041188203605
1842.7734375 88.88759218921149
1845.703125 88.88508080085796
1848.6328125 88.88287938499981
1851.5625 88.88100177916684
1854.4921875 88.8794502399763
1857.421875 88.87823317564762
1860.3515625 88.87734579016836
1863.28125 88.87678874289452
1866.2109375 88.87656695359287
1869.140625 88.87667243036167
1872.0703125 88.8771059767336
1875.0 88.87786348307277
1877.9296875 88.87894283581615
1880.859375 88.88034892521077
1883.7890625 88.882070010779
1886.71875 88.88411929984704
1889.6484375 88.88649078294571
1892.578125 88.88918703175659
1895.5078125 88.89221349781974
1898.4375 88.89556696852166
1901.3671875 88.89925981013764
1904.296875 88.90328324525564
1907.2265625 88.90764973880493
1910.15625 88.91235884386977
1913.0859375 88.91740996090081
1916.015625 88.92623502101485
1918.9453125 88.93217127999006
1921.875 88.93845124655901
1924.8046875 88.94507745727498
1927.734375 88.95203865904563
1930.6640625 88.95934549127252
1933.59375 88.96697955540428
1936.5234375 88.97493408213332
1939.453125 88.98320057972565
1942.3828125 88.98785429686299
1945.3125 88.99650536593724
1948.2421875 89.0054222915234
1951.171875 89.01457614268159
1954.1015625 89.02394522350936
1957.03125 89.03349794954582
1959.9609375 89.04320439792781
1962.890625 89.05304025279793
1965.8203125 89.06297406336078
1968.75 89.07297661458466
1971.6796875 89.0830280483996
1974.609375 89.0931029507436
1977.5390625 89.10318464861444
1980.46875 89.11325972082149
1983.3984375 89.12331677201874
1986.328125 89.1333449799067
1989.2578125 89.14332613530553
1992.1875 89.15326222793888
1995.1171875 89.16314423719663
1998.046875 89.17295816212587
2000.9765625 89.18269347977494
2003.90625 89.19234592010164
2006.8359375 89.20189505660395
2009.765625 89.21133119289762
2012.6953125 89.22064115907585
