Freq "Side Wall Bounce"
20.5078125 74.64853572568273
23.4375 74.81500911435465
26.3671875 75.48057460507725
29.296875 76.47498988828045
32.2265625 77.66667079648354
35.15625 78.94451808652255
38.0859375 80.22653102597576
41.015625 81.45584010800695
43.9453125 82.59816646298745
46.875 83.63549709042884
49.8046875 84.56129359921795
52.734375 85.37686061581945
55.6640625 86.08824825009685
58.59375 86.61047537306885
61.5234375 87.08332215480088
64.453125 87.51691573484207
67.3828125 87.90991150352372
70.3125 88.25226966477553
73.2421875 88.53063368490675
76.171875 88.73433062704663
79.1015625 88.8597860163289
82.03125 88.91341268114175
84.9609375 88.91102157473736
87.890625 88.87518556692578
90.8203125 88.82847615101952
93.75 88.78694979407466
96.6796875 88.75463369386515
99.609375 88.72429457360397
102.5390625 88.68330400107254
105.46875 88.63538107633342
108.3984375 88.58151962301362
111.328125 88.5301829994126
114.2578125 88.49408666536802
117.1875 88.48327406649292
120.1171875 88.50013969460281
123.046875 88.53850328651893
125.9765625 88.58718005932991
128.90625 88.63618772944787
131.8359375 88.6820302045476
134.765625 88.72910042009116
137.6953125 88.78615004282689
140.625 88.85967229146124
143.5546875 88.94781113973531
146.484375 89.03846252296437
149.4140625 89.11285803198047
152.34375 89.15323133793176
155.2734375 89.15089777267588
158.203125 89.11106853947382
161.1328125 89.05183928944997
164.0625 88.99718985343353
166.9921875 88.96654725023146
169.921875 88.96611054863311
172.8515625 88.98673919871977
175.78125 89.01002282210162
178.7109375 89.01927397098957
181.640625 89.00946926068988
184.5703125 88.99054606289751
187.5 88.98218406204681
190.4296875 89.00257203453525
193.359375 89.05743427942292
196.2890625 89.13564864673722
199.21875 89.21413732071687
202.1484375 89.26909908694148
205.078125 89.28735959828632
208.0078125 89.27191121018734
210.9375 89.23925749298712
213.8671875 89.21001457196486
216.796875 89.19763172754014
219.7265625 89.20105071768052
222.65625 89.2052859191607
225.5859375 89.18944521755807
228.515625 89.13785066313139
231.4453125 89.0485098157883
234.375 88.93480202643747
237.3046875 88.81953734658366
240.234375 88.72418519154364
243.1640625 88.65866312650365
246.09375 88.6174769270082
249.0234375 88.58441762063435
251.953125 88.5434120274065
254.8828125 88.48932715497949
257.8125 88.43265364484192
260.7421875 88.3951272451458
263.671875 88.39835697432302
266.6015625 88.45153803793684
269.53125 88.54531583429835
272.4609375 88.65521813390743
275.390625 88.75262916377497
278.3203125 88.81696788135895
281.25 88.8431115966007
284.1796875 88.84105465835303
287.109375 88.82885313538034
290.0390625 88.82210976251817
292.96875 88.8246366434777
295.8984375 88.8247227843154
298.828125 88.80439343357958
301.7578125 88.75371447541553
304.6875 88.65809937628333
307.6171875 88.63390204171174
310.546875 88.58451041584732
313.4765625 88.55052154891249
316.40625 88.52901403681182
319.3359375 88.5136333860791
322.265625 88.49885252304287
325.1953125 88.47744961904888
328.125 88.44498460677113
331.0546875 88.40206925885315
333.984375 88.35423534155126
336.9140625 88.3091991646465
339.84375 88.2732477918456
342.7734375 88.24850483939703
345.703125 88.23249166932294
348.6328125 88.22008881481194
351.5625 88.20669317571236
354.4921875 88.19076773746086
357.421875 88.17451076672168
360.3515625 88.16229848743797
363.28125 88.15790964200289
366.2109375 88.16206301066136
369.140625 88.17165350004046
372.0703125 88.18098793991945
375.0 88.18426924165531
377.9296875 88.17800355834962
380.859375 88.16216822759854
383.7890625 88.13976565751663
386.71875 88.11520157438831
389.6484375 88.09250276986124
392.578125 88.07436294614362
395.5078125 88.06223029262719
398.4375 88.05703792475312
401.3671875 88.05984728767484
404.296875 88.07184014337054
407.2265625 88.09366490994964
410.15625 88.124570218426
413.0859375 88.16189626469605
416.015625 88.20130461491866
418.9453125 88.2377936147685
421.875 88.26697832449544
424.8046875 88.28617568405261
427.734375 88.29486702117757
430.6640625 88.29438890165675
433.59375 88.28719933524289
436.5234375 88.27592395214533
439.453125 88.26264940910218
442.3828125 88.24856900539021
445.3125 88.23403676577253
448.2421875 88.21892518396301
451.171875 88.20304579209133
454.1015625 88.18650637681917
457.03125 88.16977725438873
459.9609375 88.15351923676715
462.890625 88.13822588595178
465.8203125 88.12389179032317
468.75 88.10985840608136
471.6796875 88.09500975550364
474.609375 88.07813424676476
477.5390625 88.05840798905247
480.46875 88.03570699800142
483.3984375 88.01058866006207
486.328125 87.98401147889965
489.2578125 87.95692009060497
492.1875 87.9299165195035
495.1171875 87.90306566740136
498.046875 87.87580314449175
500.9765625 87.84806453075967
503.90625 87.80818713086464
506.8359375 87.78346405044933
509.765625 87.7606460889012
512.6953125 87.75186681056125
515.625 87.7324391432154
518.5546875 87.71517722240252
521.484375 87.69948662728626
524.4140625 87.68468381923134
527.34375 87.67045669758967
530.2734375 87.65685415126183
533.203125 87.64395972147038
536.1328125 87.63195001350093
539.0625 87.62104737996343
541.9921875 87.61144286108215
544.921875 87.60327129826705
547.8515625 87.59657766351137
550.78125 87.59133459751573
553.7109375 87.5874544396749
556.640625 87.58478736269272
559.5703125 87.58312631373269
562.5 87.58220942104624
565.4296875 87.58170141695894
568.359375 87.58123602805463
571.2890625 87.58044527130687
574.21875 87.57902283163683
577.1484375 87.57679903679316
580.078125 87.57379964144944
583.0078125 87.5702983597626
585.9375 87.56692622584055
588.8671875 87.56494953282913
591.796875 87.56605288010515
594.7265625 87.57011283463663
597.65625 87.57567770943186
600.5859375 87.58198762525599
603.515625 87.58853448352454
606.4453125 87.59470938303049
609.375 87.59937902904842
612.3046875 87.60105427662593
615.234375 87.60007018071134
618.1640625 87.5980538803842
621.09375 87.595753871222
624.0234375 87.59342368265582
626.953125 87.59108720116043
629.8828125 87.58859842391199
632.8125 87.58572379711563
635.7421875 87.58217371260727
638.671875 87.57767524400022
641.6015625 87.5719729362614
644.53125 87.56487865037555
647.4609375 87.55626330783083
650.390625 87.54607015407692
653.3203125 87.53431554759229
656.25 87.52106747223263
659.1796875 87.50641847413053
662.109375 87.49049968386316
665.0390625 87.47342911731185
667.96875 87.45531781709278
670.8984375 87.43625119453165
673.828125 87.41629025781222
676.7578125 87.3954642829764
679.6875 87.37376801726228
682.6171875 87.3511939567288
685.546875 87.3277104642303
688.4765625 87.30329684083011
691.40625 87.27793655652162
694.3359375 87.25163210642133
697.265625 87.2244006195939
700.1953125 87.19628163415487
703.125 87.16733452374552
706.0546875 87.12227290566584
708.984375 87.09164296882241
711.9140625 87.06045370431231
714.84375 87.02877755726348
717.7734375 87.01267295302206
720.703125 86.98041476885035
723.6328125 86.94780525204804
726.5625 86.91488831912753
729.4921875 86.88170442002443
732.421875 86.84829572017011
735.3515625 86.81470468963965
738.28125 86.78097833658394
741.2109375 86.74717149701337
744.140625 86.71335536552542
747.0703125 86.67960102424829
750.0 86.64598615129363
752.9296875 86.61259845090783
755.859375 86.579517238683
758.7890625 86.54682581506836
761.71875 86.51459722983067
764.6484375 86.48290259402694
767.578125 86.4518061220677
770.5078125 86.42136279953203
773.4375 86.39163106706062
776.3671875 86.36266536396461
779.296875 86.33453071617997
782.2265625 86.30730168700231
785.15625 86.28106765068745
788.0859375 86.25592878128447
791.015625 86.23200680698028
793.9453125 86.20943119398518
796.875 86.1883364546068
799.8046875 86.16886420917683
802.734375 86.15115028942337
805.6640625 86.13531621453615
808.59375 86.1214624383791
811.5234375 86.10967126745867
814.453125 86.09999045972535
817.3828125 86.09244186082647
820.3125 86.08700638273798
823.2421875 86.0836530267049
826.171875 86.08232440770348
829.1015625 86.08294714018119
832.03125 86.08544459080515
834.9609375 86.08972966342205
837.890625 86.09573578903503
840.8203125 86.10338706666396
843.75 86.11262663230828
846.6796875 86.12340176120057
849.609375 86.13567114076145
852.5390625 86.14939622909543
855.46875 86.16452003802065
858.3984375 86.18099324385392
861.328125 86.19874854231293
864.2578125 86.21769719992527
867.1875 86.23773401672167
870.1171875 86.25873756941377
873.046875 86.28056722887999
875.9765625 86.3030749557229
878.90625 86.32610754611449
881.8359375 86.34950919136456
884.765625 86.3731346196002
887.6953125 86.3968482342552
890.625 86.4205311781601
893.5546875 86.4440868522521
896.484375 86.4674278401574
899.4140625 86.49048212886933
902.34375 86.51319528525508
905.2734375 86.5355060773683
908.203125 86.56754659092
911.1328125 86.58850781713453
914.0625 86.60879670813371
916.9921875 86.62829947577808
919.921875 86.63677520913163
922.8515625 86.65473820549141
925.78125 86.6715734073561
928.7109375 86.68713723125516
931.640625 86.70128639775635
934.5703125 86.71388353027221
937.5 86.72479968440554
940.4296875 86.73392105575999
943.359375 86.74114916418868
946.2890625 86.74641721758287
949.21875 86.74966583297362
952.1484375 86.75086691791569
955.078125 86.74999785321114
958.0078125 86.7470539086327
960.9375 86.74203667652482
963.8671875 86.73494737923559
966.796875 86.72578874515935
969.7265625 86.71455804104728
972.65625 86.7012469121998
975.5859375 86.68583787937426
978.515625 86.66830576787777
981.4453125 86.64862739177642
984.375 86.6267757237074
987.3046875 86.6027230381359
990.234375 86.57645882965642
993.1640625 86.54797567913391
996.09375 86.51727516691713
999.0234375 86.48438223016736
1001.953125 86.44932446696794
1004.8828125 86.41215241110538
1007.8125 86.37291844740523
1010.7421875 86.33168321804985
1013.671875 86.28851125484762
1016.6015625 86.24347409624764
1019.53125 86.1966337529081
1022.4609375 86.14805298374822
1025.390625 86.09779309525945
1028.3203125 86.04590705256749
1031.25 85.99245143015915
1034.1796875 85.93747673891183
1037.109375 85.88104710572225
1040.0390625 85.82323045683637
1042.96875 85.76410442295554
1045.8984375 85.7037595435306
1048.828125 85.64230588407851
1051.7578125 85.57986520255439
1054.6875 85.51657488044413
1057.6171875 85.45259747984018
1060.546875 85.38809976200763
1063.4765625 85.3232550372356
1066.40625 85.2582639169969
1069.3359375 85.19331256084803
1072.265625 85.12860330245242
1075.1953125 85.0643324595381
1078.125 85.00070376575408
1081.0546875 84.93791882879988
1083.984375 84.87617656560232
1086.9140625 84.8156845717156
1089.84375 84.75664223796858
1092.7734375 84.69926110667193
1095.703125 84.64375256735346
1098.6328125 84.59032717781119
1101.5625 84.53920527630032
1104.4921875 84.49060878809628
1107.421875 84.4447515238691
1110.3515625 84.38484294426583
1113.28125 84.34690696523023
1116.2109375 84.31239812494837
1119.140625 84.2814718035672
1122.0703125 84.25427755331523
1125.0 84.24626827506155
1127.9296875 84.22494057073119
1130.859375 84.20756726806853
1133.7890625 84.1941905793542
1136.71875 84.18484296291307
1139.6484375 84.1795200234814
1142.578125 84.1781931363988
1145.5078125 84.18081049674412
1148.4375 84.18729180229617
1151.3671875 84.19754367066992
1154.296875 84.21144282426957
1157.2265625 84.22886088639638
1160.15625 84.24964820803638
1163.0859375 84.27363954033711
1166.015625 84.30066848157934
1168.9453125 84.33056596951596
1171.875 84.36314240181352
1174.8046875 84.39822339998912
1177.734375 84.43563607063969
1180.6640625 84.47519756032432
1183.59375 84.5167420283576
1186.5234375 84.56010017266564
1189.453125 84.60511543755938
1192.3828125 84.65163024278799
1195.3125 84.6994934669238
1198.2421875 84.74855098717734
1201.171875 84.79865533955272
1204.1015625 84.84964922889733
1207.03125 84.90137185875751
1209.9609375 84.95365786823872
1212.890625 85.00633025489742
1215.8203125 85.05920567388404
1218.75 85.1120924971288
1221.6796875 85.16479785860635
1224.609375 85.21712091281995
1227.5390625 85.26886133318337
1230.46875 85.31982401831965
1233.3984375 85.36982794582228
1236.328125 85.41869469945662
1239.2578125 85.46626102292691
1242.1875 85.51239527734975
1245.1171875 85.5569688207458
1248.046875 85.59988688596059
1250.9765625 85.6410718258895
1253.90625 85.68046106076025
1256.8359375 85.71801565821663
1259.765625 85.75371270688791
1262.6953125 85.78754027990844
1265.625 85.81949741855776
1268.5546875 85.8495974999472
1271.484375 85.87784912976157
1274.4140625 85.90427597216168
1277.34375 85.92890303223126
1280.2734375 85.95174589812788
1283.203125 85.9728349070179
1286.1328125 85.99219100474843
1289.0625 86.00984008541528
1291.9921875 86.02580067777225
1294.921875 86.04009315306874
1297.8515625 86.05273763287545
1300.78125 86.06373937644238
1303.7109375 86.07310645444
1306.640625 86.08084315594002
1309.5703125 86.08750697191866
1312.5 86.09112514669197
1315.4296875 86.09307718622617
1318.359375 86.09334240919073
1321.2890625 86.09191900235585
1324.21875 86.08879972457724
1327.1484375 86.08398050486026
1330.078125 86.07887005639455
1333.0078125 86.07156912789392
1335.9375 86.06264256957408
1338.8671875 86.0521390765093
1341.796875 86.04012282884253
1344.7265625 86.0266647692573
1347.65625 86.01185217358102
1350.5859375 85.99578037191452
1353.515625 85.978561553943
1356.4453125 85.96029972565849
1359.375 85.94111556919717
1362.3046875 85.92111931427291
1365.234375 85.90042742530143
1368.1640625 85.87914535123868
1371.09375 85.8573762195632
1374.0234375 85.83521406617726
1376.953125 85.81274252563836
1379.8828125 85.7900400481194
1382.8125 85.7671796257146
1385.7421875 85.74422239838725
1388.671875 85.72123521741251
1391.6015625 85.69827554117737
1394.53125 85.67539908442433
1397.4609375 85.6526709851272
1400.390625 85.63014634170759
1403.3203125 85.60789537298695
1406.25 85.58598282319691
1409.1796875 85.5644802260806
1412.109375 85.54345599455718
1415.0390625 85.52299173854655
1417.96875 85.50315776179491
1420.8984375 85.48403676796181
1423.828125 85.46569995144094
1426.7578125 85.44822259056232
1429.6875 85.43168087604695
1432.6171875 85.41614487958151
1435.546875 85.40168468567799
1438.4765625 85.38836315615636
1441.40625 85.37624534038149
1444.3359375 85.36539540393618
1447.265625 85.35585679836797
1450.1953125 85.34768423953618
1453.125 85.34091720604647
1456.0546875 85.33558625389153
1458.984375 85.33171183777685
1461.9140625 85.329306370065
1464.84375 85.32835818770943
1467.7734375 85.32885712499682
1470.703125 85.33077196253973
1473.6328125 85.33405114054773
1476.5625 85.33864641241522
1479.4921875 85.34448020352296
1482.421875 85.35147885187757
1485.3515625 85.35956313862418
1488.28125 85.36864159944736
1491.2109375 85.3786287958537
1494.140625 85.38944259075501
1497.0703125 85.40099814130852
1500.0 85.41322207136834
1502.9296875 85.42604757107269
1505.859375 85.4394104967575
1508.7890625 85.45326097715105
1511.71875 85.4752439600315
1514.6484375 85.49005930166251
1517.578125 85.50519557608368
1520.5078125 85.5206017104197
1523.4375 85.53622874001536
1526.3671875 85.55202563218614
1529.296875 85.56793363499784
1532.2265625 85.5838928548734
1535.15625 85.59174786881138
1538.0859375 85.60753675968814
1541.015625 85.62320039980462
1543.9453125 85.63866165333548
1546.875 85.65384466430416
1549.8046875 85.66867047146171
1552.734375 85.68306000229009
1555.6640625 85.69693144400024
1558.59375 85.71021083202865
1561.5234375 85.72281762450555
1564.453125 85.73468181623976
1567.3828125 85.74573090498302
1570.3125 85.75590272915667
1573.2421875 85.76514184349661
1576.171875 85.77339321622694
1579.1015625 85.78060924659462
1582.03125 85.78675071374587
1584.9609375 85.79178419141996
1587.890625 85.79568064124201
1590.8203125 85.79841465248779
1593.75 85.79996835348538
1596.6796875 85.80032699262786
1599.609375 85.79947531387664
1602.5390625 85.79740978748504
1605.46875 85.79411511104865
1608.3984375 85.78959637995665
1611.328125 85.78384123520227
1614.2578125 85.7768583587909
1617.1875 85.76864037795016
1620.1171875 85.75919500002942
1623.046875 85.74852341736614
1625.9765625 85.73663720362384
1628.90625 85.72353967106852
1631.8359375 85.70925676049575
1634.765625 85.69379602309141
1637.6953125 85.67718556955809
1640.625 85.6594495221894
1643.5546875 85.64062696167309
1646.484375 85.62075127311354
1649.4140625 85.59987312925219
1652.34375 85.57803193241776
1655.2734375 85.55529111724154
1658.203125 85.53170455797627
1661.1328125 85.5073363687398
1664.0625 85.48224937334999
1666.9921875 85.45651318379436
1669.921875 85.43019507015333
1672.8515625 85.40336135361113
1675.78125 85.37608554305397
1678.7109375 85.3484293797076
1681.640625 85.32046274696289
1684.5703125 85.29224760581735
1687.5 85.26384757054065
1690.4296875 85.23532398168872
1693.359375 85.20673273345326
1696.2890625 85.17813835960632
1699.21875 85.1495942471532
1702.1484375 85.12116448781836
1705.078125 85.09290514471525
1708.0078125 85.06487826067054
1710.9375 85.03714982721831
1713.8671875 84.99702891675457
1716.796875 84.97044842187582
1719.7265625 84.94440449254378
1722.65625 84.91897898372946
1725.5859375 84.89423631052497
1728.515625 84.87026223649377
1731.4453125 84.84713223030836
1734.375 84.82492007314622
1737.3046875 84.81585107886316
1740.234375 84.79526115644813
1743.1640625 84.77577501263188
1746.09375 84.75746087482023
1749.0234375 84.74038948666441
1751.953125 84.72461129644955
1754.8828125 84.71018313416096
1757.8125 84.69715700209177
1760.7421875 84.6855672739895
1763.671875 84.67544648403728
1766.6015625 84.6668160953704
1769.53125 84.6597019961382
1772.4609375 84.65410091471514
1775.390625 84.65002394247796
1778.3203125 84.64746282002983
1781.25 84.64640338675903
1784.1796875 84.64683036452261
1787.109375 84.64871137034588
1790.0390625 84.65201320987373
1792.96875 84.65669579798521
1795.8984375 84.66271405679927
1798.828125 84.67001327007722
1801.7578125 84.67853564690014
1804.6875 84.68821659995133
1807.6171875 84.6989931907516
1810.546875 84.71078907906303
1813.4765625 84.72354266014234
1816.40625 84.73717831228251
1819.3359375 84.75162680843466
1822.265625 84.76681932015825
1825.1953125 84.78269497154969
1828.125 84.79918670326589
1831.0546875 84.81623648239646
1833.984375 84.83379039438807
1836.9140625 84.8517902043649
1839.84375 84.87019113540971
1842.7734375 84.88893468716492
1845.703125 84.90797102457547
1848.6328125 84.92725390430434
1851.5625 84.9467225825514
1854.4921875 84.966327035792
1857.421875 84.98601015241064
1860.3515625 85.00571466820358
1863.28125 85.02537501537006
1866.2109375 85.04493456890215
1869.140625 85.06432697502416
1872.0703125 85.0834933471199
1875.0 85.10237550215399
1877.9296875 85.12091405895858
1880.859375 85.13905722562238
1883.7890625 85.15674910882544
1886.71875 85.17394826135755
1889.6484375 85.19061173735336
1892.578125 85.20670411303257
1895.5078125 85.22219371488697
1898.4375 85.23705039437259
1901.3671875 85.25125124522408
1904.296875 85.26478252298052
1907.2265625 85.27762391914104
1910.15625 85.28976751792337
1913.0859375 85.30119884154541
1916.015625 85.31575401514436
1918.9453125 85.32541149482265
1921.875 85.33433545180225
1924.8046875 85.34253093995599
1927.734375 85.34999457737351
1930.6640625 85.3567281058997
1933.59375 85.36273493927584
1936.5234375 85.36801894144213
1939.453125 85.37258821700863
1942.3828125 85.37329507542073
1945.3125 85.37678717282891
1948.2421875 85.37957507258865
1951.171875 85.38166985607982
1954.1015625 85.38307548202197
1957.03125 85.38379655964178
1959.9609375 85.38383565217035
1962.890625 85.38319611099277
1965.8203125 85.3818871760674
1968.75 85.37991299571266
1971.6796875 85.37728288278123
1974.609375 85.37401101431554
1977.5390625 85.37011678368444
1980.46875 85.3656218825289
1983.3984375 85.36055064817299
1986.328125 85.35494105539597
1989.2578125 85.34882456849604
1992.1875 85.3422405076463
1995.1171875 85.33522670915053
1998.046875 85.32783009438819
2000.9765625 85.3200926131586
2003.90625 85.3120497809185
2006.8359375 85.30374548534968
2009.765625 85.2952172929161
2012.6953125 85.2865036119115
