Freq,On Axis,Listening Window,Sound Power,Early Reflections,Early Reflections DI,Sound Power DI,DI offset
22.4,-14.165822784810146,-4.734343972458035,-9.436090830593841,-7.659080205774799,32.924736233316764,34.701746858135806,30
23.0,-12.865822784810135,-3.979120944787084,-7.638692048981355,-6.332343470771107,32.35322252598402,33.65957110419427,30
23.6,-11.165822784810146,-3.6093165800877074,-5.6734811962270015,-4.983876595852635,31.374560015764928,32.064164616139294,30
24.0,-7.565822784810123,-3.4445122870571794,-4.041781446644578,-3.701617161181119,30.25710487412394,30.5972691595874,30
25.0,-4.665822784810146,-2.779420520164919,-2.2566263964738624,-2.1362866570903662,29.356866136925447,29.477205876308943,30
25.8,-2.3658227848101347,-2.1244045111182146,-0.2889008728305811,-0.45712128771508276,28.332716776596868,28.164496361712366,30
26.5,-0.4658227848101575,-1.577608149653443,1.9572907295348472,1.2761154543558888,27.146276395990668,26.46510112081171,30
27.2,1.1341772151898653,0.28904931508158427,2.6090416052658014,1.9516920966942024,28.337357218387382,27.680007709815783,30
28.0,2.334177215189854,2.8185377645527154,3.331436262572069,3.0189525946365023,29.799585169916213,29.487101501980646,30
29.0,2.534177215189871,5.928172869017303,4.163722357428995,4.334590245200829,31.593582623816474,31.764450511588308,30
30.0,0.6341772151898653,8.883799861697256,5.786926326407709,6.334793654862423,32.54900620683483,33.09687353528955,30
30.7,4.134177215189865,8.550659169345934,8.386030592498273,8.378145836189233,30.1725133331567,30.16462857684766,30
31.5,7.534177215189871,9.685221406729497,11.137904132629203,11.138223116584825,28.54699829014467,28.547317274100294,30
32.5,10.634177215189865,11.106142101205862,13.76715322785138,13.93733063899019,27.168811462215672,27.33898887335448,30
33.5,12.034177215189843,12.535502112217543,14.857331980466952,14.885218154986418,27.650283957231125,27.67817013175059,30
34.5,13.23417721518986,14.323815813266165,15.239013908550007,15.070508059698895,29.25330775356727,29.08480190471616,30
35.5,14.634177215189865,15.789852140121454,14.555568135982796,14.670266629871819,31.119585510249635,31.234284004138658,30
36.5,16.634177215189865,15.320802784524787,13.723796448866139,14.626310278741684,30.694492505783103,31.597006335658648,30
37.5,19.134177215189865,16.307677162599006,14.971362454880008,16.1590994958991,30.148577666699907,31.336314707718998,30
38.7,22.634177215189865,19.3023329647542,18.270542009787036,19.87386067796554,29.42847228678866,31.031790954967164,30
40.0,23.634177215189865,21.98276664942152,18.712111962329445,20.81998247150709,31.162784177914432,33.270654687092076,30
41.2,24.834177215189854,24.41466941477863,20.03464542053767,22.194480117870214,32.220189296908416,34.38002399424096,30
42.5,25.03417721518987,25.591700767468367,21.274857924357363,23.207620674687618,32.38408009278075,34.316842843111004,30
43.7,24.23417721518986,25.87257118905852,22.050556752723352,23.713911674362194,32.158659514696325,33.82201443633517,30
45.0,23.634177215189865,26.778351042682104,23.950672739778938,25.23564582265,31.542705220032104,32.827678302903166,30
46.2,27.434177215189877,30.599755759768343,28.776782044183378,29.66973602876068,30.93001973100766,31.822973715584965,30
47.5,31.434177215189877,33.97268289557503,32.43571404249268,33.18544313148415,30.787239764090884,31.536968853082357,30
48.7,29.934177215189877,34.15344112776715,32.30675335960542,32.79144853330463,31.36199259446252,31.84668776816173,30
50.0,30.934177215189877,35.57058481140852,33.65022740249823,34.1088001212061,31.46178469020242,31.92035740891029,30
51.5,33.334177215189854,37.191299869986736,35.2858139590961,35.810136575685604,31.381163294301132,31.905485910890633,30
53.0,37.53417721518987,38.04854054225707,36.4891856053561,37.459979749919924,30.588560792337148,31.559354936900974,30
54.5,39.334177215189854,38.254560224942665,35.616869233592,37.35049009641948,30.904070128523188,32.63769099135067,30
56.0,40.73417721518986,39.389380471551775,36.20050896982356,38.09457082163932,31.29480964991245,33.188871501728215,30
58.0,42.93417721518988,41.36630809472949,38.25219472810839,40.18670620066986,31.17960189405963,33.1141133666211,30
60.0,44.93417721518988,43.40969343746282,40.605019791565056,42.40107618308163,31.008617254381193,32.804673645897765,30
61.5,46.73417721518986,45.62269455025263,43.08344864934149,44.57314775426882,31.049546795983815,32.53924590091114,30
63.0,48.23417721518986,47.52441869563991,45.01766361348875,46.431733601389524,31.092685094250385,32.50675508215116,30
65.0,49.73417721518986,49.31667393337118,46.762994132807464,48.1363644523379,31.180309481033277,32.553679800563714,30
67.0,51.134177215189865,50.932625276934985,48.58353092908233,49.77621221420604,31.156413062728944,32.349094347852656,30
69.0,52.43417721518988,52.431430150676746,50.216376224315795,51.31411756861705,31.117312582059697,32.21505392636095,30
71.0,53.73417721518986,53.91584026975379,51.76391028400191,52.83709682737354,31.078743442380244,32.15192998575188,30
73.0,55.73417721518986,55.377179678522666,53.62975214525501,54.63532315555754,30.741856522965122,31.747427533267654,30
75.0,57.23417721518986,56.98372242192666,55.203104043311,56.26726652157724,30.716455900349416,31.780618378615657,30
77.5,58.53417721518987,58.56119157921226,56.577588113406335,57.71279435627805,30.84839722293421,31.983603465805928,30
80.0,60.134177215189865,60.08068446207177,58.024322330375625,59.224767648837016,30.855916813234757,32.05636213169615,30
82.5,61.634177215189865,61.536479562947434,59.318091847223386,60.5639678770128,30.972511685934634,32.21838771572405,30
85.0,63.03417721518987,62.94717709005303,60.62335055048452,61.92809994477365,31.019077145279383,32.323826539568515,30
87.5,64.43417721518986,64.39129718118524,61.92648738846434,63.32299985021666,31.068297330968576,32.4648097927209,30
90.0,65.93417721518986,65.83596213869497,63.19034363738527,64.69848989372639,31.137472244968578,32.6456185013097,30
92.5,67.23417721518986,67.14692199318024,64.28975975883937,65.8784441992059,31.26847779397434,32.857162234340876,30
95.0,68.33417721518987,68.369048094804,65.42284737259585,67.06167402693644,31.307374067867556,32.94620072220815,30
97.5,69.63417721518987,69.5016146562467,66.63715794921025,68.28614524864447,31.215469407602228,32.86445670703645,30
100.0,70.53417721518987,70.59052781644597,67.57898929003031,69.30218544189437,31.288342374551604,33.01153852641566,30
103.0,71.63417721518987,71.70213032160194,68.5641935049935,70.36099409706814,31.3411362245338,33.137936816608445,30
106.0,72.43417721518986,72.53649743541534,69.31402087896267,71.13874526350803,31.397752171907314,33.222476556452676,30
109.0,73.53417721518987,73.46931385625807,70.1103178144742,71.9748430895241,31.49447076673397,33.35899604178387,30
112.0,74.33417721518985,74.25865314091384,70.8236452947666,72.7212018715296,31.537451269384235,33.43500784614723,30
115.0,75.03417721518987,74.98094951242668,71.44974427409066,73.35376821868458,31.627181293742098,33.531205238336014,30
118.0,75.83417721518987,75.70289176779777,72.06603006299856,73.99400304736683,31.708888720430934,33.6368617047992,30
122.0,76.63417721518987,76.48068446207178,72.74484490639499,74.69603185408263,31.784652607989145,33.73583955567679,30
125.0,77.33417721518987,77.19204890139116,73.41029811125524,75.37817487388185,31.813874027509314,33.781750790135916,30
128.0,77.93417721518985,77.83646182915005,73.9951729726022,75.96172343461336,31.874738394536692,33.84128885654785,30
132.0,78.63417721518987,78.43698514963525,74.53654860048493,76.52447366524376,31.912511484391487,33.900436549150314,30
136.0,79.13417721518987,78.89233678360219,74.95382490448077,76.96300014796952,31.929336635632666,33.93851187912142,30
140.0,79.43417721518986,79.26118551859977,75.22972107993743,77.27238743219024,31.98879808640953,34.03146443866234,30
145.0,79.63417721518987,79.51647713234996,75.34120616106621,77.41171170135804,32.10476543099192,34.17527097128375,30
150.0,79.53417721518987,79.57734973516487,75.36066601721969,77.46014880483716,32.11720093032771,34.21668371794519,30
155.0,79.63417721518987,79.57358725066975,75.23191457219706,77.37243015129988,32.201157099369865,34.34167267847269,30
160.0,79.73417721518986,79.52648946023864,75.09076878861059,77.2637033198671,32.26278614037153,34.43572067162805,30
165.0,79.63417721518987,79.39509027976075,74.87643441623946,77.07033539388141,32.324754885879344,34.51865586352129,30
170.0,79.43417721518986,79.31717252106462,74.72539020330429,76.93766308340886,32.379509437655756,34.591782317760334,30
175.0,79.33417721518985,79.19454544628022,74.5231327548388,76.75270326967551,32.44184217660471,34.67141269144142,30
180.0,79.33417721518985,79.07286657364867,74.35972028899097,76.6077107411814,32.46515583246726,34.7131462846577,30
185.0,79.33417721518985,79.06269456666068,74.26742319278809,76.51524155145235,32.54745301520833,34.795271373872595,30
190.0,79.23417721518986,78.98497025252594,74.13939126425,76.37592874265754,32.609041509868405,34.845578988275946,30
195.0,79.13417721518987,78.94099562010783,74.00259051583585,76.23425390266479,32.70674171744304,34.93840510427198,30
200.0,79.13417721518987,78.94191472457717,73.78885312922127,76.07086041291592,32.871054311661254,35.15306159535591,30
206.0,79.23417721518986,79.01941652558679,73.74727147259206,76.04196257192292,32.97745395366387,35.27214505299473,30
212.0,79.23417721518986,79.086611574856,73.89869673974412,76.10692011949483,32.97969145536116,35.18791483511187,30
218.0,79.33417721518985,79.1632920822192,74.00195421294902,76.15017202866258,33.01312005355662,35.161337869270184,30
224.0,79.33417721518985,79.14038179126955,73.99562325354937,76.11081645610713,33.02956533516242,35.14475853772018,30
230.0,79.53417721518987,79.23121031396408,74.1221475018082,76.22238120405505,33.00882910990903,35.109062812155884,30
236.0,79.53417721518987,79.30812970358228,74.24414773795951,76.32412543678007,32.984004266802216,35.06398196562277,30
240.0,79.63417721518987,79.32976481302545,74.25322764269612,76.35228667993621,32.977478133089235,35.07653717032933,30
250.0,79.63417721518987,79.4292284109827,74.3103128748398,76.44392646843141,32.98530194255129,35.11891553614291,30
258.0,79.63417721518987,79.43919476776098,74.41208698979891,76.50992481299299,32.92926995476799,35.02710777796207,30
265.0,79.63417721518987,79.48336642035325,74.61060922061681,76.63047770552721,32.85288871482604,34.87275719973644,30
272.0,79.53417721518987,79.43934781069248,74.74111102080695,76.66729115289105,32.77205665780143,34.69823678988553,30
280.0,79.43417721518986,79.37367622385365,74.77234945431283,76.60043051061788,32.77324571323577,34.60132676954082,30
290.0,79.33417721518985,79.26580331386582,74.82714252802639,76.48584984410375,32.77995346976206,34.43866078583943,30
300.0,79.23417721518986,79.15724477317829,74.78327611508935,76.27467849956118,32.882566273617115,34.37396865808894,30
307.0,79.03417721518987,79.0080442827541,74.67095735757043,76.0198661856848,32.988178097069294,34.33708692518367,30
315.0,79.03417721518987,78.86230342500987,74.34778543236443,75.69427504994917,33.1680283750607,34.51451799264544,30
325.0,78.93417721518988,78.76335590995924,73.98545411241476,75.40866188015066,33.354694029808584,34.77790179754449,30
335.0,78.83417721518987,78.57503113668442,73.71406176771448,75.12037240247349,33.45465873421092,34.86096936896993,30
345.0,78.63417721518987,78.4548783079102,73.66616453907345,74.97459430246336,33.48028400544685,34.78871376883676,30
355.0,78.63417721518987,78.35829801932432,73.59813290751764,74.86070170097328,33.49759631835104,34.760165111806685,30
365.0,78.53417721518987,78.20515368806302,73.36482943022112,74.6642699847568,33.54088370330622,34.8403242578419,30
375.0,78.43417721518986,78.10515368806303,73.02236593138649,74.44944583778424,33.65570785027879,35.08278775667654,30
387.0,78.33417721518987,78.02027456702508,72.7776360409917,74.31708331832031,33.70319124870477,35.24263852603339,30
400.0,78.33417721518987,78.02561579970832,72.6607717968232,74.29013625428664,33.73547954542168,35.36484400288512,30
412.0,78.43417721518986,78.10720734197774,72.58364612182253,74.31492294198058,33.79228439999716,35.523561220155216,30
425.0,78.53417721518987,78.16739580802063,72.54267454563119,74.36201052488765,33.80538528313298,35.62472126238944,30
437.0,78.63417721518987,78.21185131430049,72.50754592273569,74.37760178442402,33.83424952987647,35.7043053915648,30
450.0,78.63417721518987,78.27437152648733,72.47000772998202,74.4053011374434,33.86907038904393,35.804363796505314,30
462.0,78.63417721518987,78.30714994072798,72.48853406063445,74.46854670495945,33.83860323576853,35.81861588009353,30
475.0,78.63417721518987,78.3823078245646,72.56248994156157,74.56574148568292,33.816566338881685,35.81981788300304,30
487.0,78.73417721518986,78.44431302182873,72.58680186771205,74.62838340774503,33.8159296140837,35.85751115411668,30
500.0,78.83417721518987,78.50455883430301,72.60353702294007,74.70450525460205,33.80005357970096,35.90102181136294,30
515.0,78.73417721518986,78.47866752673225,72.50611553539791,74.72977573614432,33.74889179058793,35.97255199133434,30
530.0,78.63417721518987,78.29343404794122,72.17784025865082,74.5273008801855,33.76613316775571,36.1155937892904,30
545.0,78.53417721518987,78.09733503271794,71.8850513777946,74.33905851687796,33.75827651583998,36.21228365492334,30
560.0,78.43417721518986,78.01032835388531,71.7710512982735,74.3076502399146,33.70267811397072,36.23927705561181,30
580.0,78.43417721518986,78.1058568656479,71.86700737947133,74.50252992037849,33.6033269452694,36.23884948617656,30
600.0,78.63417721518987,78.3058568656479,72.15246930872543,74.87653033211917,33.42932653352872,36.15338755692247,30
615.0,78.73417721518986,78.4815370848647,72.52562712368989,75.17625626453376,33.305280820330935,35.95590996117481,30
630.0,78.83417721518987,78.55764493925157,72.92793813482699,75.49602967321653,33.06161526603505,35.629706804424586,30
650.0,78.73417721518986,78.43868961278628,72.8569968609814,75.44379645319164,32.99489315959464,35.58169275180488,30
670.0,78.53417721518987,78.14207351625524,72.45869612495258,75.10428753999625,33.03778597625899,35.683377391302656,30
690.0,78.43417721518986,77.9787105643945,72.3884602763351,75.01044839148092,32.96826217291358,35.59025028805941,30
710.0,78.33417721518987,77.83387989797497,72.2484086171142,74.95758678369347,32.876293114281495,35.58547128086077,30
730.0,78.33417721518987,77.79193964501381,71.84738755800292,74.83622853234452,32.95571111266929,35.94455208701089,30
750.0,78.33417721518987,77.86178725380451,71.69854703980413,74.79490416465245,33.06688308915206,36.16324021400038,30
775.0,78.43417721518986,77.98764610785265,71.80444029611066,74.88438747405972,33.10325863379293,36.183205811742,30
800.0,78.53417721518987,78.16751420547185,72.08594509228169,75.09083027185413,33.076683933617716,36.081569113190156,30
825.0,78.53417721518987,78.29269243948563,72.38917346236578,75.27902513194829,33.01366730753735,35.90351897711986,30
850.0,78.53417721518987,78.33477547596095,72.64706852112778,75.42826808181842,32.90650739414254,35.687706954833175,30
875.0,78.43417721518986,78.21016547594284,72.58874908055301,75.33151152620529,32.878653949737554,35.62141639538983,30
900.0,78.43417721518986,78.03510263263685,72.1580098800056,75.05790868897306,32.97719394366379,35.877092752631256,30
925.0,78.33417721518987,77.79922856658088,71.50485735895795,74.63022422723168,33.1690043393492,36.29437120762293,30
950.0,78.43417721518986,77.75789059320931,71.14061554361238,74.46231375055798,33.29557684265133,36.61727504959693,30
975.0,78.63417721518987,78.00977052594199,71.3161992278038,74.73937046972456,33.270400056217426,36.69357129813818,30
1000.0,78.63417721518987,78.07289261810712,71.26583213407339,74.77051958274147,33.30237303536565,36.80706048403373,30
1030.0,78.63417721518987,78.18274600026,71.32664451377741,74.7114402824668,33.4713057177932,36.856101486482586,30
1060.0,78.73417721518986,78.23067059532038,71.37116146508767,74.68201439186433,33.54865620345605,36.85950913023271,30
1090.0,78.63417721518987,78.15044488588192,71.26702440849228,74.70433868503186,33.44610620085007,36.88342047738965,30
1120.0,78.43417721518986,78.05337422343632,70.96586513904465,74.52213745619393,33.53123676724239,37.08750908439167,30
1150.0,78.43417721518986,77.93911232257794,70.68048168068738,74.36252996488658,33.576582357691365,37.25863064189056,30
1180.0,78.43417721518986,77.99731215310267,70.80601910661474,74.36892372993117,33.6283884231715,37.19129304648793,30
1220.0,78.53417721518987,78.12808761866297,70.97081693493332,74.41381843360884,33.714269185054135,37.15727068372965,30
1250.0,78.63417721518987,78.15446770696457,71.07942674745051,74.65797482118606,33.49649288577851,37.075040959514055,30
1280.0,78.83417721518987,78.12866168067352,70.70649225101782,74.39482779572947,33.73383388494405,37.422169429655696,30
1320.0,78.93417721518988,78.39394598414019,70.60963640509632,74.32991572818817,34.06403025595202,37.784309579043864,30
1360.0,79.03417721518987,78.65558220252892,71.02828758120303,74.62433421853521,34.03124798399371,37.62729462132589,30
1400.0,79.13417721518987,78.61254128265483,70.97930730888949,74.5282180338176,34.08432324883724,37.63323397376534,30
1450.0,79.13417721518987,78.77984003178737,71.1010242274139,74.6666484015305,34.11319163025688,37.67881580437347,30
1500.0,79.23417721518986,78.62044481193344,70.72429597337913,74.33438696170116,34.28605785023228,37.89614883855431,30
1550.0,79.13417721518987,78.62904343523375,70.58188577314814,74.23900128964479,34.390042145588964,38.04715766208561,30
1600.0,78.93417721518988,78.63910376489667,70.83097152733099,74.2043203661624,34.43478339873427,37.80813223756569,30
1650.0,78.93417721518988,78.50958835002696,70.87509260272878,74.15354359556592,34.35604475446104,37.634495747298175,30
1700.0,78.83417721518987,78.22984730914284,70.5483991097748,73.85740028343439,34.37244702570845,37.681448199368035,30
1750.0,78.83417721518987,78.16347237669083,70.2854124213506,73.59369672022962,34.56977565646122,37.878059955340234,30
1800.0,78.73417721518986,78.24755829897101,70.46809890010574,73.59845016946511,34.649108129505905,37.77945939886527,30
1850.0,78.83417721518987,78.44228043838673,70.62529403300756,73.67734417686673,34.764936261520006,37.81698640537917,30
1900.0,79.13417721518987,78.65219287141188,70.79196057568157,73.87827902536308,34.7739138460488,37.86023229573031,30
1950.0,79.43417721518986,79.11670027618533,71.41482973052008,74.34705813186316,34.76964214432216,37.701870545665244,30
2000.0,79.73417721518986,79.18699684957313,71.66905216605875,74.42957995661845,34.75741689295468,37.517944683514386,30
2060.0,79.63417721518987,78.92321431742286,71.15883892014419,73.92763526182318,34.99557905559968,37.76437539727867,30
2120.0,79.43417721518986,78.79434998846367,71.30175833661175,73.93504525177212,34.85930473669154,37.49259165185191,30
2180.0,79.03417721518987,78.57465299242965,71.81914869575087,74.1041480187974,34.470504973632245,36.75550429667878,30
2240.0,78.83417721518987,78.54845523720292,72.01179584495186,74.20698710584493,34.341468131357985,36.53665939225105,30
2300.0,79.03417721518987,78.78466990707223,71.74967460445758,74.29328320972117,34.49138669735106,37.03499530261465,30
2360.0,79.73417721518986,78.98959328029595,72.03461476231797,74.7148081935483,34.274785086747656,36.95497851797798,30
2400.0,80.23417721518986,79.03177732798507,71.69522239596772,74.56819279877605,34.463584529209015,37.33655493201735,30
2500.0,80.43417721518985,79.25540187532152,71.73521743145396,74.67356111756162,34.581840757759906,37.520184443867564,30
2580.0,80.23417721518986,79.12266641393795,71.60024039063569,74.42633041000053,34.69633600393742,37.52242602330226,30
2650.0,79.83417721518987,78.83621632210786,71.31185647033625,74.17301169538685,34.66320462672101,37.52435985177161,30
2720.0,79.53417721518987,78.36332506013426,71.41272859752276,74.04603577642108,34.31728928371318,36.9505964626115,30
