Freq "Side Wall Bounce"
20.5078 51.984032329384675
23.4375 55.31629899863641
26.3672 57.887024320290905
29.2969 61.29311618917605
32.2266 64.18624429645372
35.1563 67.3594992758264
38.0859 70.35308134556384
41.0156 73.14872527499251
43.9453 75.04525079145836
46.875 76.75076010362078
49.8047 77.7732773861384
52.7344 78.3568725227113
55.6641 78.69576879115426
58.5938 78.8209325578507
61.5234 78.9483554325757
64.4531 79.10590876943542
67.3828 79.27355575867595
70.3125 79.45098581238811
73.2422 79.57798864318333
76.1719 79.7211691905744
79.1016 79.87792553411012
82.0313 80.10382122960976
84.9609 80.16522920211183
87.8906 80.29876894210379
90.8203 80.3778757918265
93.75 80.52388028109084
96.6797 80.8335194295997
102.539 80.97007041716888
105.469 81.1056835426619
108.398 81.27160055741754
111.328 81.41358291241018
117.188 81.63737767329201
120.117 81.77639925395114
125.977 81.94001361819124
128.906 81.9692926775044
134.766 82.032825780414
137.695 82.0757568507844
143.555 82.0910214961407
149.414 82.20805900010744
155.273 82.4026739926724
158.203 82.42577580679317
164.063 82.50547401941988
169.922 82.44586175692062
175.781 82.37468984595638
181.641 82.28747578064515
190.43 82.29551383540134
196.289 82.29281396984389
202.148 82.26080048204693
210.938 82.22322171349501
216.797 82.09831843413764
225.586 82.20752417381696
234.375 82.16259424508381
240.234 82.00874896284374
249.023 82.04245974666802
257.813 81.96740319514718
266.602 81.65364956142098
278.32 81.76160030224565
287.109 81.68449917273377
295.898 81.66310941557474
307.617 81.68634413527201
319.336 81.47331438565388
331.055 81.36763385485706
342.773 80.93463079543503
354.492 81.24817705227952
366.211 81.55432117806716
377.93 81.3260507023524
392.578 80.86312418767197
407.227 80.73336983411983
421.875 80.93501336024659
436.523 80.78140644558898
451.172 81.122673368723
465.82 80.96557440469567
483.398 80.41897104207256
500.977 80.86462074762166
518.555 80.57318701191507
536.133 80.64384520823351
553.711 80.97754490193836
574.219 81.06487237291036
594.727 80.05592102022226
615.234 80.39780764653085
638.672 80.3023229686906
659.18 80.21232581279705
682.617 79.9944233348415
706.055 80.38087170999829
732.422 80.59988535411455
758.789 80.22270762523205
785.156 80.2831983186904
811.523 80.76483821981928
840.82 80.77120405438549
870.117 80.13114780297755
902.344 80.9226807066161
931.641 80.3495747742127
966.797 80.43631285228713
999.023 79.93288957247383
1034.18 79.59004147740258
1072.27 79.07339953985368
1110.35 78.6501978315275
1148.44 77.91642899574866
1189.45 77.28936635730265
1230.47 77.0844639455376
1274.41 78.53044243793676
1318.36 78.83412007214247
1365.23 78.68271072444965
1415.04 78.69885489327173
1464.84 78.85304626903013
1514.65 79.15148182637864
1570.31 79.11905107728704
1623.05 78.58759655270558
1681.64 78.15549938344817
1740.23 78.70140014764854
1801.76 79.03678043586656
1866.21 78.81673034524962
1930.66 78.4809301129287
2000.98 79.40565101500212
2071.29 79.81283314845993
2144.53 79.02947692944339
2217.77 79.09775292244254
2296.88 80.59202532537843
2378.91 81.28495939035939
2460.94 81.38798006240718
2548.83 81.60536105592696
2639.65 81.98011508972903
2733.4 81.57298015159603
2827.15 81.49641308492092
2926.76 81.11474054450231
3032.23 80.78762401934617
3137.7 80.89739023513394
3249.02 80.57311300447553
3363.28 80.07176982112007
3483.4 79.84062029320044
3606.45 79.77834605258731
3732.42 79.75475094693107
3864.26 79.78749073120126
3999.02 79.85955846282981
4139.65 80.05913571111081
4286.13 80.09339177105201
4438.48 80.18213858833673
4593.75 80.32452753139282
4757.81 80.1378866471613
4924.8 79.55975891648636
5097.66 79.09701494944748
5279.3 78.27442558624561
5463.87 77.49507800465334
5657.23 76.9040795976337
5856.45 77.26889887418024
6061.52 77.54510151946843
6275.39 77.85348398124425
6498.05 77.83286159712964
6726.56 77.2539649344328
6963.87 76.63661221273259
7209.96 76.07463887021122
7464.84 75.72452665425739
7728.52 75.57524049090401
8000.98 75.77026944730706
8282.23 75.98293098974749
8575.2 75.85748276798412
8876.95 75.35378506148449
9190.43 74.58521482700004
9512.7 73.92534030243425
9849.61 73.57969620672156
10195.3 73.49404237566247
10555.7 73.29198448477534
10927.7 72.66626822656254
11314.5 71.71712035232606
11712.9 70.75307073575128
12126.0 70.36053878282452
12553.7 70.309436538004
12996.1 70.30026465028187
13453.1 70.62923707893816
13927.7 71.1420226408384
14419.9 72.22700921978344
14929.7 73.82261178620551
15454.1 74.68988276800165
15999.0 72.87610305988001
16564.5 69.076583724516
17147.5 65.34798085458597
17753.9 61.917504387229044
18377.9 58.638663051281
19028.3 56.64161811658748
19699.2 55.670296827675756
19998.0 55.661170522594674
