Freq "Rear Wall Bounce"
22.4 37.30034333727859
23.0 37.72716302492465
23.6 38.19084327238939
24.0 38.7979986195311
25.0 39.41924511784477
25.8 40.005247272810905
26.5 40.547877789607796
27.2 41.0553272648785
28.0 41.550911947894846
29.0 42.041735945604
30.0 42.54357744571574
30.7 43.152749562117904
31.5 43.73455371001445
32.5 44.284053024168756
33.5 44.810301532591936
34.5 45.29659457708546
35.5 45.774144251461664
36.5 46.47275475763341
37.5 47.1039077718475
38.7 47.67713242325176
40.0 48.25558407904184
41.2 48.77410022523564
42.5 49.384227867802736
43.7 50.02945617934405
45.0 50.63987685393461
46.2 51.17626986198489
47.5 51.712672053776814
48.7 52.37286173049705
50.0 53.00551127347934
51.5 53.5864475673709
53.0 54.11131926246357
54.5 54.75470271409735
56.0 55.36520516087069
58.0 55.94132607720749
60.0 56.47542821230968
61.5 57.1112099841377
63.0 57.67840710336536
65.0 58.20343275204263
67.0 58.80173524601841
69.0 59.38062679114178
71.0 59.884850955932066
73.0 60.48485095593206
75.0 61.015621098180446
77.5 61.52117267399298
80.0 62.06731852151252
82.5 62.57731976449084
85.0 63.07731976449085
87.5 63.57731976449085
90.0 64.0568211903689
92.5 64.5568211903689
95.0 64.9832832349186
97.5 65.42465466205402
100.0 65.83498950016819
103.0 66.25705497581055
106.0 66.63498950016819
109.0 66.99771664561563
112.0 67.31923094215198
115.0 67.629578679697
118.0 67.91923094215197
122.0 68.14063918525066
125.0 68.37099094221077
128.0 68.54063918525065
132.0 68.65669910671421
136.0 68.714177120856
140.0 68.76672480652127
145.0 68.73022581276508
150.0 68.63022581276508
155.0 68.53022581276508
160.0 68.34707518241594
165.0 68.13676909853567
170.0 67.8788335091743
175.0 67.63283852615105
180.0 67.37571852212466
185.0 67.21767321098294
190.0 67.17071893551473
195.0 67.1926272300022
200.0 67.33543959615402
206.0 67.53543959615403
212.0 67.77957062575442
218.0 67.99050470224371
224.0 68.12534132926258
230.0 68.12534132926258
236.0 68.0152195270257
240.0 67.72016817526716
250.0 67.23532479584523
258.0 66.78725083879839
265.0 66.32280981339214
272.0 66.09707684378766
280.0 66.10190831716558
290.0 66.2935661948897
300.0 66.57476420507561
307.0 66.78126130978465
315.0 66.8710436112599
325.0 66.79201288340131
335.0 66.51514030876108
345.0 66.07621564824657
355.0 65.5762418838345
365.0 65.00169186826959
375.0 64.38416916996876
387.0 63.72348342896015
400.0 63.017406002090226
412.0 62.40783866238762
425.0 62.04734058408721
437.0 62.05905801084111
450.0 62.33426875325726
462.0 62.574268955962154
475.0 62.57522705944997
487.0 62.24590483748992
500.0 61.69304654643078
515.0 61.2703626170284
530.0 61.320739846302914
545.0 61.757581451062734
560.0 62.26730012277616
580.0 62.88015443071215
600.0 63.54714554938978
615.0 63.94508967017313
630.0 63.87061159925307
650.0 63.30684664032161
670.0 62.5095652681383
690.0 61.70469743647551
710.0 61.058637082718064
730.0 60.42371528540127
750.0 59.72670600398318
775.0 59.04376283263085
800.0 58.76683744688296
825.0 58.9084828271839
850.0 58.41717065789072
875.0 57.26966062164658
900.0 57.37088383425065
925.0 58.21500643797269
950.0 58.64364092654888
975.0 58.090424978658305
1000.0 56.68533144124579
1030.0 56.356311577126974
1060.0 56.493740542921984
1090.0 55.52444116539367
1120.0 54.9034435030908
1150.0 54.916467367197754
1180.0 54.477915368645924
1220.0 53.83609878787243
1250.0 53.688986906325454
1280.0 53.33833427626057
1320.0 53.096896024251876
1360.0 53.65522219066197
1400.0 54.585862958605915
1450.0 55.70054963059641
1500.0 56.5242227666301
1550.0 57.73428326104283
1600.0 58.961662519767216
1650.0 59.177548720756846
1700.0 59.13950773261928
1750.0 59.245890237815445
1800.0 59.31713566002655
1850.0 60.879142166853455
1900.0 60.80423687794659
1950.0 59.638517030954745
2000.0 58.43679356297383
2060.0 59.35956949247041
2120.0 60.87356508068541
2180.0 58.97486627845571
2240.0 55.693484588069154
2300.0 56.24376391943807
2360.0 55.581649110289504
2400.0 52.648180528453295
2500.0 50.410120911702606
2580.0 49.8148133729901
2650.0 50.31254363129945
2720.0 50.6864725041942
2800.0 51.617547358411755
2900.0 52.674607921241844
3000.0 51.76311444491013
3070.0 51.74838276387344
3150.0 51.28855475481291
3250.0 53.488166020356616
3350.0 54.56742888736474
3450.0 53.84421184753174
3550.0 52.315526775920034
3650.0 51.61648580156162
3750.0 48.50446493572555
3870.0 48.51694833781541
4000.0 48.08473717754016
4120.0 47.66893638075781
4250.0 45.76601372780864
4370.0 47.95213102004789
4500.0 47.85019004005579
4620.0 48.11617833369854
4750.0 47.04822908430167
4870.0 49.030419335374546
5000.0 49.70799719209721
5150.0 49.700774192387
5300.0 49.26104670273109
5450.0 45.97070369638824
5600.0 51.81939287057379
5800.0 51.72408407818709
6000.0 50.65602112014159
6150.0 52.655037613811515
6300.0 55.74245875514829
6500.0 54.94769188085067
6700.0 55.18263762509942
6900.0 53.99323873272867
7100.0 51.3470023816909
7300.0 52.482076148626206
7500.0 53.64432295344777
7750.0 53.582841041387965
8000.0 52.69222614853642
8250.0 47.84680602944458
8500.0 46.68976588270864
8750.0 48.11288859293266
9000.0 47.9697265053951
9250.0 49.191012313047125
9500.0 47.66195184918227
9750.0 44.35936626998215
10000.0 46.24472399607315
10300.0 48.81659674831391
10600.0 50.554265069546446
10900.0 47.121240110920226
11200.0 46.53651163196072
11500.0 44.31172273325318
11800.0 41.503802802969446
12200.0 42.27449510120299
12500.0 42.281473037284556
12800.0 39.61282641691652
13200.0 36.36134079009234
13600.0 38.66661014274628
14000.0 36.270700230862516
14500.0 35.45231143746061
15000.0 37.088211332325116
15500.0 42.661464287955155
16000.0 39.52448745484595
16500.0 34.75579011481973
17000.0 25.361251496823215
17500.0 34.034078535150954
18000.0 36.024017570420554
18500.0 24.8497125685126
19000.0 23.316583250497004
19500.0 25.343529532316197
