Freq "Total Early Reflection"
22.4 40.00051471572006
23.0 40.418646257962095
23.6 40.864575093494366
24.0 41.43825377999208
25.0 42.02469305767393
25.8 42.537411116404385
26.5 43.04131497704866
27.2 43.49682720728829
28.0 43.963625507592056
29.0 44.40204321592928
30.0 44.868877878601765
30.7 45.451238734218364
31.5 46.00526447927108
32.5 46.51886896246204
33.5 46.98963031090109
34.5 47.44149785415
35.5 47.9018177628045
36.5 48.50750453078463
37.5 49.096287932721324
38.7 49.62841824645976
40.0 50.14673099249164
41.2 50.61313707974466
42.5 51.196948882538834
43.7 51.80134106839496
45.0 52.351783943645216
46.2 52.859959907120896
47.5 53.355235065340906
48.7 53.98412525710218
50.0 54.582191118229645
51.5 55.094127156983305
53.0 55.587329435712746
54.5 56.199272990184355
56.0 56.788914726124716
58.0 57.34135429309315
60.0 57.85364065961065
61.5 58.45071943980689
63.0 58.98964025038016
65.0 59.4980933646892
67.0 60.08111466755783
69.0 60.65779127245766
71.0 61.14629626985159
73.0 61.73206052393938
75.0 62.24702641081113
77.5 62.75770963267799
80.0 63.29963111715985
82.5 63.809150414771494
85.0 64.32491124926547
87.5 64.83266617352835
90.0 65.29724040265769
92.5 65.79352992526404
95.0 66.24603321056664
97.5 66.69124486471007
100.0 67.13882784730808
103.0 67.54886934414849
106.0 67.94542957135512
109.0 68.31979089199709
112.0 68.67082057011086
115.0 69.0056739051565
118.0 69.29215498846231
122.0 69.53853327865205
125.0 69.77814520486044
128.0 69.96007363543815
132.0 70.11233432064925
136.0 70.19622942908494
140.0 70.24255557846011
145.0 70.23710960973997
150.0 70.1593245253054
155.0 70.05164616516511
160.0 69.88851849141595
165.0 69.68699990749752
170.0 69.45176093516966
175.0 69.22197540072243
180.0 68.99629669135989
185.0 68.82328849547172
190.0 68.7721816110778
195.0 68.81217355777004
200.0 68.95136210577972
206.0 69.15489009834899
212.0 69.38781768817769
218.0 69.60602564225617
224.0 69.71506044034199
230.0 69.72597969177323
236.0 69.60694518852006
240.0 69.31671458173433
250.0 68.91619831351245
258.0 68.50964085719492
265.0 68.15517727405803
272.0 68.04541353686841
280.0 68.21486458827421
290.0 68.62507876882165
300.0 69.12104706702817
307.0 69.54625993734815
315.0 69.90285204122902
325.0 70.07699294151844
335.0 70.03735085538675
345.0 69.8745685592147
355.0 69.5692453291877
365.0 69.24181101721027
375.0 68.83022463747932
387.0 68.37033457817192
400.0 67.86834897957621
412.0 67.4265879967701
425.0 67.18916545258314
437.0 67.32479157876965
450.0 67.67536738596252
462.0 67.94456569983971
475.0 67.87139106271002
487.0 67.38740305695289
500.0 66.59883767555786
515.0 65.83380419236673
530.0 65.4773593812106
545.0 65.5924135508698
560.0 66.02314387038409
580.0 66.76270512994255
600.0 67.79358204844877
615.0 68.66816698243223
630.0 69.10951631667055
650.0 69.12484543805157
670.0 68.89606589565615
690.0 68.62719785390121
710.0 68.37453511763506
730.0 67.90225738727973
750.0 67.00275755376678
775.0 65.69538218603302
800.0 64.47417578757761
825.0 63.7571666959182
850.0 63.171815356468045
875.0 62.86090344944962
900.0 63.85327098815631
925.0 65.07871058707681
950.0 65.24611228715936
975.0 64.32683816055983
1000.0 63.070358452818525
1030.0 63.82881121350346
1060.0 65.27606447563099
1090.0 65.01502545860684
1120.0 64.19434225384316
1150.0 63.8284975709048
1180.0 63.43511650880852
1220.0 62.87328523313393
1250.0 62.1516904960766
1280.0 61.29264385912026
1320.0 61.547662060901175
1360.0 62.88149500185163
1400.0 64.36465221434959
1450.0 65.83203157664785
1500.0 66.7803778258184
1550.0 67.99987253780152
1600.0 69.19111923769202
1650.0 69.57097767157808
1700.0 69.45251543333883
1750.0 69.25139013224228
1800.0 69.1504014422791
1850.0 70.27285411626035
1900.0 69.9369690309785
1950.0 69.06272596030574
2000.0 68.63982837540416
2060.0 69.10633728019685
2120.0 69.69743835391608
2180.0 68.91506302284586
2240.0 68.25079628213811
2300.0 68.79291370765694
2360.0 67.52916513263311
2400.0 64.61880461843205
2500.0 64.25781983338204
2580.0 64.13865201198682
2650.0 63.645134849197674
2720.0 63.981710386569134
2800.0 64.62238608703697
2900.0 64.27103109510364
3000.0 63.83621787155897
3070.0 63.701027111563306
3150.0 63.27252672157118
3250.0 64.05504405610377
3350.0 64.17382780578048
3450.0 64.05992214738497
3550.0 63.437078618940134
3650.0 63.8388346163549
3750.0 63.53617887051465
3870.0 64.41227249674932
4000.0 65.07524474453795
4120.0 65.30907595199078
4250.0 64.92808997952808
4370.0 64.90670555903282
4500.0 65.82992679851078
4620.0 65.75213233490071
4750.0 64.39709172761779
4870.0 64.8181996049831
5000.0 65.74200549703359
5150.0 67.09384170662909
5300.0 66.79398452081523
5450.0 64.56738327212531
5600.0 69.38481179785809
5800.0 69.64379045815954
6000.0 68.67330202810624
6150.0 69.605156111493
6300.0 71.33837862339394
6500.0 69.79132181030943
6700.0 68.96604697426989
6900.0 70.23086105685496
7100.0 70.0522767373415
7300.0 69.69901664924822
7500.0 69.57206441365007
7750.0 67.91872075579307
8000.0 67.73657569178519
8250.0 67.08573370368048
8500.0 67.46443558583667
8750.0 66.72081621542526
9000.0 68.59665051981648
9250.0 72.64367789475753
9500.0 71.1467416537169
9750.0 69.34499284581959
10000.0 70.44078892228923
10300.0 71.76643866726612
10600.0 72.64955221675851
10900.0 68.76643693677993
11200.0 68.44852393621737
11500.0 65.43212657472733
11800.0 65.38002333852597
12200.0 67.16334155414582
12500.0 65.06228172500596
12800.0 61.80361309876014
13200.0 55.92767374007539
13600.0 56.09411863177165
14000.0 57.996288770232596
14500.0 59.89238877922379
15000.0 60.88648500886892
15500.0 63.76887055594753
16000.0 61.39399432656067
16500.0 57.63444549351546
17000.0 52.71862184090729
17500.0 53.90643404424692
18000.0 54.50871315311075
18500.0 48.716936787332884
19000.0 45.52404011643948
19500.0 42.43595052849663
