Freq,On Axis,Listening Window,Sound Power,Early Reflections,Early Reflections DI,Sound Power DI,DI offset
22.4,28.799999999999983,31.324578071595113,30.25209226687724,30.454185199718637,30.870392871876476,31.07248580471787,30
23.0,30.0,32.62162345290224,31.825834730645255,32.07938668130299,30.54223677159925,30.795788722256987,30
23.6,31.200000000000017,33.77627081151036,33.29602271399705,33.60719033130448,30.169080480205878,30.48024809751331,30
24.0,32.400000000000006,34.084571879329616,33.60797452185315,33.88184488496631,30.202726994363303,30.476597357476464,30
25.0,33.599999999999994,34.42091002344907,33.903098152713284,34.1341086106095,30.286801412839566,30.517811870735784,30
25.8,34.79999999999998,34.79376358120399,34.32064849564236,34.491124107158385,30.302639474045606,30.47311508556163,30
26.5,36.0,35.2431917131033,34.92693057066549,35.012690698470976,30.230501014632324,30.31626114243781,30
27.2,37.099999999999994,37.22045403109402,36.77877597095181,36.779439902799396,30.441014128294626,30.44167806014221,30
28.0,38.29999999999998,40.03865438449421,39.3529993013876,39.316670225713864,30.721984158780344,30.68565508310661,30
29.0,39.5,44.06225134082868,43.00943777298403,43.033413128805506,31.028838212023174,31.05281356784465,30
30.0,40.599999999999994,48.33992124586533,47.01346875490901,47.1982382960918,31.141682949773525,31.326452490956314,30
30.7,41.70000000000002,45.184858695369684,44.69950533710906,44.22005934416123,30.964799351208455,30.485353358260625,30
31.5,42.900000000000006,44.21891652565938,44.187093032000206,43.43757885658928,30.781337669070098,30.031823493659175,30
32.5,44.0,44.105327278893014,44.31270494348047,43.44994649608222,30.655380782810795,29.792622335412545,30
33.5,45.099999999999994,45.26824631979767,45.43822424936192,44.52932251925111,30.73892380054656,29.830022070435746,30
34.5,46.20000000000002,47.03104033198534,47.05709347026581,46.11520752059715,30.915832811388185,29.973946861719526,30
35.5,47.20000000000002,51.10754435997623,50.550249392643735,49.880951538469816,31.226592821506415,30.557294967332496,30
36.5,48.29999999999998,54.580725351702895,53.51693416423066,53.407637127847096,31.1730882238558,31.063791187472233,30
37.5,49.29999999999998,55.45376419926032,54.4477587481924,54.599848213288794,30.853915985971526,31.00600545106792,30
38.7,50.400000000000006,55.99369954166522,54.844465745758754,55.27710599116193,30.71659355050329,31.14923379590647,30
40.0,51.400000000000006,54.84427943732064,53.3548578913726,53.81189458057506,31.03238485674558,31.489421545948034,30
41.2,52.5,54.69964351862819,53.12682867364077,53.51980988895147,31.179833629676722,31.57281484498742,30
42.5,53.599999999999994,54.09679158091657,52.72698377102418,53.06823862736573,31.028552953550843,31.369807809892393,30
43.7,54.599999999999994,54.07239544864379,53.269327395318726,53.58141986030958,30.49097558833421,30.803068053325063,30
45.0,55.7,55.17272464905392,55.11775395592875,55.27519069498496,29.89753395406896,30.05497069312517,30
46.2,56.8,56.772188851004174,57.03295587374784,56.59914966385706,30.17303918714711,29.739232977256336,30
47.5,57.900000000000006,58.19754711803188,58.70675301150868,57.87170221612847,30.32584490190341,29.490794106523197,30
48.7,59.099999999999994,57.307191285337524,58.14544047422807,57.69683541286403,29.61035587247349,29.161750811109457,30
50.0,60.19999999999999,57.39758181030369,58.44879316200384,58.38972595528497,29.007855855018718,28.948788648299853,30
51.5,61.400000000000006,59.93622092371767,60.1294096828546,60.23344359020628,29.702777333511392,29.80681124086307,30
53.0,62.5,62.58875688812067,61.927016860967285,62.14174014212867,30.447016745992002,30.661740027153385,30
54.5,63.70000000000002,63.325442362401674,62.28465718416905,62.66485760098658,30.660584761415095,31.040785178232625,30
56.0,64.80000000000001,64.27420574222009,63.22618533176302,63.63598906256345,30.638216679656637,31.04802041045707,30
58.0,65.8,65.24284195726325,64.49274135348847,64.83167046250125,30.411171494762,30.750100603774783,30
60.0,66.8,66.30081494528994,65.60128072901136,65.92096010039279,30.379854844897153,30.69953421627858,30
61.5,67.69999999999999,67.55380571312678,66.6916552613735,67.00854896514834,30.545256747978442,30.86215045175328,30
63.0,68.6,68.49239018780038,67.6723764147481,67.99263807596202,30.49975211183836,30.82001377305228,30
65.0,69.4,69.26914984960715,68.55473820189522,68.8844645233992,30.384685326207943,30.714411647711927,30
67.0,70.1,70.03156467700876,69.33068857110436,69.61905298974715,30.412511687261613,30.7008761059044,30
69.0,70.8,70.64849241169938,69.95945580231091,70.22656462678404,30.42192778491534,30.689036609388467,30
71.0,71.4,71.0930763407043,70.4585668488279,70.71317676619138,30.37989957451292,30.6345094918764,30
73.0,71.9,71.79003378352644,71.22204536100412,71.43887623137113,30.351157552155314,30.56798842252232,30
75.0,72.4,72.4229370306997,71.97721928215256,72.12213714984892,30.300799880850775,30.44571774854714,30
77.5,72.9,72.95609803813525,72.576786131982,72.68172370593771,30.27437433219754,30.379311906153248,30
80.0,73.4,73.37901040403635,73.05076373447933,73.16277514960986,30.216235254426493,30.328246669557018,30
82.5,73.9,73.78951489542683,73.55567825417255,73.64068997151031,30.14882492391652,30.233836641254285,30
85.0,74.4,74.31198520535992,74.16190610247637,74.19098096732995,30.12100423802997,30.150079102883552,30
87.5,75.0,74.86768934561611,74.75952965288843,74.7561784939644,30.111510851651715,30.108159692727682,30
90.0,75.5,75.41173585711587,75.29408673427378,75.32533505748486,30.086400799631008,30.117649122842096,30
92.5,76.1,76.02293110248063,75.79275172018438,75.84282060954769,30.18011049293294,30.230179382296242,30
95.0,76.6,76.567941235565,76.34348293774146,76.41391892686715,30.154022308697847,30.224458297823546,30
97.5,77.2,77.16768934561613,76.81535815819691,76.94616121272782,30.22152813288831,30.35233118741921,30
100.0,77.8,77.73511299152682,77.23635532029633,77.45199318676953,30.28311980475729,30.498757671230493,30
103.0,78.2,78.23485919027593,77.54304318776062,77.85482774281732,30.380031447458606,30.69181600251531,30
106.0,78.6,78.66818737768492,77.79048330243184,78.21459791758095,30.45358946010397,30.877704075253078,30
109.0,79.0,78.98152289117915,77.9524272505183,78.45659777958134,30.52492511159781,31.029095640660856,30
112.0,79.2,79.15710245463161,78.06573994694915,78.63099456800626,30.526107886625354,31.09136250768246,30
115.0,79.3,79.3010174732211,78.11854185247017,78.72241359936811,30.578603873852984,31.18247562075092,30
118.0,79.4,79.33434563061503,78.1228536096362,78.72526079226657,30.609084838348465,31.211492020978838,30
122.0,79.4,79.34548281841985,78.08542167016014,78.6988164966477,30.64666632177216,31.26006114825971,30
125.0,79.3,79.27874146142715,78.00401880724196,78.61138773603436,30.667353725392786,31.274722654185183,30
128.0,79.3,79.21224034685125,77.90957086493982,78.5301800839038,30.682060262947445,31.302669481911423,30
132.0,79.3,79.16818737768492,77.81619866183776,78.45724352389095,30.710943853793964,31.351988715847156,30
136.0,79.3,79.1800035489201,77.78263077355872,78.43155874427156,30.748444804648543,31.397372775361376,30
140.0,79.3,79.1800035489201,77.68792677907548,78.37864931922607,30.801354229694027,31.492076769844616,30
145.0,79.3,79.10404030110837,77.47449771457872,78.2169477721564,30.887092528951968,31.629542586529652,30
150.0,79.2,78.98201933948498,77.15166654542384,78.01492381131001,30.967095528174966,31.83035279406114,30
155.0,79.0,78.79302912475683,76.84849765033596,77.79460313143957,30.998425993317255,31.94453147442087,30
160.0,78.70000000000002,78.56037932894544,76.50997756288942,77.4900507090416,31.070328619903847,32.05040176605603,30
165.0,78.5,78.37122127302518,76.21204565857916,77.25643202815556,31.114789244869627,32.15917561444603,30
170.0,78.5,78.28278417074698,76.01423263052837,77.12321021664062,31.159573954106364,32.26855154021861,30
175.0,78.6,78.37194243394785,76.03439335852937,77.17961802374458,31.19232441020327,32.33754907541848,30
180.0,78.79999999999998,78.59354759317684,76.1885308785847,77.35131493911052,31.242232654066314,32.405016714592136,30
185.0,79.0,78.72970811072229,76.27000394097693,77.44243815086844,31.287269959853845,32.45970416974535,30
190.0,78.9,78.61951502143822,76.05081060859838,77.27860984445145,31.340905176986766,32.568704412839836,30
195.0,78.6,78.23148840171298,75.53106525149798,76.81630704621816,31.415181355494823,32.700423150215,30
200.0,78.0,77.6559745682038,74.724274959731,76.12604346525191,31.529931102951892,32.9316996084728,30
206.0,77.6,77.2351920250685,73.99018750368765,75.57026494334735,31.664927081721146,33.24500452138085,30
212.0,77.6,77.26835145836803,73.74725099717621,75.53811350133307,31.73023795703496,33.52110046119182,30
218.0,78.0,77.72322886529997,73.96071619034828,75.92302001044615,31.80020885485382,33.762512674951694,30
224.0,78.5,78.21951502143821,74.3531947987432,76.4261007236303,31.793414297807914,33.86632022269501,30
230.0,78.9,78.63344755728704,74.72443911435222,76.79888843343488,31.83455912385216,33.90900844293482,30
236.0,79.0,78.66640184299462,74.71387433880915,76.8321768697788,31.83422497321581,33.95252750418547,30
240.0,78.9,78.63121622113235,74.55401522674524,76.73738639899548,31.893829822136865,34.07720099438711,30
250.0,78.9,78.67521491911374,74.54090676255089,76.75696307840775,31.91825184070599,34.13430815656285,30
258.0,78.79999999999998,78.6087468600826,74.54505596579425,76.79016747875345,31.818579381329158,34.06369089428836,30
265.0,78.79999999999998,78.60578351092602,74.57319498838703,76.80134339693168,31.804440113994332,34.03258852253899,30
272.0,78.6,78.49480008592012,74.57815539801872,76.7478627486109,31.74693733730922,33.916644687901396,30
280.0,78.5,78.33886760639105,74.44857987048579,76.58189264513986,31.75697496125119,33.89028773590526,30
290.0,78.3,78.11873289318353,74.15569598742817,76.29623928079766,31.82249361238587,33.96303690575536,30
300.0,78.2,77.97641610729679,73.84086510318389,76.06943780551036,31.906978301786424,34.1355510041129,30
307.0,78.3,77.95847899642256,73.63362232171126,75.96102202766473,31.99745696875783,34.3248566747113,30
315.0,78.2,77.91348050606571,73.38827886700602,75.82840234367822,32.08507816238749,34.52520163905969,30
325.0,78.1,77.75847899642257,73.04759115564192,75.57498659481836,32.18349240160421,34.71088784078064,30
335.0,78.1,77.66237653292863,72.73794089155851,75.40475026448506,32.25762626844357,34.924435641370124,30
345.0,78.2,77.722837063086,72.52865197575255,75.3449286441252,32.3779084189608,35.19418508733345,30
355.0,78.1,77.66049771818892,72.2996164690555,75.17980622558153,32.48069149260739,35.36088124913343,30
365.0,78.1,77.60552924341347,72.22565836384365,75.11934911762307,32.4861801257904,35.37987087956982,30
375.0,78.2,77.76621892984065,72.5404965407737,75.40340281476239,32.36281611507826,35.225722389066945,30
387.0,78.1,77.62566272173147,72.25840396793195,75.1658203083112,32.459842413420276,35.36725875379952,30
400.0,77.9,77.39271694006719,71.93740353903713,74.92465449550467,32.46806244456252,35.455313401030054,30
412.0,78.4,77.88195145622112,72.37915437676499,75.35591090023959,32.526040555981524,35.50279707945613,30
425.0,78.9,78.3819514562211,72.9191956163495,75.87123988292207,32.510711573299034,35.462755839871605,30
437.0,78.70000000000002,78.271166874164,72.7901783960725,75.75437952513414,32.516787349029855,35.48098847809149,30
450.0,78.6,78.18035423868639,72.71485351339521,75.6450203012062,32.53533393748019,35.46550072529118,30
462.0,78.5,78.09207046664511,72.6547588278209,75.56035376045782,32.5317167061873,35.43731163882421,30
475.0,78.4,77.89695598730296,72.20936459059651,75.18938084907418,32.707575138228776,35.68759139670645,30
487.0,78.4,77.91746435647063,71.93246609244632,75.05107416171036,32.86639019476027,35.98499826402431,30
500.0,78.0,77.59132965571152,71.30329652981452,74.58272272886873,33.00860692684279,36.288033125897,30
515.0,78.0,77.5266518924998,70.9544310429331,74.36380970967261,33.16284218282719,36.572220849566705,30
530.0,78.1,77.51373066054217,70.70514028821576,74.2151350690545,33.29859559148767,36.80859037232641,30
545.0,77.9,77.22673619596989,70.22921308450333,73.78756306645622,33.43917312951368,36.99752311146656,30
560.0,77.8,77.10669895155426,70.33928476090274,73.78578996319408,33.32090898836019,36.76741419065152,30
580.0,77.4,76.83090279925426,70.49872547740523,73.8289361291349,33.00196667011936,36.33217732184903,30
600.0,78.4,77.86453557779492,71.71724296165738,74.99194921854817,32.87258635924675,36.14729261613755,30
615.0,78.2,77.60705248704275,71.47440320890593,74.67986959075529,32.92718289628746,36.132649278136824,30
630.0,77.8,77.21775600519918,71.0155695710386,74.2258454982349,32.991910506964274,36.20218643416058,30
650.0,77.8,77.15923309372214,70.73025794172152,74.07802739957353,33.08120569414861,36.42897515200062,30
670.0,78.1,77.3191878166624,70.33268841910272,73.85672862914389,33.46245918751852,36.98649939755968,30
690.0,77.1,76.4159178399226,69.77246607866275,73.1535479527441,33.262369887178494,36.643451761259854,30
710.0,75.6,74.95400708000068,68.25001548679683,71.66116957337904,33.29283750662164,36.70399159320385,30
730.0,74.7,74.09158861250178,67.70386120132576,70.9607122892375,33.130876323264275,36.387727411176016,30
750.0,74.1,73.61484699284222,68.11640320041886,71.10011562007757,32.51473137276464,35.49844379242336,30
775.0,73.70000000000002,73.41478551362863,69.05227601810033,71.72594176230007,31.688843751328562,34.3625094955283,30
800.0,73.6,73.68052357459737,70.48106909997256,72.9914860324631,30.689037542134272,33.199454474624815,30
825.0,74.0,74.43636622533265,71.32588154524336,73.96576262127974,30.47060360405291,33.110484680089286,30
850.0,74.7,75.31474739610984,71.56068075750542,74.30407489975872,31.01067249635112,33.754066638604414,30
875.0,76.4,76.7489262980242,71.8463498799706,74.97921189605205,31.769714401972152,34.9025764180536,30
900.0,77.2,76.93106905233675,70.69877597655498,74.38208824480617,32.54898080753058,36.23229307578177,30
925.0,77.6,77.12291532720704,70.12150830104028,74.18842209278353,32.93449323442351,37.00140702616676,30
950.0,77.4,76.58519785369069,68.63671060627695,73.03584422059885,33.54935363309184,37.94848724741374,30
975.0,77.9,76.98113587077607,68.53563941664576,73.1423249321609,33.83881093861517,38.44549645413031,30
1000.0,78.0,76.96997737860153,68.36546077528465,73.03211925184081,33.937858126760716,38.60451660331688,30
1030.0,78.3,77.35784548606078,68.91593812230171,73.46314573818475,33.89469974787603,38.44190736375907,30
1060.0,78.0,77.2739759120567,69.03325592571701,73.61800942789698,33.65596648415972,38.240719986339684,30
1090.0,77.69999999999999,76.94822121793553,68.92179342689275,73.41968362429796,33.528537593637566,38.02642779104278,30
1120.0,77.0,76.278547694926,68.63686582480184,72.93332825148327,33.34521944344273,37.64168187012416,30
1150.0,75.7,75.17879833329994,68.33027860045905,72.37613979994366,32.80265853335628,36.848519732840884,30
1180.0,76.9,76.66230592293935,69.87444655954762,73.90039202283603,32.76191390010332,36.78785936339173,30
1220.0,78.79999999999998,78.60506390023367,71.45677026466329,75.57324792638143,33.03181597385225,37.14829363557038,30
1250.0,79.0,78.78656163822647,71.4309033255271,75.55415303296677,33.23240860525971,37.355658312699376,30
1280.0,79.1,78.82667041982863,71.18008781851621,75.2997496993087,33.526920720519925,37.64658260131242,30
1320.0,79.1,78.65518451194524,71.15152752665004,75.09031032206694,33.564874189878296,37.503656985295194,30
1360.0,78.4,77.59548884891167,69.3839071106143,73.40126680913883,34.19422203977284,38.21158173829737,30
1400.0,77.9,76.68713797179726,67.83729718239216,71.97015487921787,34.71698309257938,38.84984078940509,30
1450.0,77.2,75.60814080005397,66.55685817496979,70.70381072329369,34.90433007676029,39.051282625084184,30
1500.0,76.7,75.08456255668489,66.08847526428252,70.27936623120587,34.80519632547902,38.996087292402365,30
1550.0,76.7,75.01771666197098,66.24325254201716,70.43934524833983,34.578371413631146,38.77446411995382,30
1600.0,77.0,75.54739096797752,67.20741325414173,71.37371320916635,34.173677758811166,38.33997771383579,30
1650.0,77.0,75.8938767930165,67.83726488503986,72.07968590817102,33.81419088484549,38.056611907976645,30
1700.0,76.6,74.93754085525184,66.43330106722269,70.72843099098137,34.209109864270474,38.50423978802915,30
1750.0,76.7,74.98463095405023,66.54303560483442,70.89433224267324,34.09029871137699,38.44159534921582,30
1800.0,77.0,75.68536008672478,67.10450295570476,71.62767649728511,34.05768358943968,38.580857131020025,30
1850.0,77.5,75.88461520935489,66.75728715074924,71.4387226397935,34.445892569561394,39.127328058605656,30
1900.0,77.69999999999999,75.85235354108535,67.20844317949782,71.63714871376172,34.21520482732363,38.64391036158753,30
1950.0,77.6,75.97106913781627,68.22988325436683,72.41764851847998,33.55342061933629,37.74118588344945,30
2000.0,77.69999999999999,76.7682868445462,69.29384201176804,73.40198245155122,33.36630439299498,37.47444483277816,30
2060.0,77.5,76.88232680863459,69.43927168626223,73.47156352224073,33.41076328639386,37.44305512237236,30
2120.0,77.2,76.63691816724776,69.06221516773002,73.2353566971692,33.40156147007856,37.57470299951774,30
2180.0,77.4,76.61455423309208,68.43604923850366,72.8117260857513,33.802828147340776,38.17850499458842,30
2240.0,77.9,77.134823075995,68.84337391782465,73.22318526627348,33.911637809721526,38.29144915817035,30
2300.0,78.70000000000002,77.72015777533205,69.39714176194377,73.93369358676716,33.78646418856489,38.32301601338828,30
2360.0,78.5,77.66637751597992,69.25776420111671,73.81466889706809,33.85170861891183,38.4086133148632,30
2400.0,78.4,77.49064521163646,69.7104447043327,74.10893286789695,33.38171234373951,37.78020050730376,30
2500.0,78.2,77.72259937897704,70.0139406151021,74.45269442342936,33.26990495554767,37.708658763874936,30
2580.0,78.2,77.58289158100303,69.4467297804575,73.966758974458,33.61613260654502,38.13616180054552,30
2650.0,78.70000000000002,77.8875231849168,69.44945749371664,73.97927019000711,33.90825299490969,38.438065691200165,30
2720.0,78.5,77.63137785445605,69.37334061039466,73.81449827547235,33.8168795789837,38.258037244061384,30
2800.0,77.6,77.11859833764252,69.2996576097889,73.60521339240924,33.513384945233284,37.81894072785363,30
2900.0,75.8,76.77445822153162,68.98795184800645,73.38985622177063,33.38460199976099,37.78650637352517,30
3000.0,74.80000000000001,75.80045430814464,67.57914296171015,72.02216514280207,33.77828916534257,38.22131134643449,30
3070.0,75.4,76.47212047025654,68.16375582606895,72.52689267882002,33.94522779143652,38.30836464418759,30
3150.0,75.6,76.83934561792609,68.46686704358065,72.78550054943614,34.05384506848995,38.372478574345436,30
3250.0,76.29999999999998,77.895438376941,69.78793359512318,73.94408139189842,33.95135698504258,38.10750478181782,30
3350.0,76.4,76.14649984786965,67.9395253637823,72.15268422472556,33.99381562314409,38.206974484087354,30
3450.0,77.4,76.42628544537129,67.14766910283026,71.83459008573024,34.59169535964105,39.27861634254103,30
3550.0,78.3,76.76544131221675,67.09444899068899,71.9195554045374,34.845885907679346,39.67099232152776,30
3650.0,79.2,77.59254313054966,67.72422859056255,72.65031360147819,34.94222952907147,39.86831453998711,30
3750.0,79.2,77.64255666373111,68.08585352080364,72.94349221366731,34.6990644500638,39.556703142927475,30
3870.0,79.0,76.46130754691808,67.11057579338744,72.07902280190423,34.38228474501385,39.35073175353064,30
4000.0,79.0,76.31719224060572,66.7175775394749,71.8082567314739,34.50893550913182,39.59961470113082,30
4120.0,79.1,76.37343932380924,66.47701086934524,71.62444624601564,34.7489930777936,39.896428454464,30
4250.0,78.3,75.60870198119794,65.59748664993853,70.72385838460664,34.884843596591296,40.01121533125941,30
4370.0,76.8,74.14383429650188,64.12656595700496,69.24379682305582,34.90003747344606,40.01726833949692,30
4500.0,76.6,74.02892073334334,64.43678269076929,69.36180252666827,34.66711820667507,39.59213804257405,30
