Freq,On Axis,Listening Window,Sound Power,Early Reflections,Early Reflections DI,Sound Power DI,DI offset
22.4,28.799999999999983,31.324578071595084,30.25209226687724,30.454185199718637,30.870392871876447,31.072485804717843,30
23.0,30.0,32.62162345290224,31.825834730645255,32.07938668130299,30.54223677159925,30.795788722256987,30
23.6,31.200000000000017,33.77627081151033,33.296022713997075,33.60719033130448,30.16908048020585,30.480248097513254,30
24.0,32.400000000000006,34.084571879329616,33.60797452185315,33.88184488496634,30.202726994363275,30.476597357476464,30
25.0,33.599999999999994,34.42091002344907,33.90309815271331,34.13410861060947,30.286801412839594,30.517811870735756,30
25.8,34.79999999999998,34.79376358120399,34.32064849564236,34.491124107158385,30.302639474045606,30.47311508556163,30
26.5,36.0,35.2431917131033,34.92693057066549,35.01269069847095,30.230501014632353,30.31626114243781,30
27.2,37.099999999999994,37.22045403109399,36.77877597095181,36.779439902799396,30.441014128294597,30.44167806014218,30
28.0,38.29999999999998,40.03865438449421,39.3529993013876,39.316670225713864,30.721984158780344,30.68565508310661,30
29.0,39.5,44.06225134082868,43.00943777298403,43.033413128805506,31.028838212023174,31.05281356784465,30
30.0,40.599999999999994,48.33992124586533,47.01346875490901,47.1982382960918,31.141682949773525,31.326452490956314,30
30.7,41.70000000000002,45.184858695369684,44.69950533710906,44.22005934416123,30.964799351208455,30.485353358260625,30
31.5,42.900000000000006,44.21891652565938,44.187093032000206,43.43757885658928,30.781337669070098,30.031823493659175,30
32.5,44.0,44.10532727889304,44.31270494348047,43.44994649608219,30.65538078281085,29.792622335412574,30
33.5,45.099999999999994,45.26824631979767,45.43822424936192,44.52932251925111,30.73892380054656,29.830022070435746,30
34.5,46.20000000000002,47.03104033198534,47.05709347026581,46.11520752059718,30.915832811388157,29.973946861719526,30
35.5,47.20000000000002,51.10754435997623,50.550249392643735,49.880951538469816,31.226592821506415,30.557294967332496,30
36.5,48.29999999999998,54.58072535170291,53.51693416423069,53.407637127847096,31.173088223855814,31.06379118747222,30
37.5,49.29999999999998,55.453764199260334,54.4477587481924,54.599848213288794,30.85391598597154,31.006005451067935,30
38.7,50.400000000000006,55.99369954166524,54.844465745758754,55.277105991161946,30.71659355050329,31.149233795906483,30
40.0,51.400000000000006,54.84427943732064,53.3548578913726,53.81189458057506,31.03238485674558,31.489421545948034,30
41.2,52.5,54.69964351862819,53.12682867364077,53.51980988895147,31.179833629676722,31.57281484498742,30
42.5,53.599999999999994,54.09679158091657,52.72698377102415,53.06823862736573,31.028552953550843,31.36980780989242,30
43.7,54.599999999999994,54.07239544864379,53.269327395318726,53.58141986030958,30.49097558833421,30.803068053325063,30
45.0,55.7,55.17272464905393,55.11775395592872,55.27519069498494,29.89753395406899,30.054970693125213,30
46.2,56.8,56.77218885100419,57.03295587374785,56.59914966385706,30.173039187147126,29.739232977256336,30
47.5,57.900000000000006,58.19754711803189,58.70675301150868,57.871702216128455,30.325844901903437,29.49079410652321,30
48.7,59.099999999999994,57.307191285337524,58.14544047422807,57.69683541286402,29.610355872473505,29.161750811109457,30
50.0,60.2,57.397581810303706,58.44879316200384,58.38972595528497,29.007855855018732,28.948788648299868,30
51.5,61.400000000000006,59.936220923717656,60.1294096828546,60.233443590206264,29.702777333511392,29.806811240863055,30
53.0,62.5,62.58875688812067,61.9270168609673,62.14174014212867,30.447016745992002,30.66174002715337,30
54.5,63.69999999999999,63.325442362401674,62.284657184169035,62.66485760098655,30.660584761415123,31.04078517823264,30
56.0,64.79999999999998,64.27420574222009,63.22618533176302,63.63598906256347,30.638216679656622,31.04802041045707,30
58.0,65.80000000000001,65.24284195726327,64.49274135348848,64.83167046250125,30.411171494762016,30.750100603774783,30
60.0,66.8,66.30081494528993,65.60128072901135,65.92096010039279,30.37985484489714,30.69953421627858,30
61.5,67.7,67.55380571312676,66.69165526137351,67.00854896514834,30.545256747978428,30.86215045175325,30
63.0,68.6,68.49239018780038,67.67237641474811,67.99263807596202,30.49975211183836,30.820013773052267,30
65.0,69.4,69.26914984960715,68.5547382018952,68.8844645233992,30.384685326207943,30.71441164771194,30
67.0,70.1,70.03156467700876,69.33068857110435,69.61905298974716,30.4125116872616,30.700876105904413,30
69.0,70.80000000000001,70.64849241169938,69.95945580231091,70.22656462678404,30.42192778491534,30.689036609388467,30
71.0,71.4,71.0930763407043,70.45856684882787,70.7131767661914,30.379899574512905,30.63450949187643,30
73.0,71.9,71.79003378352644,71.2220453610041,71.43887623137111,30.35115755215533,30.567988422522333,30
75.0,72.4,72.4229370306997,71.97721928215256,72.12213714984892,30.300799880850775,30.44571774854714,30
77.5,72.9,72.95609803813525,72.576786131982,72.68172370593771,30.27437433219754,30.379311906153248,30
80.0,73.4,73.37901040403635,73.05076373447935,73.16277514960986,30.216235254426493,30.328246669557004,30
82.5,73.9,73.78951489542683,73.55567825417253,73.6406899715103,30.148824923916536,30.2338366412543,30
85.0,74.4,74.3119852053599,74.16190610247637,74.19098096732995,30.121004238029954,30.150079102883538,30
87.5,75.0,74.86768934561613,74.75952965288845,74.75617849396437,30.111510851651758,30.108159692727682,30
90.0,75.5,75.41173585711584,75.29408673427378,75.32533505748486,30.08640079963098,30.117649122842067,30
92.5,76.1,76.02293110248063,75.79275172018438,75.84282060954767,30.180110492932954,30.230179382296242,30
95.0,76.6,76.567941235565,76.34348293774144,76.41391892686717,30.154022308697833,30.22445829782356,30
97.5,77.20000000000002,77.16768934561613,76.81535815819691,76.94616121272782,30.22152813288831,30.35233118741921,30
100.0,77.8,77.73511299152682,77.23635532029633,77.45199318676953,30.28311980475729,30.498757671230493,30
103.0,78.2,78.23485919027594,77.54304318776062,77.85482774281732,30.38003144745862,30.691816002515324,30
106.0,78.6,78.6681873776849,77.79048330243184,78.21459791758095,30.453589460103956,30.877704075253064,30
109.0,79.0,78.98152289117915,77.9524272505183,78.45659777958136,30.524925111597796,31.029095640660856,30
112.0,79.2,79.15710245463163,78.06573994694914,78.63099456800626,30.52610788662537,31.09136250768249,30
115.0,79.3,79.3010174732211,78.11854185247019,78.72241359936812,30.57860387385297,31.182475620750907,30
118.0,79.4,79.33434563061503,78.1228536096362,78.72526079226657,30.609084838348465,31.211492020978838,30
122.0,79.4,79.34548281841984,78.08542167016014,78.69881649664768,30.64666632177216,31.260061148259695,30
125.0,79.3,79.27874146142716,78.00401880724198,78.61138773603435,30.667353725392815,31.274722654185183,30
128.0,79.3,79.21224034685125,77.90957086493982,78.53018008390382,30.68206026294743,31.302669481911423,30
132.0,79.3,79.16818737768492,77.81619866183775,78.45724352389095,30.710943853793964,31.35198871584717,30
136.0,79.3,79.1800035489201,77.78263077355872,78.43155874427154,30.748444804648557,31.397372775361376,30
140.0,79.3,79.1800035489201,77.68792677907548,78.37864931922607,30.801354229694027,31.492076769844616,30
145.0,79.3,79.10404030110837,77.47449771457872,78.2169477721564,30.887092528951968,31.629542586529652,30
150.0,79.2,78.98201933948496,77.15166654542384,78.01492381131003,30.967095528174937,31.830352794061127,30
155.0,79.0,78.79302912475684,76.84849765033596,77.79460313143957,30.99842599331727,31.944531474420884,30
160.0,78.69999999999999,78.56037932894544,76.50997756288942,77.4900507090416,31.070328619903847,32.05040176605603,30
165.0,78.5,78.37122127302518,76.21204565857916,77.25643202815556,31.114789244869627,32.15917561444603,30
170.0,78.5,78.28278417074698,76.01423263052837,77.12321021664062,31.159573954106364,32.26855154021861,30
175.0,78.6,78.37194243394785,76.03439335852937,77.17961802374458,31.19232441020327,32.33754907541848,30
180.0,78.8,78.59354759317682,76.18853087858471,77.35131493911052,31.2422326540663,32.40501671459211,30
185.0,79.0,78.72970811072229,76.27000394097695,77.44243815086844,31.287269959853845,32.459704169745336,30
190.0,78.9,78.61951502143822,76.05081060859838,77.27860984445147,31.34090517698675,32.568704412839836,30
195.0,78.6,78.23148840171298,75.53106525149798,76.81630704621816,31.415181355494823,32.700423150215,30
200.0,78.0,77.6559745682038,74.724274959731,76.12604346525193,31.529931102951878,32.9316996084728,30
206.0,77.6,77.2351920250685,73.99018750368765,75.57026494334735,31.664927081721146,33.24500452138085,30
212.0,77.6,77.26835145836804,73.7472509971762,75.53811350133307,31.730237957034973,33.52110046119185,30
218.0,78.0,77.72322886529997,73.96071619034826,75.92302001044614,31.800208854853835,33.76251267495171,30
224.0,78.5,78.21951502143823,74.3531947987432,76.42610072363031,31.793414297807914,33.86632022269502,30
230.0,78.9,78.63344755728704,74.72443911435224,76.79888843343488,31.83455912385216,33.909008442934805,30
236.0,79.0,78.66640184299462,74.71387433880913,76.83217686977882,31.834224973215797,33.95252750418548,30
240.0,78.9,78.63121622113235,74.55401522674525,76.73738639899548,31.893829822136865,34.0772009943871,30
250.0,78.9,78.67521491911376,74.54090676255089,76.75696307840774,31.91825184070602,34.13430815656287,30
258.0,78.8,78.60874686008262,74.54505596579426,76.79016747875345,31.818579381329172,34.06369089428836,30
265.0,78.8,78.60578351092603,74.57319498838704,76.80134339693168,31.804440113994346,34.03258852253899,30
272.0,78.6,78.4948000859201,74.57815539801874,76.7478627486109,31.746937337309205,33.91664468790137,30
280.0,78.5,78.33886760639106,74.44857987048577,76.58189264513986,31.756974961251203,33.89028773590529,30
290.0,78.30000000000001,78.11873289318353,74.15569598742817,76.29623928079766,31.82249361238587,33.96303690575536,30
300.0,78.2,77.97641610729679,73.84086510318389,76.06943780551038,31.90697830178641,34.1355510041129,30
307.0,78.30000000000001,77.95847899642257,73.63362232171126,75.96102202766473,31.997456968757845,34.32485667471131,30
315.0,78.2,77.9134805060657,73.38827886700604,75.82840234367822,32.085078162387475,34.52520163905966,30
325.0,78.1,77.75847899642257,73.0475911556419,75.57498659481836,32.18349240160421,34.71088784078067,30
335.0,78.1,77.66237653292865,72.73794089155851,75.40475026448507,32.25762626844357,34.92443564137014,30
345.0,78.2,77.72283706308599,72.52865197575255,75.3449286441252,32.377908418960786,35.19418508733344,30
355.0,78.1,77.66049771818892,72.29961646905548,75.17980622558153,32.48069149260739,35.36088124913344,30
365.0,78.1,77.60552924341346,72.22565836384365,75.11934911762307,32.48618012579038,35.37987087956981,30
375.0,78.2,77.76621892984065,72.54049654077369,75.40340281476239,32.36281611507826,35.22572238906696,30
387.0,78.1,77.62566272173146,72.25840396793195,75.16582030831121,32.45984241342025,35.367258753799504,30
400.0,77.9,77.3927169400672,71.93740353903713,74.92465449550468,32.46806244456252,35.45531340103007,30
412.0,78.4,77.8819514562211,72.37915437676497,75.3559109002396,32.526040555981496,35.50279707945613,30
425.0,78.9,78.38195145622112,72.91919561634948,75.87123988292205,32.51071157329906,35.46275583987163,30
437.0,78.69999999999999,78.271166874164,72.79017839607252,75.75437952513415,32.51678734902984,35.480988478091476,30
450.0,78.6,78.1803542386864,72.71485351339521,75.6450203012062,32.5353339374802,35.46550072529119,30
462.0,78.5,78.09207046664511,72.6547588278209,75.56035376045779,32.531716706187325,35.43731163882421,30
475.0,78.4,77.89695598730296,72.20936459059651,75.18938084907417,32.70757513822879,35.68759139670645,30
487.0,78.4,77.91746435647063,71.93246609244632,75.05107416171036,32.86639019476027,35.98499826402431,30
500.0,78.0,77.59132965571149,71.30329652981452,74.58272272886873,33.00860692684276,36.28803312589697,30
515.0,78.0,77.5266518924998,70.9544310429331,74.36380970967261,33.16284218282719,36.572220849566705,30
530.0,78.1,77.51373066054217,70.70514028821576,74.21513506905448,33.29859559148768,36.80859037232641,30
545.0,77.9,77.22673619596988,70.22921308450333,73.78756306645622,33.43917312951366,36.99752311146655,30
560.0,77.8,77.10669895155426,70.33928476090274,73.78578996319409,33.32090898836017,36.76741419065152,30
580.0,77.4,76.83090279925428,70.49872547740524,73.8289361291349,33.00196667011937,36.33217732184903,30
600.0,78.4,77.86453557779492,71.71724296165739,74.99194921854817,32.87258635924675,36.147292616137534,30
615.0,78.2,77.60705248704275,71.47440320890593,74.67986959075529,32.92718289628746,36.132649278136824,30
630.0,77.8,77.21775600519918,71.0155695710386,74.2258454982349,32.991910506964274,36.20218643416058,30
650.0,77.8,77.15923309372214,70.73025794172152,74.07802739957353,33.08120569414861,36.42897515200062,30
670.0,78.1,77.31918781666242,70.33268841910274,73.85672862914389,33.46245918751853,36.98649939755968,30
690.0,77.1,76.4159178399226,69.77246607866275,73.15354795274409,33.26236988717851,36.643451761259854,30
710.0,75.6,74.95400708000068,68.25001548679684,71.66116957337904,33.29283750662164,36.70399159320384,30
730.0,74.70000000000002,74.0915886125018,67.70386120132576,70.96071228923752,33.130876323264275,36.38772741117603,30
750.0,74.1,73.61484699284222,68.11640320041883,71.10011562007756,32.51473137276466,35.49844379242339,30
775.0,73.69999999999999,73.41478551362863,69.05227601810032,71.72594176230007,31.688843751328562,34.362509495528315,30
800.0,73.6,73.68052357459737,70.48106909997256,72.99148603246311,30.68903754213426,33.199454474624815,30
825.0,74.0,74.43636622533266,71.32588154524336,73.96576262127974,30.470603604052926,33.1104846800893,30
850.0,74.70000000000002,75.31474739610984,71.56068075750542,74.30407489975872,31.01067249635112,33.754066638604414,30
875.0,76.4,76.74892629802419,71.84634987997062,74.97921189605205,31.769714401972138,34.90257641805357,30
900.0,77.20000000000002,76.93106905233675,70.69877597655498,74.38208824480617,32.54898080753058,36.23229307578177,30
925.0,77.6,77.12291532720704,70.12150830104027,74.18842209278353,32.93449323442351,37.001407026166774,30
950.0,77.4,76.5851978536907,68.63671060627695,73.03584422059883,33.54935363309187,37.94848724741375,30
975.0,77.9,76.98113587077607,68.53563941664578,73.14232493216089,33.83881093861518,38.44549645413029,30
1000.0,78.0,76.96997737860153,68.36546077528462,73.03211925184081,33.937858126760716,38.60451660331691,30
1030.0,78.30000000000001,77.35784548606077,68.9159381223017,73.46314573818475,33.89469974787602,38.44190736375907,30
1060.0,78.0,77.2739759120567,69.03325592571699,73.61800942789696,33.655966484159734,38.24071998633971,30
1090.0,77.7,76.94822121793554,68.92179342689273,73.41968362429796,33.52853759363758,38.026427791042806,30
1120.0,77.0,76.27854769492599,68.63686582480184,72.93332825148326,33.34521944344273,37.641681870124145,30
1150.0,75.7,75.17879833329994,68.33027860045907,72.37613979994367,32.802658533356265,36.84851973284087,30
1180.0,76.9,76.66230592293935,69.87444655954764,73.90039202283603,32.76191390010332,36.78785936339172,30
1220.0,78.8,78.60506390023367,71.45677026466329,75.57324792638144,33.03181597385223,37.14829363557038,30
1250.0,79.0,78.78656163822647,71.43090332552708,75.55415303296675,33.23240860525972,37.35565831269939,30
1280.0,79.1,78.82667041982862,71.18008781851621,75.2997496993087,33.52692072051991,37.6465826013124,30
1320.0,79.1,78.65518451194524,71.15152752665003,75.09031032206695,33.56487418987828,37.50365698529521,30
1360.0,78.4,77.59548884891167,69.3839071106143,73.40126680913883,34.19422203977284,38.21158173829737,30
1400.0,77.9,76.68713797179724,67.83729718239215,71.97015487921786,34.71698309257938,38.84984078940509,30
1450.0,77.20000000000002,75.60814080005399,66.55685817496979,70.70381072329369,34.9043300767603,39.0512826250842,30
1500.0,76.7,75.08456255668486,66.08847526428254,70.27936623120587,34.80519632547899,38.99608729240232,30
1550.0,76.7,75.01771666197098,66.24325254201716,70.43934524833983,34.578371413631146,38.77446411995382,30
1600.0,77.0,75.54739096797752,67.20741325414171,71.37371320916635,34.173677758811166,38.33997771383581,30
1650.0,77.0,75.8938767930165,67.83726488503986,72.07968590817102,33.81419088484549,38.056611907976645,30
1700.0,76.6,74.93754085525185,66.43330106722269,70.72843099098137,34.20910986427049,38.50423978802917,30
1750.0,76.7,74.98463095405023,66.54303560483442,70.89433224267324,34.09029871137699,38.44159534921582,30
1800.0,77.0,75.68536008672478,67.10450295570476,71.62767649728512,34.05768358943966,38.580857131020025,30
1850.0,77.5,75.88461520935488,66.75728715074924,71.43872263979351,34.445892569561366,39.12732805860564,30
1900.0,77.7,75.85235354108536,67.20844317949782,71.63714871376172,34.215204827323646,38.643910361587544,30
1950.0,77.6,75.97106913781627,68.22988325436683,72.41764851847996,33.55342061933631,37.74118588344945,30
2000.0,77.7,76.7682868445462,69.29384201176805,73.40198245155122,33.36630439299498,37.47444483277815,30
2060.0,77.5,76.88232680863459,69.43927168626223,73.47156352224073,33.41076328639386,37.44305512237236,30
2120.0,77.20000000000002,76.63691816724776,69.06221516773002,73.23535669716921,33.40156147007855,37.57470299951774,30
2180.0,77.4,76.6145542330921,68.43604923850364,72.8117260857513,33.80282814734079,38.17850499458845,30
2240.0,77.9,77.13482307599499,68.84337391782465,73.22318526627348,33.91163780972151,38.29144915817034,30
2300.0,78.69999999999999,77.72015777533205,69.39714176194377,73.93369358676716,33.78646418856489,38.32301601338828,30
2360.0,78.5,77.6663775159799,69.25776420111671,73.81466889706809,33.851708618911815,38.40861331486319,30
2400.0,78.4,77.49064521163646,69.7104447043327,74.10893286789695,33.38171234373951,37.78020050730376,30
2500.0,78.2,77.72259937897705,70.01394061510209,74.45269442342938,33.26990495554767,37.708658763874965,30
2580.0,78.2,77.58289158100303,69.4467297804575,73.96675897445797,33.61613260654505,38.13616180054552,30
2650.0,78.69999999999999,77.8875231849168,69.44945749371664,73.97927019000711,33.90825299490969,38.438065691200165,30
2720.0,78.5,77.63137785445605,69.37334061039468,73.81449827547233,33.816879578983716,38.25803724406137,30
2800.0,77.6,77.11859833764251,69.29965760978891,73.60521339240924,33.51338494523327,37.8189407278536,30
2900.0,75.80000000000001,76.7744582215316,68.98795184800645,73.38985622177063,33.384601999760974,37.78650637352516,30
3000.0,74.79999999999998,75.80045430814462,67.57914296171013,72.02216514280207,33.77828916534256,38.22131134643449,30
3070.0,75.4,76.47212047025654,68.16375582606895,72.52689267882002,33.94522779143652,38.30836464418759,30
3150.0,75.6,76.83934561792609,68.46686704358066,72.78550054943612,34.05384506848996,38.37247857434542,30
3250.0,76.3,77.89543837694102,69.78793359512318,73.94408139189841,33.95135698504261,38.10750478181784,30
3350.0,76.4,76.14649984786963,67.93952536378231,72.15268422472556,33.99381562314407,38.206974484087326,30
3450.0,77.4,76.42628544537129,67.14766910283026,71.83459008573023,34.591695359641065,39.27861634254103,30
3550.0,78.30000000000001,76.76544131221675,67.09444899068897,71.9195554045374,34.845885907679346,39.67099232152778,30
3650.0,79.2,77.59254313054966,67.72422859056253,72.6503136014782,34.942229529071454,39.868314539987125,30
3750.0,79.2,77.64255666373111,68.08585352080364,72.9434922136673,34.699064450063815,39.556703142927475,30
3870.0,79.0,76.46130754691808,67.11057579338745,72.07902280190423,34.38228474501385,39.350731753530624,30
4000.0,79.0,76.31719224060569,66.71757753947492,71.8082567314739,34.50893550913179,39.599614701130776,30
4120.0,79.1,76.37343932380924,66.47701086934524,71.62444624601562,34.748993077793614,39.896428454464,30
4250.0,78.30000000000001,75.60870198119794,65.59748664993853,70.72385838460666,34.88484359659128,40.01121533125941,30
4370.0,76.8,74.1438342965019,64.12656595700496,69.24379682305579,34.900037473446105,40.01726833949694,30
