Freq "On Axis"
22.4 29.324050632911366
23.0 30.524050632911383
23.6 31.7240506329114
24.0 32.92405063291139
25.0 34.12405063291138
25.8 35.324050632911366
26.5 36.52405063291138
27.2 37.62405063291138
28.0 38.824050632911366
29.0 40.02405063291138
30.0 41.12405063291138
30.7 42.2240506329114
31.5 43.42405063291139
32.5 44.52405063291138
33.5 45.62405063291138
34.5 46.7240506329114
35.5 47.7240506329114
36.5 48.824050632911366
37.5 49.824050632911366
38.7 50.92405063291139
40.0 51.92405063291139
41.2 53.02405063291138
42.5 54.12405063291138
43.7 55.12405063291138
45.0 56.224050632911386
46.2 57.32405063291138
47.5 58.42405063291139
48.7 59.62405063291138
50.0 60.72405063291137
51.5 61.92405063291139
53.0 63.02405063291138
54.5 64.2240506329114
56.0 65.3240506329114
58.0 66.32405063291138
60.0 67.32405063291138
61.5 68.22405063291137
63.0 69.12405063291138
65.0 69.92405063291139
67.0 70.62405063291138
69.0 71.32405063291138
71.0 71.92405063291139
73.0 72.42405063291139
75.0 72.92405063291139
77.5 73.42405063291139
80.0 73.92405063291139
82.5 74.42405063291139
85.0 74.92405063291139
87.5 75.52405063291138
90.0 76.02405063291138
92.5 76.62405063291138
95.0 77.12405063291138
97.5 77.72405063291139
100.0 78.32405063291138
103.0 78.72405063291139
106.0 79.12405063291138
109.0 79.52405063291138
112.0 79.72405063291139
115.0 79.82405063291138
118.0 79.92405063291139
122.0 79.92405063291139
125.0 79.82405063291138
128.0 79.82405063291138
132.0 79.82405063291138
136.0 79.82405063291138
140.0 79.82405063291138
145.0 79.82405063291138
150.0 79.72405063291139
155.0 79.52405063291138
160.0 79.2240506329114
165.0 79.02405063291138
170.0 79.02405063291138
175.0 79.12405063291138
180.0 79.32405063291137
185.0 79.52405063291138
190.0 79.42405063291139
195.0 79.12405063291138
200.0 78.52405063291138
206.0 78.12405063291138
212.0 78.12405063291138
218.0 78.52405063291138
224.0 79.02405063291138
230.0 79.42405063291139
236.0 79.52405063291138
240.0 79.42405063291139
250.0 79.42405063291139
258.0 79.32405063291137
265.0 79.32405063291137
272.0 79.12405063291138
280.0 79.02405063291138
290.0 78.82405063291138
300.0 78.72405063291139
307.0 78.82405063291138
315.0 78.72405063291139
325.0 78.62405063291138
335.0 78.62405063291138
345.0 78.72405063291139
355.0 78.62405063291138
365.0 78.62405063291138
375.0 78.72405063291139
387.0 78.62405063291138
400.0 78.42405063291139
412.0 78.92405063291139
425.0 79.42405063291139
437.0 79.2240506329114
450.0 79.12405063291138
462.0 79.02405063291138
475.0 78.92405063291139
487.0 78.92405063291139
500.0 78.52405063291138
515.0 78.52405063291138
530.0 78.62405063291138
545.0 78.42405063291139
560.0 78.32405063291138
580.0 77.92405063291139
600.0 78.92405063291139
615.0 78.72405063291139
630.0 78.32405063291138
650.0 78.32405063291138
670.0 78.62405063291138
690.0 77.62405063291138
710.0 76.12405063291138
730.0 75.22405063291139
750.0 74.62405063291138
775.0 74.2240506329114
800.0 74.12405063291138
825.0 74.52405063291138
850.0 75.22405063291139
875.0 76.92405063291139
900.0 77.72405063291139
925.0 78.12405063291138
950.0 77.92405063291139
975.0 78.42405063291139
1000.0 78.52405063291138
1030.0 78.82405063291138
1060.0 78.52405063291138
1090.0 78.22405063291137
1120.0 77.52405063291138
1150.0 76.22405063291139
1180.0 77.42405063291139
1220.0 79.32405063291137
1250.0 79.52405063291138
1280.0 79.62405063291138
1320.0 79.62405063291138
1360.0 78.92405063291139
1400.0 78.42405063291139
1450.0 77.72405063291139
1500.0 77.22405063291139
1550.0 77.22405063291139
1600.0 77.52405063291138
1650.0 77.52405063291138
1700.0 77.12405063291138
1750.0 77.22405063291139
1800.0 77.52405063291138
1850.0 78.02405063291138
1900.0 78.22405063291137
1950.0 78.12405063291138
2000.0 78.22405063291137
2060.0 78.02405063291138
2120.0 77.72405063291139
2180.0 77.92405063291139
2240.0 78.42405063291139
2300.0 79.2240506329114
2360.0 79.02405063291138
2400.0 78.92405063291139
2500.0 78.72405063291139
2580.0 78.72405063291139
2650.0 79.2240506329114
2720.0 79.02405063291138
2800.0 78.12405063291138
2900.0 76.32405063291138
3000.0 75.3240506329114
3070.0 75.92405063291139
3150.0 76.12405063291138
3250.0 76.82405063291137
3350.0 76.92405063291139
3450.0 77.92405063291139
3550.0 78.82405063291138
3650.0 79.72405063291139
3750.0 79.72405063291139
3870.0 79.52405063291138
4000.0 79.52405063291138
4120.0 79.62405063291138
4250.0 78.82405063291138
4370.0 77.32405063291138
4500.0 77.12405063291138
4620.0 78.22405063291137
4750.0 77.62405063291138
4870.0 77.42405063291139
5000.0 76.7240506329114
5150.0 76.82405063291137
5300.0 77.8240506329114
5450.0 79.32405063291137
5600.0 80.12405063291138
5800.0 79.72405063291139
6000.0 78.82405063291138
6150.0 79.42405063291139
6300.0 80.62405063291138
6500.0 80.02405063291138
6700.0 78.52405063291138
6900.0 78.82405063291138
7100.0 80.22405063291139
7300.0 79.72405063291139
7500.0 76.42405063291139
7750.0 76.42405063291139
8000.0 77.12405063291138
8250.0 77.22405063291139
8500.0 78.32405063291138
8750.0 77.8240506329114
9000.0 75.3240506329114
9250.0 78.12405063291138
9500.0 78.32405063291138
9750.0 75.02405063291138
10000.0 75.52405063291138
10300.0 78.92405063291139
10600.0 79.52405063291138
10900.0 76.82405063291137
11200.0 77.02405063291138
11500.0 67.22405063291139
11800.0 73.72405063291139
12200.0 77.42405063291139
12500.0 74.92405063291139
12800.0 75.22405063291139
13200.0 80.72405063291137
13600.0 77.52405063291138
14000.0 75.92405063291139
14500.0 78.42405063291139
15000.0 77.42405063291139
15500.0 77.32405063291138
16000.0 71.82405063291137
16500.0 73.82405063291138
17000.0 80.72405063291137
17500.0 78.42405063291139
18000.0 79.82405063291138
18500.0 76.52405063291138
19000.0 69.92405063291139
19500.0 67.8240506329114
