Freq "Rear Wall Bounce"
20.5078 64.46376934611375
21.9727 68.4454289830427
23.4375 70.17489524440607
24.9023 71.54351305408177
26.3672 72.49595814613625
27.832 73.72858656930188
29.2969 74.57644946527488
30.7617 75.5283093149449
32.2266 76.34453182092098
33.6914 76.96417465083742
35.1562 77.86008672325462
36.6211 78.37914915922343
38.0859 78.94285299567709
39.5508 79.5642074304184
41.0156 80.01091093005446
42.4805 80.46582308060572
43.9453 80.82212399318915
45.4102 81.19703130591576
46.875 81.55704829884075
48.3398 81.84520092549872
51.2695 82.31839199592334
52.7344 82.48235177922545
54.1992 82.618637660193
55.6641 82.73227860806189
58.5938 82.88098515728832
60.0586 82.90378639805381
62.9883 82.94315810316911
64.4531 82.95282396212141
67.3828 83.06304809808958
68.8477 83.01584446355703
71.7773 82.85112288514632
74.707 82.93663276950556
77.6367 82.77811193451127
79.1016 82.68439092524525
82.0312 82.54810831669455
84.9609 82.52510273091629
87.8906 82.59056246197706
90.8203 82.41631319110579
95.2148 82.30845479999078
98.1445 82.1339427329182
101.074 81.90501057910221
105.469 81.70664924757216
108.398 81.72863966456374
112.793 81.40158878115454
117.188 81.07391853450669
120.117 81.05832170975583
124.512 81.35677748553655
128.906 81.27306693502076
133.301 80.93962669741988
139.16 80.80809914859803
143.555 80.56613197918219
147.949 80.59541863484482
153.809 80.44092937415672
159.668 79.93263386598906
165.527 79.66311179321943
171.387 79.89754413025213
177.246 80.47163919028638
183.105 80.26171196468552
188.965 80.41923732173026
196.289 80.30754640584442
203.613 79.77095927479765
210.938 79.1846412293418
218.262 79.97976292141979
225.586 80.28398283742733
232.91 79.85210649816024
241.699 79.52075033334357
250.488 79.62186994414337
259.277 79.47461981395915
268.066 81.14625088358947
276.855 80.57103499212677
287.109 79.97433647750582
297.363 79.66660576542752
307.617 80.43462646883468
319.336 79.5790105073996
329.59 79.33736646847687
341.309 78.83562746001937
353.027 78.30596714480025
366.211 78.2529540184044
379.395 78.46100836698533
392.578 77.78275822110696
405.762 77.03180915384083
420.41 75.62123924466265
435.059 74.741415412489
451.172 75.27874068587276
465.82 77.19266611502947
483.398 78.81452441190807
499.512 79.35097706006974
517.09 77.63306116511974
536.133 78.1351960789482
555.176 78.46298328451564
574.219 77.32549535128983
594.727 77.08822944543189
615.234 77.9431417501495
637.207 76.18675823302306
659.18 75.90933912980769
682.617 76.37448809684298
707.52 75.13859859532387
732.422 75.48402076114029
757.324 76.95707771272748
785.156 75.15094748042925
811.523 74.71893283628204
840.82 75.88459215305359
870.117 74.34387218167025
900.879 73.43032855593823
933.105 74.13068972013271
965.332 72.42601874698269
1000.49 73.77498159706973
1035.64 72.83959205531421
1072.27 73.64166837109568
1108.89 72.41583247402022
1148.44 72.46181024677075
1189.45 72.18286541231679
1230.47 72.45858384070876
1274.41 71.59072409213283
1319.82 72.06376123102199
1366.7 71.91721805318507
1413.57 71.83761288399968
1463.38 71.08171651871058
1516.11 70.93288543931295
1568.85 71.4680041094652
1624.51 71.61047481743705
1681.64 71.11098136332224
1741.7 72.0526790283211
1803.22 73.64190338069203
1866.21 72.68650980649173
1932.13 72.09175572722944
1999.51 72.89280987389039
2069.82 72.79562193286733
2143.07 72.62949776757948
2219.24 72.78309659696484
2296.88 72.48072547956257
2378.91 72.20940402839335
2462.4 72.06242133904924
2548.83 71.57843333523533
2639.65 71.32549779263697
2731.93 71.01683503529839
2828.61 70.9690981127358
2928.22 71.1221787048078
3030.76 70.78555594081544
3137.7 70.5397887992989
3249.02 70.71535428617513
3363.28 70.29147484840969
3481.93 70.81206469241472
3604.98 70.13499162419845
3732.42 70.08219633190718
3864.26 70.09028450517579
4000.49 69.59822698783186
4141.11 69.39287071504354
4287.6 69.21163911168493
4438.48 69.5974901394987
4595.21 69.24756053602745
4756.35 69.5389425994792
4924.8 69.04609503811317
5097.66 69.09443060771974
5277.83 69.45283311273994
5463.87 69.71891301721207
5657.23 69.54760691445779
5856.45 69.96275808120029
6062.99 70.25099019782813
6276.86 70.14909182333571
6498.05 69.98543502873964
6726.56 69.6737018735211
6963.87 69.03626156986479
7209.96 68.37255076264766
7464.84 67.7330262246212
7727.05 67.12740246349857
7999.51 66.68982411590409
8282.23 66.52196860624595
8573.73 66.60124025821689
8876.95 66.7515565784726
9188.96 66.88605174993485
9514.16 67.05321362510325
9849.61 67.11183175244729
10196.8 67.0109073882263
10555.7 66.96576763588831
10927.7 66.77642421845117
11313.0 66.66541338576027
11712.9 66.62522179462403
12126.0 66.4216432328053
12553.7 66.16856945150931
12996.1 65.9800466161539
13454.6 65.42899993756184
13929.2 64.99986900616146
14419.9 64.2988745763504
14928.2 64.07445181689576
15455.6 63.76209054988182
16000.5 63.31137186898947
16564.5 62.78006140735384
17148.9 61.97234304703322
17752.4 61.29178721231011
18379.4 60.367161248704875
19026.9 59.413263138401774
19697.8 58.47296795095802
19999.5 58.415292020509796
