Freq "Estimated In-Room Response"
20.507813 40.31962763868374
21.972656 47.89810594009519
23.4375 52.14059818878782
24.902344 53.48523950038147
26.367188 54.62725759350566
27.832031 56.979270061838676
29.296875 59.10129086155739
30.761719 60.68750436912134
32.226563 62.30226644987202
33.691406 63.71215070518447
35.15625 65.17831601777621
36.621094 66.30327792872886
38.085938 67.13351641192607
39.550781 67.85709032377041
41.015625 68.53056703995303
42.480469 69.20806997783028
43.945313 69.83756434874367
45.410156 70.40010890465652
46.875 70.88308467981017
48.339844 71.31208610595907
51.269531 72.14824441758132
52.734375 72.56720883170111
54.199219 72.96551047328377
55.664063 73.25845043467162
58.59375 73.8894746308955
60.058594 74.24456375446728
62.988281 74.87771140848702
64.453125 75.1648078349403
67.382813 75.66575852174586
68.847656 75.88390934853798
71.777344 76.42591319519624
74.707031 76.93317682081123
77.636719 77.27278830849751
79.101563 77.46914972445519
82.03125 77.96295467676192
84.960938 78.38116414132399
87.890625 78.6217987531583
90.820313 78.94459295695248
95.214844 79.38181417408742
98.144531 79.55860268880485
101.07422 79.77570923428738
105.46875 80.04596451479271
108.39844 80.15740045050025
112.79297 80.39593908021592
117.1875 80.53035555228396
120.11719 80.59647246321754
124.51172 80.63392056036227
128.90625 80.66557183439893
133.30078 80.70112020994544
139.16016 80.72302973018886
143.55469 80.65175716772988
147.94922 80.56158308101851
153.80859 80.46312684764692
159.66797 80.42307427797147
165.52734 80.31978009006129
171.38672 80.29338944931374
177.24609 80.17500794666205
183.10547 79.97504782866613
188.96484 79.83190803954925
196.28906 79.85237539507148
203.61328 79.66952927543922
210.9375 79.41436671806508
218.26172 79.1984423140898
225.58594 79.00550898233946
232.91016 79.11017588641788
241.69922 78.90974728725723
250.48828 78.77548959630913
259.27734 78.71918094587022
268.06641 78.69155311142029
276.85547 78.47759556563791
287.10938 78.35767409126959
297.36328 78.43788214606833
307.61719 78.25979325464651
319.33594 78.40391362984228
329.58984 78.27121657742674
341.30859 78.3261612526241
353.02734 78.0438838519212
366.21094 77.90946758992946
379.39453 77.88335617845362
392.57813 77.8626207888009
405.76172 78.06135860447641
420.41016 77.65344268965593
435.05859 77.59321620419152
451.17188 77.51866903988711
465.82031 77.73221691563485
483.39844 78.01894577172432
499.51172 78.5564494795036
517.08984 79.09841161556348
536.13281 78.94287655531011
555.17578 78.82851133643976
574.21875 78.8507954083324
594.72656 78.84544964096733
615.23438 78.52894187925843
637.20703 78.48899065731108
659.17969 78.16257827596606
682.61719 77.74425184385146
707.51953 77.6183950941679
732.42188 77.28052249608321
757.32422 76.97182203385053
785.15625 76.78153884133222
811.52344 76.37613101165987
840.82031 76.56441799415948
870.11719 76.05108985815058
900.87891 75.66998800792314
933.10547 76.16979274161403
965.33203 76.69953350866209
1000.4883 76.99112984580566
1035.6445 76.89279202554722
1072.2656 76.42417264664228
1108.8867 76.24697826762257
1148.4375 76.47707720101465
1189.4531 77.19552624257865
1230.4688 77.67157770502621
1274.4141 77.68172181903431
1319.8242 77.52702577910956
1366.6992 77.26728316568254
1413.5742 77.09784753451879
1463.3789 76.90070619478591
1516.1133 77.08108390669352
1568.8477 76.8928991990395
1624.5117 76.87573233728742
1681.6406 76.84690507088854
1741.6992 76.9849300141088
1803.2227 77.04777701249175
1866.2109 76.28192114005411
1932.1289 75.66805298804617
1999.5117 75.98732372829984
2069.8242 76.21324123714471
2143.0664 75.62138829239933
2219.2383 75.14781661394319
2296.875 75.57278513325552
2378.9063 75.91664777407469
2462.4023 76.075719207598
2548.8281 76.3841904971138
2639.6484 76.37328076219626
2731.9336 76.3378885673667
2828.6133 77.16810261676268
2928.2227 76.74730419358076
3030.7617 76.22227103350762
3137.6953 76.57334239788817
3249.0234 76.70522459473658
3363.2813 76.52390081268076
3481.9336 76.55013630571356
3604.9805 76.56004292583417
3732.4219 76.69605328700831
3864.2578 76.09518877419019
4000.4883 76.57114579413887
4141.1133 75.79796576641442
4287.5977 75.9275323473586
4438.4766 75.45674529530804
4595.2148 75.33482776550953
4756.3477 74.79843498920748
4924.8047 74.80838559060759
5097.6563 74.60492542651352
5277.832 74.66391404731488
5463.8672 74.65458004723791
5657.2266 74.96485976025353
5856.4453 74.69737794356949
6062.9883 75.19389421642826
6276.8555 75.02649225746684
6498.0469 75.04485774939135
6726.5625 74.32340551726357
6963.8672 74.29044371949706
7209.9609 74.6202324983996
7464.8438 74.24862833734299
7727.0508 74.30026234814575
7999.5117 74.46894555655645
8282.2266 74.82369895393448
8573.7305 75.5539088288104
8876.9531 75.70457742834827
9188.9648 75.67743162406822
9514.1602 75.53524897581015
9849.6094 75.34852290734842
10196.777 75.25417427015441
10555.664 75.14273158894235
10927.734 75.11631900987126
11312.988 75.09279495383561
11712.891 75.04082996793137
12125.977 74.99361136179867
12553.711 74.80867709400799
12996.094 74.47544024351168
13454.59 74.18033570762823
13929.199 73.89835195449321
14419.922 73.74427249683204
14928.223 73.70321595871815
15455.566 73.65004670852237
16000.488 73.56693060132262
16564.453 73.71151597051853
17148.926 73.98848855465664
17752.441 74.16043313939078
18379.395 74.26257454306922
19026.855 74.14392445790838
19697.754 74.09339951533615
19999.512 74.18658986785077
