Freq "Listening Window"
22.4 7.840200596982569
23.0 10.038488903734574
23.6 12.478774098634958
24.0 14.9457407322884
25.0 17.281729338438524
25.8 19.483845760547794
26.5 21.832791232887317
27.2 24.376432972277186
28.0 27.138533448965873
29.0 30.998023589637896
30.0 35.310642444793345
30.7 35.488951239054515
31.5 36.42605384407695
32.5 37.83638952751771
33.5 40.01696083851756
34.5 41.91410051385189
35.5 43.664185092383704
36.5 46.36476201834354
37.5 49.15647445110055
38.7 51.71174191928277
40.0 54.12010182552642
41.2 56.20495869993552
42.5 58.36228643650709
43.7 60.520978512296594
45.0 62.83444342442753
46.2 65.8259204980842
47.5 68.59560715231557
48.7 71.2472473635501
50.0 74.48910793384177
51.5 74.63195588013501
53.0 75.6733203738104
54.5 76.8362432256672
56.0 77.90706123890253
58.0 78.65725238927936
60.0 79.22310628075142
61.5 79.52577994554873
63.0 79.79255363206654
65.0 80.06261692604446
67.0 80.21594972294334
69.0 80.39186015181902
71.0 80.54674386086268
73.0 80.76020248480243
75.0 80.89206176469568
77.5 80.99358219651064
80.0 81.2366474412293
82.5 81.2800035489201
85.0 81.2137828977982
87.5 81.11453067925616
90.0 81.02470110399194
92.5 80.94574189677526
95.0 80.84880918932764
97.5 80.88201335514833
100.0 80.7551417564585
103.0 80.41964492090963
106.0 80.21437281262028
109.0 79.97575371268407
112.0 79.75633350693217
115.0 79.53356672901275
118.0 79.38887055283799
122.0 79.10855744925026
125.0 78.90326147461259
128.0 78.75072471799663
132.0 78.74776734596215
136.0 78.78201933948496
140.0 78.86183165235146
145.0 79.09727759763082
150.0 79.4759350995467
155.0 79.82332564177075
160.0 80.35210385400178
165.0 80.77043364515987
170.0 81.32342262843808
175.0 82.0409282240484
180.0 82.54350618439923
185.0 82.84099587718764
190.0 82.97495300971765
195.0 82.92569823436513
200.0 82.65258724450234
206.0 82.26174562909199
212.0 81.73378533492478
218.0 81.19237521553663
224.0 80.6765853804928
230.0 80.13584540295089
236.0 79.69896694786341
240.0 79.37155025363082
250.0 79.1077748252271
258.0 78.72591619023511
265.0 78.61397377885486
272.0 78.58776867011507
280.0 78.83285790709802
290.0 79.12334489302545
300.0 79.37053638194571
307.0 79.1259909778479
315.0 78.63043619751915
325.0 78.0904363574283
335.0 77.63291891746547
345.0 77.31172195320501
355.0 77.2836817479562
365.0 77.67480956603434
375.0 78.56587293217855
387.0 79.64608092030612
400.0 80.41304231039751
412.0 80.6504058481435
425.0 80.47531581017532
437.0 80.21454667031615
450.0 80.33487087961413
462.0 80.69393963410936
475.0 81.07671027748661
487.0 81.37193120330315
500.0 81.61805369528635
515.0 81.85748253064638
530.0 82.03853921468426
545.0 82.10915038303123
560.0 82.11171810852177
580.0 81.82237130231783
600.0 81.44691203561898
615.0 81.21445964168622
630.0 81.01412327509506
650.0 80.74225283264802
670.0 80.77297674384688
690.0 80.94993674939367
710.0 80.79416784935243
730.0 80.52305169149983
750.0 79.96642630468386
775.0 79.18945285323811
800.0 79.1685333865279
825.0 79.78280629758052
850.0 80.18566254878694
875.0 79.79675457843298
900.0 78.96369042879698
925.0 79.43242976125197
950.0 79.86587909340973
975.0 79.67053174802088
1000.0 79.39777398097746
1030.0 79.55398735597642
1060.0 80.37097300560409
1090.0 80.75880376883057
1120.0 80.81164909022606
1150.0 80.91317368377467
1180.0 80.84652919467096
1220.0 80.52029770513877
1250.0 79.7378936783418
1280.0 79.28190090387598
1320.0 79.1600793594126
1360.0 78.75714082868636
1400.0 78.26463525601123
1450.0 77.92459363411824
1500.0 77.67235375149993
1550.0 76.98631967063106
1600.0 76.49801559223022
1650.0 76.64530885558786
1700.0 76.90830229748875
1750.0 77.26166175389098
1800.0 78.24020752062275
1850.0 78.99913212900083
1900.0 79.48811166334183
1950.0 79.49084265096425
2000.0 78.51079375159463
2060.0 77.82187382231066
2120.0 77.62729055347954
2180.0 77.1880529477859
2240.0 77.38944882450635
2300.0 77.35079641252231
2360.0 77.11336283390888
2400.0 77.38553105512162
2500.0 77.9314342992959
2580.0 78.33224101326
2650.0 78.81728938813653
2720.0 79.31203324808088
2800.0 79.57341228782148
2900.0 78.77300031466244
3000.0 78.23805816784302
3070.0 77.76521488026609
3150.0 77.96782419768228
3250.0 79.16230949076198
3350.0 80.47213197255273
3450.0 80.30007225723828
3550.0 80.13524305743654
3650.0 79.4085558974831
3750.0 79.16315027867752
3870.0 78.5338945085339
4000.0 79.1964548356173
4120.0 80.87119767717141
4250.0 82.10035751900729
4370.0 80.90707072049274
4500.0 79.9737815389572
4620.0 79.16418901420356
4750.0 78.51984699393422
4870.0 79.32145404763682
5000.0 81.01488211793755
5150.0 80.3689278130163
5300.0 79.31657111809145
5450.0 78.76171079913694
5600.0 79.42547155379563
5800.0 80.39331516871236
6000.0 80.78897003307672
6150.0 79.4088261580953
6300.0 79.36011076682159
6500.0 80.56738238319517
6700.0 80.6415844875553
6900.0 80.41369162697981
7100.0 80.09569360769557
7300.0 80.60140160764577
7500.0 80.62885963819147
7750.0 80.71604008453001
8000.0 80.6693429352716
8250.0 81.75599832475152
8500.0 81.54190865973669
8750.0 81.52128822280527
9000.0 82.65298694610982
9250.0 81.80354637405742
9500.0 80.8717721128037
9750.0 82.31506539035857
10000.0 82.32082118819095
10300.0 82.00873444708047
10600.0 81.18072505140078
10900.0 80.39215987325527
11200.0 78.7378723250567
11500.0 77.62954858366864
11800.0 78.63790595329128
12200.0 78.7527054658438
12500.0 79.36215629595974
12800.0 79.14053594059007
13200.0 78.9803982606135
13600.0 80.41776648890428
14000.0 80.85472777588747
14500.0 79.29719487125377
15000.0 77.18123863202258
15500.0 76.42924157848775
16000.0 74.74958664179734
16500.0 72.44218695145993
17000.0 71.65774148656091
17500.0 69.57236474584589
18000.0 67.20509395137877
18500.0 67.04634852027326
19000.0 59.414856042534794
19500.0 49.143007267998726
