Freq "Sound Power"
22.4 9.184624161169566
23.0 10.63340022094441
23.6 12.408362134635482
24.0 14.801769034391796
25.0 17.15259132405292
25.8 19.516167151151436
26.5 22.083585780507562
27.2 24.475358063241927
28.0 26.800852855351124
29.0 30.03839820608472
30.0 33.947338853898415
30.7 34.688553565535145
31.5 36.28302474915999
32.5 38.30070092532476
33.5 40.63775507752264
34.5 42.749346665868856
35.5 44.573395014957086
36.5 46.21107685267701
37.5 48.23619442085776
38.7 50.452032508178135
40.0 53.14785475309397
41.2 55.60448213252177
42.5 57.64278358397
43.7 59.3482474360963
45.0 61.571430436560306
46.2 65.16972387820617
47.5 68.29733875190422
48.7 70.38113370390253
50.0 73.74234751421618
51.5 72.65262761918596
53.0 73.39031546159286
54.5 74.42182985995161
56.0 75.48990373095019
58.0 76.25275669786886
60.0 76.82865823292151
61.5 77.16460482523705
63.0 77.51495264894542
65.0 77.90267459081984
67.0 78.22833908045622
69.0 78.59680659346076
71.0 78.98322239015532
73.0 79.43402680640001
75.0 79.83102996326589
77.5 80.19483454850398
80.0 80.72173261096857
82.5 80.93606618637638
85.0 80.89499093926847
87.5 80.74379215144573
90.0 80.67492615952474
92.5 80.65448717220515
95.0 80.50669965778374
97.5 80.4048901892144
100.0 80.0358546161504
103.0 79.57204431422507
106.0 79.13550654432187
109.0 78.73319202630681
112.0 78.34690994312318
115.0 77.94693101295243
118.0 77.68511351986423
122.0 77.44692331887977
125.0 77.31409100207215
128.0 77.25976821857135
132.0 77.23378145608686
136.0 77.1410696581438
140.0 77.04913371601872
145.0 77.0589913182046
150.0 77.12321359521992
155.0 77.12347932553881
160.0 77.50990537918103
165.0 77.9431654770913
170.0 78.53427050849908
175.0 79.22494004292527
180.0 79.76343010992308
185.0 80.13350870548352
190.0 80.20605522641243
195.0 80.06755949098725
200.0 79.6493006805493
206.0 79.02748478067429
212.0 78.31153149742525
218.0 77.49026318115006
224.0 76.5819885478615
230.0 75.87666996121753
236.0 75.44860906340837
240.0 75.29396945322398
250.0 75.58570844019694
258.0 75.34344411224238
265.0 75.73129355092566
272.0 75.99003067182925
280.0 76.16276009401388
290.0 76.47371935821249
300.0 76.76086940904767
307.0 76.09231800510528
315.0 75.23578043537556
325.0 74.4638935586158
335.0 73.84031302833644
345.0 73.29554354565578
355.0 73.04105861282787
365.0 73.0768111261059
375.0 73.79191467574302
387.0 75.02494407373463
400.0 75.87842476715787
412.0 76.12095241671913
425.0 75.75124794333283
437.0 75.33453740919384
450.0 75.37986569975621
462.0 75.78574193497786
475.0 76.24232675538329
487.0 76.34127668041221
500.0 76.12284621073972
515.0 76.00302701137082
530.0 75.91525813842088
545.0 75.86298169727073
560.0 75.78677512383656
580.0 75.33363719328987
600.0 74.76941269240237
615.0 74.36313407624617
630.0 74.07333549554347
650.0 73.8524844531444
670.0 73.98017038358637
690.0 74.08893372974093
710.0 73.57493889437882
730.0 73.02380230005578
750.0 72.31744761492304
775.0 71.4204828807288
800.0 71.20078373543943
825.0 71.77597128631818
850.0 72.43328892720224
875.0 72.64492716848234
900.0 72.27275925217147
925.0 71.99177667161516
950.0 71.78105198952437
975.0 70.90592675852163
1000.0 70.54446305331248
1030.0 71.06619568464147
1060.0 71.75436129637225
1090.0 71.84313574440188
1120.0 71.54220525243407
1150.0 71.62070314532697
1180.0 71.36065690245437
1220.0 70.88205425222868
1250.0 70.12686097679723
1280.0 69.95445391661845
1320.0 70.2287638980384
1360.0 69.69983716807114
1400.0 69.12462679699495
1450.0 68.76313740789789
1500.0 68.55895365164695
1550.0 67.96172348482769
1600.0 67.48372089076223
1650.0 67.66157006580877
1700.0 67.92746917572553
1750.0 68.10993946268424
1800.0 69.0319853133045
1850.0 69.64729592587851
1900.0 70.23183528918479
1950.0 69.8526651159297
2000.0 68.4098987030914
2060.0 67.51592054970813
2120.0 67.19137228586489
2180.0 66.56699038673472
2240.0 66.83882824904919
2300.0 67.28969057750533
2360.0 67.60092175972066
2400.0 68.53325664268213
2500.0 69.05047603680411
2580.0 69.39879540384827
2650.0 69.82358141448294
2720.0 70.9885669500354
2800.0 70.61230111500734
2900.0 69.19234249360107
3000.0 68.46063189635383
3070.0 67.75426576457245
3150.0 67.74525008436653
3250.0 68.73598111599874
3350.0 70.06236740098997
3450.0 70.04866506928032
3550.0 70.58433256995646
3650.0 70.27694704660472
3750.0 70.22835400712978
3870.0 69.15150420645396
4000.0 69.61823784731773
4120.0 70.95228659086098
4250.0 72.25885747067764
4370.0 71.20419498531875
4500.0 70.5111251038361
4620.0 69.92726645100369
4750.0 69.52677218231095
4870.0 70.26640242854843
5000.0 71.78144899655344
5150.0 70.67559309172708
5300.0 69.45214628212726
5450.0 69.39865998630093
5600.0 70.48181705397634
5800.0 71.34567515186244
6000.0 71.56714500218676
6150.0 70.0290769748839
6300.0 69.97428490518615
6500.0 71.2478672325348
6700.0 71.80469150882985
6900.0 71.57328805376608
7100.0 70.88354060294448
7300.0 71.5178488029944
7500.0 71.49246063646648
7750.0 71.36932062645444
8000.0 71.66592706749266
8250.0 72.89487505598227
8500.0 72.30278061665952
8750.0 72.20913234516763
9000.0 73.57895635378573
9250.0 73.37885064562386
9500.0 72.5454358684604
9750.0 73.35704908411539
10000.0 73.68820737635777
10300.0 73.93279515886651
10600.0 72.61096259994257
10900.0 71.2538507507251
11200.0 69.45354203037083
11500.0 69.10165630783679
11800.0 69.85446315987845
12200.0 69.35121973701322
12500.0 70.15915127632766
12800.0 70.17873067533124
13200.0 70.27713516411951
13600.0 71.07684735767299
14000.0 71.34362702626808
14500.0 69.97243270140645
15000.0 67.56076252102622
15500.0 66.95310682703825
16000.0 65.10133176957916
16500.0 63.79064526465736
17000.0 61.81323441915423
17500.0 60.73375097617601
18000.0 59.026920066240976
18500.0 59.10695203615366
19000.0 50.32321054229048
19500.0 40.20654625433541
