Freq "Side Wall Bounce"
20.5078 53.504880591894434
21.9727 55.5738410323534
23.4375 59.747551974768996
24.9023 57.970240908885884
26.3672 61.30007397327965
27.832 63.83459316601544
29.2969 66.43813370507836
30.7617 68.87899886143909
32.2266 71.03503930806393
33.6914 73.12045434483642
35.1563 75.0843869048311
36.6211 76.9023352485621
38.0859 78.57281775440399
39.5508 80.11147516799778
41.0156 81.50318370782747
42.4805 82.74924039548642
43.9453 83.86049080491529
45.4102 84.84266086345866
46.875 85.65991856955773
48.3398 86.41871920594853
51.2695 87.58946693925976
52.7344 88.01490649482055
54.1992 88.32670513125383
55.6641 88.57677024840287
58.5938 88.93476597988621
60.0586 89.02713595835134
62.9883 89.12747401532842
64.4531 89.15243308823158
67.3828 89.25715327785431
68.8477 89.2396056227404
71.7773 89.15408908239334
74.707 89.13741535331226
77.6367 89.12538191623788
79.1016 89.12696832147245
82.0313 89.11153902297931
84.9609 89.1242341575193
87.8906 89.11924325542701
90.8203 89.17351400948202
95.2148 89.13384067401385
98.1445 89.09433438189815
101.074 89.04570869561351
105.469 89.0453182640263
108.398 89.01143541305952
112.793 88.82015604407424
117.188 88.69331178205343
120.117 88.82863618517267
124.512 88.8988846602686
128.906 88.86435662107858
133.301 88.81759059797645
139.16 88.55395955223813
143.555 88.47110786993387
147.949 88.598907922431
153.809 88.35738247884962
159.668 88.13149644536257
165.527 87.80627607521667
171.387 88.53628453315565
177.246 88.34567785297263
183.105 88.19213241280586
188.965 88.2341335602773
196.289 87.9482852569387
203.613 87.57147271358188
210.938 88.0090711043732
218.262 88.03967772496954
225.586 87.66339828172944
232.91 87.67262963549311
241.699 87.55586202975745
250.488 87.18845236415088
259.277 87.88802225552685
268.066 87.76103045838813
276.855 86.99165761343066
287.109 87.05704478281288
297.363 87.22569309312645
307.617 86.55284686936906
319.336 86.52139620860426
329.59 86.17372520350627
341.309 86.25252612867183
353.027 86.38146882684444
366.211 85.71358085878542
379.395 86.16730855681526
392.578 85.63161308149454
405.762 85.26782543243515
420.41 85.12996068884665
435.059 84.6621341323707
451.172 84.65094617756684
465.82 84.50243828541632
483.398 85.46485798910146
499.512 84.98941302030315
517.09 85.74400237198226
536.133 86.23408033893124
555.176 84.96619891489796
574.219 85.25070907073537
594.727 85.21778893512761
615.234 85.11277091968289
637.207 84.81797707193458
659.18 84.8538044346239
682.617 82.52399212807956
707.52 81.61671242378652
732.422 81.4711626741595
757.324 82.87087848653354
785.156 84.78648069288951
811.523 84.69395510573044
840.82 84.4409906198387
870.117 83.88884479721085
900.879 83.73460105857433
933.105 83.53338663207097
965.332 83.23824339224917
1000.49 83.5046647306864
1035.64 82.78312565466675
1072.27 83.70630559269735
1108.89 83.91208979360225
1148.44 84.42932532068053
1189.45 84.05328790057388
1230.47 83.94726978592215
1274.41 83.77888852568391
1319.82 83.23750004917457
1366.7 84.13457901399515
1413.57 85.26075004885551
1463.38 85.79226640029195
1516.11 85.54778879519635
1568.85 84.38541468597137
1624.51 82.06161374142819
1681.64 80.58458299027238
1741.7 78.76473102324223
1803.22 76.19993359168187
1866.21 74.47727695518665
1932.13 74.52300883680049
1999.51 74.40134808042549
2069.82 74.85941046751132
2143.07 74.49574856144623
2219.24 74.51016027155133
2296.88 77.25745672359393
2378.91 78.64007801446739
2462.4 80.63641161413493
2548.83 81.58259832128225
2639.65 82.3269160904493
2731.93 83.15159980691018
2828.61 83.36971109178786
2928.22 84.55008450491346
3030.76 84.9471865484369
3137.7 85.97815388227339
3249.02 86.73514965378219
3363.28 87.44881739679968
3481.93 87.67829817930908
3604.98 87.60244088723297
3732.42 87.61988296174769
3864.26 87.42285632165992
4000.49 87.43330516510345
4141.11 87.8343674893145
4287.6 87.92790342823777
4438.48 88.17815239710836
4595.21 87.9920368769455
4756.35 88.04724269239293
4924.8 88.12098572420516
5097.66 88.3332138584427
5277.83 88.13852109235148
5463.87 87.77365296332594
5657.23 87.44602065925118
5856.45 87.65166016675641
6062.99 87.64341543112073
6276.86 87.32140421171637
6498.05 86.74036248278422
6726.56 86.44363219914435
6963.87 86.13453010273571
7209.96 85.10170279410244
7464.84 83.58781599383559
7727.05 83.10441249882939
7999.51 82.08768580205117
8282.23 81.45865537417662
8573.73 81.08678911249213
8876.95 80.54211313620738
9188.96 80.42935074233905
9514.16 81.14707654619932
9849.61 82.53960092510681
10196.8 82.84126882129296
10555.7 82.75299275776909
10927.7 82.32741347424357
11313.0 81.95498114511088
11712.9 81.16141528648511
12126.0 80.66035199419288
12553.7 80.11708428911085
12996.1 79.57827279496207
13454.6 78.81183348666595
13929.2 78.11205301883543
14419.9 77.18554224808685
14928.2 76.35157927577701
15455.6 75.13218051752528
16000.5 74.14376546832692
16564.5 73.66244876053396
17148.9 73.09537539692654
17752.4 72.33325039836336
18379.4 70.79887297445116
19026.9 69.59970872346886
19697.8 68.44071644400695
19999.5 67.77939132049205
