Freq "Rear Wall Bounce"
20.5078 66.39994270618537
21.2402 66.94221580951165
21.9727 67.93719390006588
22.7051 68.84434030371453
23.4375 70.23013589517836
24.1699 71.19161171457289
25.6348 72.2935615513701
26.3672 73.13669319040504
27.0996 74.0054254894575
27.832 74.63363026409525
29.2969 76.22548415542292
30.0293 77.00546838064697
31.4941 78.42876898490762
32.2266 79.03259004649958
33.6914 80.25156575098762
34.4238 80.81647999797384
35.8887 81.78246078715291
37.3535 82.60304596523498
38.8184 82.93953630123184
39.5508 83.09100801684735
41.0156 83.37771816220463
42.4805 83.54338909949637
43.9453 83.51599176060266
45.4102 83.53104989720266
47.6074 83.44388824573834
49.0723 83.40079499291741
50.5371 83.36814160856905
52.7344 83.27428522096355
54.1992 83.24882459103506
56.3965 83.27568710326257
58.5938 83.32786841983174
60.0586 83.40710453453234
62.2559 83.43613186692689
64.4531 83.4733657705795
66.6504 83.78275922084654
69.5801 83.85260077752186
71.7773 83.94670705578461
73.9746 84.08053861186285
76.9043 84.10980949886145
79.834 84.19197999724196
82.7637 84.4907495380412
85.6934 84.87062062872978
88.623 85.191465254659
91.5527 85.34525786006313
94.4824 85.53518153136999
98.1445 85.62613828385712
101.807 85.66564523967152
105.469 85.63973052926009
109.131 85.31033192718297
112.793 85.01792916722944
116.455 84.75532259038773
120.85 84.68684455744965
125.244 84.82206985542881
129.639 85.2985816732261
134.033 84.80049117542681
138.428 84.42055635085973
143.555 83.99482468934849
148.682 84.00492742018358
153.809 84.05216258827697
159.668 83.82375996726333
164.795 83.44373528686559
170.654 83.35176110726172
176.514 83.45302346314568
183.105 83.69113327150166
189.697 83.37297708290585
196.289 83.77084854370808
202.881 83.49594470427992
210.205 83.51639539176266
217.529 83.18304158683885
225.586 83.86397888406627
232.91 83.68659940642924
241.699 82.96763303261181
249.756 82.0417141964972
258.545 82.67092748542954
268.066 82.63539811406831
277.588 82.88939065810395
287.109 82.78696678662222
297.363 82.92800078209311
307.617 81.16810474536136
318.604 82.25732131144746
329.59 81.01631085056786
341.309 82.85973197751397
353.76 80.86261016440424
366.211 82.19604504699284
378.662 81.32910819472451
392.578 81.45917992805407
405.762 82.09595222130487
420.41 81.90980403993684
435.059 81.13717598450926
450.439 81.63875213132285
466.553 81.43244898770243
482.666 81.8250156225293
500.244 81.42150947069804
517.822 80.00059282400107
536.133 79.35308209334171
554.443 80.10032084543724
574.219 81.45888445305226
594.727 80.51843495141645
615.234 79.06832440844747
637.207 80.02435552049496
659.912 79.93764146970896
683.35 80.33228451798786
706.787 79.19397762274883
731.689 77.91142761147336
758.057 77.1931374197989
784.424 77.54863977750355
812.256 77.70097991367545
840.82 76.69056340212136
870.85 76.38247521743841
901.611 76.1412942542966
933.105 75.54759166342302
966.064 75.00274619416297
999.756 75.10865318193093
1034.91 75.41862024234878
1071.53 74.81021959084705
1109.62 75.17836794880948
1148.44 75.41721627756489
1189.45 76.07970053654185
1231.2 76.95675661448058
1274.41 76.33858606898123
1319.82 76.94101083445433
1365.97 76.42837138537722
1414.31 76.81836428730507
1464.11 77.83492165055408
1515.38 78.32341673575138
1568.85 77.24721432106655
1624.51 76.38979268117018
1681.64 76.69014202185413
1740.97 76.74462055528912
1802.49 75.66638538609061
1866.21 77.17200045724023
1932.13 76.43916906199912
2000.24 74.79914432462272
2070.56 75.43824450832061
2143.8 75.13629222263593
2219.24 74.64774840300974
2297.61 74.73003999184915
2378.17 74.44055850448446
2462.4 73.96006354606523
2548.83 74.01433060854208
2638.92 74.3898165141555
2731.93 74.16447358674426
2828.61 73.87658449361128
2928.22 74.0756514460554
3031.49 73.83300719446665
3138.43 74.5227697358167
3249.02 74.33858457699581
3363.28 74.40014466747861
3481.93 73.59487821843999
3604.98 74.20979755011254
3732.42 72.71586330075536
3863.53 73.14638478129804
3999.76 73.36836658233999
4141.11 74.09603529508098
4286.87 73.89096473943188
4438.48 73.50245494697445
4594.48 72.02718284868085
4757.08 71.35386892218291
4924.8 71.18660713407532
5098.39 71.59332851264578
5277.83 72.27275188329169
5463.87 72.03886654907659
5656.49 71.59043525366307
5856.45 70.14526951614984
6062.99 69.95341668692768
6276.86 70.34501553195277
6498.05 69.44215766073411
6727.29 69.31012536733226
6964.6 68.80317092631434
7209.96 69.06731694756097
7464.11 68.30923114375571
7727.78 66.90510699653564
8000.24 67.22583903971405
8282.23 67.42736600968875
8574.46 67.23779999285478
8876.22 65.8641824030127
9189.7 65.71979056816762
9513.43 65.77641028651148
9848.88 63.740262677652666
10196.8 61.603085933778814
10556.4 58.522171924763356
10928.5 56.10434022800878
11313.7 57.380064164509704
11712.9 57.58977455054752
12126.0 57.76485808116773
12553.7 59.84770291358156
12996.1 58.67568479062258
13454.6 58.56450096638879
13928.5 56.79450356203775
14419.9 54.93991412148982
14928.2 54.460067849594154
15454.8 53.75185587883011
15999.8 53.44416091381889
16564.5 53.02719132803021
17148.2 49.39731955723987
17753.2 47.801262238099994
18379.4 46.60239632720614
19027.6 47.125905703461044
19698.5 46.79565707129892
19999.5 49.33547537423165
