Freq "Estimated In-Room Response"
20.5078 47.69117686586604
21.9727 49.04663886217075
23.4375 51.522458839011094
24.9023 51.0544847084371
26.3672 53.171973559887206
27.832 54.91737147139018
29.2969 56.64972198439695
30.7617 57.887145251495454
32.2266 59.286874757641684
33.6914 60.790361913386974
35.1562 62.062196169894875
36.6211 63.60026490640557
38.0859 65.3295333003674
39.5508 66.5818219338558
41.0156 67.70819766339521
42.4805 68.99096194246276
43.9453 70.1561126064979
45.4102 71.63383823301176
46.875 72.88182805350192
48.3398 74.0780056870182
51.2695 76.08333761191082
52.7344 77.21798539138467
54.1992 78.37495342799637
55.6641 79.30189623090813
58.5938 81.07699177060103
60.0586 81.85637129183138
62.9883 83.18978048506733
64.4531 83.67416168326744
67.3828 84.54941999980998
68.8477 84.86178747928395
71.7773 85.31334302496339
74.707 85.5646462720076
77.6367 85.69850812998585
79.1016 85.74158229287389
82.0312 85.80189247497269
84.9609 85.8566422588786
87.8906 85.97723672833298
90.8203 86.19177310742029
95.2148 86.38763129079582
98.1445 86.4914956116709
101.074 86.58329936076193
105.469 86.73918150208596
108.398 86.90301544328396
112.793 87.0313755814229
117.188 87.05019887124236
120.117 87.37289109749621
124.512 87.76199691042513
128.906 87.96963216799263
133.301 88.12203554093227
139.16 88.30225240468796
143.555 88.28364212312569
147.949 88.73438460150842
153.809 89.04974437713375
159.668 88.89838951179426
165.527 88.9131715390207
171.387 89.24196664140051
177.246 89.44004906839247
183.105 89.60047900701325
188.965 89.60183693873604
196.289 89.679520227883
203.613 89.29413223381457
210.938 89.56438855082634
218.262 89.61235916553149
225.586 89.44009991248898
232.91 89.11447385149371
241.699 89.28105069651362
250.488 88.67041866025556
259.277 89.14379777406369
268.066 89.61606109279406
276.855 88.7206862354872
287.109 88.53675784618805
297.363 88.76231087823204
307.617 88.7532373336223
319.336 88.04525923877688
329.59 87.80347217061549
341.309 87.71447814224294
353.027 87.57130200839666
366.211 87.88815942130803
379.395 87.46186860752888
392.578 87.22927399011651
405.762 87.26834055618345
420.41 86.73580999020903
435.059 86.53321245099154
451.172 86.2452697172278
465.82 86.2116114367406
483.398 86.74308089573283
499.512 87.15334772937139
517.09 87.19860979072355
536.133 87.30924491786554
555.176 87.42109519653172
574.219 87.39259948796412
594.727 87.11340392642067
615.234 86.81395492700285
637.207 87.42990983177465
659.18 86.86449036880144
682.617 87.65355778371284
707.52 88.69143674457153
732.422 88.41954627429742
757.324 89.07417852136335
785.156 88.548679392994
811.523 88.28254469030296
840.82 88.16453661003582
870.117 87.48119583017439
900.879 86.85885898588123
933.105 85.75593540772157
965.332 84.77610101633006
1000.49 84.06073997170877
1035.64 83.89636582506576
1072.27 83.5175012264981
1108.89 83.98145832705316
1148.44 84.81725253813293
1189.45 85.81799539816733
1230.47 85.52067216119133
1274.41 85.4010672163822
1319.82 85.50432539580409
1366.7 85.65532896334594
1413.57 85.7022233985093
1463.38 85.33240042564493
1516.11 85.16745625592442
1568.85 86.52307978532825
1624.51 87.4818923715931
1681.64 87.02435735102645
1741.7 86.82475807993745
1803.22 86.92791818626672
1866.21 87.23415134530087
1932.13 86.95483638544223
1999.51 86.05290812577591
2069.82 85.06863724860771
2143.07 84.62402789723018
2219.24 83.480160277
2296.88 82.42569089073473
2378.91 82.4024308327105
2462.4 82.21468033817818
2548.83 81.73602376526846
2639.65 82.17824977947394
2731.93 82.60900102714719
2828.61 82.89025699753469
2928.22 82.7904272761734
3030.76 82.91555321804323
3137.7 82.77721403560507
3249.02 83.75821052708406
3363.28 84.49047183689781
3481.93 84.7967927334512
3604.98 84.04570535895039
3732.42 84.13584795200232
3864.26 83.79128862881677
4000.49 84.15300745799746
4141.11 84.69632261302458
4287.6 85.65068452613008
4438.48 85.89114319841632
4595.21 85.31226150374282
4756.35 85.17013406497402
4924.8 84.72534261566585
5097.66 84.80913999407427
5277.83 84.58086364887295
5463.87 85.36807973124094
5657.23 86.6144544887636
5856.45 87.90416165834166
6062.99 88.21587004369765
6276.86 87.32409552228403
6498.05 86.52982629273951
6726.56 86.08082159215137
6963.87 85.4285166777435
7209.96 85.12895329325272
7464.84 85.59648443598083
7727.05 86.55996051759954
7999.51 86.88501486023806
8282.23 85.76497300316979
8573.73 84.37884647008207
8876.95 83.42074387091716
9188.96 83.3137270036075
9514.16 84.61141723239463
9849.61 85.79586727601847
10196.8 84.90814489605954
10555.7 84.3213135104039
10927.7 82.91132209403087
11313.0 84.53438897580735
11712.9 82.76860166445921
12126.0 81.84781744348807
12553.7 82.68211733342507
12996.1 82.03033835060991
13454.6 81.6342123746409
13929.2 81.29063526156573
14419.9 80.56832332021803
14928.2 79.35760142983872
15455.6 80.16349203195799
16000.5 80.89294810563037
16564.5 82.31219998586572
17148.9 82.88794011308488
17752.4 80.15619610541178
18379.4 80.88088283629746
19026.9 82.26699282730893
19697.8 81.06335741524917
19999.5 81.40798081192261
