Freq "Floor Bounce"
22.4 45.92885362849546
23.0 47.86475453615685
23.6 49.82885362849544
24.0 52.12885362849545
25.0 54.42885362849546
25.8 56.528853628495455
26.5 58.06475453615684
27.2 59.528853628495455
28.0 60.959429021227066
29.0 62.528853628495455
30.0 64.05942902122706
30.7 65.75942902122708
31.5 67.35942902122706
32.5 68.85942902122706
33.5 70.29049534964155
34.5 71.65942902122707
35.5 73.02430540943686
36.5 74.35562309844403
37.5 75.55562309844402
38.7 76.35562309844401
40.0 77.15562309844401
41.2 78.05562309844402
42.5 78.78743817982648
43.7 79.45562309844402
45.0 80.18743817982649
46.2 80.68743817982649
47.5 81.08743817982648
48.7 81.38743817982649
50.0 81.51975483622778
51.5 81.65333875045718
53.0 82.01975483622778
54.5 82.41975483622778
56.0 82.78590919293265
58.0 83.15257716865214
60.0 83.51898734177216
61.5 83.98590919293267
63.0 84.31898734177216
65.0 84.68590919293267
67.0 85.01898734177216
69.0 85.01898734177216
71.0 85.01898734177216
73.0 85.21898734177216
75.0 85.45257716865213
77.5 85.65257716865214
80.0 85.51898734177215
82.5 85.45257716865213
85.0 85.55257716865212
87.5 85.55257716865212
90.0 85.45257716865213
92.5 85.41898734177215
95.0 85.21898734177216
97.5 85.05257716865214
100.0 84.85257716865212
103.0 84.71898734177216
106.0 84.68590919293267
109.0 84.61898734177215
112.0 84.55257716865214
115.0 84.45257716865213
118.0 84.25257716865214
122.0 84.0866825548251
125.0 83.85411793355199
128.0 83.58743817982648
132.0 83.32205691281469
136.0 83.02205691281468
140.0 82.69049534964152
145.0 82.35942902122706
150.0 82.0618176464919
155.0 81.79507909626436
160.0 81.50118701509521
165.0 81.37159687379433
170.0 81.2381543967997
175.0 81.17159687379433
180.0 81.17995248414398
185.0 81.15155952223773
190.0 81.15155952223773
195.0 81.12363236495752
200.0 81.0621356028665
206.0 80.90118546967271
212.0 80.70118546967271
218.0 80.50118546967272
224.0 80.47420703485595
230.0 80.5407847286611
236.0 80.77420703485595
240.0 81.17420703485595
250.0 81.61405192213044
258.0 82.01405192213045
265.0 82.24078472866111
272.0 82.38093601740982
280.0 82.3407847286611
290.0 82.10787281332219
300.0 81.7078728133222
307.0 81.14832811618872
315.0 80.47546728838822
325.0 79.67546728838822
335.0 78.93526517354962
345.0 78.22372264295791
355.0 77.77565990107267
365.0 77.63125912492835
375.0 77.72205691281468
387.0 77.75333875045717
400.0 77.48743817982648
412.0 76.92127195573235
425.0 76.28970466672624
437.0 75.95942902122707
450.0 76.29876479967785
462.0 77.13491426403922
475.0 78.13491426403924
487.0 79.00555380488461
500.0 79.54002900475965
515.0 79.77502619180184
530.0 79.57502619180185
545.0 79.21864173454394
560.0 79.10138594937989
580.0 79.42621151549582
600.0 79.89305061180974
615.0 79.90154799676749
630.0 79.43000576394815
650.0 78.77141045519596
670.0 78.47025236758707
690.0 78.74196604637115
710.0 79.27922833366725
730.0 79.84275185108183
750.0 80.22289426645645
775.0 80.29962795838378
800.0 80.2381543967997
825.0 80.22805164193198
850.0 80.23125912492834
875.0 79.82030562129329
900.0 78.8355779687
925.0 77.75770245218136
950.0 76.71509328368933
975.0 75.5069677505127
1000.0 74.12315522113691
1030.0 73.15182138985341
1060.0 73.48180956516887
1090.0 75.02964598554988
1120.0 77.00129384134058
1150.0 78.53293677089822
1180.0 79.02836563242272
1220.0 78.33554553354386
1250.0 76.57860768377327
1280.0 75.15718305724431
1320.0 75.75628905471004
1360.0 76.49466338207282
1400.0 76.60994024439455
1450.0 76.49718372114643
1500.0 76.30266629769064
1550.0 75.68683367346618
1600.0 74.61329766676774
1650.0 74.81078812834664
1700.0 75.52413353247924
1750.0 75.05482073017455
1800.0 74.68638933936275
1850.0 75.37352093133532
1900.0 76.44435850465038
1950.0 76.42026897362425
2000.0 75.57678597059838
2060.0 75.2763299731244
2120.0 75.53215859884182
2180.0 75.66964171125575
2240.0 74.60937661703034
2300.0 74.13081464185969
2360.0 73.27971385706275
2400.0 73.22196590075404
2500.0 73.54333845208637
2580.0 73.97956196321931
2650.0 74.1854066329887
2720.0 73.35817531646396
2800.0 72.30283883253225
2900.0 72.23442733673717
3000.0 71.5178655081418
3070.0 71.83014049908849
3150.0 72.73000576394816
3250.0 74.24711154561989
3350.0 74.20506898825278
3450.0 72.92249715993154
3550.0 71.48711629962528
3650.0 72.75071981537289
3750.0 74.65610842437212
3870.0 74.68703820413486
4000.0 73.88179353104735
4120.0 73.36896991725047
4250.0 73.00644318427018
4370.0 73.17833249785527
4500.0 73.48426686487232
4620.0 74.73396741996534
4750.0 74.25705529006467
4870.0 74.35991708581051
5000.0 74.82422458214369
5150.0 76.90291989303911
5300.0 78.39295790387465
5450.0 76.51408057531985
5600.0 73.8881452282516
5800.0 73.94347867890673
6000.0 75.87827421758529
6150.0 76.14736784406986
6300.0 76.10915704396962
6500.0 75.76222688286606
6700.0 76.30460354194969
6900.0 77.18305200700063
7100.0 76.60083381679901
7300.0 75.61280295698413
7500.0 75.94778224170751
7750.0 75.97099598190746
8000.0 74.80107691875875
8250.0 75.90096013528817
8500.0 76.91871401254586
8750.0 75.55980037217996
9000.0 76.13977884974608
9250.0 77.87803269859435
9500.0 76.63704662918519
9750.0 78.14808549401243
10000.0 77.74846831577162
10300.0 77.38832005001431
10600.0 78.31908632607741
10900.0 77.3995463502319
11200.0 76.67605944170445
11500.0 75.63068144188449
11800.0 76.02576274024338
12200.0 76.68772117713465
12500.0 75.10629814230823
12800.0 76.0604247602983
13200.0 79.33492296756756
13600.0 76.45603619602487
14000.0 76.06517167482633
14500.0 76.99503403776409
15000.0 75.65376567288567
15500.0 76.09224763560601
16000.0 73.52803512878191
16500.0 67.22051787402418
17000.0 73.98187513992046
17500.0 75.94334327258954
18000.0 73.69230411665839
18500.0 74.33502370536516
19000.0 71.70834778426163
19500.0 66.44008517193365
