Freq,Floor Bounce,Ceiling Bounce,Front Wall Bounce,Side Wall Bounce,Rear Wall Bounce,Total Early Reflection
22.4,25.27001488257477,25.16692185116048,25.328807156745285,25.842568424710294,24.75199930648779,25.286186393731924
23.0,26.57001488257478,26.466921851160492,26.58585448910236,27.142568424710305,26.042825603765692,26.575921095823247
23.6,27.870014882574765,27.766921851160504,27.8858544891024,28.442568424710288,27.322591681944658,27.87234863214661
24.0,29.10306957104251,28.966921851160492,29.128807156745268,29.663496818928735,28.567826649698986,29.100348245722984
25.0,30.370014882574765,30.266921851160504,30.38585448910237,30.923830594389074,29.812919814758118,30.366377881123242
25.8,31.60306957104251,31.466921851160492,31.628807156745268,32.163496818928735,31.063258906335506,31.599540468594313
26.5,32.870014882574765,32.766921851160504,32.88585448910237,33.423830594389074,32.31222726350197,32.866255951963836
27.2,34.07001488257478,33.96692185116049,34.12880715674527,34.642568424710305,33.5519993064878,34.086186393731936
28.0,35.370014882574765,35.266921851160504,35.38585448910237,35.90412263968753,34.80253226106976,35.360075284674224
29.0,36.57001488257478,36.46692185116049,36.58585448910236,37.12383059438906,36.03202262642151,36.569747404599866
30.0,37.77001488257477,37.66692185116048,37.72880715674529,38.28338957194299,37.20253226106976,37.7439542565636
30.7,38.870014882574765,38.76692185116053,38.828807156745285,39.423830594389074,38.30253226106976,38.8531451905485
31.5,39.90306957104252,39.766921851160504,39.92880715674528,40.46349681892872,39.36782664969897,39.900348245722995
32.5,40.870014882574765,40.766921851160504,40.92880715674531,41.44256842471029,40.351999306487784,40.88618639373195
33.5,41.870014882574765,41.766921851160504,41.88585448910237,42.423830594389074,41.312227263501995,41.866255951963836
34.5,42.77001488257477,42.66692185116048,42.78585448910238,43.342568424710294,42.232022626421525,42.774012036938814
35.5,43.670014882574776,43.56692185116049,43.685854489102354,44.2425684247103,43.151999306487795,43.67754530762468
36.5,44.60306957104251,44.53435140868504,44.62880715674527,45.183389571942996,44.07715997867305,44.61967791871129
37.5,45.60306957104251,45.5007674944556,45.628807156745296,46.18338957194297,45.072602046355115,45.612306846406625
38.7,46.670014882574776,46.56692185116049,46.685854489102354,47.24256842471027,46.1320226264215,46.67401203693879
40.0,47.80306957104253,47.70076749445559,47.828807156745285,48.383389571942985,47.27260204635513,47.812306846406614
41.2,49.07001488257475,48.96692185116049,49.08585448910236,49.64256842471028,48.53202262642151,49.0740120369388
42.5,50.40306957104252,50.30076749445561,50.42880715674529,50.98338957194298,49.87260204635513,50.412306846406636
43.7,51.80306957104251,51.734351408685015,51.828807156745285,52.38338957194297,51.27715997867304,51.81967791871128
45.0,53.27001488257477,53.166921851160495,53.28585448910238,53.84256842471028,52.7320226264215,53.274012036938785
46.2,54.770014882574756,54.666921851160495,54.72880715674529,55.283389571942976,54.1897185983519,54.741694646322514
47.5,56.17001488257476,56.06692185116049,56.2,56.742568424710285,55.651999306487795,56.18038352138012
48.7,57.603069571042525,57.5007674944556,57.62880715674528,58.183389571942996,57.07260204635513,57.612306846406625
50.0,58.97001488257477,58.8669218511605,58.985854489102366,59.54256842471028,58.44282560376567,58.975921095823225
51.5,60.27001488257477,60.16692185116051,60.28585448910238,60.842568424710294,59.722591681944664,60.27234863214662
53.0,61.47001488257477,61.3669218511605,61.485854489102366,62.04256842471028,60.92259168194468,61.472348632146605
54.5,62.57001488257477,62.46692185116049,62.599999999999994,63.14256842471028,62.05199930648779,62.58038352138013
56.0,63.67001488257476,63.5669218511605,63.62880715674527,64.22383059438906,63.10253226106977,63.6531451905485
58.0,64.60306957104252,64.53435140868503,64.6288071567453,65.18338957194298,64.07715997867305,64.61967791871129
60.0,65.50306957104252,65.40076749445562,65.52880715674529,66.08338957194297,64.97715997867306,65.51311225272666
61.5,66.37001488257476,66.2669218511605,66.38585448910237,66.92383059438906,65.8320226264215,66.36974740459988
63.0,67.10306957104252,67.00076749445562,67.1288071567453,67.68338957194298,66.57715997867305,67.11311225272667
65.0,67.87001488257476,67.7669218511605,67.82880715674528,68.42383059438906,67.30253226106977,67.8531451905485
67.0,68.47001488257477,68.36692185116051,68.48585448910238,69.0425684247103,67.95199930648779,68.4775453076247
69.0,69.07001488257475,68.96692185116049,69.08585448910236,69.64256842471028,68.54121915275331,69.07563696272987
71.0,69.60306957104252,69.4669218511605,69.6288071567453,70.16349681892873,69.0519993064878,69.59755226275914
73.0,70.07001488257477,69.9669218511605,70.08585448910236,70.64256842471028,69.53202262642151,70.07401203693878
75.0,70.47001488257476,70.3669218511605,70.51475531529209,71.04256842471028,69.9519993064878,70.48335197099081
77.5,70.87001488257475,70.76692185116049,70.88585448910239,71.42383059438905,70.31222726350197,70.86625595196382
80.0,71.17001488257476,71.0669218511605,71.18585448910238,71.72383059438906,70.61291981475813,71.16637788112322
82.5,71.40306957104252,71.2669218511605,71.42880715674528,71.98338957194298,70.8632589063355,71.40407872057818
85.0,71.63821129888743,71.53435140868501,71.62880715674528,72.183389571943,71.07260204635512,71.62589926801682
87.5,71.77001488257477,71.66692185116051,71.78585448910238,72.34256842471028,71.24282560376568,71.77592109582324
90.0,71.93821129888744,71.80076749445563,71.9288071567453,72.48338957194298,71.36325890633552,71.91769687837464
92.5,72.03821129888742,71.90076749445562,72.02880715674529,72.58338957194299,71.47260204635512,72.0193430078353
95.0,72.07001488257477,71.9669218511605,72.08585448910237,72.64256842471029,71.54282560376568,72.07592109582323
97.5,72.17001488257478,72.0669218511605,72.1288071567453,72.70412263968753,71.58971859835191,72.14640078578017
100.0,72.17001488257478,72.0669218511605,72.18585448910237,72.72383059438906,71.6320226264215,72.16974740459989
103.0,72.17001488257478,72.0669218511605,72.2,72.74256842471029,71.6519993064878,72.18038352138014
106.0,72.13513059177984,72.0669218511605,72.2,72.74256842471029,71.65519083648422,72.17401190021586
109.0,72.13513059177984,72.0669218511605,72.2,72.74256842471029,71.66455133106837,72.17567466819845
112.0,72.10076749445562,72.0669218511605,72.22880715674529,72.74256842471029,71.66854039368678,72.17541537688264
115.0,72.10076749445562,72.0669218511605,72.22880715674529,72.70319162199121,71.65620797034262,72.16427600354639
118.0,72.0669218511605,72.0669218511605,72.24313939533782,72.68338957194298,71.6219169147291,72.1499712364952
122.0,72.0669218511605,72.03358982687998,72.24313939533782,72.64256842471029,71.62651546895778,72.1350574755019
125.0,72.03358982687998,72.0,72.24313939533782,72.6220185188173,71.61673397979314,72.11559217850186
128.0,72.06769521305294,72.0,72.25775667464532,72.60137091259008,71.61600942354643,72.12056640871006
132.0,72.06769521305294,72.0,72.2861845050195,72.50137091259009,71.58652282538728,72.09908178997155
136.0,72.03513059177983,71.9669218511605,72.30099441428071,72.48156054014521,71.58998621621389,72.08555380582928
140.0,72.03513059177983,71.93358982687998,72.35775667464532,72.42110176237115,71.54688842083475,72.07026671911987
145.0,72.07001488257477,71.90076749445562,72.37266367710968,72.36119474234184,71.5190331447279,72.05622331076314
150.0,72.07001488257477,71.90076749445562,72.40099441428073,72.28156054014522,71.46996661593565,72.03674150097915
155.0,72.10542400732663,71.86845083805433,72.4726636771097,72.2023023206405,71.41741439802976,72.02758599876694
160.0,72.10542400732663,71.80306957104251,72.50099441428073,72.12476811333077,71.31263211057913,71.98719367512311
165.0,72.10542400732663,71.77150800786937,72.50099441428073,72.00873581960424,71.19931329816983,71.93810032591661
170.0,72.10542400732663,71.67150800786938,72.51609718937368,71.8907028461054,71.07339407798894,71.87748651652196
175.0,72.10542400732663,71.60690501035458,72.54479812098769,71.79709610550812,70.92092550438565,71.82817064017087
180.0,72.10542400732663,71.57609175449221,72.54479812098769,71.64079116945021,70.76092713374197,71.7659100065025
185.0,72.10542400732663,71.51227178315618,72.54479812098769,71.5284473578981,70.57709442698696,71.70321770684896
190.0,72.07387961222818,71.41227178315619,72.54479812098769,71.43326375905616,70.41593097348718,71.63435602123333
195.0,72.07387961222818,71.38219967332304,72.54479812098769,71.29891429978495,70.20707285755724,71.5721502608886
200.0,72.07387961222818,71.31916705502752,72.51739302852533,71.1863606964899,70.04912462537823,71.50936188890157
206.0,72.04283030471974,71.21916705502755,72.51739302852533,71.05280010352217,69.87785166804012,71.43432925004697
212.0,72.04283030471974,71.21916705502755,72.46204375999245,70.97516879937908,69.69258964729318,71.38043936553133
218.0,71.9760917544922,71.15260953202218,72.41739302852534,70.85970573251852,69.52797628675985,71.29743657310671
224.0,71.94283030471975,71.08982856673472,72.36204375999246,70.72446936146345,69.32829898544296,71.21252469151695
230.0,71.87609175449221,70.98982856673473,72.29044363353324,70.59191131459984,69.10938398140588,71.10684698047402
236.0,71.77609175449221,70.88982856673472,72.21739302852535,70.40215233668894,68.86203702920393,70.97978962792024
240.0,71.64576719438469,70.68982856673472,72.09044363353323,70.20560723554553,68.56735532719361,70.8052833263576
250.0,71.5457671943847,70.52758719283592,71.96204375999247,69.98551676883412,68.25178316989795,70.63938129192319
258.0,71.3457671943847,70.29897445130925,71.81998423401443,69.68552301652731,67.85413907186454,70.41023673829874
265.0,71.18219967332304,70.0096325668162,71.66204375999246,69.38237001107525,67.45773367409225,70.17505210382286
272.0,70.98219967332304,69.75521969308379,71.46204375999247,69.04263229912283,67.04534682943404,69.91919530609299
280.0,70.78219967332305,69.4950645803583,71.31998423401444,68.79500463233644,66.65588883553377,69.69740482090742
290.0,70.61916705502753,69.26878033996789,71.16204375999247,68.49265299517815,66.2952986516676,69.48210091032391
300.0,70.51916705502754,69.08382334167594,71.09044363353323,68.32013803539897,65.97061637394856,69.34180765939318
307.0,70.45667255930051,68.98382334167596,71.03537086618988,68.12347628456877,65.71570584510785,69.2360777553527
315.0,70.45667255930051,68.98382334167596,71.08086845464632,68.04932262162122,65.55690124162132,69.22465842250574
325.0,70.5566725593005,69.08382334167594,71.20914589305828,68.07949418927373,65.48191953557458,69.30801609937487
335.0,70.69471929119204,69.20942248426019,71.38086845464632,68.19386137194503,65.48898975646276,69.439920542119
345.0,70.89471929119203,69.43546263134682,71.57089921164045,68.33444944084344,65.5444691778413,69.62141697956984
355.0,71.09471929119205,69.69506458035829,71.77089921164045,68.47854423597506,65.62819846921217,69.81567803679265
365.0,71.26588846059687,69.88219812790055,71.97089921164046,68.6935906368679,65.66828762482365,69.99566065268648
375.0,71.42758719283593,70.1096325668162,72.1174412822204,68.85271740814696,65.64803502550566,70.15195406504569
387.0,71.52758719283592,70.20963256681621,72.21744128222039,68.95970096052233,65.51086390173685,70.23659914329835
400.0,71.52758719283592,70.20963256681621,72.21744128222039,68.99368216673594,65.29809788219416,70.22768660041618
412.0,71.42758719283593,70.08219812790055,72.1174412822204,68.92767867001615,64.90728237743241,70.10925702663872
425.0,71.26096514237182,69.8552196930838,71.91744128222038,68.78124485969342,64.4180442058495,69.90430562105786
437.0,71.06096514237183,69.5429397936019,71.67089921164045,68.59804665467794,63.8628955610389,69.65065457458418
450.0,70.76096514237182,69.18382334167595,71.39675502454563,68.36375112524503,63.26555462670484,69.34268029447765
462.0,70.49485705883171,68.80962251076208,71.09675502454564,68.15805034011743,62.64718028045324,69.03799279802082
475.0,70.26096514237183,68.47106744273918,70.85105966851945,67.9203748553324,62.07787583595325,68.76507764351368
487.0,70.03257218046558,68.14805664755615,70.65105966851945,67.7413193111193,61.58305375964835,68.52547377342816
500.0,69.8948570588317,67.9694198636673,70.50726421930295,67.58022496347843,61.143062225038136,68.36253452536141
515.0,69.83257218046558,67.81395652088274,70.50726421930295,67.47011731401852,60.85492520586048,68.28765521468877
530.0,69.87717895989803,67.71395652088275,70.58086845464632,67.42849699053806,60.688191982116024,68.29469848492452
545.0,69.91592538879982,67.71395652088275,70.7652871599955,67.45752964568675,60.6734209712523,68.37323391212284
560.0,70.05521969308379,67.7809849055068,70.93924275721992,67.51655074314495,60.719430527649735,68.4962379503219
580.0,70.22869245367797,67.84852015458806,71.15491760385288,67.56970569253497,60.877777424799106,68.64734201479304
600.0,70.3429397936019,67.9033038382893,71.38539130564126,67.65936776266125,61.038418117317164,68.79136100854473
615.0,70.45866027600835,67.9033038382893,71.57602210108666,67.74624864687209,61.26986773545882,68.91542567810879
630.0,70.50034112939828,67.87100612011483,71.77602210108665,67.81759898496631,61.444815991794,69.0138237011436
650.0,70.51832544184971,67.74852015458806,71.95121482311347,67.85857396998068,61.57719060977087,69.07834674911422
670.0,70.49448868932289,67.59430744544665,72.0152383542856,67.8916147736241,61.618883078521804,69.0809076807877
690.0,70.41457895753311,67.37245249207646,72.09121584965015,67.87839982968742,61.626476979241886,69.05658633843198
710.0,70.3145789575331,67.19780984381858,72.10819596697112,67.83451328515761,61.58846852967217,69.00483663840406
730.0,70.15865724017871,66.99780984381857,72.05689526970546,67.77445928447507,61.44510506417379,68.90134859966031
750.0,69.99179815677408,66.77695775614916,72.00208450859424,67.70974066250602,61.25848628332176,68.78940205147417
775.0,69.8361070797735,66.60921140720404,71.95125198025613,67.57008641567853,60.97648213018101,68.67459192805518
800.0,69.73610707977349,66.45648313414827,71.85125198025614,67.38668681974013,60.59429487491653,68.54588780556543
825.0,69.6361070797735,66.40921140720404,71.75125198025613,67.22748161062118,60.10406107626163,68.43145352954377
850.0,69.5361070797735,66.3625132206552,71.65125198025612,67.01533246024945,59.55394788499676,68.30877692289937
875.0,69.48161208533422,66.48343461029552,71.55125198025613,66.82013685485781,58.97331193566335,68.2237406622359
900.0,69.46136837622764,66.63753193576905,71.40616996971326,66.59790126565014,58.40482712909578,68.13299081343183
925.0,69.51832544184971,66.81395652088273,71.33364575029121,66.41701832347022,57.861899252498034,68.10769356571025
950.0,69.66726558859611,67.19179815677408,71.28878541806105,66.27259220876238,57.40795958104695,68.16174797266365
975.0,69.85062128010364,67.57106744273918,71.23971298709418,66.2249859321483,57.03917657812724,68.24519218158954
1000.0,70.16194867563766,68.0944886893229,71.299422931822,66.21932555395934,56.880199192718564,68.44985943347983
1030.0,70.50963256681621,68.70962251076207,71.35499604273117,66.33889080278823,56.826324523690246,68.706600629863
1060.0,70.96096514237183,69.33392832814567,71.48279645161534,66.48292925073791,56.941963449949455,69.03828965080393
1090.0,71.4457671943847,70.05866027600834,71.58279645161534,66.67718665368729,57.14242840571532,69.41054664197618
1120.0,71.9053180676647,70.69257011413609,71.68279645161535,66.81411595913413,57.40757535208857,69.7608416717625
1150.0,72.3022846139602,71.1925701141361,71.81523332990085,66.95158316234763,57.66622596011234,70.07583861977409
1180.0,72.63513059177983,71.56803106656233,71.83173632649093,66.98072954552606,57.856988125390245,70.29708480601948
1220.0,72.90231994589776,71.80962251076207,71.82579638388721,66.91915535971225,58.00802531844728,70.44973803970018
1250.0,72.97001488257476,71.72812100489949,71.72631484981085,66.66145172362224,57.98645990580701,70.4019472516766
1280.0,72.90306957104252,71.43610707977349,71.51897457933326,66.25273546400388,57.82658016519453,70.20729313270881
1320.0,72.67449351030439,70.93753193576904,71.26915009595425,65.73024218611215,57.560563530880756,69.87907445392892
1360.0,72.3493576647827,70.28888863538651,70.99540444268614,65.13583028728272,57.20291264759605,69.4672926088929
1400.0,71.96419800295965,69.5137899675559,70.65067997136482,64.53467154860869,56.85921024444872,68.98748728415515
1450.0,71.54680047887706,68.77655346032068,70.39010076869006,63.987251712371176,56.52594874336107,68.53905585414567
1500.0,71.17182978310015,68.06174268592247,70.13323299332912,63.57155978377496,56.280270800462134,68.13038247568956
1550.0,70.80265313251616,67.41411392837597,69.95079916835468,63.291758556232566,56.15059102935311,67.77813831328834
1600.0,70.5392116131446,66.96174268592247,69.89035499856489,63.274055916232015,56.16219618802532,67.57077670525679
1650.0,70.35962034200111,66.69689984743687,69.92962255641291,63.481107414044345,56.279041968399895,67.48654728399472
1700.0,70.28143621591468,66.61323574403133,70.07127741285234,63.90820383390377,56.51560389173147,67.53237335398784
1750.0,70.22585044351925,66.70432912249856,70.26127679376299,64.54287140516482,56.78815466547306,67.65810988313899
1800.0,70.29220047151573,66.91904449785343,70.55631716674083,65.24017114330576,57.088583668446844,67.90081084516517
1850.0,70.31395652088274,67.20330383828929,70.87850623165005,65.91378013536692,57.36591862212694,68.15468332887515
1900.0,70.3254512340871,67.46136837622763,71.16761108534182,66.58711189838685,57.536254656489135,68.39613761721121
1950.0,70.32812100489949,67.74258273663014,71.48242230727826,67.12358245053525,57.60164210244466,68.6370074098171
2000.0,70.29257011413608,67.97584607527145,71.6600593685791,67.46089153183942,57.514433373396116,68.78112009114172
2060.0,70.18915630129644,68.06136837622763,71.79817545090704,67.55854868712638,57.17526466987162,68.83040567430291
2120.0,70.02926676879422,68.0361070797735,71.79817545090704,67.47911355838477,56.66345363520884,68.76441522829549
2180.0,69.87896989520114,67.98343461029552,71.8136394060688,67.24923077006267,56.042821590418484,68.68102212067555
2240.0,69.70306957104252,67.89727311966745,71.7600593685791,66.91821993656134,55.396500771003716,68.54465288996249
2300.0,69.53821129888742,67.75800804769342,71.68242230727827,66.5172807164513,54.77064520575661,68.38532154727731
2360.0,69.4053180676647,67.62406634433557,71.63025838484647,66.12838741217047,54.22462957170805,68.25129749550328
2400.0,69.27449351030438,67.52672208916906,71.57455785944566,65.75666689437186,53.805363615683504,68.12832567099771
2500.0,69.2053180676647,67.42672208916905,71.58279645161534,65.47244971975975,53.6224543676455,68.06320822276123
2580.0,69.16692185116051,67.29070778066617,71.65086213388184,65.35525624467346,53.66582789239264,68.04854111622281
2650.0,69.17387961222818,67.20566507474113,71.76301220938268,65.34162442847065,53.922560631622076,68.0885570148583
2720.0,69.30123572626638,67.18256065499534,71.94490849772033,65.41723348628494,54.275128412090254,68.21366384223623
2800.0,69.39215915969808,67.19470218621026,72.11378885986493,65.5677676041775,54.73440605712095,68.33869430379404
2900.0,69.5648012258366,67.23212822852754,72.26758756743828,65.73087487909712,55.165363789373785,68.48313015192667
3000.0,69.76497174328419,67.24314683892156,72.39797280563793,65.91994647503365,55.57642574713944,68.6228712155204
3070.0,69.9277300866453,67.27215664893681,72.49797280563793,66.07161888703611,55.75571496235351,68.73542197061535
3150.0,70.09562870961801,67.32761355743554,72.4744048379198,66.16693190850145,55.77084681996212,68.78754118056062
3250.0,70.13167212130372,67.28493492460848,72.40579874603552,66.20198835708072,55.507065997861346,68.76065020451809
3350.0,70.10450671220272,67.22022310324252,72.26554496792102,66.12649744179815,54.96871821625771,68.66606936650167
