Freq "Sound Power"
20.5078 58.356394360710794
21.9727 61.92914646365108
23.4375 67.3203070097264
24.9023 72.22263615058236
26.3672 75.73858432038215
27.832 79.02566536728266
29.2969 81.63637948967072
30.7617 84.2237588010925
32.2266 86.6527338439943
33.6914 88.80096671076664
35.1562 90.794286484865
36.6211 92.46792826911027
38.0859 93.75196596515671
39.5508 94.6460299569325
41.0156 95.18473093361982
42.4805 95.44027609305465
43.9453 95.51509489748706
45.4102 95.53288282855104
46.875 95.53474557989583
48.3398 95.53427977887827
51.2695 95.55971190215479
52.7344 95.57762969516078
54.1992 95.66549869897835
55.6641 95.72993080147792
58.5938 95.87729296248534
60.0586 95.93072098871957
62.9883 96.05245211546327
64.4531 96.11250752234417
67.3828 96.13677624269663
68.8477 96.12994339399067
71.7773 96.04635430889681
74.707 95.95490177965445
77.6367 95.97773624988048
79.1016 96.00721796982181
82.0312 96.18604092682371
84.9609 96.44584052639867
87.8906 96.72791987648488
90.8203 96.98646292822413
95.2148 97.1450579188023
98.1445 97.11775449886485
101.074 97.0017038584505
105.469 96.77544057247181
108.398 96.58291253225592
112.793 96.22048293869592
117.188 95.83596730865837
120.117 95.63729619563532
124.512 95.38704585372535
128.906 95.20130435226763
133.301 94.96483753745576
139.16 94.51960652114812
143.555 94.16151472830964
147.949 94.15859626874082
153.809 94.05966050296117
159.668 93.62440998444087
165.527 93.25084019576987
171.387 93.35267007861326
177.246 93.41959645230637
183.105 93.12890796579788
188.965 92.66874533547345
196.289 92.13845219933931
203.613 91.77351515637807
210.938 91.77060477130904
218.262 92.04945371046578
225.586 92.00694922264483
232.91 91.56395296417801
241.699 91.7433163441806
250.488 91.94943860318283
259.277 92.62240491995173
268.066 92.6018290727078
276.855 92.82966707629593
287.109 92.43864047813818
297.363 92.27558094752706
307.617 92.50922961998262
319.336 92.01254530185648
329.59 92.30257502430266
341.309 91.97999940941986
353.027 91.71499089657196
366.211 91.36141666746641
379.395 91.42589687348554
392.578 92.70793283979951
405.762 92.41484730131015
420.41 92.28970580461575
435.059 92.00614214152274
451.172 91.46657540863792
465.82 91.78416363110492
483.398 92.0697029807392
499.512 92.14166857322076
517.09 91.93397116912718
536.133 91.74291999379147
555.176 91.62353770310614
574.219 91.54238587685242
594.727 91.18876801799063
615.234 90.3637264074095
637.207 90.18698325082251
659.18 90.48829501611083
682.617 89.65489158945594
707.52 89.11056109101074
732.422 90.35706013019472
757.324 90.455526610532
785.156 90.32076733617089
811.523 89.99075760975097
840.82 90.17468866611586
870.117 90.42616586412827
900.879 90.56994130571773
933.105 90.6770370286431
965.332 91.04172920329475
1000.49 90.85427560021358
1035.64 90.86892453624255
1072.27 90.35144557604164
1108.89 90.25906613039004
1148.44 90.19770582864109
1189.45 89.86329198527318
1230.47 89.98476077314857
1274.41 91.34262628864919
1319.82 91.74071386135945
1366.7 91.77749438526865
1413.57 91.48108162114305
1463.38 91.15695135059498
1516.11 91.04393434130705
1568.85 90.91399781400605
1624.51 90.34106096434928
1681.64 89.7351785763081
1741.7 89.34605201086771
1803.22 90.11057395001845
1866.21 90.8681485779097
1932.13 90.14016707993896
1999.51 89.93818014170589
2069.82 89.7116724369844
2143.07 88.93196927636774
2219.24 88.10611932204094
2296.88 87.91778522640041
2378.91 87.29783036280128
2462.4 85.82724617176463
2548.83 85.59143071770958
2639.65 85.45345931672506
2731.93 84.98801691029496
2828.61 85.04728659657178
2928.22 85.12766925757059
3030.76 85.22228441502108
3137.7 85.03488342935002
3249.02 85.19370923300991
3363.28 85.51001907124461
3481.93 85.46854916710559
3604.98 85.24865071532042
3732.42 85.28849056021019
3864.26 84.89191126458162
4000.49 84.77785997634129
4141.11 84.64862512155982
4287.6 84.29329799293835
4438.48 84.10196021538876
4595.21 84.44335980261062
4756.35 84.69898202764631
4924.8 85.15769506551206
5097.66 85.35492002969082
5277.83 85.3568875167072
5463.87 85.3349015238149
5657.23 85.59850625400162
5856.45 85.58780066422368
6062.99 85.64724951317922
6276.86 85.84862411398633
6498.05 86.10197127405064
6726.56 85.82150823426716
6963.87 85.64741940516302
7209.96 85.65902015011636
7464.84 85.59706062931919
7727.05 85.45408806786156
7999.51 85.347037504784
8282.23 85.37557497725581
8573.73 85.42870102569253
8876.95 85.5076844679113
9188.96 85.54630941509697
9514.16 85.55126054486479
9849.61 85.67903994144294
10196.8 85.70401108878877
10555.7 85.63988537424933
10927.7 85.54327692685088
11313.0 85.55458403533032
11712.9 85.9179283188261
12126.0 85.96284839186411
12553.7 85.78129254611426
12996.1 85.4591241453865
13454.6 85.20697369156518
13929.2 85.17234531515777
14419.9 84.9441310287639
14928.2 84.34902146034364
15455.6 83.45122717010939
16000.5 82.53679472664402
16564.5 81.59754219007925
17148.9 81.27306529233603
17752.4 80.99566955055722
18379.4 80.31909078072826
19026.9 79.28250329030587
19697.8 78.27900135008446
19999.5 77.90925801888216
