Freq "Estimated In-Room Response"
22.4 21.654648899594378
23.0 23.494715900084856
23.6 25.317510426517458
24.0 27.13907486638064
25.0 28.93907486638065
25.8 30.70673182062805
26.5 32.494715900084856
27.2 34.25110833035404
28.0 36.00896871555051
29.0 37.757256286308035
30.0 39.484172484591596
30.7 41.2089687155505
31.5 42.93907486638062
32.5 44.63164097212686
33.5 46.35035821200938
34.5 48.03772872110369
35.5 49.731260650280916
36.5 51.42690559740112
37.5 53.11517501561761
38.7 54.79776875299672
40.0 56.47178997343616
41.2 58.17223172938512
42.5 59.83761815722133
43.7 61.50256520004024
45.0 63.103537234969124
46.2 64.67711180001905
47.5 66.20122091281884
48.7 67.64685070766353
50.0 69.0038581622295
51.5 70.26307494293468
53.0 71.43611134660684
54.5 72.5071822282328
56.0 73.49972600918963
58.0 74.42469026325578
60.0 75.25397606206664
61.5 76.03369964804695
63.0 76.75283999263911
65.0 77.43609135790146
67.0 78.05476478863719
69.0 78.64424383534697
71.0 79.20798495006574
73.0 79.6972296592042
75.0 80.2132817589111
77.5 80.65152582080661
80.0 81.09550529488283
82.5 81.50628315040446
85.0 81.89981985747147
87.5 82.26340775038457
90.0 82.55853180265352
92.5 82.84856172064293
95.0 83.04770338507575
97.5 83.19704397167948
100.0 83.27721180844462
103.0 83.25806696941218
106.0 83.20289200236209
109.0 83.0911639868307
112.0 82.98781798199133
115.0 82.87563491032293
118.0 82.72913396360138
122.0 82.65887994823001
125.0 82.61007365383134
128.0 82.65206169294478
132.0 82.71037397051165
136.0 82.8220294654913
140.0 82.92435215479554
145.0 83.02402756931453
150.0 83.08864509303797
155.0 83.10245114114214
160.0 83.05253429320832
165.0 82.9169773008013
170.0 82.717445764354
175.0 82.45910390283538
180.0 82.18891998320302
185.0 81.92185470670177
190.0 81.66242179669794
195.0 81.44116873406101
200.0 81.26132359876014
206.0 81.16727619157388
212.0 81.10874377372647
218.0 81.09907809255498
224.0 81.11228235302885
230.0 81.12014616941782
236.0 81.14923805015236
240.0 81.14248358602775
250.0 81.11937887881031
258.0 81.04647354300914
265.0 80.93865199177
272.0 80.80708452363021
280.0 80.66225928395937
290.0 80.51194506641905
300.0 80.33855403965936
307.0 80.20233021376119
315.0 80.06461492621932
325.0 79.91093919235362
335.0 79.78480902609772
345.0 79.67594986630317
355.0 79.56703282225058
365.0 79.45287857802778
375.0 79.35316881312956
387.0 79.21819529103534
400.0 79.07393102376317
412.0 78.90845322817162
425.0 78.72780681129382
437.0 78.55107984967727
450.0 78.37437614129668
462.0 78.18397958950182
475.0 78.04450069112252
487.0 77.9134617084477
500.0 77.8032962007882
515.0 77.7494258625972
530.0 77.68726434445382
545.0 77.69826425955328
560.0 77.71813092776958
580.0 77.75528627589718
600.0 77.81323592244453
615.0 77.88426045109807
630.0 77.96777085021417
650.0 78.07900945038098
670.0 78.16056309669722
690.0 78.28603738324165
710.0 78.40272133423525
730.0 78.49918063996081
750.0 78.5761989968263
775.0 78.60342689389577
800.0 78.56951553791336
825.0 78.45931947288932
850.0 78.32383178289737
875.0 78.1817564302951
900.0 78.01554120287727
925.0 77.87012628639627
950.0 77.71158340576973
975.0 77.5885798943869
1000.0 77.46206717480229
1030.0 77.3428021242826
1060.0 77.25297944392436
1090.0 77.13890745185682
1120.0 77.0367677420291
1150.0 76.96766438725685
1180.0 76.91913056840899
1220.0 76.85881184423701
1250.0 76.8409464075192
1280.0 76.83723013661006
1320.0 76.82324684731269
1360.0 76.83609185530466
1400.0 76.82505930764262
1450.0 76.84717666835357
1500.0 76.85915836233477
1550.0 76.82821263871074
1600.0 76.79328644686093
1650.0 76.75491726898669
1700.0 76.672437992198
1750.0 76.58940436869432
1800.0 76.50749944489154
1850.0 76.4463908004636
1900.0 76.40294788131021
1950.0 76.38727251428523
2000.0 76.39262426444556
2060.0 76.45682832536818
2120.0 76.51533530378433
2180.0 76.6179937759814
2240.0 76.73515097496785
2300.0 76.86324948956496
2360.0 76.97551628202248
2400.0 77.07746148177154
2500.0 77.1470925529256
2580.0 77.17564622871382
2650.0 77.19518343760961
2720.0 77.16435189465204
2800.0 77.1378506506193
2900.0 77.08910817780604
3000.0 77.06220525362355
3070.0 76.97357796732297
3150.0 76.91246974494877
3250.0 76.79215585010397
3350.0 76.66877503703728
3450.0 76.59064559498266
3550.0 76.47671959121585
3650.0 76.40697426450727
3750.0 76.33757910600734
3870.0 76.3069203131005
4000.0 76.29415327562805
4120.0 76.32494947963846
4250.0 76.35588979440395
4370.0 76.41556767145877
4500.0 76.46842092998062
4620.0 76.51167650420926
4750.0 76.57908048167502
4870.0 76.61306873309438
5000.0 76.6306198278363
5150.0 76.62209834959074
5300.0 76.59371284948381
5450.0 76.54550411288393
5600.0 76.46821190482646
5800.0 76.39084966749853
6000.0 76.3181422665775
6150.0 76.22294225093736
6300.0 76.11826038956475
6500.0 75.99211778465286
6700.0 75.89383007189913
6900.0 75.81270795526882
7100.0 75.73193056394118
7300.0 75.69816911051927
7500.0 75.67100259666157
7750.0 75.71814652924037
8000.0 75.78631228504737
8250.0 75.92265684781805
8500.0 76.10060738092511
8750.0 76.28518404106114
9000.0 76.43223821125542
9250.0 76.57011200563952
9500.0 76.576755479019
9750.0 76.55276140813129
10000.0 76.38515743707227
10300.0 76.06134072449237
10600.0 75.68398914404807
10900.0 75.24520402266751
11200.0 74.83128866758774
11500.0 74.5141954732252
11800.0 74.28138100919762
12200.0 74.2816998384211
12500.0 74.51522700742468
12800.0 74.98178665231103
13200.0 75.59982689462144
13600.0 76.25046307179436
14000.0 76.69013087315348
14500.0 76.82157030476142
15000.0 76.47645523254742
15500.0 75.46990284308961
16000.0 73.60235757820047
16500.0 70.82776774707895
17000.0 67.23196994534263
17500.0 63.01397532678146
18000.0 58.36571609317758
18500.0 53.46933483143118
19000.0 48.509092623523884
19500.0 43.71558636897376
