Freq "On Axis"
20.5078 43.41414090909092
21.9727 51.02184090909091
23.4375 53.68864090909091
24.9023 54.3185409090909
26.3672 55.17024090909092
27.832 58.501340909090914
29.2969 60.84734090909092
30.7617 62.373840909090916
32.2266 64.0593409090909
33.6914 65.6696409090909
35.1563 67.1954409090909
36.6211 68.3339409090909
38.0859 70.0224409090909
39.5508 71.43814090909092
41.0156 72.4683409090909
42.4805 73.9431409090909
43.9453 74.9388409090909
45.4102 75.7633409090909
46.875 76.5409409090909
48.3398 77.3251409090909
51.2695 78.58044090909092
52.7344 79.32604090909089
54.1992 79.82994090909091
55.6641 80.2510409090909
58.5938 81.0790409090909
60.0586 81.3107409090909
62.9883 81.9208409090909
64.4531 82.2335409090909
67.3828 82.67974090909091
68.8477 82.89784090909089
71.7773 83.4145409090909
74.707 83.8236409090909
77.6367 84.0779409090909
79.1016 84.1958409090909
82.0313 84.5293409090909
84.9609 84.8449409090909
87.8906 85.0400409090909
90.8203 85.23924090909091
95.2148 85.5413409090909
98.1445 85.68524090909091
101.074 85.8230409090909
105.469 86.0300409090909
108.398 86.24474090909092
112.793 86.47124090909091
117.188 86.6140409090909
120.117 86.73004090909092
124.512 86.87214090909089
128.906 86.9114409090909
133.301 86.9551409090909
139.16 86.93654090909091
143.555 86.9371409090909
147.949 86.89674090909091
153.809 86.8504409090909
159.668 87.0426409090909
165.527 87.0180409090909
171.387 86.9183409090909
177.246 86.8212409090909
183.105 86.6370409090909
188.965 86.55514090909091
196.289 86.6448409090909
203.613 86.50384090909091
210.938 86.4424409090909
218.262 86.36974090909091
225.586 86.2800409090909
232.91 86.43954090909091
241.699 86.3525409090909
250.488 86.1479409090909
259.277 86.12964090909091
268.066 85.9026409090909
276.855 85.8080409090909
287.109 85.8584409090909
297.363 85.9724409090909
307.617 86.12144090909091
319.336 86.1791409090909
329.59 86.4317409090909
341.309 86.0852409090909
353.027 86.1470409090909
366.211 86.27354090909091
379.395 86.6738409090909
392.578 86.25214090909091
405.762 85.8469409090909
420.41 86.2149409090909
435.059 85.3555409090909
451.172 85.08124090909091
465.82 84.2228409090909
483.398 83.4616409090909
499.512 83.9736409090909
517.09 84.3203409090909
536.133 83.0683409090909
555.176 82.9051409090909
574.219 83.04144090909091
594.727 82.65324090909093
615.234 82.6688409090909
637.207 82.44644090909091
659.18 83.7216409090909
682.617 83.6554409090909
707.52 84.57944090909089
732.422 85.4928409090909
757.324 86.10734090909091
785.156 86.66994090909091
811.523 86.55984090909091
840.82 86.3690409090909
870.117 86.18274090909091
900.879 86.36264090909089
933.105 86.44504090909089
965.332 86.9317409090909
1000.49 86.9902409090909
1035.64 86.87914090909092
1072.27 87.38234090909091
1108.89 87.4453409090909
1148.44 87.55964090909092
1189.45 87.76234090909091
1230.47 86.6468409090909
1274.41 86.05194090909089
1319.82 86.1437409090909
1366.7 86.34974090909091
1413.57 86.29784090909091
1463.38 86.91864090909091
1516.11 87.8200409090909
1568.85 88.0910409090909
1624.51 87.8117409090909
1681.64 87.85184090909091
1741.7 88.0432409090909
1803.22 87.7252409090909
1866.21 86.2757409090909
1932.13 84.76404090909091
1999.51 83.8656409090909
2069.82 83.23184090909089
2143.07 83.78384090909088
2219.24 85.0773409090909
2296.88 85.15484090909091
2378.91 86.79944090909092
2462.4 86.74224090909091
2548.83 83.5591409090909
2639.65 83.9083409090909
2731.93 85.09584090909091
2828.61 86.3647409090909
2928.22 87.7476409090909
3030.76 88.2785409090909
3137.7 88.3230409090909
3249.02 88.77204090909092
3363.28 88.7414409090909
3481.93 88.5856409090909
3604.98 88.01754090909091
3732.42 88.1954409090909
3864.26 89.1410409090909
4000.49 88.5438409090909
4141.11 88.83874090909092
4287.6 88.8004409090909
4438.48 88.6517409090909
4595.21 88.26314090909091
4756.35 87.5550409090909
4924.8 85.0387409090909
5097.66 86.44004090909091
5277.83 88.11454090909089
5463.87 88.4188409090909
5657.23 88.30564090909091
5856.45 88.24134090909091
6062.99 87.22564090909091
6276.86 87.1637409090909
6498.05 87.7073409090909
6726.56 87.4193409090909
6963.87 87.40144090909091
7209.96 87.2577409090909
7464.84 87.6292409090909
7727.05 87.8888409090909
7999.51 88.6357409090909
8282.23 88.5818409090909
8573.73 88.0195409090909
8876.95 88.37794090909091
9188.96 89.6055409090909
9514.16 89.97084090909091
9849.61 90.49864090909091
10196.8 90.6683409090909
10555.7 90.19994090909088
10927.7 91.82224090909091
11313.0 92.8221409090909
11712.9 92.0428409090909
12126.0 89.29764090909092
12553.7 86.88654090909091
12996.1 83.69144090909091
13454.6 83.5424409090909
13929.2 85.1971409090909
14419.9 88.3512409090909
14928.2 89.64704090909089
15455.6 79.83534090909092
16000.5 84.3964409090909
16564.5 88.8272409090909
17148.9 82.3109409090909
17752.4 83.3228409090909
18379.4 86.29364090909091
19026.9 89.00034090909091
19697.8 88.72144090909092
19999.5 84.7394409090909
