Freq "Sound Power"
20.5078 49.27412608964269
21.9727 54.48803180503734
23.4375 55.46975905067359
24.9023 56.400293189839545
26.3672 57.80434169171414
27.832 60.31801926769987
29.2969 62.18418445783152
30.7617 63.517534321850746
32.2266 65.05914563560043
33.6914 66.50277784136372
35.1563 67.89408392423763
36.6211 68.95084367371835
38.0859 70.54138199577241
39.5508 71.8716209697516
41.0156 72.86906731609727
42.4805 74.19506602155373
43.9453 75.16191986337748
45.4102 75.95074434478587
46.875 76.67775167607601
48.3398 77.40886438753003
51.2695 78.60876948285672
52.7344 79.3221785471761
54.1992 79.81256033802325
55.6641 80.18700804663784
58.5938 80.97852212777771
60.0586 81.1792519584187
62.9883 81.75999780033969
64.4531 82.05455072265318
67.3828 82.47105617871534
68.8477 82.6748191656194
71.7773 83.1533923716407
74.707 83.53162558684089
77.6367 83.77307955507054
79.1016 83.88175204965113
82.0313 84.19193000581487
84.9609 84.49139730488574
87.8906 84.65385205846755
90.8203 84.83349318084667
95.2148 85.0956377288114
98.1445 85.21674648709796
101.074 85.34665838609817
105.469 85.48518107458744
108.398 85.63093144367173
112.793 85.8942327359778
117.188 85.98892920945377
120.117 86.0742712807224
124.512 86.21364690002682
128.906 86.23251330600087
133.301 86.25321790915831
139.16 86.19910336143178
143.555 86.16036228078758
147.949 86.06512704847957
153.809 85.93029915250112
159.668 86.05434961636196
165.527 86.07388658400474
171.387 85.91832170266531
177.246 85.8010545977404
183.105 85.54628700760586
188.965 85.31921068170666
196.289 85.37818791773809
203.613 85.10930259067996
210.938 84.96184530120334
218.262 84.82802809030329
225.586 84.7019511123171
232.91 84.6050802955586
241.699 84.5450452795749
250.488 84.36321987554699
259.277 84.37610838846712
268.066 84.19169289977211
276.855 83.93647022618453
287.109 83.79180140684102
297.363 83.69805909244809
307.617 83.82892604722369
319.336 83.78046672347378
329.59 83.75098761753134
341.309 83.68188271932969
353.027 83.36210367347394
366.211 83.28575142671744
379.395 83.63712683039853
392.578 83.48803224699721
405.762 82.86235941124424
420.41 82.85349982651763
435.059 82.45012757359837
451.172 81.98398020515198
465.82 81.14804857038492
483.398 80.5296418646958
499.512 80.56602638196779
517.09 80.81427113315404
536.133 79.90296308994614
555.176 79.40963819332305
574.219 79.25923575394968
594.727 79.15083927224292
615.234 78.94367803525348
637.207 78.86574049032842
659.18 79.17205363278475
682.617 79.31609306076103
707.52 79.47805759484609
732.422 80.11600793425359
757.324 80.6053218376623
785.156 80.86846809806386
811.523 81.09854184794173
840.82 81.18656909306031
870.117 81.595127430338
900.879 81.72534052905507
933.105 81.80078187682724
965.332 81.79894011932439
1000.49 82.09879297115762
1035.64 82.11654135172209
1072.27 82.20484730730938
1108.89 82.22898345236737
1148.44 82.16010240822705
1189.45 81.6899721009182
1230.47 80.75415361738126
1274.41 80.21416145530492
1319.82 79.95393477339866
1366.7 80.13596252426751
1413.57 79.99435429198162
1463.38 80.0190535081004
1516.11 80.51678022987082
1568.85 80.88347652858155
1624.51 81.07102534097193
1681.64 81.32136264263924
1741.7 81.09464064018564
1803.22 80.3148121328451
1866.21 79.01233418129482
1932.13 77.51401733485142
1999.51 75.94741267143978
2069.82 75.19286520645075
2143.07 75.1960971412719
2219.24 75.90413151359171
2296.88 77.60896378003501
2378.91 80.10536320054597
2462.4 81.18437062881036
2548.83 79.76503559369753
2639.65 80.05270901838755
2731.93 80.69332387737066
2828.61 81.09127864706647
2928.22 81.78191543689115
3030.76 81.7976117187443
3137.7 81.67150536766128
3249.02 81.61618391314512
3363.28 81.36647295670262
3481.93 80.97617506341905
3604.98 80.4862720257239
3732.42 80.01469990555925
3864.26 80.49735327164896
4000.49 80.2368623432738
4141.11 80.3813322382715
4287.6 80.15133512446005
4438.48 79.91384673379906
4595.21 79.50811312222933
4756.35 78.55733536544268
4924.8 76.65289901552606
5097.66 78.6066247260647
5277.83 80.55773049706936
5463.87 81.12218177917501
5657.23 81.60816132942038
5856.45 81.76172505761014
6062.99 81.68400312748288
6276.86 81.5438285716699
6498.05 81.73094194681349
6726.56 81.4716316308729
6963.87 81.10738244944906
7209.96 80.7278969677227
7464.84 80.32537628595566
7727.05 80.00519579753512
7999.51 80.04097964519096
8282.23 79.6046868521772
8573.73 79.21249458921687
8876.95 79.41658244242038
9188.96 79.91391133689976
9514.16 80.03913008341121
9849.61 80.61124211165082
10196.8 81.10930570599342
10555.7 81.75206462304193
10927.7 81.98967965216404
11313.0 82.30670447970323
11712.9 81.5263167706829
12126.0 79.2653771578878
12553.7 77.00871943194284
12996.1 74.80192931410214
13454.6 73.99764393895074
13929.2 75.4590692384812
14419.9 78.05051709780392
14928.2 77.54622586496296
15455.6 68.69385937646233
16000.5 73.44812329033655
16564.5 77.23697242040537
17148.9 70.71144323552166
17752.4 70.9555734291367
18379.4 73.08614608963337
19026.9 75.27200087076494
19697.8 74.7091821092487
19999.5 70.78497272503951
