Freq "On Axis"
20.5078 58.121118181818176
21.9727 58.46791818181818
23.4375 59.03451818181817
24.9023 60.920718181818174
26.3672 61.9942181818182
27.832 65.02251818181817
29.2969 67.14961818181818
30.7617 69.52441818181818
32.2266 71.75341818181818
33.6914 73.97351818181816
35.1563 76.01121818181818
36.6211 77.74631818181818
38.0859 79.04131818181818
39.5508 79.89141818181818
41.0156 80.34201818181818
42.4805 80.61921818181818
43.9453 80.80011818181818
45.4102 80.85441818181818
46.875 80.91241818181818
48.3398 80.97471818181818
51.2695 81.19341818181817
52.7344 81.33511818181817
54.1992 81.46561818181819
55.6641 81.60441818181818
58.5938 81.92451818181819
60.0586 82.09831818181819
62.9883 82.50101818181817
64.4531 82.69181818181818
67.3828 83.0345181818182
68.8477 83.21431818181819
71.7773 83.54511818181818
74.707 83.82181818181819
77.6367 84.05121818181819
79.1016 84.18281818181818
82.0313 84.44981818181819
84.9609 84.73541818181818
87.8906 84.96431818181817
90.8203 85.38361818181819
95.2148 85.64071818181819
98.1445 85.78911818181818
101.074 85.91721818181819
105.469 86.21331818181818
108.398 86.33291818181819
112.793 86.38341818181819
117.188 86.52891818181818
120.117 86.76711818181818
124.512 86.82461818181818
128.906 86.81621818181819
133.301 86.74141818181818
139.16 86.53801818181817
143.555 86.62951818181818
147.949 86.65531818181817
153.809 86.52251818181819
159.668 86.38751818181818
165.527 86.32901818181818
171.387 86.37651818181818
177.246 86.34681818181816
183.105 86.13361818181818
188.965 86.37601818181818
196.289 85.9934181818182
203.613 86.21941818181818
210.938 86.53161818181817
218.262 86.41281818181818
225.586 86.49151818181818
232.91 86.82041818181818
241.699 86.47321818181818
250.488 87.18141818181817
259.277 87.41261818181819
268.066 86.71451818181818
276.855 87.08821818181816
287.109 86.97331818181819
297.363 87.08531818181818
307.617 86.26571818181819
319.336 86.20701818181819
329.59 86.89331818181817
341.309 87.25911818181818
353.027 87.80941818181817
366.211 87.20051818181818
379.395 86.87301818181818
392.578 86.73411818181818
405.762 87.01331818181818
420.41 86.69651818181818
435.059 87.22931818181819
451.172 86.67431818181818
465.82 86.35211818181818
483.398 87.28531818181818
499.512 86.52301818181819
517.09 86.61531818181818
536.133 86.84421818181816
555.176 86.6457181818182
574.219 87.13541818181818
594.727 86.89711818181819
615.234 87.77571818181819
637.207 87.18241818181818
659.18 87.03601818181818
682.617 87.00691818181818
707.52 86.40831818181817
732.422 86.26321818181817
757.324 86.47351818181816
785.156 85.77821818181816
811.523 86.04851818181818
840.82 85.92061818181817
870.117 85.73831818181819
900.879 85.87891818181818
933.105 85.67751818181817
965.332 85.6679181818182
1000.49 86.32891818181817
1035.64 86.80721818181819
1072.27 86.86831818181818
1108.89 86.62681818181818
1148.44 86.40721818181818
1189.45 86.10551818181817
1230.47 86.26401818181817
1274.41 86.21641818181818
1319.82 86.73821818181818
1366.7 86.5069181818182
1413.57 86.26171818181818
1463.38 86.33611818181818
1516.11 86.3426181818182
1568.85 86.23681818181818
1624.51 86.09211818181818
1681.64 86.59401818181819
1741.7 86.73961818181819
1803.22 86.32461818181818
1866.21 86.3341181818182
1932.13 86.51131818181818
1999.51 86.16701818181818
2069.82 86.16871818181818
2143.07 86.4290181818182
2219.24 86.01671818181818
2296.88 86.13101818181816
2378.91 86.08801818181819
2462.4 86.19411818181818
2548.83 86.06441818181818
2639.65 86.08591818181819
2731.93 86.09911818181818
2828.61 86.20781818181818
2928.22 86.3717181818182
3030.76 86.60051818181817
3137.7 86.71881818181818
3249.02 86.74111818181818
3363.28 87.29071818181818
3481.93 87.01291818181818
3604.98 87.57501818181818
3732.42 87.49141818181819
3864.26 87.42211818181818
4000.49 87.84431818181818
4141.11 87.60741818181818
4287.6 87.7502181818182
4438.48 87.72161818181819
4595.21 87.69541818181818
4756.35 88.07751818181818
4924.8 88.11381818181817
5097.66 88.18481818181819
5277.83 88.24481818181818
5463.87 88.25381818181818
5657.23 88.19841818181818
5856.45 88.10991818181817
6062.99 88.12411818181818
6276.86 88.18681818181818
6498.05 88.11251818181817
6726.56 88.00461818181817
6963.87 87.96641818181818
7209.96 87.75361818181818
7464.84 87.5156181818182
7727.05 87.20881818181817
7999.51 87.17871818181818
8282.23 87.05241818181817
8573.73 87.82471818181817
8876.95 88.40231818181817
9188.96 88.7253181818182
9514.16 88.90381818181818
9849.61 88.7468181818182
10196.8 88.30021818181818
10555.7 88.04841818181818
10927.7 87.5541181818182
11313.0 87.26341818181818
11712.9 87.18981818181818
12126.0 86.87311818181819
12553.7 86.84221818181818
12996.1 87.21661818181818
13454.6 87.54281818181818
13929.2 86.92601818181818
14419.9 86.54731818181818
14928.2 86.16241818181818
15455.6 85.31571818181818
16000.5 83.88771818181819
16564.5 83.82021818181819
17148.9 84.01511818181818
17752.4 83.91761818181818
18379.4 83.72981818181817
19026.9 84.19171818181817
19697.8 84.21451818181818
19999.5 84.31481818181818
