Freq,On Axis,Listening Window,Sound Power,Early Reflections,Early Reflections DI,Sound Power DI,DI offset
22.4,40.999999999999986,40.95790949476533,38.68717120836699,39.781527373947895,21.176382120817436,22.27073828639834,20
23.0,41.39999999999999,41.4007446401972,39.115710830494365,40.19965891618993,21.20108572400727,22.28503380970284,20
23.6,41.8,41.809459427828656,39.572098926204305,40.6455877517222,21.163871676106453,22.23736050162435,20
24.0,42.39999999999999,42.38535728324301,40.16253743155012,41.21926643821992,21.166090845023092,22.22281985169289,20
25.0,42.89999999999999,42.93872686084784,40.76086288007291,41.805705715901766,21.13302114494607,22.17786398077493,20
25.8,43.39999999999999,43.448875011182096,41.31332862022377,42.31842377463225,21.130451236549845,22.135546390958325,20
26.5,43.89999999999999,43.932939044778166,41.838028764255384,42.822327635276494,21.110611409501672,22.094910280522782,20
27.2,44.3,44.34220754943537,42.32254150540125,43.27783986551616,21.064367683919215,22.019666044034125,20
28.0,44.8,44.808967213293826,42.79367803488371,43.74463816581992,21.064329047473905,22.015289178410114,20
29.0,45.2,45.2182869639325,43.26127896059437,44.18305587415715,21.03523108977535,21.95700800333813,20
30.0,45.60000000000001,45.68265790018499,43.75213871984049,44.6498905368296,21.03276736335539,21.930519180344504,20
30.7,46.2,46.21371158265585,44.357138162050106,45.2322513924462,20.981460190209646,21.85657342060574,20
31.5,46.7,46.77860869243416,44.9313662927958,45.78627713749894,20.99233155493522,21.84724239963836,20
32.5,47.2,47.27860869243416,45.465514569007794,46.299881620689874,20.978727071744288,21.813094123426367,20
33.5,47.60000000000001,47.723210733493616,45.961042157813736,46.77064296912893,20.952567764364687,21.76216857567988,20
34.5,48.0,48.130077947867804,46.42837215164401,47.22251051237785,20.907567435489952,21.70170579622379,20
35.5,48.500000000000014,48.60919301355128,46.91152890756578,47.682830421032335,20.92636259251894,21.697664105985496,20
36.5,49.0,49.15111553708479,47.55553708399526,48.28851718901247,20.862598348072325,21.59557845308953,20
37.5,49.60000000000001,49.72778894288483,48.169587502089726,48.87730059094916,20.850488351935667,21.558201440795102,20
38.7,50.10000000000001,50.21480308676371,48.72995299195274,49.40943090468761,20.8053721820761,21.484850094810966,20
40.0,50.60000000000001,50.725990438385196,49.26930898113183,49.927743650719506,20.79824678766569,21.456681457253367,20
41.2,51.000000000000014,51.157883313763676,49.76087755017741,50.394149737972526,20.76373357579115,21.397005763586264,20
42.5,51.60000000000001,51.735124680181926,50.36852911359763,50.9779615407667,20.757163139415226,21.366595566584294,20
43.7,52.10000000000001,52.301529031405764,50.98755616118238,51.5823537266228,20.719175304782965,21.31397287022338,20
45.0,52.7,52.846518904910596,51.56422416904657,52.13279660187308,20.713722303037514,21.282294735864028,20
46.2,53.2,53.33461115191649,52.096145396544514,52.64097256534875,20.693638586567744,21.238465755371976,20
47.5,53.60000000000001,53.80153498891123,52.61897366652684,53.13624772356876,20.66528726534247,21.182561322384387,20
48.7,54.2,54.40153498891124,53.24953156625965,53.765137915330044,20.636397073581193,21.15200342265159,20
50.0,54.8,54.979004551866765,53.86327359646417,54.363203776457496,20.61580077540927,21.115730955402597,20
51.5,55.3,55.49081526062089,54.40107856700253,54.875139815211156,20.615675445409735,21.089736693618363,20
53.0,55.8,55.96874443251913,54.91425846077696,55.3683420939406,20.600402338578533,21.054485971742167,20
54.5,56.39999999999999,56.54656086738473,55.53755682690225,55.98028564841219,20.566275218972535,21.00900404048248,20
56.0,57.0,57.146560867384736,56.138055254105794,56.56992738435257,20.576633483032168,21.008505613278942,20
58.0,57.499999999999986,57.68005090669179,56.687520263761,57.122366951321,20.55768395537079,20.992530642930788,20
60.0,58.10000000000001,58.19082109689704,57.21213742814663,57.63465331783851,20.556167779058526,20.978683668750406,20
61.5,58.7,58.79082109689702,57.81673718841738,58.231732098034755,20.559088998862265,20.974083908479642,20
63.0,59.2,59.30287373741636,58.35720835525193,58.77065290860803,20.532220828808335,20.945665382164435,20
65.0,59.7,59.85843006568187,58.87384234466029,59.27910602291705,20.579324042764824,20.984587721021583,20
67.0,60.3,60.41435277908532,59.46050884958839,59.86212732578568,20.55222545329964,20.953843929496927,20
69.0,60.89999999999999,60.96925394077533,60.02234773866287,60.43880393068551,20.530450010089822,20.94690620211246,20
71.0,61.39999999999999,61.46925394077532,60.52351633895216,60.92730892807944,20.541945012695876,20.945737601823154,20
73.0,62.0,62.04807373055384,61.098885389675644,61.51307318216725,20.53500054838659,20.949188340878194,20
75.0,62.499999999999986,62.56925394077534,61.61810218367742,62.02803906903898,20.541214871736358,20.951151757097918,20
77.5,63.10000000000001,63.102825804832776,62.12116446948342,62.53872229090584,20.564103513926938,20.981661335349358,20
80.0,63.60000000000001,63.64807373055383,62.663393050505476,63.08064377538771,20.56742995516612,20.984680680048356,20
82.5,64.1,64.14807373055383,63.17323619738842,63.590163072999346,20.557910657554487,20.974837533165413,20
85.0,64.7,64.68180908610636,63.675492246388,64.10592390749333,20.57588517861302,21.00631683971835,20
87.5,65.2,65.18129519967765,64.16618866638471,64.6136788317562,20.567616367921445,21.015106533292936,20
90.0,65.7,65.65917581404756,64.6379703718244,65.07825306088553,20.580922753162028,21.021205442223163,20
92.5,66.2,66.14781479127078,65.12834005547798,65.5745425834919,20.57327220777887,21.019474735792798,20
95.0,66.7,66.61502944627021,65.56734782234345,66.02704586879449,20.587983577475725,21.047681623926763,20
97.5,67.10000000000001,67.10381378712302,66.00693543782292,66.47225752293791,20.631556264185107,21.0968783493001,20
100.0,67.6,67.51502944627019,66.42894696201611,66.9198405055359,20.59518894073429,21.086082484254078,20
103.0,68.0,67.93737424343898,66.84261945304122,67.32988200237632,20.60749224106266,21.094754790397758,20
106.0,68.4,68.33737424343899,67.22533295422564,67.72644222958296,20.61093201385603,21.11204128921335,20
109.0,68.8,68.73737424343898,67.59840371031144,68.10080355022494,20.63657069321404,21.138970533127534,20
112.0,69.2,69.10381378712303,67.93873059635254,68.45183322833871,20.651980558784317,21.16508319077049,20
115.0,69.5,69.426216215559,68.25614156618742,68.78668656338436,20.63952965217463,21.17007464937157,20
118.0,69.8,69.73737424343898,68.54145936043842,69.07316764669018,20.664206596748798,21.195914883000555,20
122.0,70.1,69.96945853721431,68.78625133545854,69.31954593687992,20.64991260033439,21.183207201755764,20
125.0,70.3,70.226216215559,69.01482116546076,69.55915786308829,20.66705835247072,21.211395050098247,20
128.0,70.5,70.426216215559,69.18029941388475,69.741086293666,20.685129921892994,21.24591680167424,20
132.0,70.7,70.56945853721432,69.32489589257678,69.8933469788771,20.67611155833721,21.24456264463754,20
136.0,70.8,70.65838274236519,69.39475984012384,69.97724208731279,20.681140655052403,21.26362290224135,20
140.0,70.9,70.73763380594879,69.439118605283,70.02356823668795,20.71406556926084,21.29851520066579,20
145.0,70.9,70.73763380594879,69.4237357196398,70.01812226796783,20.719511537980964,21.313898086308996,20
150.0,70.8,70.65838274236519,69.34885896821422,69.94033718353325,20.718045558831946,21.309523774150975,20
155.0,70.7,70.55838274236517,69.2394181696914,69.83265882339295,20.72572391897222,21.318964572673764,20
160.0,70.5,70.39203842311862,69.06739966744901,69.6695311496438,20.722507273474818,21.32463875566961,20
165.0,70.3,70.19203842311863,68.86128001303895,69.46801256572537,20.724025857393258,21.33075841007968,20
170.0,70.1,69.95838274236517,68.61839566002898,69.23277359339751,20.725609148967663,21.339987082336194,20
175.0,69.90000000000002,69.74675460676936,68.3736101037726,69.00298805895028,20.743766547819078,21.37314450299675,20
180.0,69.7,69.52445814420118,68.15090738566836,68.77730934958774,20.747148794613437,21.373550758532815,20
185.0,69.5,69.35838274236518,67.98797098463153,68.60430115369955,20.754081588665628,21.37041175773365,20
190.0,69.4,69.3020406649343,67.9314392953771,68.55319426930565,20.748846395628647,21.370601369557193,20
195.0,69.5,69.34675460676937,67.95628716105868,68.59318621599787,20.75356839077149,21.390467445710684,20
200.0,69.60000000000001,69.5020406649343,68.10677333502457,68.73237476400757,20.769665900926725,21.39526732990973,20
206.0,69.90000000000002,69.72445814420117,68.31162774536463,68.93590275657685,20.788555387624314,21.412830398836533,20
212.0,70.1,69.92445814420117,68.54893021592817,69.16883034640556,20.75562779779561,21.375527928273,20
218.0,70.3,70.19052899113585,68.74779126683629,69.38703830048401,20.80349069065184,21.442737724299562,20
224.0,70.4,70.30152320950181,68.8673342594922,69.49607309856984,20.80545011093197,21.434188950009613,20
230.0,70.5,70.32445814420117,68.86202101750179,69.50699235000108,20.81746579420009,21.462437126699385,20
236.0,70.4,70.23588035141759,68.71709614283519,69.38795784674791,20.847922504669683,21.518784208582403,20
240.0,70.2,70.01300581665409,68.41456764269192,69.09772723996217,20.915278576691918,21.598438173962165,20
250.0,69.8,69.6470136092696,67.96640709553434,68.6972109717403,20.949802637529302,21.68060651373527,20
258.0,69.5,69.30328449402553,67.50411205823924,68.29065351542278,21.012630978602758,21.79917243578629,20
265.0,69.2,69.02621015383258,67.07146354118652,67.93618993228588,21.090020221546695,21.954746612646062,20
272.0,69.2,68.99203842311861,66.8773331073503,67.82642619509626,21.165612228022354,22.11470531576832,20
280.0,69.5,69.23789335294639,66.94208700618364,67.99587724650206,21.242016106444325,22.295806346762745,20
290.0,69.90000000000002,69.72621015383258,67.23651307846522,68.4060914270495,21.32011872678308,22.48969707536736,20
300.0,70.5,70.30328449402553,67.62591624319312,68.90205972525604,21.401224768769495,22.677368250832416,20
307.0,71.00000000000001,70.79203842311864,67.95537741094101,69.32727259557599,21.46476582754265,22.83666101217763,20
315.0,71.39999999999999,71.19203842311863,68.20132047472566,69.68386469945688,21.508173723661756,22.99071794839297,20
325.0,71.5,71.4015232095018,68.28018254203322,69.8580055997463,21.543517609755497,23.121340667468587,20
335.0,71.5,71.39052899113584,68.17386730202111,69.8183635136146,21.57216547752124,23.21666168911473,20
345.0,71.39999999999999,71.26845670446245,67.92968110206738,69.65558121744256,21.612875487019892,23.338775602395074,20
355.0,71.09999999999998,70.99052899113585,67.5838189765792,69.35025798741553,21.640271003720315,23.40671001455665,20
365.0,70.7,70.67924979826319,67.20250617680286,69.02282367543812,21.656426122825067,23.47674362146033,20
375.0,70.3,70.30076749445563,66.76015220871382,68.61123729570717,21.689530198748457,23.540615285741808,20
387.0,69.90000000000002,69.85660314969003,66.25615008039544,68.15134723639976,21.705255913290273,23.600453069294588,20
400.0,69.4,69.40076749445562,65.71997276484508,67.64936163780406,21.75140585665156,23.68079472961054,20
412.0,69.1,69.01199101325601,65.24937652779616,67.20760065499793,21.804390358258075,23.76261448545985,20
425.0,68.89999999999999,68.82293110248064,64.98502905032072,66.97017811081099,21.852752991669647,23.83790205215992,20
437.0,69.1,68.9902725709036,65.09395316939533,67.10580423699751,21.884468333906085,23.896319401508265,20
450.0,69.60000000000001,69.42471847978659,65.42412726111782,67.45638004419038,21.96833843559621,24.000591218668774,20
462.0,69.99999999999999,69.78076315484849,65.67255291703724,67.72557835806758,22.055184796780907,24.10821023781125,20
475.0,69.99999999999999,69.77145003956099,65.60955227195745,67.65240372093787,22.11904631862312,24.161897767603534,20
487.0,69.60000000000001,69.3381528844336,65.13206004687669,67.16841571518073,22.16973716925287,24.20609283755691,20
500.0,68.89999999999999,68.61778246766357,64.36241392742126,66.37985033378573,22.237932133877848,24.255368540242316,20
515.0,68.2,67.87328257827507,63.61524167797761,65.61481685059458,22.258465727680488,24.25804090029746,20
530.0,67.9,67.57328257827506,63.29325601663565,65.25837203943846,22.3149105388366,24.280026561639403,20
545.0,68.0,67.70682938470806,63.4079199912683,65.37342620909764,22.333403175610414,24.298909393439757,20
560.0,68.50000000000001,68.2063124995639,63.767739536369305,65.80415652861194,22.402155970951952,24.438572963194588,20
580.0,69.4,69.06416597166837,64.41351290770379,66.5437177881704,22.520448183497976,24.650653063964583,20
600.0,70.7,70.27233597596229,65.28835209003076,67.57459470667663,22.697741269285657,24.983983885931536,20
615.0,71.8,71.31312187236122,66.0078080692185,68.44917964066008,22.863942231701145,25.305313803142724,20
630.0,72.49999999999999,71.94367899452632,66.27376743399932,68.89052897489842,23.053150019627907,25.669911560526998,20
650.0,72.8,72.12144502161532,66.1140347529137,68.9058580962794,23.215586925335913,26.00741026870162,20
670.0,72.7,72.02144502161532,65.72928121679452,68.67707855388399,23.344366467731334,26.292163804820802,20
690.0,72.49999999999999,71.81618475196115,65.34578198217612,68.40821051212906,23.407974239832086,26.470402769785025,20
710.0,72.2,71.56676420781815,65.02536073615146,68.1555477758629,23.411216431955253,26.541403471666698,20
730.0,71.7,71.1205878086535,64.5454091180675,67.6832700455076,23.4373177631459,26.575178690586,20
750.0,70.7,70.18931139089256,63.696100159722775,66.78377021199464,23.40554117889792,26.49321123116978,20
775.0,69.4,68.8849307642284,62.48194768016809,65.47639484426087,23.408535919967534,26.40298308406031,20
800.0,68.2,67.74524950610567,61.43973270064501,64.25518844580546,23.490061060300206,26.305516805460655,20
825.0,67.6,67.11346240743764,60.943019980400365,63.53817935414605,23.575283053291585,26.170442427037273,20
850.0,66.9,66.56196979880671,60.46547869598977,62.952828014695896,23.609141784110818,26.09649110281694,20
875.0,66.39999999999999,66.16635774168371,60.00355556211798,62.641916107677474,23.524441634006237,26.16280217956573,20
900.0,67.40000000000002,67.15713987024706,60.735110614373255,63.634283646384176,23.522856223862888,26.42202925587381,20
925.0,68.89999999999999,68.5038374083888,61.77756673132316,64.85972324530466,23.64411416308414,26.726270677065642,20
950.0,69.2,68.7912929380186,61.95574512062406,65.02712494538723,23.76416799263137,26.83554781739454,20
975.0,68.2,67.83533053772543,61.193847667097515,64.10785081878768,23.727479718937744,26.64148287062791,20
1000.0,66.39999999999999,66.1226660286187,60.053109486423054,62.85137111104636,23.271294917572334,26.06955654219564,20
1030.0,66.7,66.34596467385624,60.60065508383087,63.60982387173131,22.736140802124936,25.74530959002537,20
1060.0,68.2,67.69756116843884,61.70293646552888,65.05707713385884,22.64048403458,25.99462470290996,20
1090.0,68.4,67.70352651610851,61.235467031920834,64.7960381168347,22.907488399273817,26.468059484187677,20
1120.0,67.9,67.21337712391514,60.404661221910445,63.97535491207101,23.238022211844125,26.808715902004693,20
1150.0,68.0,67.16543223824418,60.12103822396372,63.60951022913265,23.555922009111526,27.044394014280456,20
1180.0,68.1,67.11857637993809,59.80982428833131,63.21612916703637,23.90244721290172,27.308752091606777,20
1220.0,68.1,67.04841756083714,59.327554566900005,62.65429789136179,24.394119669475344,27.720862993937132,20
1250.0,67.8,66.69836846495981,58.77649136357877,61.93270315430446,24.76566531065535,27.921877101381043,20
1280.0,66.7,65.62876028380676,58.12364102222003,61.07365651734813,24.55510376645863,27.505119261586728,20
1320.0,66.2,65.22554263278401,58.39636346462876,61.32867471912901,23.896867913655,26.82917916815525,20
1360.0,67.2,66.25006587697085,59.59678056580839,62.6625076600795,23.587558216891352,26.653285311162463,20
1400.0,68.50000000000001,67.67974847607128,61.03735178187533,64.14566487257743,23.534083603493855,26.642396694195952,20
1450.0,69.5,69.0156767197898,62.64310385328906,65.61304423487569,23.402632484914108,26.372572866500732,20
1500.0,69.60000000000001,69.5836037581826,63.72955756310593,66.56139048404624,23.022213274136362,25.854046195076677,20
1550.0,70.2,70.40511343095768,64.89169035012605,67.78088519602936,22.624228234928324,25.51342308083163,20
1600.0,71.3,71.39015439601765,65.95671805323593,68.97213189591987,22.418022500097777,25.433436342781718,20
1650.0,71.7,71.59981198415797,66.25322376607043,69.35199032980594,22.247821654352023,25.346588218087533,20
1700.0,71.6,71.36884337167614,66.1836256504227,69.23352809156667,22.135315280109467,25.185217721253437,20
1750.0,71.39999999999999,71.20993994820327,66.08829238757205,69.03240279047013,22.17753715773314,25.121647560631217,20
1800.0,71.2,71.1181996023877,65.88253741946454,68.93141410050696,22.18678550188075,25.235662182923164,20
1850.0,72.40000000000002,72.35478403132423,66.8722235527959,70.0538667744882,22.30091725683603,25.482560478528328,20
1900.0,72.2,72.04327813084498,66.58705823715277,69.71798168920637,22.325296441638613,25.456219893692207,20
1950.0,71.3,71.15733304444707,65.80614333547136,68.8437386185336,22.313594425913465,25.35118970897571,20
2000.0,70.4,70.9151804335246,65.44324757277349,68.42084103363203,22.494339399892567,25.47193286075111,20
2060.0,70.3,71.33862921277601,66.05254018933203,68.8873499384247,22.451279274351307,25.286089023443978,20
2120.0,71.09999999999998,71.97190045118386,66.73653058673789,69.47845101214395,22.493449439039907,25.23536986444597,20
2180.0,71.09999999999998,71.76667801933345,65.74483108352166,68.69607568107371,23.070602338259746,26.021846935811794,20
2240.0,71.09999999999998,71.59552029519115,64.84009068960918,68.03180894036595,23.5637113548252,26.755429605581966,20
2300.0,71.9,72.39838616904524,65.32229333502475,68.57392636588479,23.82445980316045,27.076092834020486,20
2360.0,71.2,71.39795120030944,63.98837834332504,67.31017779086098,24.08777340944846,27.409572856984397,20
2400.0,68.89999999999999,68.80144428550398,60.98443662466326,64.3998172766599,24.401627008844073,27.817007660840716,20
2500.0,68.59999999999998,68.43483156537481,60.500025474189826,64.03883249160988,24.395999073764926,27.93480609118498,20
2580.0,68.7,68.37583469338793,60.24825469481823,63.91966467021466,24.45617002317327,28.1275799985697,20
2650.0,68.50000000000001,68.06636532748313,59.68700489659402,63.42614750742554,24.640217820057586,28.379360430889108,20
2720.0,68.7,68.50267866315691,60.05053499189107,63.76272304479697,24.739955618359943,28.452143671265844,20
2800.0,69.5,69.22700901645956,60.39891693075218,64.40339874526482,24.823610271194738,28.828092085707382,20
2900.0,69.4,68.95426018829299,59.885492476217635,64.05204375333149,24.902216434961503,29.068767712075356,20
3000.0,69.4,68.6789067741776,59.32179140809829,63.61723052978682,25.06167624439078,29.357115366079313,20
3070.0,69.4,68.65697493232203,59.315889696164064,63.48203976979117,25.174935162530858,29.341085236157966,20
3150.0,69.60000000000001,68.39046015031944,58.90811956612005,63.053539379799034,25.336920770520408,29.48234058419939,20
3250.0,70.6,69.1701405836619,59.88007031575141,63.83605671433162,25.334083869330286,29.290070267910494,20
3350.0,71.39999999999999,69.23747914867556,60.14702675552259,63.95484046400834,25.28263868466722,29.090452393152972,20
3450.0,71.7,69.20934122238903,60.23706351678125,63.840934805612804,25.368406416776224,28.97227770560778,20
3550.0,71.00000000000001,68.31067785930121,59.76855865914651,63.218091277167986,25.092586582133222,28.5421192001547,20
3650.0,71.2,68.36778744194349,60.126466453237725,63.61984727458275,24.74794016736074,28.241320988705766,20
3750.0,70.6,68.08783264262618,59.46349120249842,63.3171915287425,24.770641113883684,28.624341440127765,20
3870.0,71.2,68.71147002745055,60.04822544129078,64.19328515497718,24.51818487247337,28.663244586159763,20
4000.0,71.8,69.33452429504526,60.586570363143466,64.85625740276579,24.478266892279464,28.74795393190179,20
