Freq "Ceiling Bounce"
22.4 43.17359191501416
23.0 45.407691344383466
23.6 45.073591915014134
24.0 43.77359191501412
25.0 43.806162357489626
25.8 44.573591915014134
26.5 44.77359191501412
27.2 45.040008000784724
28.0 47.04000800078475
29.0 48.34000800078476
30.0 47.97359191501414
30.7 47.640008000784746
31.5 48.04000800078475
32.5 51.04000800078475
33.5 53.54000800078475
34.5 55.640008000784746
35.5 58.24000800078474
36.5 60.54000800078475
37.5 62.672830333209106
38.7 64.97283033320912
40.0 67.50693571938208
41.2 69.34000800078475
42.5 70.84000800078475
43.7 72.40693571938206
45.0 73.94000800078473
46.2 75.44000800078474
47.5 76.84000800078475
48.7 77.70769134438345
50.0 78.57437109810897
51.5 79.40769134438345
53.0 80.40769134438345
54.5 81.50769134438345
56.0 82.64152512028933
58.0 83.60769134438345
60.0 84.54152512028931
61.5 85.44152512028933
63.0 86.24152512028932
65.0 86.90995783128321
67.0 87.50995783128322
69.0 88.1445585739938
71.0 88.87587626300099
73.0 89.67587626300099
75.0 90.64455857399383
77.5 91.21074851419851
80.0 91.9107485141985
82.5 92.57968218578402
85.0 93.17968218578403
87.5 93.61533226082133
90.0 93.81533226082135
92.5 93.71533226082133
95.0 93.38500770071381
97.5 92.88500770071383
100.0 92.38500770071381
103.0 91.95151228948531
106.0 91.78822565512462
109.0 91.92144017965217
112.0 92.15840756135665
115.0 92.32144017965216
118.0 92.4254756308815
122.0 92.29591306562963
125.0 92.12906907306385
128.0 91.96682769916504
132.0 91.76682769916505
136.0 91.56682769916505
140.0 91.36682769916504
145.0 91.16682769916504
150.0 91.00512896692601
155.0 90.80512896692599
160.0 90.74397580751489
165.0 90.80512896692599
170.0 91.14397580751486
175.0 91.44397580751487
180.0 91.41586848886817
185.0 91.21586848886817
190.0 91.0158684888682
195.0 90.77676827932939
200.0 90.44887307314534
206.0 89.84887307314533
212.0 88.94887307314532
218.0 88.44887307314534
224.0 89.24887307314533
230.0 90.2100702091721
236.0 90.78238876742347
240.0 90.74887307314532
250.0 90.42143863422967
258.0 90.09446019941291
265.0 89.73430508668741
272.0 89.44866299058933
280.0 89.38986178643276
290.0 89.53161949442712
300.0 89.60650609492522
307.0 89.64906906189667
315.0 89.74906906189669
325.0 89.84906906189669
335.0 90.00650609492523
345.0 90.03161949442712
355.0 90.1645050456176
365.0 90.22306384800507
375.0 90.26450504561761
387.0 90.2395816357274
400.0 89.9395816357274
412.0 89.40060888255675
425.0 88.96526502989605
437.0 88.81024662644393
450.0 88.93354795177578
462.0 89.33354795177577
475.0 89.61169299840557
487.0 89.34398000183461
500.0 88.96915008018055
515.0 88.84845191353317
530.0 88.92812914171566
545.0 89.05588640963373
560.0 88.68501274112565
580.0 88.06620870927142
600.0 87.6662087092714
615.0 87.23651362599657
630.0 86.68121073190396
650.0 86.13144097784485
670.0 85.89789774650782
690.0 86.04421719309721
710.0 86.70150792036223
730.0 86.99588871732928
750.0 86.55039366364545
775.0 85.6726519042104
800.0 84.93614035376599
825.0 84.86535659799922
850.0 85.18858940802633
875.0 85.88121073190396
900.0 87.43486534357307
925.0 89.09446331529209
950.0 89.88051777933302
975.0 89.21103183829118
1000.0 88.29959347613661
1030.0 86.66636159442287
1060.0 83.37876069766418
1090.0 79.98188104535271
1120.0 77.36254318773005
1150.0 75.47212143289433
1180.0 74.80015414843696
1220.0 74.65911721018809
1250.0 74.73237254187647
1280.0 75.7293093565772
1320.0 77.34368864341972
1360.0 78.83792052265824
1400.0 79.58164061300116
1450.0 80.28619129922899
1500.0 80.92927505942896
1550.0 80.14243025113669
1600.0 79.17796420497459
1650.0 78.54542936943099
1700.0 78.00747425684418
1750.0 77.38382226902255
1800.0 76.51116588639854
1850.0 77.02303268189394
1900.0 78.36226147823677
1950.0 79.00225633472579
2000.0 79.71513196212646
2060.0 80.47275845209435
2120.0 81.18314046982195
2180.0 80.74090022324876
2240.0 79.8628875558389
2300.0 78.42307043161566
2360.0 77.37246944430953
2400.0 78.22812914171564
2500.0 78.77481396678755
2580.0 79.04775371383845
2650.0 79.32961934680631
2720.0 79.76330685066469
2800.0 80.59037669466794
2900.0 80.62893344855509
3000.0 80.37265190421041
3070.0 80.8847638380144
3150.0 81.63457307647894
3250.0 81.1212550269047
3350.0 80.09191065482624
3450.0 79.48598422168753
3550.0 79.14704739306926
3650.0 79.38444566732295
3750.0 80.1144787442766
3870.0 80.29396494326092
4000.0 79.8561268063973
4120.0 79.72640323309741
4250.0 79.06443125633035
4370.0 79.15819903802205
4500.0 80.06657539880568
4620.0 80.05481480207625
4750.0 79.65481480207625
4870.0 78.8282861340377
5000.0 77.50455769270037
5150.0 76.62398016472648
5300.0 77.0929044904299
5450.0 78.84047515741051
5600.0 79.48416622689881
5800.0 78.94859653223604
6000.0 78.43390865095782
6150.0 78.03705430260104
6300.0 77.07802672021789
6500.0 77.26588594074569
6700.0 78.98619129922898
6900.0 79.17067876100607
7100.0 78.13708487157956
7300.0 77.27138349919647
7500.0 76.43170608639716
7750.0 76.87888192639514
8000.0 78.25480253596467
8250.0 78.97675314729617
8500.0 78.66053883370634
8750.0 77.17525594861553
9000.0 77.12117468510334
9250.0 80.58206872556326
9500.0 82.17047601416877
9750.0 80.72129891076997
10000.0 79.13625095339239
10300.0 80.20007614492638
10600.0 80.63616202907207
10900.0 79.50713209110967
11200.0 78.04706765988357
11500.0 78.99093983311114
11800.0 79.07053198671765
12200.0 77.36064068014261
12500.0 77.42931279618972
12800.0 78.9395074217551
13200.0 80.55095271360135
13600.0 80.5990443496433
14000.0 79.90819496591787
14500.0 78.7990443496433
15000.0 76.3999670216197
15500.0 74.68978842672038
16000.0 74.5999670216197
16500.0 72.32307170841294
17000.0 67.22307170841293
17500.0 67.2658114914
18000.0 64.3577871405943
18500.0 54.30359554183309
19000.0 40.94128455055656
19500.0 35.30528165208548
