Freq "Ceiling Bounce"
22.4 41.634351408685035
23.0 43.86845083805434
23.6 43.53435140868501
24.0 42.234351408685
25.0 42.266921851160504
25.8 43.03435140868501
26.5 43.234351408685
27.2 43.5007674944556
28.0 45.50076749445563
29.0 46.80076749445564
30.0 46.43435140868502
30.7 46.100767494455624
31.5 46.50076749445563
32.5 49.50076749445563
33.5 52.00076749445563
34.5 54.100767494455624
35.5 56.70076749445562
36.5 59.00076749445563
37.5 61.133589826879984
38.7 63.433589826879995
40.0 65.96769521305296
41.2 67.80076749445563
42.5 69.30076749445563
43.7 70.86769521305294
45.0 72.40076749445561
46.2 73.90076749445562
47.5 75.30076749445563
48.7 76.16845083805433
50.0 77.03513059177985
51.5 77.86845083805433
53.0 78.86845083805433
54.5 79.96845083805432
56.0 81.10228461396021
58.0 82.06845083805433
60.0 83.00228461396019
61.5 83.9022846139602
63.0 84.7022846139602
65.0 85.37071732495409
67.0 85.9707173249541
69.0 86.60531806766468
71.0 87.33663575667187
73.0 88.13663575667186
75.0 89.10531806766471
77.5 89.67150800786939
80.0 90.37150800786938
82.5 91.0404416794549
85.0 91.64044167945491
87.5 92.07609175449221
90.0 92.27609175449223
92.5 92.1760917544922
95.0 91.84576719438469
97.5 91.3457671943847
100.0 90.84576719438469
103.0 90.41227178315619
106.0 90.2489851487955
109.0 90.38219967332304
112.0 90.61916705502753
115.0 90.78219967332303
118.0 90.88623512455237
122.0 90.75667255930051
125.0 90.58982856673472
128.0 90.42758719283592
132.0 90.22758719283593
136.0 90.02758719283592
140.0 89.82758719283592
145.0 89.62758719283592
150.0 89.46588846059689
155.0 89.26588846059687
160.0 89.20473530118576
165.0 89.26588846059687
170.0 89.60473530118574
175.0 89.90473530118575
180.0 89.87662798253905
185.0 89.67662798253905
190.0 89.47662798253907
195.0 89.23752777300027
200.0 88.90963256681621
206.0 88.3096325668162
212.0 87.4096325668162
218.0 86.90963256681621
224.0 87.70963256681621
230.0 88.67082970284298
236.0 89.24314826109435
240.0 89.2096325668162
250.0 88.88219812790055
258.0 88.55521969308379
265.0 88.19506458035829
272.0 87.9094224842602
280.0 87.85062128010364
290.0 87.992378988098
300.0 88.0672655885961
307.0 88.10982855556755
315.0 88.20982855556757
325.0 88.30982855556756
335.0 88.4672655885961
345.0 88.492378988098
355.0 88.62526453928848
365.0 88.68382334167595
375.0 88.72526453928849
387.0 88.70034112939828
400.0 88.40034112939827
412.0 87.86136837622763
425.0 87.42602452356692
437.0 87.2710061201148
450.0 87.39430744544666
462.0 87.79430744544665
475.0 88.07245249207645
487.0 87.80473949550549
500.0 87.42990957385143
515.0 87.30921140720405
530.0 87.38888863538654
545.0 87.5166459033046
560.0 87.14577223479652
580.0 86.5269682029423
600.0 86.12696820294228
615.0 85.69727311966744
630.0 85.14197022557484
650.0 84.59220047151572
670.0 84.3586572401787
690.0 84.50497668676809
710.0 85.16226741403311
730.0 85.45664821100016
750.0 85.01115315731633
775.0 84.13341139788128
800.0 83.39689984743687
825.0 83.3261160916701
850.0 83.64934890169721
875.0 84.34197022557484
900.0 85.89562483724394
925.0 87.55522280896297
950.0 88.3412772730039
975.0 87.67179133196205
1000.0 86.76035296980749
1030.0 85.12712108809374
1060.0 81.83952019133505
1090.0 78.44264053902359
1120.0 75.82330268140093
1150.0 73.9328809265652
1180.0 73.26091364210784
1220.0 73.11987670385896
1250.0 73.19313203554735
1280.0 74.19006885024808
1320.0 75.8044481370906
1360.0 77.29868001632912
1400.0 78.04240010667203
1450.0 78.74695079289987
1500.0 79.39003455309984
1550.0 78.60318974480757
1600.0 77.63872369864546
1650.0 77.00618886310187
1700.0 76.46823375051505
1750.0 75.84458176269342
1800.0 74.97192538006942
1850.0 75.48379217556482
1900.0 76.82302097190765
1950.0 77.46301582839666
2000.0 78.17589145579734
2060.0 78.93351794576523
2120.0 79.64389996349283
2180.0 79.20165971691964
2240.0 78.32364704950977
2300.0 76.88382992528653
2360.0 75.83322893798041
2400.0 76.68888863538652
2500.0 77.23557346045843
2580.0 77.50851320750932
2650.0 77.79037884047719
2720.0 78.22406634433557
2800.0 79.05113618833882
2900.0 79.08969294222597
3000.0 78.83341139788129
3070.0 79.34552333168527
3150.0 80.09533257014982
3250.0 79.58201452057558
3350.0 78.55267014849711
3450.0 77.94674371535841
3550.0 77.60780688674014
3650.0 77.84520516099383
3750.0 78.57523823794747
3870.0 78.7547244369318
4000.0 78.31688630006818
4120.0 78.18716272676829
4250.0 77.52519075000123
4370.0 77.61895853169293
4500.0 78.52733489247656
4620.0 78.51557429574713
4750.0 78.11557429574712
4870.0 77.28904562770857
5000.0 75.96531718637125
5150.0 75.08473965839735
5300.0 75.55366398410078
5450.0 77.30123465108139
5600.0 77.94492572056969
5800.0 77.40935602590692
6000.0 76.8946681446287
6150.0 76.49781379627191
6300.0 75.53878621388877
6500.0 75.72664543441657
6700.0 77.44695079289986
6900.0 77.63143825467695
7100.0 76.59784436525044
7300.0 75.73214299286735
7500.0 74.89246558006803
7750.0 75.33964142006602
8000.0 76.71556202963555
8250.0 77.43751264096704
8500.0 77.12129832737722
8750.0 75.6360154422864
9000.0 75.58193417877422
9250.0 79.04282821923414
9500.0 80.63123550783965
9750.0 79.18205840444085
10000.0 77.59701044706327
10300.0 78.66083563859726
10600.0 79.09692152274295
10900.0 77.96789158478055
11200.0 76.50782715355444
11500.0 77.45169932678202
11800.0 77.53129148038853
12200.0 75.82140017381349
12500.0 75.8900722898606
12800.0 77.40026691542597
13200.0 79.01171220727223
13600.0 79.05980384331417
14000.0 78.36895445958875
14500.0 77.25980384331417
15000.0 74.86072651529058
15500.0 73.15054792039126
16000.0 73.06072651529058
16500.0 70.78383120208382
17000.0 65.68383120208381
17500.0 65.72657098507088
18000.0 62.818546634265175
18500.0 52.76435503550397
19000.0 39.40204404422744
19500.0 33.76604114575636
