Freq "Side Wall Bounce"
22.4 43.660811223784094
23.0 45.91988648411504
23.6 45.58089650270068
24.0 44.26081122378409
25.0 44.28089650270067
25.8 45.08089650270071
26.5 45.28089650270067
27.2 45.48089650270066
28.0 47.48089650270069
29.0 48.84107178653153
30.0 48.48089650270069
30.7 48.101353915936045
31.5 48.50135391593605
32.5 51.50135391593605
33.5 54.00135391593605
34.5 56.10135391593607
35.5 58.70135391593607
36.5 61.00135391593605
37.5 63.122188560701915
38.7 65.40135391593606
40.0 67.94292373131915
41.2 69.78226495244488
42.5 71.28226495244486
43.7 72.8240170083642
45.0 74.34292373131915
46.2 75.8240170083642
47.5 77.2240170083642
48.7 78.14522507623656
50.0 78.9640398955576
51.5 79.74522507623657
53.0 80.84522507623656
54.5 81.94522507623655
56.0 83.00778206956092
58.0 83.96682045950298
60.0 84.90778206956091
61.5 85.78782103240788
63.0 86.58782103240787
65.0 87.2484466181332
67.0 87.82956397573102
69.0 88.49151009985539
71.0 89.19151009985539
73.0 89.99151009985539
75.0 90.93372341030222
77.5 91.4548842466217
80.0 92.1774446420562
82.5 92.83729065129398
85.0 93.43729065129399
87.5 93.85994238754154
90.0 93.98146489326108
92.5 93.88300008871587
95.0 93.52429402503445
97.5 93.02429402503445
100.0 92.48741190782539
103.0 92.06912516041635
106.0 91.89266878971485
109.0 91.9760143811051
112.0 92.17601438110512
115.0 92.35967713661492
118.0 92.37601438110512
122.0 92.28381996936685
125.0 92.06593552059626
128.0 91.84993368019077
132.0 91.64993368019078
136.0 91.39664068152176
140.0 91.18111410637158
145.0 90.90353900571229
150.0 90.70626734787638
155.0 90.52856307509553
160.0 90.3961445998748
165.0 90.3961445998748
170.0 90.66422853477093
175.0 90.89006590319362
180.0 90.7755554033442
185.0 90.55590414829575
190.0 90.24161232556739
195.0 89.92476058663928
200.0 89.51069393525461
206.0 88.80721704039243
212.0 87.83055562340478
218.0 87.21714099531253
224.0 87.91528969474057
230.0 88.78656686498479
236.0 89.32608869274904
240.0 89.34249487020749
250.0 89.03955926061299
258.0 88.80344558545224
265.0 88.65712426802456
272.0 88.6457789060101
280.0 88.77677001543347
290.0 89.00344558545224
300.0 89.19008461128783
307.0 89.30184352222558
315.0 89.30945071123885
325.0 89.29749559651873
335.0 89.26985193729918
345.0 89.17847050892036
355.0 89.01104887175462
365.0 88.88050940670315
375.0 88.72122258349212
387.0 88.5584026221474
400.0 88.18474620312776
412.0 87.589889935699
425.0 87.11763337364422
437.0 86.90023571260501
450.0 86.94767155126749
462.0 87.20564132272108
475.0 87.22203005699673
487.0 86.72542358900435
500.0 86.0936154990365
515.0 85.80811394835291
530.0 85.7934624418705
545.0 85.79790335112048
560.0 85.35376128879494
580.0 84.44344374104276
600.0 83.71723135034046
615.0 83.11411219992357
630.0 82.64998783684655
650.0 82.56182808422692
670.0 82.870701000836
690.0 83.5525836536225
710.0 84.27849018709834
730.0 84.5374107686892
750.0 84.32524583034342
775.0 84.21391783783073
800.0 84.52479166606588
825.0 84.80038212819508
850.0 84.74370172053392
875.0 84.38177370523817
900.0 85.02739760005126
925.0 86.11614617732263
950.0 86.45631508667057
975.0 85.08253419364205
1000.0 82.96501094450211
1030.0 80.59576783998159
1060.0 78.20353224190225
1090.0 76.92951467748628
1120.0 76.52709641333738
1150.0 75.81076487350992
1180.0 74.8631878653966
1220.0 74.28986833237492
1250.0 74.73439205572075
1280.0 76.37176003124847
1320.0 78.05177246370116
1360.0 78.85872438764163
1400.0 78.76025286341036
1450.0 78.9986189498164
1500.0 79.26691410672657
1550.0 78.29174873713859
1600.0 77.00028858640619
1650.0 75.19904688129714
1700.0 73.67945580618536
1750.0 73.5951825910936
1800.0 74.16954304413844
1850.0 75.78289295693067
1900.0 77.60606083931626
1950.0 78.2966647080841
2000.0 79.04044556843819
2060.0 80.63285358553135
2120.0 82.16715962768124
2180.0 82.7436536060058
2240.0 82.40196987408663
2300.0 81.24163685397973
2360.0 80.34836853651024
2400.0 80.63825617816117
2500.0 80.74910999913376
2580.0 80.35611282730012
2650.0 80.04107871381207
2720.0 79.97720743834107
2800.0 79.99150102659873
2900.0 79.43172048823016
3000.0 78.74596582516176
3070.0 79.24173277601503
3150.0 80.27547738988028
3250.0 80.32485426595879
3350.0 79.78832664289314
3450.0 79.35064569293581
3550.0 78.50505983717837
3650.0 77.83395113834307
3750.0 77.82311948366495
3870.0 77.97787303610693
4000.0 78.44902288743744
4120.0 79.35662224490227
4250.0 79.68637927295835
4370.0 80.0254544109782
4500.0 80.76613784317252
4620.0 80.58266420458233
4750.0 80.01665025858406
4870.0 79.30644341317836
5000.0 78.19061874411342
5150.0 77.27613181531629
5300.0 77.7218045872038
5450.0 79.11918692225146
5600.0 79.5950570108799
5800.0 78.83860501254921
6000.0 77.98214054209532
6150.0 77.42816670357612
6300.0 76.54716100388801
6500.0 77.0851411111116
6700.0 79.22815190758537
6900.0 79.51073729345741
7100.0 78.49742711675827
7300.0 77.80944633762215
7500.0 77.42602434674465
7750.0 78.55463838154957
8000.0 80.63142214482089
8250.0 81.24453160544084
8500.0 79.96415552837959
8750.0 77.2267018878802
9000.0 75.57619117298917
9250.0 77.51016203176172
9500.0 78.28438916989353
9750.0 76.57038085463033
10000.0 75.4877517272566
10300.0 77.76190144895352
10600.0 79.43828259053389
10900.0 79.32130824090763
11200.0 78.48389878540549
11500.0 79.7099921062292
11800.0 80.75802084072163
12200.0 79.75984462820291
12500.0 79.71641645031676
12800.0 80.02157382406838
13200.0 79.97491007879353
13600.0 78.5362022492229
14000.0 76.68987129454554
14500.0 74.75376343704288
15000.0 71.2721249884199
15500.0 69.29053984446176
16000.0 70.91433683226352
16500.0 69.58926305274048
17000.0 66.3190830014639
17500.0 69.30792795733107
18000.0 68.38654105394377
18500.0 57.90424987721707
19000.0 43.1986755193104
19500.0 34.83804073093873
