Freq,On Axis,Listening Window,Sound Power,Early Reflections,Early Reflections DI,Sound Power DI,DI offset
20.5078,52.42005151515151,52.195065754667624,54.19575612588109,53.163730453283605,39.03133530138402,37.999309628786534,40
21.9727,53.154351515151504,52.96988033609979,55.602031909875805,54.3790729027249,38.59080743337489,37.367848426223986,40
23.4375,56.15475151515149,55.9865832909786,57.73609375753479,56.8304594706736,39.156123820305,38.25048953344381,40
24.9023,58.1662515151515,58.04056693348518,59.828040823426946,58.927812019157514,39.11275491432767,38.212526110058235,40
26.3672,60.245151515151505,60.15712083505359,61.739133096513925,60.94494349872848,39.21217733632511,38.417987738539665,40
27.832,61.72065151515149,61.63252319470989,62.96215735400318,62.269366807530275,39.363156387179615,38.67036584070671,40
29.2969,63.6084515151515,63.53780564197345,64.66527704970296,64.06815407344112,39.46965156853233,38.872528592270484,40
30.7617,65.02895151515152,64.97127157657475,65.9819836692132,65.44262895485872,39.52864262171603,38.98928790736156,40
32.2266,66.3922515151515,66.34454963133116,67.23728965821316,66.7580662161202,39.586483415210964,39.107259973118005,40
33.6914,67.84025151515151,67.8010952578648,68.58106579483957,68.15712387990487,39.64397137795993,39.22002946302523,40
35.1562,69.02045151515149,68.98984967958303,69.72470691259416,69.32604594038175,39.663803739201285,39.26514276698887,40
36.6211,70.0001515151515,69.97430126652078,70.67075785491714,70.29148748330024,39.68281378322054,39.30354341160364,40
38.0859,71.33105151515149,71.31819676858896,72.03302772979784,71.65517368821146,39.6630230803775,39.285169038791125,40
39.5508,72.29435151515152,72.28059264617698,72.82284095365212,72.52474137038767,39.75585127578931,39.457751692524866,40
41.0156,73.08125151515151,73.07443553552623,73.64108817421685,73.332387177837,39.74204835768923,39.43334736130939,40
42.4805,73.86425151515151,73.8577654395211,74.26078584600346,74.0346047750684,39.8231606644527,39.596979593517645,40
43.9453,74.6722515151515,74.66167543919816,74.96732521057646,74.78588033234776,39.875795106850404,39.6943502286217,40
45.4102,75.3010515151515,75.29716337201974,75.68373490210944,75.46422327005025,39.832940101969484,39.6134284699103,40
46.875,75.84245151515152,75.84461295491091,76.27721118475968,76.03946662384733,39.80514633106358,39.567401770151235,40
48.3398,76.3758515151515,76.38163405903099,76.81748446740136,76.58123894135774,39.80039511767325,39.56414959162963,40
51.2695,77.2834515151515,77.2945475955781,77.71080412210121,77.4862391853528,39.808308410225294,39.583743473476886,40
52.7344,77.81385151515148,77.82770390038347,78.26415184165691,78.03039115682695,39.79731274355652,39.56355205872656,40
54.1992,78.1825515151515,78.19908210412417,78.58219933028816,78.37833223903489,39.82074986508928,39.61688277383601,40
55.6641,78.8506515151515,78.8584362331809,79.03106277049092,78.93046933065514,39.92796690252575,39.82737346268998,40
58.5938,79.8181515151515,79.81959812989152,79.83056304957837,79.80558633995814,40.01401178993338,39.989035080313144,40
60.0586,79.8457515151515,79.85659046705706,80.06115465867875,79.94070804055202,39.915882426505036,39.795435808378315,40
62.9883,80.5843515151515,80.59944253618559,80.821599992444,80.69545524253424,39.903987293651355,39.777842543741585,40
64.4531,80.8568515151515,80.87366969292631,81.11392816560239,80.97893683704832,39.89473285587799,39.759741527323925,40
67.3828,81.4375515151515,81.45441670666862,81.64855438859739,81.53709388096323,39.9173228257054,39.805862318071235,40
68.8477,81.7200515151515,81.73674095411037,81.903825842519,81.80576903828239,39.93097191582798,39.832915111591376,40
71.7773,82.3814515151515,82.39779153750874,82.52685554304605,82.4482863716691,39.94950516583964,39.870935994462684,40
74.707,82.93655151515149,82.95343598820145,83.07337905182409,83.00005309414415,39.9533828940573,39.88005693637736,40
77.6367,83.31805151515151,83.33548330164633,83.45129408691378,83.38011711282114,39.955366188825195,39.88418921473256,40
79.1016,83.52015151515151,83.53699355710205,83.63066709240438,83.5704338061427,39.96655975095935,39.90632646469767,40
82.0312,84.01845151515151,84.03293517639467,84.05213726930626,84.02888250752909,40.00405266886558,39.980797907088416,40
84.9609,84.35225151515151,84.3707539275944,84.43718913741473,84.39098862402754,39.97976530356685,39.93356479017966,40
87.8906,84.5663515151515,84.5781798809137,84.5806566285727,84.56362959296627,40.01455028794743,39.997523252341,40
90.8203,84.8119515151515,84.82355692858899,84.80015100471651,84.7969679629917,40.026588965597284,40.023405923872474,40
95.2148,85.40905151515152,85.4131956608847,85.20848786225565,85.29649221585933,40.116703445025365,40.204707798629045,40
98.1445,85.4702515151515,85.47689190626095,85.32235576979593,85.38763740640098,40.08925449985996,40.15453613646501,40
101.074,85.54175151515149,85.54785032546823,85.33706786592835,85.43442322596913,40.113427099499106,40.210782459539885,40
105.469,85.6432515151515,85.64912490507913,85.49460587573033,85.55970653790482,40.08941836717432,40.154519029348805,40
108.398,85.82275151515152,85.82122573555408,85.56190821572277,85.6761754222245,40.14505031332958,40.25931751983131,40
112.793,85.7597515151515,85.76207855907091,85.60526451642245,85.66629213392653,40.09578642514438,40.15681404264846,40
117.188,86.00065151515149,85.99808643296929,85.69139488468595,85.83338822828887,40.16469820468042,40.30669154828334,40
120.117,86.06505151515151,86.05901986504294,85.6747997439566,85.85484481868562,40.20417504635732,40.384220121086344,40
124.512,86.0779515151515,86.06977776418276,85.61434523319258,85.8307067707316,40.239070993451165,40.45543253099018,40
128.906,86.0044515151515,85.99717497194693,85.53382585223859,85.75448935262996,40.24268561931697,40.46334911970834,40
133.301,85.8447515151515,85.83905007736396,85.43383281519631,85.61920491195069,40.219845165413275,40.40521726216765,40
139.16,85.40455151515151,85.40571381037381,85.27655933284416,85.3062982431744,40.099415567199415,40.12915447752965,40
143.555,85.1836515151515,85.18682208844231,85.18160016405143,85.15150107243855,40.03532101600376,40.00522192439088,40
147.949,85.5512515151515,85.52870953665314,85.0482902782808,85.26802216945049,40.26068736720265,40.480419258372336,40
153.809,85.4257515151515,85.40323091506652,84.87982625438637,85.11119251331623,40.29203840175029,40.52340466068014,40
159.668,85.4409515151515,85.41359945211747,84.86079518266253,85.10558033435721,40.30801911776025,40.55280426945494,40
165.527,85.36355151515149,85.3340422015924,84.77969625863687,85.03162050497613,40.302421696616264,40.55434594295552,40
171.387,85.2159515151515,85.18069545583846,84.54016187248986,84.83180940175644,40.348886054082016,40.6405335833486,40
177.246,85.0057515151515,84.97153266981,84.30965666716976,84.60430229605753,40.36723037375248,40.66187600264024,40
183.105,84.9163515151515,84.87631002744217,84.13932712495826,84.47416385115369,40.40214617628848,40.736982902483916,40
188.965,84.7789515151515,84.73679565543473,84.03723160542391,84.35699985603141,40.379795799403325,40.69956405001082,40
196.289,84.91305151515151,84.86430027864088,83.93971611649052,84.38257995743139,40.481720321209494,40.92458416215037,40
203.613,84.6169515151515,84.57062051614376,83.70308514791384,84.12180005455296,40.4488204615908,40.86753536822992,40
210.938,84.5322515151515,84.48143539952696,83.57285971088204,84.01498731123384,40.46644808829312,40.908575688644916,40
218.262,84.30875151515149,84.25583446508675,83.4721648564183,83.8208336320902,40.43500083299655,40.78366960866845,40
225.586,84.37365151515151,84.30277678321137,83.28328911764542,83.75892487420948,40.54385190900189,41.01948766556595,40
232.91,84.41575151515148,84.34016886001179,83.09991834349967,83.71175376200303,40.62841509800876,41.24025051651212,40
241.699,84.1324515151515,84.07018583829948,82.9920919106349,83.51186879922055,40.55831703907893,41.07809392766458,40
250.488,84.3741515151515,84.28405594162608,82.88606236037289,83.54171823182513,40.74233770980095,41.39799358125319,40
259.277,84.0424515151515,83.98334054557202,82.86316603920847,83.39449113389269,40.588849411679334,41.120174506363554,40
268.066,83.46305151515149,83.41729800692018,82.44041059432368,82.86401429376633,40.553283713153846,40.9768874125965,40
276.855,82.9337515151515,82.8562399810022,82.30980281342202,82.47450087726729,40.381739103734915,40.54643716758018,40
287.109,83.0780515151515,82.86330666593965,82.42783912477078,82.36626061042728,40.49704605551237,40.43546754116886,40
297.363,85.5515515151515,85.37314441431543,83.12290441033538,84.24016596050033,41.1329784538151,42.25024000398005,40
307.617,85.1807515151515,85.02967385076857,82.88696744014526,83.96801640598866,41.06165744477991,42.14270641062332,40
319.336,84.9443515151515,84.8018481273525,82.55617553249458,83.6925677697089,41.1092803576436,42.24567259485792,40
329.59,84.80945151515151,84.70936445797501,82.49660266701723,83.6656955003006,41.04366895767441,42.212761790957785,40
341.309,84.51605151515149,84.37307982410617,82.25378593748728,83.33572514545138,41.03735467865479,42.11929388661889,40
353.027,84.7451515151515,84.64017901149616,82.25195533396536,83.46365101425069,41.17652799724547,42.3882236775308,40
366.211,85.0391515151515,84.87135750126193,82.19327190753053,83.5802758394538,41.29108166180812,42.678085593731396,40
379.395,84.7718515151515,84.68740008359575,82.34453761965332,83.61538582527865,41.0720142583171,42.342862463942424,40
392.578,84.4765515151515,84.32747773864388,81.96783911274451,83.20196395749699,41.12551378114689,42.359638625899365,40
405.762,84.4783515151515,84.32999300230571,81.62575795936725,83.0281943290305,41.301798673275215,42.704235042938464,40
420.41,84.51405151515151,84.3809868098748,81.88684959390675,83.24071653237677,41.14027027749803,42.49413721596805,40
435.059,83.8623515151515,83.6995097359969,81.37843387395307,82.55939448071265,41.14011525528424,42.32107586204383,40
451.172,84.64425151515151,84.52440695984053,81.40338857467104,83.08421719128002,41.440189768560515,43.12101838516949,40
465.82,84.1734515151515,84.06060080701123,81.24115988713561,82.73066578001831,41.32993502699291,42.81944091987562,40
483.398,84.1166515151515,83.86088864427597,81.0599571485729,82.56374759387246,41.29714105040351,42.80093149570307,40
499.512,84.4373515151515,84.19991978476976,81.15121960368322,82.74239601011331,41.45752377465645,43.048700181086545,40
517.09,84.0146515151515,83.85866458279666,81.20262390296631,82.64088643132303,41.21777815147364,42.656040679830355,40
536.133,84.4299515151515,84.16780448179465,80.65382803509037,82.29236662992767,41.87543785186698,43.51397644670428,40
555.176,84.7805515151515,84.54436392851795,80.83768570837815,82.66748379680256,41.876880131715396,43.70667822013981,40
574.219,84.95755151515151,84.68778504279052,80.8864547051035,82.85497630968517,41.83280873310535,43.80133033768702,40
594.727,84.81405151515152,84.50879477994752,80.85427850979897,82.71652430891669,41.79227047103083,43.65451627014855,40
615.234,84.7734515151515,84.58888996642949,80.73265837525247,82.66924067608656,41.91964929034293,43.85623159117702,40
637.207,85.7538515151515,85.31883956728699,81.2389893551846,83.3283133256542,41.99052624163279,44.079850212102386,40
659.18,85.8602515151515,85.50025681450336,81.42917468495803,83.47436592419237,42.02589089031099,44.07108212954533,40
682.617,86.78375151515151,86.38922707779358,81.99811255153166,84.178644199908,42.21058287788557,44.391114526261916,40
707.52,87.0747515151515,86.66318468681145,81.83792123991593,84.27012460139586,42.393060085415584,44.82526344689552,40
732.422,86.7065515151515,86.2981013891661,81.69563142409824,84.00860049782473,42.289500891341376,44.60246996506787,40
757.324,87.31975151515151,86.87899761375742,82.02318282212843,84.38709630831865,42.49190130543877,44.85581479162899,40
785.156,86.7871515151515,86.34579915862929,81.26774555364156,84.03039052176973,42.31540863685956,45.07805360498773,40
811.523,86.5524515151515,86.17327343232635,81.31068168204008,83.90435342818085,42.2689200041455,44.86259175028627,40
840.82,86.58945151515151,86.2378761826828,81.48037127372567,83.7911328520002,42.446743330682594,44.75750490895713,40
870.117,86.9291515151515,86.47902065375177,81.07071939730018,83.52725044992557,42.9517702038262,45.408301256451594,40
900.879,85.62635151515148,85.3076721713245,80.15643892495072,82.69539491826184,42.61227725306266,45.15123324637378,40
933.105,85.40195151515151,85.00272140135712,79.57641535715865,82.24014237734877,42.762579024008346,45.42630604419847,40
965.332,84.8924515151515,84.52529623411216,78.83052233157618,81.51936540429853,43.005930829813636,45.694773902535985,40
1000.49,83.5813515151515,83.35661762182274,78.07998817773984,80.54444142225003,42.812176199572704,45.2766294440829,40
1035.64,84.01355151515152,83.49017301305402,77.65529067561638,80.49660100424597,42.993572008808044,45.834882337437634,40
1072.27,83.3657515151515,82.83816588736916,76.94997743852531,79.84052502000074,42.99764086736842,45.88818844884385,40
1108.89,83.3874515151515,82.77477452500936,76.5843361427065,79.75436325002177,43.020411274987595,46.19043838230286,40
1148.44,83.7078515151515,83.21859709355648,76.60766723414018,79.68009626657854,43.53850082697794,46.6109298594163,40
1189.45,84.1759515151515,83.39154083939525,76.53013358394966,79.61321331864872,43.77832752074653,46.861407255445584,40
1230.47,84.35695151515152,83.59218255998137,76.47677606635214,79.60270736672257,43.9894751932588,47.11540649362922,40
1274.41,83.9654515151515,83.27886459988223,76.16129109318734,79.21642309916513,44.0624415007171,47.11757350669488,40
1319.82,83.7502515151515,83.05776324172498,75.90603405538408,79.01140808274936,44.04635515897563,47.1517291863409,40
1366.7,83.62915151515149,82.96407631394891,75.79281798200837,78.8611281319583,44.10294818199061,47.171258331940535,40
1413.57,83.4648515151515,82.83399373498555,75.71552181782577,78.89968018920904,43.93431354577652,47.11847191715978,40
1463.38,84.5729515151515,83.71214907137178,76.06307389357511,79.19996494736452,44.51218412400726,47.649075177796675,40
1516.11,84.98435151515149,84.21943734021463,76.18415239542436,79.35775405486586,44.86168328534876,48.03528494479026,40
1568.85,85.0218515151515,84.15177453170722,76.14735802754694,79.40921499030485,44.74255954140237,48.004416504160275,40
1624.51,84.03475151515148,83.24826235515859,75.30184693550619,78.29434351362256,44.95391884153602,47.946415419652396,40
1681.64,84.0292515151515,83.20480004686793,75.64880520904381,78.3696326331678,44.835167413700134,47.555994837824116,40
1741.7,85.6996515151515,84.45512377876925,76.49551473494283,79.42457740703607,45.03054637173318,47.95960904382642,40
1803.22,86.42545151515151,85.17814146635145,77.12024045565768,80.12280050004922,45.055340966302225,48.05790101069377,40
1866.21,86.2519515151515,85.13727098358594,77.29569161241436,80.17887451210007,44.95839647148587,47.841579371171576,40
1932.13,85.4303515151515,84.3395677697251,76.81873950770404,79.4449919899681,44.89457577975699,47.520828262021055,40
1999.51,85.82765151515152,84.54228546562912,77.10972373104661,79.71148028812617,44.83080517750295,47.43256173458251,40
2069.82,86.2048515151515,85.00891420638327,77.70484486984613,80.22477249882989,44.784141707553374,47.30406933653714,40
2143.07,85.15985151515149,84.41499698309805,77.69301060517641,79.9511196945508,44.46387728854725,46.72198637792164,40
2219.24,85.1073515151515,84.10090375743572,78.0722487035511,80.20797199324296,43.89293176419275,46.02865505388462,40
2296.88,86.0172515151515,84.99609892069897,79.21621307721345,81.2908979006114,43.70520102008757,45.779885843485516,40
2378.91,85.94385151515151,85.20638935057904,79.74413517386567,81.71674744177588,43.489641908803165,45.46225417671337,40
2462.4,84.3722515151515,84.34331152380196,79.7691310638742,81.34476527879416,42.9985462450078,44.57418045992776,40
2548.83,83.5889515151515,84.51631173554962,80.45980196398062,81.91860952075506,42.597702214794566,44.056509771569,40
2639.65,81.9694515151515,83.91527602818266,80.24333016527537,81.73401698158655,42.18125904659611,43.67194586290729,40
2731.93,82.4714515151515,84.02367898104201,79.9316735029064,81.75365243126775,42.27002654977426,44.092005478135604,40
2828.61,82.09735151515152,84.63413612340126,80.46344428095362,82.1520644518351,42.48207167156616,44.17069184244764,40
2928.22,82.0831515151515,84.5464484893837,80.11129253906076,81.65067433977909,42.89577414960462,44.43515595032295,40
3030.76,82.83265151515148,84.64002587682755,80.15382169777439,81.8223038034887,42.81772207333886,44.48620417905316,40
3137.7,83.3169515151515,84.90710029973526,80.48472819325669,82.1728577294875,42.73424257024776,44.422372106478576,40
3249.02,83.57955151515151,84.78515349086634,80.22133476813218,82.06246263921423,42.722690851652104,44.563818722734155,40
3363.28,82.2817515151515,84.45160671582907,80.05068001048353,81.96627041762575,42.48533629820332,44.40092670534554,40
3481.93,82.80385151515152,84.85969028440253,80.37361007045769,82.45960271626174,42.40008756814079,44.486080213944845,40
3604.98,82.3330515151515,84.77546196604364,80.19835284429438,82.51384486198356,42.26161710406008,44.57710912174926,40
3732.42,80.9734515151515,84.32791426363933,80.2278803032585,82.42181922288935,41.906095040749975,44.10003396038083,40
3864.26,82.9971515151515,84.30871783162138,80.14675088388928,82.7642530001797,41.54446483144167,44.1619669477321,40
4000.49,85.2030515151515,84.7430149745525,80.2191615022293,83.13126083776469,41.61175413678781,44.5238534723232,40
4141.11,86.8504515151515,85.35390893460288,80.91526778656485,83.91361231986188,41.440296614741,44.43864114803803,40
4287.6,87.23755151515151,85.64789126491954,81.34871382662888,84.4053752950451,41.24251596987443,44.299177438290656,40
4438.48,87.9665515151515,85.31484836658181,81.30662668586544,84.55378673197353,40.76106163460828,44.008221680716375,40
4595.21,88.4984515151515,85.99981604591362,81.32594824535947,84.47948881892138,41.52032722699224,44.67386780055415,40
4756.35,88.0418515151515,85.85775381217589,80.95725430948825,84.30046411643694,41.557289695738945,44.90049950268764,40
4924.8,88.65715151515151,86.66509162115197,81.05557681349487,84.45475495015395,42.21033667099802,45.609514807657106,40
5097.66,88.55285151515152,86.62022191744536,80.77362456278219,84.55334009324893,42.06688182419643,45.846597354663174,40
5277.83,88.3770515151515,86.49913839616933,81.03467711795625,84.79194763301608,41.70719076315325,45.46446127821308,40
5463.87,89.3697515151515,87.06146814769893,80.86128353728049,84.96761263140307,42.09385551629586,46.20018461041845,40
5657.23,89.1149515151515,87.2383010117816,80.7864965189791,84.67246097103965,42.565840040741946,46.451804492802495,40
5856.45,87.92965151515152,86.68880416895037,80.80045987769786,84.10263054028137,42.586173628669,45.88834429125251,40
6062.99,86.8048515151515,86.40700605188434,80.87309615048257,84.41265294818359,41.994353103700746,45.53390990140177,40
6276.86,86.6933515151515,86.27739346897953,80.30329585424049,84.13189393526032,42.1454995337192,45.97409761473904,40
6498.05,85.39635151515151,85.71647585602315,79.2234297701863,82.9577496574495,42.758726198573655,46.49304608583685,40
6726.56,85.6552515151515,85.73517764330896,78.80963305088777,82.47288796793741,43.26228967537155,46.92554459242119,40
6963.87,84.7346515151515,85.56867948882784,78.76138679994867,82.54003917034603,43.028640318481806,46.80729268887917,40
7209.96,85.5388515151515,85.46276629780793,78.40395330507381,82.38981182452598,43.07295447328195,47.05881299273412,40
7464.84,85.5998515151515,85.49778771699467,78.27646772561631,82.25164931132288,43.246138405671786,47.22131999137835,40
7727.05,85.7686515151515,85.66810166669971,78.23134271076904,82.09845359379689,43.56964807290282,47.43675895593067,40
7999.51,86.48265151515152,85.81674803551658,78.08436498367332,82.0816199355959,43.735128099920686,47.73238305184326,40
8282.23,86.4435515151515,85.8947576916716,77.88446660038902,82.03907737806021,43.85568031361139,48.01029109128258,40
