Freq "Front Wall Bounce"
22.4 40.50271493723352
23.0 42.26116996948801
23.6 44.174608587330624
24.0 46.18085074018333
25.0 47.985517128746125
25.8 49.8162761316712
26.5 52.18997002687024
27.2 53.90934316746362
28.0 56.03728878757261
29.0 58.14563926214856
30.0 59.068425802208395
30.7 59.344913623030834
31.5 60.22230550777962
32.5 61.24442910293891
33.5 63.03656845074646
34.5 64.87779666073602
35.5 66.53854902393775
36.5 67.79792564614382
37.5 68.57010722052837
38.7 69.34853350187137
40.0 71.64865473062139
41.2 73.72476477166718
42.5 75.56974264604055
43.7 77.10646268621078
45.0 78.36480879477692
46.2 79.25620268193288
47.5 79.6255272241885
48.7 79.79038474345445
50.0 80.32612525323026
51.5 80.82798737292686
53.0 81.07842402992165
54.5 81.16859366735173
56.0 81.16794361096683
58.0 81.2053628439377
60.0 81.24602267667437
61.5 81.37606827700722
63.0 81.53417489588416
65.0 81.69299151859056
67.0 81.89399513507455
69.0 82.06292251159061
71.0 82.21580777692476
73.0 82.39755561927674
75.0 82.46680205224476
77.5 82.50896218014796
80.0 82.5516772739125
82.5 82.60896218014796
85.0 82.60896218014796
87.5 82.63748553872904
90.0 82.60928787178912
92.5 82.55233728067108
95.0 82.53814770559947
97.5 82.49595208563694
100.0 82.44013395156685
103.0 82.39627875437378
106.0 82.42423618983965
109.0 82.42456073808745
112.0 82.410279968848
115.0 82.36779624235126
118.0 82.33880223686262
122.0 82.33814016978836
125.0 82.36713092088793
128.0 82.45265973578161
132.0 82.53911080170981
136.0 82.65331208373055
140.0 82.76811755174707
145.0 82.83976518785042
150.0 82.85689586971216
155.0 82.80047292552767
160.0 82.68868141819785
165.0 82.40457072340196
170.0 82.12434929894476
175.0 81.78340461655937
180.0 81.44699383146622
185.0 81.27288322736212
190.0 81.30234150082558
195.0 81.56483179833208
200.0 81.96719809892532
206.0 82.38162100176609
212.0 82.69248941690118
218.0 82.78270977119121
224.0 82.7148067750132
230.0 82.40184638657051
236.0 81.9436769050581
240.0 81.62772091720001
250.0 81.41764581333494
258.0 81.5327170544066
265.0 81.78601147619655
272.0 81.98305354454826
280.0 81.79955005653562
290.0 81.3360623432793
300.0 80.98348075391353
307.0 81.08916178890317
315.0 81.7261354136927
325.0 82.31022156942109
335.0 82.47102895764132
345.0 82.14627173629239
355.0 81.69249788025931
365.0 81.48394179406068
375.0 81.81787278129829
387.0 82.24893609465431
400.0 82.17879744760174
412.0 81.671514092562
425.0 81.18073488069807
437.0 81.04672457834685
450.0 81.08399470092199
462.0 81.00039259920447
475.0 80.56358227798175
487.0 80.56101501647936
500.0 81.16230718543088
515.0 81.79181229381194
530.0 82.23654715922957
545.0 82.56136108110638
560.0 82.614518675723
580.0 82.31687425061625
600.0 82.2902439591548
615.0 82.48919180810239
630.0 82.38081040201011
650.0 82.00139594887307
670.0 81.38037147517792
690.0 80.59206788611962
710.0 80.3747551977483
730.0 80.51626416426434
750.0 80.62760121493125
775.0 80.85724471178852
800.0 80.99959537627814
825.0 80.80104919934047
850.0 80.51851827673391
875.0 80.34962557276094
900.0 79.82217627973826
925.0 79.30625055731771
950.0 79.17275332763225
975.0 78.98144882625093
1000.0 78.76537446108301
1030.0 78.05229714261644
1060.0 77.1279869849194
1090.0 76.640050222182
1120.0 76.62002341483831
1150.0 77.19771386808736
1180.0 77.63575418025033
1220.0 77.89862875366862
1250.0 78.17766743170866
1280.0 78.30283480515622
1320.0 78.66657582596207
1360.0 78.9717748084273
1400.0 78.36953940428876
1450.0 78.06349002857365
1500.0 78.29607350254516
1550.0 78.60267593199185
1600.0 78.80927108353968
1650.0 79.32466879423
1700.0 79.9391595838478
1750.0 80.20274617713659
1800.0 80.63004454820577
1850.0 80.76808332684432
1900.0 81.02612116771074
1950.0 81.00342542423608
2000.0 81.07491669890086
2060.0 80.9482135188903
2120.0 81.01144327618525
2180.0 80.771672527413
2240.0 80.4450142811059
2300.0 81.08373675254238
2360.0 81.44323037682187
2400.0 81.59763230560782
2500.0 81.54855865993105
2580.0 81.0919424109224
2650.0 80.23639086130582
2720.0 80.26817446047166
2800.0 79.81823323300779
2900.0 79.6795905774835
3000.0 79.81264125007168
3070.0 80.36547008194091
3150.0 80.45035480589718
3250.0 79.94960964338341
3350.0 79.48995363417913
3450.0 79.26473169946307
3550.0 79.11429457773312
3650.0 78.86210195953956
3750.0 79.1285032204931
3870.0 80.07939686394512
4000.0 80.89557855936168
4120.0 80.2733807259668
4250.0 79.85134426449298
4370.0 80.86531897608727
4500.0 81.18934393101748
4620.0 81.19831106554159
4750.0 82.07045307836383
4870.0 82.65054813168646
5000.0 82.45102785343833
5150.0 81.43623582029448
5300.0 81.25275520440383
5450.0 82.00306113219077
5600.0 81.66599582482365
5800.0 81.81838741646791
6000.0 81.41194435303058
6150.0 81.93380581099335
6300.0 83.11357853953857
6500.0 82.56171613107497
6700.0 80.92931645150111
6900.0 80.06731966443638
7100.0 80.6481287225833
7300.0 82.69544966620832
7500.0 83.56704497293592
7750.0 82.4628322929785
8000.0 81.17949713845809
8250.0 80.81932872072397
8500.0 80.28317534950428
8750.0 80.49009781634197
9000.0 80.33990103802496
9250.0 77.94351330626296
9500.0 78.25374418643713
9750.0 81.93830607597525
10000.0 82.34635425625687
10300.0 80.4796430819554
10600.0 81.53010219174323
10900.0 81.75025252006108
11200.0 81.46456287980443
11500.0 81.0885817141642
11800.0 80.37549449857022
12200.0 81.10885440934157
12500.0 81.64188164126162
12800.0 81.13593013269498
13200.0 79.54502602375064
13600.0 79.36556635842909
14000.0 77.69118408247016
14500.0 77.90010232196795
15000.0 80.24034556016817
15500.0 79.85889466221201
16000.0 78.6616621038625
16500.0 77.06348819215923
17000.0 75.66161249445396
17500.0 76.06008094350206
18000.0 75.89340573573654
18500.0 77.83779462345058
19000.0 77.54186779809005
19500.0 76.50179100419581
