Freq,On Axis,Listening Window,Sound Power,Early Reflections,Early Reflections DI,Sound Power DI,DI offset
22.4,48.8,49.3135870991472,49.71905097572035,49.60912304367021,39.70446405547699,39.59453612342685,40
23.0,50.2,51.13131083488231,51.27577889749513,51.19814276215881,39.933168072723504,39.855531937387184,40
23.6,51.39999999999999,52.59425252098826,52.83619463932065,52.81643343289808,39.77781908809018,39.75805788166761,40
24.0,54.7,55.215519306123284,55.21701738397438,55.28238514313172,39.933134162991564,39.998501922148904,40
25.0,57.10000000000001,57.18931201263338,57.22553890161514,57.28249262872036,39.90681938391302,39.96377311101824,40
25.8,59.000000000000014,58.818792218806436,58.8390046530201,58.898479903860235,39.9203123149462,39.97978756578634,40
26.5,60.60000000000001,60.381838197961926,60.387422713969656,60.44932167033524,39.93251652762669,39.99441548399227,40
27.2,62.7,62.56431670592383,62.3934303080777,62.495563197067185,40.068753508856645,40.17088639784613,40
28.0,64.8,64.55261362992825,64.24799144681515,64.35917278332413,40.19344084660412,40.304622183113096,40
29.0,66.2,66.14181388743695,65.84102916416079,65.96687697070251,40.17493691673444,40.300784723276166,40
30.0,67.8,67.58829281224067,67.33228215625985,67.47458552161609,40.113707290624575,40.256010655980816,40
30.7,69.7,69.2839142766105,68.86747330778114,69.02927712770769,40.254637148902816,40.41644096882936,40
31.5,71.1,70.92419779300913,70.11449013167068,70.38842524503406,40.53577254797507,40.80970766133845,40
32.5,71.8,71.8055466345084,71.30863744313278,71.55990917927284,40.24563745523557,40.49690919137562,40
33.5,72.0,72.52886263787438,72.24592952293254,72.4098621134081,40.11900052446629,40.28293311494184,40
34.5,72.99999999999999,73.5189133583134,73.20119343415342,73.3666483240492,40.152265034264204,40.317719924159974,40
35.5,74.39999999999999,74.46799815886236,74.1766391871203,74.34587033144743,40.12212782741493,40.291358971742056,40
36.5,75.40000000000002,75.23742014002073,75.02027387009174,75.14622377045926,40.09119636956147,40.21714626992899,40
37.5,76.89999999999999,75.64979746403421,75.43763998946608,75.60994993030768,40.03984753372653,40.21215747456813,40
38.7,77.60000000000001,76.24549400412278,75.85209154087953,76.07779006352544,40.167703940597335,40.39340246324325,40
40.0,77.2,76.63963115260938,76.36705308707084,76.57571651431688,40.0639146382925,40.27257806553854,40
41.2,77.2,77.08154004111532,76.86929214223237,77.10570260058365,39.97583744053166,40.21224789888295,40
42.5,77.7,77.4858672815888,77.25495725673736,77.52515481247994,39.960712469108856,40.23091002485144,40
43.7,78.2,77.84732670453351,77.57087097571268,77.78641407398453,40.060912630548984,40.276455728820835,40
45.0,78.7,78.13345074154556,77.73885172722693,77.9800241621013,40.15342657944426,40.39459901431863,40
46.2,79.2,78.39901674069704,78.0181765772019,78.40998894267875,39.989027798018284,40.38084016349514,40
47.5,79.5,79.28369984902473,78.72623827433698,79.26882605450047,40.01487379452426,40.55746157468775,40
48.7,79.00000000000001,79.216732267527,78.85534673467035,79.25547314455328,39.961259122973715,40.361385532856644,40
50.0,78.3,79.03852714092423,78.88412380628144,79.05088281017669,39.98764433074754,40.154403334642794,40
51.5,78.2,78.99145758451466,78.87969361628677,79.03412560844681,39.95733197606785,40.11176396822789,40
53.0,78.6,79.01171430337861,78.92688719435995,79.11798288292051,39.893731420458096,40.08482710901866,40
54.5,78.7,78.84107936964612,78.84360557059622,79.04603415202607,39.79504521762006,39.9974737990499,40
56.0,78.6,78.6338348785066,78.78778987182356,78.96086657827725,39.67296830022936,39.84604500668304,40
58.0,78.7,78.624247374,78.87826592335607,79.02364960609829,39.60059776790172,39.74598145064394,40
60.0,78.9,78.73912333032123,79.05527507150306,79.2040476180011,39.535075712320136,39.68384825881817,40
61.5,78.8,78.74268400512271,79.20570331568764,79.31885820750166,39.42382579762105,39.53698068943507,40
63.0,78.8,78.76439394795355,79.34813222260611,79.42963974622079,39.334754201732764,39.41626172534744,40
65.0,78.9,78.90165070671088,79.55673513086363,79.64993983529601,39.25171087141487,39.34491557584725,40
67.0,78.7,78.86214180964556,79.65569111591601,79.73166579492771,39.13047601471786,39.20645069372955,40
69.0,78.7,78.90613692688416,79.91015925715443,79.94453087008539,38.96160605679877,38.995977669729726,40
71.0,78.8,79.05822082678488,80.31684090176991,80.26842525708345,38.789795569701425,38.74137992501497,40
73.0,78.8,79.03077991728175,80.74786296317897,80.53982841121793,38.49095150606382,38.282916954102774,40
75.0,78.8,79.01025153723388,81.06213642579853,80.69489280378659,38.3153587334473,37.94811511143536,40
77.5,78.8,78.97078492293387,81.20213129724476,80.7267893294539,38.24399559347998,37.76865362568911,40
80.0,78.8,78.88007844917203,81.28776572348708,80.70610517293171,38.17397327624032,37.59231272568495,40
82.5,78.9,78.9499516115241,81.35944611014084,80.73920328327752,38.21074832824658,37.59050550138326,40
85.0,79.00000000000001,79.11684269896696,81.5155129210599,80.85719435271442,38.25964834625255,37.60132977790707,40
87.5,79.00000000000001,79.16329182192214,81.59575505923776,80.90626521223187,38.25702660969027,37.567536762684384,40
90.0,79.00000000000001,79.22382457807542,81.49619349556053,80.85231597647152,38.37150860160391,37.72763108251489,40
92.5,79.2,79.45826771526406,81.2303555504514,80.8113383130493,38.64692940221475,38.22791216481265,40
95.0,79.5,79.71603150927187,81.07501742002319,80.85194763106843,38.864083878203445,38.641014089248685,40
97.5,79.8,79.94241094688898,80.96236344051715,80.875006397016,39.06740454987299,38.98004750637183,40
100.0,80.0,80.12837545700783,80.95730066218329,80.91016687192383,39.218208585084,39.17107479482455,40
103.0,80.10000000000001,80.28138610329952,81.0256140139788,81.00246784700634,39.27891825629318,39.25577208932073,40
106.0,80.40000000000002,80.45646074445308,81.10067227941566,81.11038229143935,39.34607845301373,39.35578846503742,40
109.0,80.49999999999999,80.60557048785654,81.02928011782406,81.09128120653331,39.51428928132323,39.57629037003248,40
112.0,80.7,80.70778877949087,80.89031509531692,81.04103327811904,39.666755501371824,39.81747368417395,40
115.0,80.7,80.79681043110659,80.69796054378372,80.9820046139056,39.81480581720099,40.09884988732287,40
118.0,80.9,80.9037245296875,80.63856181163594,80.95629218250394,39.94743234718355,40.265162718051556,40
122.0,80.9,80.95743471912115,80.55585607382162,80.93563897081269,40.02179574830846,40.40157864529954,40
125.0,81.0,80.9781386752917,80.39471643451299,80.85681774131037,40.12132093398134,40.58342224077872,40
128.0,81.1,80.99950842819842,80.22561140055215,80.75086721354373,40.2486412146547,40.77389702764627,40
132.0,81.1,81.03065790984485,80.24173351537766,80.73498948932856,40.29566842051629,40.78892439446719,40
136.0,81.1,80.98679801834218,80.1969216633322,80.67119381286291,40.315604205479275,40.78987635500998,40
140.0,81.1,80.99683458925894,80.13054678401559,80.61000981580058,40.38682477345836,40.866287805243346,40
145.0,81.1,80.9519736494732,79.94104034687528,80.48167455346315,40.47029909601005,41.01093330259792,40
150.0,81.0,80.90759183138034,79.80457233896276,80.36864563603876,40.53894619534158,41.10301949241759,40
155.0,81.0,80.8536412667256,79.54841142204876,80.21508013420492,40.63856113252068,41.305229844676845,40
160.0,81.1,80.88548497148794,79.61758815034543,80.2424148118882,40.643070159599745,41.267896821142514,40
165.0,81.1,80.88548497148794,79.58452117808903,80.21655967378136,40.66892529770658,41.30096379339891,40
170.0,81.0,80.84288032066154,79.50710289024278,80.13809655801437,40.70478376264717,41.33577743041876,40
175.0,80.9,80.74288032066154,79.32128837932275,79.96787450320939,40.775005817452154,41.42159194133879,40
180.0,81.0,80.722821812084,79.1325907628797,79.81522062635936,40.907601185724644,41.590231049204306,40
185.0,80.9,80.65737481717106,78.82996704536264,79.58798547672853,41.06938934044253,41.827407771808424,40
190.0,80.9,80.57269175359991,78.5087772804353,79.3735317547097,41.19915999889021,42.063914473164616,40
195.0,80.9,80.53835991709718,78.19289366029648,79.18159332251595,41.35676659458123,42.345466256800705,40
200.0,80.9,80.53835991709718,77.85470995418244,79.01181619637475,41.52654372072243,42.68364996291474,40
206.0,80.9,80.60680139062049,77.55294209495722,78.92471870027397,41.68208269034652,43.05385929566327,40
212.0,81.1,80.69772600334515,77.34255957450803,78.92568249175137,41.77204351159378,43.35516642883712,40
218.0,81.3,80.97269175359993,77.27659312003256,79.06621294892238,41.90647880467755,43.696098633567374,40
224.0,81.50000000000001,81.20284559139567,77.37277866414628,79.31300671921953,41.88983887217614,43.83006692724939,40
230.0,81.8,81.50284559139565,77.55844866357897,79.60596969034141,41.896875901054244,43.94439692781668,40
236.0,82.0,81.77841170038995,77.73088916294674,79.85790394041221,41.92050775997774,44.047522537443214,40
240.0,82.2,81.92287712129705,77.81004796933773,80.02503275456782,41.89784436672923,44.11282915195932,40
250.0,82.2,81.95523164884715,77.86953477109901,80.10494920939796,41.85028243944919,44.085696877748134,40
258.0,82.0,81.82042087112158,77.78610774320944,80.04749282714405,41.77292804397753,44.03431312791214,40
265.0,81.59999999999998,81.4006222931674,77.61806598362271,79.81831466530997,41.58230762785743,43.78255630954469,40
272.0,80.7,80.55855629151289,77.29199884165048,79.29470104686081,41.26385524465208,43.266557449862404,40
280.0,79.7,79.4990350802657,76.9668832177487,78.62675269350075,40.87228238676495,42.532151862517,40
290.0,78.9,78.82846103473418,76.71451513802349,78.09232481633943,40.73613621839475,42.11394589671069,40
300.0,78.9,79.012180085096,76.54139342253477,77.95665394629097,41.055526138805035,42.47078666256124,40
307.0,79.6,79.65466494467962,76.80982293888987,78.39096292057008,41.26370202410955,42.84484200578976,40
315.0,80.49999999999999,80.36621913893299,77.79250335318262,79.28512990730914,41.08108923162385,42.573715785750366,40
325.0,81.2,80.97910387575865,78.35250885357416,79.82257666853164,41.156527207227015,42.62659502218449,40
335.0,81.4,81.05276034378689,78.24772067480107,79.84305569752607,41.20970464626082,42.80503966898581,40
345.0,81.4,81.00726867176182,77.65705187092604,79.29976871732846,41.70749995443336,43.35021680083578,40
355.0,81.4,81.10695605618464,76.99097539547664,78.95049369068944,42.1564623654952,44.115980660708004,40
365.0,81.59999999999998,81.26236380175035,76.77534021509679,79.03940182199307,42.22296197975729,44.487023586653564,40
375.0,81.8,81.48206874011052,77.03417565034312,79.29865131728222,42.1834174228283,44.447893089767405,40
387.0,81.89999999999999,81.60407212888653,76.97689847134579,79.36599438957919,42.23807773930734,44.62717365754074,40
400.0,81.8,81.47536192456705,76.56950538257391,79.15630181872818,42.31906010583887,44.905856541993145,40
412.0,81.59999999999998,81.27536192456704,76.20144743996846,78.92630877673345,42.34905314783359,45.073914484598575,40
425.0,81.59999999999998,81.24202509057669,76.21648450179937,78.89873956597526,42.34328552460143,45.02554058877732,40
437.0,81.50000000000001,81.22382585478647,76.55521027654312,79.05566322084569,42.16816263394078,44.66861557824335,40
450.0,81.3,81.00856501931503,76.5090507754518,78.87104210867899,42.13752291063604,44.49951424386323,40
462.0,81.1,80.87826415029326,76.37107592678068,78.65135980775032,42.22690434254294,44.507188223512586,40
475.0,81.0,80.8319655244984,76.25616013472255,78.53225318976737,42.299712334731026,44.57580538977585,40
487.0,81.0,80.77832599518892,76.21283225450654,78.48867216252457,42.28965383266436,44.565493740682385,40
500.0,81.0,80.64742885353793,76.10310865181324,78.42373690806672,42.22369194547122,44.54432020172469,40
515.0,81.0,80.56355437252383,76.0384715740753,78.38478319033867,42.17877118218516,44.52508279844852,40
530.0,81.1,80.62263764083941,76.16545670487334,78.58609500235276,42.03654263848665,44.45718093596608,40
545.0,81.3,80.90883151326307,76.65690238812978,79.0608868444699,41.84794466879316,44.25192912513329,40
560.0,81.4,80.95013197363325,76.38306289789446,79.01120774463172,41.93892422900153,44.567069075738786,40
580.0,81.3,81.01049733985107,76.32060373845756,79.03679262700452,41.973704712846555,44.68989360139351,40
600.0,81.2,81.01533284786214,76.46519601790769,79.10063471365298,41.91469813420916,44.550136829954454,40
615.0,81.2,80.86594583446136,76.23919405965722,78.88049847947313,41.985447354988224,44.626751774804134,40
630.0,81.3,80.65783770685941,75.66727342068509,78.51165665678822,42.14618105007119,44.99056428617432,40
650.0,81.4,80.57888802000107,75.44480188028773,78.42952734829915,42.14936067170193,45.13408613971335,40
670.0,81.50000000000001,80.55470603182222,75.61715682031358,78.67061336061839,41.88409267120383,44.93754921150864,40
690.0,81.8,80.9066558200589,75.69446661484436,79.05080676292094,41.85584905713796,45.21218920521454,40
710.0,82.1,81.19019005467872,75.4761370930972,79.08293454857115,42.10725550610758,45.71405296158153,40
730.0,82.3,81.36708793044777,75.17266245048363,78.8967257923885,42.47036213805927,46.19442547996414,40
750.0,82.2,81.14173071159918,73.96118013584494,77.83589278722893,43.30583792437025,47.18055057575424,40
775.0,81.89999999999999,80.8247502490229,73.16145811314037,77.08171459242462,43.74303565659828,47.66329213588253,40
800.0,81.3,80.17391074533937,72.68266006946364,76.3515084732514,43.82240227208797,47.49125067587573,40
825.0,80.2,78.97349432415386,72.41633634064169,75.82196291936508,43.151531404788784,46.55715798351217,40
850.0,79.9,79.01429089150632,72.73910483110713,76.24901549709777,42.76527539440855,46.27518606039919,40
875.0,80.40000000000002,79.50001978469548,72.82975200434147,76.50010236108344,42.99991742361205,46.67026778035401,40
900.0,80.6,79.78545213074821,72.84286397412711,76.41035675467474,43.375095376073475,46.9425881566211,40
925.0,80.8,80.03875510817836,73.3860310720441,76.79418949656944,43.24456561160892,46.65272403613426,40
950.0,80.6,80.09111876641452,73.444823188487,76.85654461252174,43.23457415389278,46.64629557792752,40
975.0,81.2,80.86313953450907,73.77657414036902,77.26566673373006,43.597472800779016,47.08656539414005,40
1000.0,81.7,81.34988666129466,73.6677088343444,77.17847974647367,44.17140691482099,47.682177826950266,40
1030.0,81.8,81.05823211504568,72.69795483995993,76.17010082536024,44.88813128968545,48.36027727508575,40
1060.0,80.8,79.66050932045299,71.60458060730248,75.23972529310625,44.42078402734674,48.05592871315051,40
1090.0,80.0,79.4978572591818,72.1682008092635,75.73676187915193,43.76109538002987,47.3296564499183,40
1120.0,80.0,79.25683196282442,71.87323063000586,75.54815702209088,43.708674940733545,47.38360133281856,40
1150.0,81.0,79.45623951253751,70.91618075025812,74.99793694894484,44.45830256359267,48.540058762279386,40
1180.0,80.6,78.52440442776445,69.1809566674428,73.48299060632145,45.041413821443,49.34344776032165,40
1220.0,80.9,78.48703491335723,69.10000022980238,73.40570252257113,45.0813323907861,49.38703468355486,40
1250.0,81.4,79.32748810222549,70.49888498327577,74.60232495129141,44.72516315093408,48.828603118949715,40
1280.0,81.3,79.53865497709924,71.50488214656946,75.24383676797619,44.29481820912305,48.033772830529784,40
1320.0,80.6,79.25347420682671,71.61080150385813,75.5529593009855,43.7005149058412,47.64267270296858,40
1360.0,79.8,78.22247909776583,70.69669850868435,74.74606995924954,43.47640913851629,47.52578058908148,40
1400.0,79.00000000000001,77.26512370937196,69.98748670654724,74.08566695314475,43.17945675622721,47.27763700282472,40
1450.0,78.7,77.14583721698135,70.06025112704137,74.15670495282944,42.989132264151905,47.08558608993998,40
1500.0,78.7,77.33631972177591,70.19595341265422,74.03203808192065,43.30428163985526,47.14036630912169,40
1550.0,78.9,77.64013340123711,70.00158643028568,74.08997100752896,43.55016239370815,47.638546970951424,40
1600.0,79.00000000000001,77.94931800047954,70.30577111213333,74.33748617647838,43.61183182400116,47.64354688834621,40
1650.0,78.7,78.21042825146723,70.67209189036883,74.54374397282596,43.66668427864127,47.5383363610984,40
1700.0,78.4,78.46519616586413,70.69156028284445,74.83770871128449,43.62748745457964,47.77363588301968,40
1750.0,78.8,78.35537725326404,70.01552357331319,74.12887948866445,44.226497764599586,48.33985367995085,40
1800.0,80.10000000000001,78.4443135713221,70.07434025284934,74.61535700151113,43.82895656981097,48.36997331847276,40
1850.0,80.2,78.62477661758362,69.85328422501976,74.64042563530863,43.98435098227499,48.77149239256386,40
1900.0,80.2,78.83630718976964,70.07850486189214,74.91171865974415,43.92458853002549,48.7578023278775,40
1950.0,81.0,79.16595266892654,70.78231469874935,75.57898415958027,43.58696850934626,48.38363797017719,40
2000.0,81.3,79.20210684307469,71.00836229406126,75.53541075716943,43.66669608590526,48.19374454901343,40
2060.0,81.50000000000001,79.39030607653173,71.95008232492636,76.20697100251745,43.18333507401428,47.44022375160537,40
2120.0,81.0,78.92658983828261,71.54914195841322,75.8237333255512,43.10285651273141,47.37744787986939,40
2180.0,79.5,77.92367231795282,71.56665032772331,74.7058770200233,43.21779529792953,46.35702199022951,40
2240.0,77.1,76.18553288963597,70.95260300687734,73.84265515068498,42.34287773895099,45.232929882758626,40
2300.0,76.7,76.84071721860512,71.34610360324395,74.55913911939177,42.28157809921335,45.494613615361175,40
2360.0,78.2,77.67672956649278,72.03296573186512,75.51689644813014,42.15983311836264,45.64376383462766,40
2400.0,80.3,78.5435189345607,72.38001244513252,76.2693808108488,42.27413812371189,46.16350648942817,40
2500.0,79.8,77.81289172235196,71.58149092969671,75.5429900083048,42.269901714047165,46.23140079265525,40
2580.0,77.2,76.01498904052819,69.67105743386888,73.5477545960771,42.467234444451094,46.34393160665931,40
2650.0,77.2,76.40105535517425,69.79824853267678,73.67452986888324,42.72652548629101,46.60280682249747,40
2720.0,79.7,78.24990725305048,71.44022467246039,75.48096181582964,42.768945437220836,46.80968258059009,40
2800.0,80.9,79.17555625399741,71.9639344063676,75.9745938173802,43.20096243661722,47.211621847629814,40
2900.0,81.59999999999998,79.55767683901746,71.96775511073649,75.72775314220048,43.82992369681698,47.58992172828097,40
3000.0,81.8,79.69658547882547,72.07271364298036,75.58774754893732,44.10883792988815,47.62387183584511,40
3070.0,81.1,79.55422734975765,72.13009904635267,75.76676723846447,43.787460111293186,47.424128303404984,40
3150.0,80.6,79.79901240934066,72.59130139311955,75.98029912952431,43.81871327981635,47.20771101622111,40
3250.0,80.6,79.16104690933953,72.15336712555882,75.34008966581843,43.82095724352111,47.007679783780716,40
3350.0,79.6,78.20836162283727,71.10254477330278,74.21059995382758,43.99776166900969,47.10581684953449,40
3450.0,79.09999999999998,78.08044237213329,70.3354008706482,73.8487501319699,44.2316922401634,47.74504150148509,40
3550.0,79.8,78.37097207327402,70.38859912192397,74.06385024588478,44.30712182738924,47.982372951350044,40
3650.0,79.9,78.29332054309735,69.74079942775025,73.6438427630347,44.649477780062654,48.552521115347105,40
3750.0,80.2,78.8773460850112,70.08024396822314,74.13396038656607,44.743385698445124,48.797102116788054,40
3870.0,80.2,79.19938697587995,70.2883094603954,74.47389151107173,44.72549546480822,48.91107751548455,40
4000.0,80.10000000000001,79.72914164633485,70.73673880894594,74.92304765575753,44.806093990577324,48.99240283738891,40
4120.0,80.2,80.18414263923898,71.09736562596389,75.13785943496195,45.04628320427703,49.086777013275096,40
4250.0,80.40000000000002,80.22589805729805,71.14232770077062,75.20900190343683,45.016896153861225,49.08357035652743,40
4370.0,80.7,80.12716263890711,70.98953820224484,75.21548206097447,44.91168057793264,49.137624436662264,40
4500.0,80.9,80.23502548918022,71.22137874507442,75.19853859791014,45.03648689127007,49.0136467441058,40
4620.0,81.0,80.16835697441915,71.35817294290547,75.23407671160362,44.934280262815534,48.810184031513685,40
