Freq "Listening Window"
22.4 49.85282760547629
23.0 51.67055134121138
23.6 53.13349302731733
24.0 55.75475981245238
25.0 57.72855251896247
25.8 59.35803272513553
26.5 60.92107870429102
27.2 63.10355721225292
28.0 65.09185413625734
29.0 66.68105439376605
30.0 68.12753331856977
30.7 69.8231547829396
31.5 71.46343829933824
32.5 72.3447871408375
33.5 73.06810314420346
34.5 74.0581538646425
35.5 75.00723866519145
36.5 75.77666064634981
37.5 76.1890379703633
38.7 76.78473451045188
40.0 77.17887165893848
41.2 77.6207805474444
42.5 78.02510778791786
43.7 78.38656721086262
45.0 78.67269124787467
46.2 78.93825724702613
47.5 79.82294035535382
48.7 79.75597277385609
50.0 79.57776764725331
51.5 79.53069809084379
53.0 79.5509548097077
54.5 79.38031987597523
56.0 79.1730753848357
58.0 79.1634878803291
60.0 79.27836383665034
61.5 79.2819245114518
63.0 79.30363445428266
65.0 79.44089121303999
67.0 79.40138231597466
69.0 79.44537743321324
71.0 79.59746133311396
73.0 79.57002042361084
75.0 79.54949204356298
77.5 79.51002542926297
80.0 79.41931895550111
82.5 79.48919211785321
85.0 79.65608320529604
87.5 79.70253232825125
90.0 79.76306508440452
92.5 79.99750822159315
95.0 80.25527201560095
97.5 80.48165145321808
100.0 80.66761596333691
103.0 80.82062660962862
106.0 80.99570125078218
109.0 81.14481099418565
112.0 81.24702928581995
115.0 81.33605093743569
118.0 81.44296503601659
122.0 81.49667522545026
125.0 81.51737918162081
128.0 81.53874893452752
132.0 81.56989841617393
136.0 81.52603852467128
140.0 81.53607509558802
145.0 81.4912141558023
150.0 81.44683233770945
155.0 81.39288177305471
160.0 81.42472547781705
165.0 81.42472547781705
170.0 81.38212082699062
175.0 81.28212082699064
180.0 81.2620623184131
185.0 81.19661532350014
190.0 81.11193225992902
195.0 81.07760042342629
200.0 81.07760042342629
206.0 81.14604189694958
212.0 81.23696650967423
218.0 81.511932259929
224.0 81.74208609772477
230.0 82.04208609772476
236.0 82.31765220671905
240.0 82.46211762762614
250.0 82.49447215517621
258.0 82.35966137745068
265.0 81.93986279949651
272.0 81.09779679784198
280.0 80.03827558659479
290.0 79.36770154106327
300.0 79.5514205914251
307.0 80.19390545100873
315.0 80.9054596452621
325.0 81.51834438208776
335.0 81.59200085011597
345.0 81.54650917809091
355.0 81.64619656251374
365.0 81.80160430807943
375.0 82.02130924643963
387.0 82.14331263521562
400.0 82.01460243089615
412.0 81.81460243089614
425.0 81.7812655969058
437.0 81.76306636111558
450.0 81.54780552564411
462.0 81.41750465662237
475.0 81.37120603082748
487.0 81.31756650151802
500.0 81.18666935986703
515.0 81.10279487885292
530.0 81.16187814716851
545.0 81.44807201959216
560.0 81.48937247996234
580.0 81.54973784618018
600.0 81.55457335419125
615.0 81.40518634079044
630.0 81.19707821318852
650.0 81.11812852633018
670.0 81.09394653815131
690.0 81.445896326388
710.0 81.72943056100782
730.0 81.90632843677686
750.0 81.68097121792827
775.0 81.36399075535199
800.0 80.71315125166846
825.0 79.51273483048296
850.0 79.55353139783541
875.0 80.03926029102458
900.0 80.3246926370773
925.0 80.57799561450746
950.0 80.63035927274362
975.0 81.40238004083817
1000.0 81.88912716762376
1030.0 81.59747262137478
1060.0 80.19974982678208
1090.0 80.0370977655109
1120.0 79.79607246915351
1150.0 79.99548001886662
1180.0 79.06364493409355
1220.0 79.02627541968633
1250.0 79.8667286085546
1280.0 80.07789548342834
1320.0 79.79271471315582
1360.0 78.76171960409492
1400.0 77.80436421570103
1450.0 77.68507772331046
1500.0 77.87556022810502
1550.0 78.17937390756622
1600.0 78.48855850680862
1650.0 78.74966875779633
1700.0 79.00443667219322
1750.0 78.89461775959312
1800.0 78.98355407765119
1850.0 79.1640171239127
1900.0 79.37554769609874
1950.0 79.70519317525563
2000.0 79.74134734940378
2060.0 79.92954658286082
2120.0 79.4658303446117
2180.0 78.46291282428193
2240.0 76.72477339596507
2300.0 77.37995772493421
2360.0 78.21597007282189
2400.0 79.0827594408898
2500.0 78.35213222868104
2580.0 76.5542295468573
2650.0 76.94029586150334
2720.0 78.78914775937957
2800.0 79.71479676032651
2900.0 80.09691734534655
3000.0 80.23582598515458
3070.0 80.09346785608675
3150.0 80.33825291566976
3250.0 79.70028741566863
3350.0 78.74760212916638
3450.0 78.61968287846238
3550.0 78.91021257960311
3650.0 78.83256104942645
3750.0 79.4165865913403
3870.0 79.73862748220905
4000.0 80.26838215266395
4120.0 80.72338314556806
4250.0 80.76513856362715
4370.0 80.66640314523622
4500.0 80.77426599550931
4620.0 80.70759748074825
4750.0 79.95644302014199
4870.0 79.92816371170072
5000.0 79.43129964396203
5150.0 79.294754717618
5300.0 79.28717714359844
5450.0 79.62435661913445
5600.0 80.43839515298649
5800.0 80.55134371353246
6000.0 80.10075499937625
6150.0 79.73310785521696
6300.0 80.65063127669767
6500.0 81.1447805637306
6700.0 81.26762179684005
6900.0 81.52649996783204
7100.0 81.85200329411792
7300.0 82.45347387661444
7500.0 82.47760280354895
7750.0 82.09432616961239
8000.0 81.40646218359193
8250.0 81.23234593953111
8500.0 80.24847414428876
8750.0 79.16501690173949
9000.0 78.82408679754987
9250.0 80.13189308887674
9500.0 80.2495888573762
9750.0 79.27579721225511
10000.0 79.10035021579613
10300.0 79.39677506893423
10600.0 79.1326094844509
10900.0 78.8007528617545
11200.0 78.92487832122369
11500.0 77.85228704079758
11800.0 77.89392711209742
12200.0 78.00270887645054
12500.0 77.48259287794706
12800.0 78.1926947223067
13200.0 76.65408161534799
13600.0 77.02617077031391
14000.0 76.40608201480974
14500.0 77.29206354906678
15000.0 75.55675994774217
15500.0 74.40664258463553
16000.0 75.33243054160202
16500.0 73.6178314190073
17000.0 74.87414720825332
17500.0 76.50498892107429
18000.0 78.09584400677078
18500.0 78.39301656684788
19000.0 77.9271461159364
19500.0 76.1439528668476
