Freq "Sound Power"
22.4 50.258291482049444
23.0 51.815019403824195
23.6 53.37543514564972
24.0 55.75625789030347
25.0 57.76477940794423
25.8 59.37824515934918
26.5 60.92666322029875
27.2 62.93267081440679
28.0 64.78723195314426
29.0 66.38026967048988
30.0 67.87152266258896
30.7 69.40671381411023
31.5 70.65373063799977
32.5 71.84787794946186
33.5 72.78517002926162
34.5 73.74043394048253
35.5 74.7158796934494
36.5 75.55951437642084
37.5 75.97688049579517
38.7 76.3913320472086
40.0 76.90629359339994
41.2 77.40853264856146
42.5 77.79419776306645
43.7 78.11011148204177
45.0 78.27809223355601
46.2 78.55741708353099
47.5 79.26547878066607
48.7 79.39458724099946
50.0 79.42336431261053
51.5 79.41893412261588
53.0 79.46612770068906
54.5 79.38284607692533
56.0 79.32703037815266
58.0 79.41750642968515
60.0 79.59451557783213
61.5 79.74494382201674
63.0 79.8873727289352
65.0 80.09597563719272
67.0 80.19493162224508
69.0 80.44939976348353
71.0 80.856081408099
73.0 81.28710346950808
75.0 81.60137693212761
77.5 81.74137180357387
80.0 81.82700622981618
82.5 81.89868661646994
85.0 82.05475342738899
87.5 82.13499556556685
90.0 82.03543400188963
92.5 81.7695960567805
95.0 81.61425792635228
97.5 81.50160394684625
100.0 81.49654116851238
103.0 81.5648545203079
106.0 81.63991278574476
109.0 81.56852062415315
112.0 81.42955560164602
115.0 81.23720105011283
118.0 81.17780231796503
122.0 81.09509658015071
125.0 80.93395694084207
128.0 80.76485190688125
132.0 80.78097402170675
136.0 80.7361621696613
140.0 80.6697872903447
145.0 80.48028085320438
150.0 80.34381284529186
155.0 80.08765192837785
160.0 80.15682865667453
165.0 80.12376168441814
170.0 80.04634339657186
175.0 79.86052888565185
180.0 79.6718312692088
185.0 79.36920755169173
190.0 79.0480177867644
195.0 78.73213416662557
200.0 78.39395046051153
206.0 78.09218260128631
212.0 77.88180008083712
218.0 77.81583362636167
224.0 77.91201917047538
230.0 78.09768916990807
236.0 78.27012966927582
240.0 78.34928847566682
250.0 78.4087752774281
258.0 78.32534824953852
265.0 78.15730648995182
272.0 77.83123934797958
280.0 77.5061237240778
290.0 77.25375564435258
300.0 77.08063392886386
307.0 77.34906344521896
315.0 78.33174385951172
325.0 78.89174935990326
335.0 78.78696118113017
345.0 78.19629237725513
355.0 77.53021590180573
365.0 77.31458072142587
375.0 77.57341615667221
387.0 77.51613897767488
400.0 77.10874588890302
412.0 76.74068794629757
425.0 76.75572500812845
437.0 77.09445078287222
450.0 77.04829128178088
462.0 76.91031643310977
475.0 76.79540064105164
487.0 76.75207276083565
500.0 76.64234915814232
515.0 76.5777120804044
530.0 76.70469721120243
545.0 77.19614289445887
560.0 76.92230340422354
580.0 76.85984424478666
600.0 77.00443652423678
615.0 76.77843456598633
630.0 76.20651392701417
650.0 75.98404238661684
670.0 76.15639732664265
690.0 76.23370712117345
710.0 76.01537759942629
730.0 75.71190295681274
750.0 74.500420642174
775.0 73.70069861946946
800.0 73.22190057579274
825.0 72.95557684697077
850.0 73.27834533743624
875.0 73.36899251067054
900.0 73.3821044804562
925.0 73.9252715783732
950.0 73.9840636948161
975.0 74.31581464669812
1000.0 74.20694934067349
1030.0 73.23719534628904
1060.0 72.14382111363157
1090.0 72.70744131559256
1120.0 72.41247113633493
1150.0 71.45542125658721
1180.0 69.7201971737719
1220.0 69.63924073613147
1250.0 71.03812548960488
1280.0 72.04412265289857
1320.0 72.15004201018722
1360.0 71.23593901501344
1400.0 70.52672721287634
1450.0 70.59949163337048
1500.0 70.73519391898331
1550.0 70.54082693661478
1600.0 70.84501161846244
1650.0 71.21133239669793
1700.0 71.23080078917354
1750.0 70.55476407964228
1800.0 70.61358075917843
1850.0 70.39252473134886
1900.0 70.61774536822125
1950.0 71.32155520507844
2000.0 71.54760280039035
2060.0 72.48932283125545
2120.0 72.0883824647423
2180.0 72.1058908340524
2240.0 71.49184351320643
2300.0 71.88534410957304
2360.0 72.57220623819421
2400.0 72.91925295146159
2500.0 72.1207314360258
2580.0 70.21029794019796
2650.0 70.33748903900587
2720.0 71.97946517878948
2800.0 72.5031749126967
2900.0 72.50699561706558
3000.0 72.61195414930944
3070.0 72.66933955268176
3150.0 73.13054189944864
3250.0 72.69260763188792
3350.0 71.64178527963186
3450.0 70.8746413769773
3550.0 70.92783962825305
3650.0 70.28003993407934
3750.0 70.61948447455224
3870.0 70.82754996672449
4000.0 71.27597931527504
4120.0 71.63660613229298
4250.0 71.68156820709972
4370.0 71.52877870857394
4500.0 71.7606192514035
4620.0 71.89741344923458
4750.0 71.4992091857879
4870.0 71.26892239099341
5000.0 70.66630126571975
5150.0 70.27064836585714
5300.0 70.17661536613663
5450.0 70.29523368163977
5600.0 70.66760945714589
5800.0 70.86704076533427
6000.0 70.72593336971046
6150.0 71.01491386483288
6300.0 72.21031949943372
6500.0 72.92643632418283
6700.0 72.79823296266449
6900.0 72.98997033917517
7100.0 72.70409506560235
7300.0 72.94043625112197
7500.0 72.6348471693191
7750.0 71.94802557351717
8000.0 71.22099670199093
8250.0 71.39721681761266
8500.0 70.76066606073395
8750.0 69.92812440115804
9000.0 70.14551295604105
9250.0 71.30164601347222
9500.0 70.76845596602155
9750.0 69.45252804127189
10000.0 69.06264081951296
10300.0 69.45510532705148
10600.0 69.38226903746758
10900.0 69.07624312896048
11200.0 68.75988208243797
11500.0 67.34361979111426
11800.0 68.03600394962714
12200.0 67.93392143795778
12500.0 66.99551939927763
12800.0 67.29291031610649
13200.0 66.44342987966024
13600.0 66.95378241775778
14000.0 66.15447515231963
14500.0 65.80002268418993
15000.0 64.18272575304356
15500.0 63.988583973325035
16000.0 65.26158530060796
16500.0 63.080116689117816
17000.0 64.45076164467301
17500.0 65.61535153968597
18000.0 66.45177363278923
18500.0 67.0952232214263
19000.0 66.87910343097116
19500.0 64.88654822927491
