Freq,On Axis,Listening Window,Sound Power,Early Reflections,Early Reflections DI,Sound Power DI,DI offset
20.5078,46.27730000000001,46.365573884871836,48.4173664404894,47.183788993071275,39.18178489180056,37.94820744438243,40
21.9727,47.4911,47.58978326223287,49.77316926109937,48.56790921555445,39.02187404667842,37.8166140011335,40
23.4375,50.86740000000002,50.907208176322044,51.93823930034519,51.2331512604368,39.674056915885245,38.968968875976856,40
24.9023,50.06069999999998,50.112306166730164,51.58986827451132,50.70175373783563,39.41055242889453,38.522437892218846,40
26.3672,52.42110000000001,52.460290580764436,53.63043702998554,52.85626066075268,39.604029920011754,38.82985355077889,40
27.832,54.494000000000014,54.5123020634653,55.22410158098096,54.699661244166336,39.81264081929896,39.28820048248434,40
29.2969,56.40310000000001,56.41037570420404,56.87584463578263,56.47775919364035,39.93261651056369,39.534531068421416,40
30.7617,57.71169999999999,57.71451166212036,58.0715617451484,57.74253455445945,39.971977107660905,39.64294991697196,40
32.2266,59.165000000000006,59.164760876557054,59.438426550482646,59.163758883277794,40.00100199327926,39.72633432607441,40
33.6914,60.7607,60.75612357048864,60.896440241559034,60.691153937979166,40.064969632509474,39.859683328929606,40
35.1562,61.73209999999999,61.7482903099792,62.289649691070096,61.90858617659235,39.839704133386846,39.4586406189091,40
36.6211,63.60170000000001,63.594233029827976,63.68144630794866,63.519212258297344,40.07502077153063,39.912786721879314,40
38.0859,65.44510000000001,65.43059020730128,65.33806841227032,65.29295202547472,40.13763818182656,40.09252179503096,40
39.5508,66.6962,66.68349471858123,66.59607709942121,66.53927958861472,40.14421512996651,40.08741761916002,40
41.0156,67.7499,67.74115904157344,67.74388739802595,67.66310391187555,40.07805512969789,39.99727164354749,40
42.4805,69.0833,69.07084033156376,69.00206049180998,68.95773583186782,40.113104499695936,40.06877983975377,40
43.9453,70.329,70.31153360336316,70.12831582320113,70.14063795116738,40.17089565219578,40.183217780162025,40
45.4102,71.86309999999999,71.84232906477574,71.5727832503988,71.63621729769415,40.206111767081595,40.26954581437694,40
46.875,73.1367,73.11523981809583,72.8025072837777,72.8950093602649,40.22023045783094,40.31273253431813,40
48.3398,74.3515,74.32922431621635,73.98695600570892,74.09752907950453,40.23169523671183,40.342268310507436,40
51.2695,76.1959,76.18335863715104,76.06783371683777,76.07120191851774,40.1121567186333,40.11552492031328,40
52.7344,77.3292,77.31343409803604,77.20645550898895,77.20315505881537,40.11027903922067,40.10697858904709,40
54.1992,78.6738,78.64704624397699,78.26590616143658,78.40595110851966,40.24109513545733,40.38114008254041,40
55.6641,79.5988,79.57331218110188,79.19099488568767,79.334883439483,40.23842874161889,40.38231729541421,40
58.5938,81.368,81.34227339708025,80.96840249471278,81.10950780191725,40.232765595163,40.37387090236747,40
60.0586,82.157,82.13027163976089,81.74261550799093,81.89140252191982,40.23886911784108,40.38765613176996,40
62.9883,83.5071,83.47869674011183,83.06612779683977,83.23002698671847,40.24866975339336,40.41256894327206,40
64.4531,84.0304,83.99902155960496,83.52932575611786,83.72432233690793,40.27469922269702,40.4696958034871,40
67.3828,84.9137,84.88318427412669,84.39590489491879,84.60527704140353,40.277907232723166,40.487279379207905,40
68.8477,85.2085,85.17868603569754,84.71777961949189,84.91346700550406,40.26521903019348,40.460906416205646,40
71.7773,85.6657,85.63440687407561,85.16701657704171,85.3660301731966,40.268376700879,40.4673902970339,40
74.707,85.9336,85.90038782523519,85.40968778408181,85.62130343583809,40.2790843893971,40.490700041153374,40
77.6367,86.08229999999999,86.04756372777446,85.53590712133551,85.7585585775136,40.28900515026086,40.51165660643895,40
79.1016,86.1308,86.0953876127909,85.5764966753752,85.80260712438621,40.29278048840469,40.518890937415705,40
82.0312,86.2066,86.16940643549542,85.62992290761701,85.86544033653954,40.30396609895588,40.5394835278784,40
84.9609,86.28149999999998,86.242125279173,85.67496670678571,85.92410490760597,40.31802037156703,40.567158572387285,40
87.8906,86.3892,86.34883600126214,85.80445591079895,86.04035741072896,40.308478590533184,40.54438009046319,40
90.8203,86.6144,86.57156276584335,86.01397428087046,86.25724268227782,40.31432008356553,40.5575884849729,40
95.2148,86.86799999999998,86.82075074401702,86.17678662156669,86.46846818010174,40.35228256391528,40.64396412245033,40
98.1445,86.98290000000001,86.93402912135836,86.27481940340726,86.5749933366472,40.35903578471117,40.6592097179511,40
101.074,87.10020000000002,87.04836816825225,86.35396098395515,86.67190039795747,40.37646777029478,40.694407184297106,40
105.469,87.3235,87.26709259033056,86.4710590590358,86.8448081846395,40.42228440569106,40.79603353129477,40
108.398,87.4749,87.41939018674923,86.64080777081683,87.00667391155483,40.4127162751944,40.77858241593239,40
112.793,87.57610000000001,87.51897822461244,86.79010855301492,87.12432629267514,40.394651931937304,40.72886967159752,40
117.188,87.67550000000001,87.61035062617465,86.76938553948013,87.15772565017444,40.45262497600021,40.840965086694524,40
120.117,88.04440000000001,87.9773951801578,87.06302760852635,87.4933815693972,40.4840136107606,40.914367571631445,40
124.512,88.38960000000002,88.32312029140536,87.48017717815004,87.87014972367953,40.45297056772583,40.842943113255316,40
128.906,88.6365,88.56456652447464,87.66958456278714,88.08413302883103,40.48043349564361,40.894981961687506,40
133.301,88.897,88.81907363915595,87.75639254358767,88.26415172037049,40.55492191878545,41.06268109556828,40
139.16,89.03430000000002,88.96151969058535,87.9583916689916,88.43658853273381,40.52493115785154,41.00312802159375,40
143.555,89.0645,88.98071314326717,87.92456118519256,88.41990173820015,40.560811405067014,41.05615195807461,40
147.949,89.6151,89.524818281683,88.31502135047234,88.89470427450914,40.63011400717386,41.20979693121066,40
153.809,89.8626,89.77712923283622,88.66830665447043,89.19644717165487,40.58068206118135,41.10882257836579,40
159.668,89.7743,89.68570641755198,88.47240973271518,89.06547168887093,40.620234728681055,41.213296684836806,40
165.527,89.8358,89.72824765892707,88.48426827326654,89.07403784963533,40.65420980929174,41.24397938566054,40
171.387,90.3724,90.25871890114996,88.67341546147257,89.45701677887764,40.80170212227232,41.58530343967739,40
177.246,90.4321,90.32762414124929,88.95577680177222,89.62569594788475,40.70192819336454,41.37184733947707,40
183.105,90.6369,90.52932365733601,89.09205597754807,89.79346793352586,40.73585572381015,41.43726767978794,40
188.965,90.6618,90.54564276250608,89.09051264280185,89.79245093052047,40.7531918319856,41.45513011970422,40
196.289,90.8115,90.68980756421757,89.12109246109178,89.88822276637997,40.801584797837606,41.5687151031258,40
203.613,90.549,90.41233712408514,88.66718129129013,89.52391942818184,40.8884176959033,41.74515583279501,40
210.938,90.98109999999998,90.84251869632926,88.80464794368386,89.8467089924141,40.99580970391517,42.037870752645404,40
218.262,90.9192,90.8011653636347,88.90545624285733,89.88317080766808,40.917994555966615,41.89570912077737,40
225.586,90.64219999999999,90.50842214598737,88.85144251004625,89.65488138233991,40.85354076364746,41.65697963594111,40
232.91,90.5454,90.38770071191995,88.38994413808041,89.37058427027874,41.01711644164121,41.99775657383954,40
241.699,90.85529999999999,90.70042187795032,88.42173920487421,89.59147475624515,41.10894712170517,42.278682673076105,40
250.488,90.2774,90.1125206812215,87.80701654073843,88.97593951966853,41.13658116155297,42.305504140483066,40
259.277,91.0092,90.83130098722351,88.06257077836047,89.52158090160596,41.309720085617556,42.76873020886305,40
268.066,91.201,91.062564684085,88.7031760653255,89.95746461071248,41.105100073372526,42.35938861875951,40
276.855,90.2539,90.08508616469894,87.91474024194146,89.00927053200297,41.075815632695964,42.17034592275748,40
287.109,90.37089999999999,90.19992152207585,87.4658109062601,88.9161346957771,41.28378682629875,42.73411061581575,40
297.363,90.71590000000002,90.54937016155439,87.57454093272005,89.1780108965649,41.37135926498949,42.97482922883434,40
307.617,90.42400000000002,90.27924043191841,87.7812020678746,89.11040269910677,41.16883773281164,42.49803836404381,40
319.336,89.7917,89.64363393249248,87.00004035660142,88.42972554759378,41.2139083848987,42.64359357589106,40
329.59,89.5854,89.40635109552558,86.79272472675495,88.16133078700325,41.24502030852233,42.613626368770625,40
341.309,89.6377,89.46069185345006,86.54165935101058,88.13502661484974,41.32566523860032,42.91903250243948,40
353.027,89.6741,89.4681210234039,86.31113226880468,87.99505551941866,41.47306550398524,43.15698875459921,40
366.211,89.8876,89.7469622860506,86.59366060277408,88.34944502286606,41.39751726318454,43.153301683276524,40
379.395,89.4236,89.26927699198019,86.2301307129216,87.90012242213409,41.3691545698461,43.039146279058585,40
392.578,89.23040000000002,89.06974429182884,86.00434223897788,87.65045138028377,41.41929291154507,43.065402052850956,40
405.762,89.3395,89.15667014382811,85.98892610996322,87.70834107046585,41.44832907336226,43.16774403386489,40
420.41,88.9209,88.72012508805886,85.37711514325966,87.19171163612764,41.52841345193123,43.343009944799206,40
435.059,88.6932,88.48436888043467,85.22108584698434,86.97105636743625,41.513312512998425,43.263283033450335,40
451.172,88.42559999999999,88.25804634912895,84.83386874083608,86.72453176807397,41.53351458105497,43.424177608292865,40
465.82,88.3791,88.17414365753044,84.86807932393835,86.66593655637107,41.50820710115937,43.30606433359209,40
483.398,89.039,88.77118654770288,85.41342247235053,87.16258014830848,41.608606399394404,43.35776407535235,40
499.512,89.4249,89.19417983549899,85.79388781326118,87.58764084047651,41.606538995022476,43.40029202223781,40
517.09,89.85959999999999,89.53388220549216,85.67138210098183,87.62149624082375,41.91238596466842,43.86250010451033,40
536.133,90.0459,89.73107420552633,85.6977459408879,87.74833423346765,41.98273997205868,44.03332826463843,40
555.176,90.18729999999998,89.83536944456573,85.72027008169732,87.91818460165223,41.9171848429135,44.115099362868406,40
574.219,90.4764,90.095445748257,85.51047601568075,87.87015595246943,42.225289795787575,44.584969732576255,40
594.727,89.8309,89.52140571490581,85.41648086406427,87.61079801545242,41.910607699453394,44.10492485084154,40
615.234,89.861,89.3635543383421,85.14821366943313,87.23077916691699,42.13277517142511,44.215340668908965,40
637.207,90.9154,90.46968640391295,85.27581297960711,87.90108398097976,42.56860242293318,45.193873424305835,40
659.18,89.9896,89.5748543267742,84.94057234088537,87.36273019654737,42.212124130226826,44.63428198588883,40
682.617,91.2841,90.76336152914263,85.55837018643074,88.05701975847278,42.70634177066985,45.20499134271189,40
707.52,92.4318,91.94604975361109,86.2510129599171,89.20527742543398,42.740772328177115,45.69503679369399,40
732.422,92.0381,91.63295061831342,86.03527538068171,88.9257795588742,42.70717105943922,45.597675237631705,40
757.324,92.7723,92.33940361618009,86.64616913509856,89.57625974525912,42.76314387092097,45.69323448108153,40
785.156,92.38199999999999,91.95661655921324,85.8711360479649,89.09924124576418,42.85737531344907,46.08548051124835,40
811.523,92.0476,91.61015641169085,85.7975903412708,88.78105979556321,42.82909661612764,45.81256607042005,40
840.82,92.0691,91.57569427778141,85.58448438263325,88.66624274059542,42.90945153718599,45.99120989514816,40
870.117,91.3806,90.93295104066566,84.80740244218336,88.00671097002235,42.9262400706433,46.1255485984823,40
900.879,90.7035,90.21232669762823,84.25410983920219,87.40301114302082,42.80931555460741,45.95821685842604,40
933.105,89.70450000000001,89.16163031997581,83.02325239084513,86.33364815024896,42.82798216972685,46.138377929130684,40
965.332,88.6297,88.0798136282365,82.06178730117861,85.39771991810848,42.682093710128015,46.01802632705788,40
1000.49,87.8647,87.25549394147565,81.4054325786742,84.70913799764813,42.54635594382752,45.850061362801455,40
1035.64,87.8459,87.22846298263651,81.24353294905102,84.474643987633,42.75381899500351,45.9849300335855,40
1072.27,87.4612,86.81117856968004,80.84802618034371,84.12325312203423,42.68792544764581,45.96315238933633,40
1108.89,87.94159999999998,87.19953807659051,81.05183724649395,84.74118435167196,42.45835372491855,46.14770083009657,40
1148.44,87.98369999999998,87.47594232746063,82.18416905870048,85.69621091446348,41.77973141299715,45.29177326876015,40
1189.45,88.9426,88.31430826337875,83.28459334775916,86.71747254585011,41.596835717528634,45.02971491561959,40
1230.47,87.8329,87.47274954148871,83.27738923307732,86.48505482841014,40.98769471307857,44.195360308411395,40
1274.41,88.2041,87.7907416135889,83.06968178300512,86.24791479461742,41.54282681897149,44.72105983058378,40
1319.82,88.9032,88.31870008182291,83.05243494009235,86.23317379550662,42.085526286316295,45.26626514173056,40
1366.7,89.1072,88.6713155394192,83.24805100603419,86.27016147939767,42.401154060021526,45.42326453338501,40
1413.57,89.0572,88.66965829047847,83.17543632497501,86.3979661364763,42.27169215400217,45.494221965503456,40
1463.38,88.4995,88.2726782276581,82.99428120200307,85.948051717116,42.3246265105421,45.27839702565504,40
1516.11,88.7144,88.43204849899594,83.0146201974242,85.5227230373602,42.909325461635746,45.417428301571746,40
1568.85,92.2537,91.41197379416644,83.29035793383375,86.33235586421696,45.07961792994948,48.121615860332696,40
1624.51,93.7763,92.61239833707111,83.31088927745084,87.4872823403435,45.125115996727615,49.30150905962027,40
1681.64,92.171,91.075714319805,83.16443917123668,87.70012670753628,43.37558761226872,47.91127514856832,40
1741.7,90.9295,90.17174033418151,83.45506793650603,87.6990767852789,42.4726635489026,46.71667239767548,40
1803.22,90.9165,90.10931880940298,83.8380506542529,87.77164829859124,42.33767051081173,46.27126815515008,40
1866.21,91.27910000000001,90.68115925972,84.13591252191264,87.95147762932463,42.729681630395376,46.54524673780736,40
1932.13,91.0604,90.50395970805153,83.8524104507346,87.62076530668283,42.8831944013687,46.65154925731693,40
1999.51,89.9669,89.53208849052608,82.85933031883096,86.79283405461823,42.73925443590785,46.67275817169512,40
2069.82,88.9983,88.66652271478047,82.03799358066351,85.67782806634905,42.98869464843142,46.62852913411696,40
2143.07,89.0278,88.46448225122262,81.41395950930847,85.17343466739254,43.29104758383008,47.05052274191415,40
2219.24,87.1802,87.01297126931291,80.35488025817767,84.16424761151724,42.848723657795674,46.65809101113524,40
2296.88,86.21749999999999,85.97295455297197,79.25292956118996,83.12179683862006,42.85115771435191,46.72002499178201,40
2378.91,86.8205,86.35143106212844,79.08217111228707,82.93362565118419,43.417805410944254,47.26925994984137,40
2462.4,86.4077,86.18169552565008,78.84941317503329,82.75349854195629,43.428196983693795,47.332282350616794,40
2548.83,85.9613,85.55443206195062,78.40728859173052,82.34704337188062,43.207388690070005,47.1471434702201,40
2639.65,86.4366,86.1768206574016,78.85830207351977,82.67934339828818,43.497477259113424,47.31851858388184,40
2731.93,86.5714,86.5185060033071,79.37254523313835,83.12887690611758,43.38962909718951,47.14596077016874,40
2828.61,86.3042,86.59076058118237,79.89033268062852,83.42918943295791,43.16157114822445,46.70042790055385,40
2928.22,85.5065,86.21665934695469,80.07551433409202,83.34902220587699,42.867637141077694,46.141145012862665,40
3030.76,85.72859999999999,86.25405822992266,80.11310655956532,83.55991662109562,42.69414160882704,46.14095167035734,40
3137.7,86.0538,86.10917341072427,80.03753134261895,83.39623361914026,42.712939791584006,46.07164206810532,40
3249.02,87.8137,87.31759431395798,80.75191593088316,84.37763233892876,42.93996197502922,46.565678383074825,40
3363.28,89.0181,88.35918729930926,81.25212361961475,85.0352387942475,43.32394850506175,47.107063679694505,40
3481.93,90.5557,89.19966378253913,80.90559713412182,85.2612380920461,43.938425690493034,48.294066648417314,40
3604.98,89.95120000000001,88.59794059178778,80.0759652813461,84.43542533462242,44.16251525716535,48.521975310441675,40
3732.42,90.4172,88.802806959894,80.05245045767131,84.48380441503423,44.31900254485977,48.75035650222269,40
3864.26,90.21130000000001,88.51666181193826,79.69836962118343,84.09913064186968,44.417531170068585,48.81829219075483,40
4000.49,90.7558,88.87492697400891,79.98475774675245,84.49046230502074,44.38446466898817,48.890169227256465,40
4141.11,91.262,89.53337810006421,80.44191575958533,84.97629910059294,44.55707899947127,49.091462340478884,40
4287.6,92.6069,90.51482549442424,81.36201377149204,85.92150473327159,44.593320761152654,49.1528117229322,40
4438.48,92.96650000000001,90.55080900313648,82.02111170231579,86.16501200957109,44.38579699356539,48.529697300820686,40
4595.21,91.4048,89.14766590221923,82.15576875624888,85.8418769593884,43.30578894283083,46.991897145970356,40
4756.35,91.13360000000002,88.81174484017386,82.26247983140287,85.70081067799896,43.1109341621749,46.54926500877099,40
4924.8,89.8376,88.03251732054213,82.08203735581651,85.31185812743193,42.720659193110194,45.950479964725616,40
5097.66,89.7254,88.07452095223877,82.28338506544983,85.36009262027318,42.71442833196559,45.791135886788936,40
5277.83,88.3312,87.15235291463226,82.40591074284131,85.2762414988229,41.87611141580936,44.746442171790946,40
5463.87,86.5133,87.2568671892176,83.43396671643521,86.19883716993895,41.05803001927865,43.82290047278239,40
5657.23,84.5233,88.05752264896903,84.56388204597921,87.64857194889434,40.40895070007468,43.493640602989814,40
5856.45,85.40579999999999,89.54467878322322,85.58905608204202,89.00339567198436,40.541283111238855,43.9556227011812,40
6062.99,85.3977,89.75182964242622,85.84672684632939,89.37112222706561,40.380707415360604,43.90510279609683,40
6276.86,82.538,88.39229746421479,85.15869422840728,88.5185363618195,39.87376110239529,43.23360323580751,40
6498.05,87.0227,88.30177353252323,84.32316475824744,87.53683791824348,40.76493561427975,43.978608774275784,40
6726.56,88.3373,88.5221396742641,83.59361206800834,86.98075922890378,41.54138044536032,44.928527606255756,40
6963.87,87.06859999999999,88.01172787440532,82.813350661174,86.330161697234,41.68156617717132,45.198377213231325,40
7209.96,85.4756,87.71736904684481,82.4343450427074,86.06340932116166,41.65395972568315,45.2830240041374,40
7464.84,84.97419999999998,88.39617911472077,82.71351919563753,86.52444756920508,41.871731545515686,45.682659919083235,40
7727.05,86.6702,89.7780639670636,83.37836901050213,87.42311694908472,42.35494701797889,46.399694956561476,40
7999.51,88.84149999999998,90.6473543732304,83.31940485960108,87.6191285183058,43.0282258549246,47.32794951362932,40
8282.23,89.2357,90.03369635001145,81.81948688454823,86.33708324636412,43.69661310364734,48.21420946546323,40
8573.73,88.568,88.88569178417987,80.25774154313437,84.85434320485246,44.031348579327414,48.6279502410455,40
8876.95,88.0044,88.02248156771769,79.176129485648,83.87223098490838,44.150250582809306,48.846352082069686,40
9188.96,88.06950000000002,88.02228760912539,78.91368116740524,83.74022902648669,44.2820585826387,49.10860644172014,40
9514.16,89.09669999999998,89.36811847012204,80.14569315974003,85.02396184075072,44.34415662937133,49.22242531038201,40
9849.61,90.1129,90.57853744340325,81.30622817442122,86.19683755345865,44.3816998899446,49.27230926898203,40
10196.8,89.6195,89.83951637800408,80.30775743598018,85.23071887686723,44.60879750113685,49.5317589420239,40
10555.7,88.9655,89.260641245973,79.70453937909248,84.6428756356059,44.6177656103671,49.556101866880525,40
10927.7,87.1313,87.70696273837824,78.44561319868899,83.29475882976303,44.41220390861521,49.26134953968925,40
11313.0,90.5526,89.31962071531476,80.01999122821664,84.94144462017483,44.37817609513992,49.299629487098116,40
11712.9,90.5657,87.81800391218762,77.94947305016609,83.06546445006893,44.75253946211869,49.86853086202153,40
