Freq,Floor Bounce,Ceiling Bounce,Front Wall Bounce,Side Wall Bounce,Rear Wall Bounce,Total Early Reflection
22.4,44.11832544184972,41.01555665487547,45.11858546552776,46.2544486394257,52.359401325327525,47.5636405605708
23.0,47.05768127821955,45.27106876148261,46.618244488647946,47.595590351087054,52.561952279092935,48.6713494179225
23.6,49.17071732495407,48.17662798253903,48.02338269567005,48.91414819201293,52.906591345834016,49.86706507301025
24.0,51.44576719438467,51.9731421113608,49.101652124371725,50.187114152384254,53.553187807450826,51.51896896878017
25.0,52.97082970284299,54.012271783156194,50.01608174351878,51.29495082477786,54.2020693980424,52.779998707213
25.8,52.889828566734735,53.81227178315618,50.73012930082683,52.19820395437915,54.80600064976221,53.10353767717149
26.5,52.40306957104252,52.90690501035459,51.331116840987306,52.957400175192646,55.285848739001494,53.18223848617163
27.2,52.23358982687998,52.370014882574765,52.26009724486701,53.46813431484034,54.84586206754679,53.16196657007043
28.0,52.242830304719746,51.90076749445561,53.01981046013512,53.748009538182686,54.030591581336495,53.06615404250158
29.0,52.64283030471975,52.23358982687998,53.463858685429244,53.46027588070905,52.99723775791702,52.98534648260312
30.0,52.942830304719735,52.467695213052934,53.50974371851029,52.84530504353964,51.79806426644248,52.7491252332683
30.7,52.73821129888742,52.33513059177983,52.87089921164045,51.80920611180409,50.79060794544142,52.17159700411233
31.5,52.10306957104251,51.735130591779836,52.101261369659056,50.729976507511765,50.079963839819584,51.422628922380284
32.5,51.37150800786938,50.838211298887416,51.301261369659045,50.00607030331409,49.89471914318486,50.72694641435598
33.5,52.40306957104252,51.84283030471974,52.40914589305828,51.14956775128411,50.805113968954004,51.77003699032679
34.5,54.44044167945492,53.7760917544922,54.731755138619064,53.561169345124966,52.66109778040385,53.89325046062265
35.5,56.7069050103546,56.012271783156166,57.287489298920406,56.24817140149628,54.86972408078668,56.297360682956054
36.5,58.7069050103546,58.012271783156194,59.3437907541973,58.485053518705314,56.67431243730752,58.33209159035684
37.5,60.30690501035457,59.61227178315616,60.9584058450406,60.00352961026536,58.08430339363943,59.89350086738713
38.7,61.57609175449221,60.81227178315618,62.13175513861904,61.04817140149626,59.052379356890214,61.040646529593715
40.0,62.57609175449221,61.81227178315618,63.004894993736215,61.70830075647112,59.66523374406813,61.89367826666435
41.2,64.00690501035459,63.282199673323035,64.34675150375352,63.036773874776,60.933221863111214,63.27060893092232
42.5,65.47150800786939,64.81227178315618,65.74675150375353,64.436773874776,62.269509201614824,64.70498843848164
43.7,66.97150800786937,66.37609175449221,67.24675150375354,65.9914720522429,63.849751025647194,66.23763959450773
45.0,68.47150800786937,67.90690501035459,68.70229476693692,67.49147205224287,65.40240344432345,67.73897802388507
46.2,69.67150800786939,69.10690501035458,69.83175513861906,68.59147205224289,66.53526849022936,68.89482916979325
47.5,70.73821129888744,70.1760917544922,70.87525122642457,69.53677387477599,67.52801101277237,69.92531239876423
48.7,71.90306957104251,71.34283030471974,72.04675150375354,70.65871529168382,68.57377234113804,71.07084171426533
50.0,73.07150800786937,72.50690501035459,73.20489499373622,71.83677387477599,69.77786151465487,72.24155672490593
51.5,74.17150800786938,73.60690501035458,74.24675150375356,72.93677387477598,70.93189752757375,73.33329565156538
53.0,75.17150800786938,74.57609175449221,75.31998423401443,73.93677387477598,71.95719171323371,74.34787794729445
54.5,76.07150800786937,75.44283030471973,76.24675150375354,74.87862990826221,72.87588673748718,75.25741296902662
56.0,76.90690501035459,76.27609175449223,77.14675150375353,75.80245227663602,73.66831208967925,76.12005814067538
58.0,77.60690501035458,76.9122717831562,77.83175513861906,76.502452276636,74.32035232759122,76.79764945042456
60.0,78.00690501035459,77.31227178315618,78.24675150375356,76.92043663028579,74.71932981897282,77.20470780778783
61.5,78.17150800786939,77.51227178315618,78.44675150375355,77.102452276636,74.90026121067054,77.39069507874851
63.0,78.17150800786939,77.51227178315618,78.44675150375355,77.06648157916895,74.92049005010699,77.3862739076357
65.0,78.17150800786939,77.48219967332305,78.44675150375355,77.02669501426713,74.84458752638979,77.36415955140845
67.0,78.2404416794549,77.51227178315618,78.53175513861906,77.08636069648989,74.78514440154079,77.41335286990507
69.0,78.30690501035458,77.58219967332303,78.57525122642457,77.14868728184521,74.79487825413324,77.4676600511756
71.0,78.3404416794549,77.58219967332303,78.64675150375355,77.21069317386167,74.85438539910535,77.51228722809773
73.0,78.37609175449222,77.58219967332303,78.70489499373622,77.23276641677856,74.8946517715707,77.54454834416083
75.0,78.47609175449222,77.68219967332305,78.80489499373621,77.31069317386167,75.02911301391102,77.64420912738899
77.5,78.64044167945491,77.88219967332304,78.94675150375355,77.37732080935237,75.10908058714352,77.7827927135881
80.0,78.87609175449221,78.08219967332303,79.20489499373622,77.55740017519265,75.21426964431565,77.9930534027825
82.5,79.14044167945491,78.31916705502755,79.4048949937362,77.79956388711855,75.35919998643035,78.21834109862033
85.0,79.37609175449221,78.58219967332305,79.70489499373622,78.07974525135948,75.63416069935266,78.48873205877611
87.5,79.6760917544922,78.81916705502753,80.00489499373622,78.35740017519265,75.93943726059277,78.77240398170572
90.0,79.9760917544922,79.11916705502753,80.30489499373621,78.62438615718179,76.35477425987338,79.07859660939944
92.5,80.27609175449221,79.38982856673472,80.57848478147017,78.8243861571818,76.68700385758936,79.35127128847131
95.0,80.5457671943847,79.58982856673472,80.89366590096782,79.04964059122928,76.9153362244779,79.60682811605021
97.5,80.81227178315618,79.82758719283592,81.19366590096783,79.23987465325563,76.98386167973777,79.84243166872955
100.0,81.08219967332305,80.02758719283592,81.46528715999551,79.4508253968645,76.9758972086859,80.06061478965199
103.0,81.28219967332305,80.19897445130925,81.69366590096782,79.59986737502548,76.9868405258709,80.23576156785482
106.0,81.48219967332304,80.33752777300026,81.83924275721992,79.7166636419666,76.9990863917622,80.37649719475652
109.0,81.58219967332303,80.43752777300028,81.99366590096783,79.78552008031016,77.00440846961041,80.47789867139852
112.0,81.61916705502753,80.43752777300028,82.12386986096213,79.85486813212619,77.01503309929814,80.53741685512381
115.0,81.68982856673472,80.43752777300028,82.23924275721991,79.88173448818912,76.92045911884513,80.585414545438
118.0,81.75260953202218,80.44898359150842,82.33924275721992,79.9321751148644,76.8328933294229,80.634445836237
122.0,81.82349685065981,80.50963256681621,82.41363940606881,80.01857627552951,76.80319865638803,80.69876577961688
125.0,81.9234968506598,80.58219812790057,82.5136394060688,80.1185762755295,76.83716209172448,80.78817120697647
128.0,82.06096514237183,80.68219812790056,82.6136394060688,80.1185762755295,76.94464893229443,80.88159777707448
132.0,82.16096514237182,80.78219812790054,82.68539130564125,80.14629640271652,77.0175095087639,80.95893572998038
136.0,82.18982856673472,80.82179738688895,82.71363940606881,80.11707239352734,76.99273870057993,80.97579095650235
140.0,82.18982856673472,80.82179738688895,82.72940676691627,80.00404121344597,76.78319419085513,80.94573789125704
145.0,82.18982856673472,80.76194867563765,82.68847217927515,79.91981079971417,76.48515232150721,80.88596480234104
150.0,82.16096514237182,80.69506458035829,82.6600593685791,79.84340895570863,76.1384220141648,80.81989789788916
155.0,82.16096514237182,80.72179738688895,82.6136394060688,79.82783218957027,75.8965580553743,80.79242081903877
160.0,82.16096514237182,80.72179738688895,82.60433100962668,79.85602919325245,75.9779211753551,80.79943793433151
165.0,82.26096514237182,80.82179738688895,82.68847217927515,79.85602919325245,76.18246151979592,80.88568049223201
170.0,82.36096514237182,80.92179738688895,82.83516047995819,79.88480299097264,76.40571795151396,80.99720327022222
175.0,82.56096514237183,81.03546263134683,83.03516047995821,79.95679278829755,76.49454833271403,81.15302307207088
180.0,82.83257218046558,81.23546263134682,83.31068966302631,80.12766781417328,76.52588758215171,81.3806818446286
185.0,83.19897445130925,81.63546263134683,83.65121482311348,80.38918864511194,76.51760839083107,81.70636401160002
190.0,83.59897445130926,82.03546263134683,84.0512148231135,80.67021857730029,76.61480742668337,82.07117953237952
195.0,84.07082970284299,82.43546263134682,84.5268345531296,80.9862643692349,76.96155345939354,82.50068980917229
200.0,84.37082970284297,82.67641629732151,84.87455785944567,81.10512418900049,76.94405750362438,82.76212729807285
206.0,84.38219812790055,82.49237898809801,84.97455785944567,81.01619688174476,76.24333655228654,82.71684088563637
212.0,84.35521969308378,82.36726558859611,85.05086213388185,81.02514811756919,75.5263679252506,82.68272176198644
218.0,84.35521969308378,82.285387104659,85.09942293182199,81.03872642650651,75.04923362537656,82.66892562734996
224.0,84.49506458035829,82.38538710465897,85.25086213388187,81.27279944078569,75.17061875082786,82.81801397566959
230.0,84.8950645803583,82.72875610128315,85.59942293182198,81.6187006728874,76.00178234439322,83.19792433635509
236.0,85.19506458035829,83.02875610128314,85.89942293182199,81.73739490696201,76.62551523818101,83.48604016748331
240.0,85.36878033996791,83.16136837622761,86.07640057047571,81.59419237512739,76.77656623620642,83.61146420398849
250.0,85.39506458035831,83.26136837622764,86.15378373474547,81.35812383377932,76.48188792239208,83.62444352763173
258.0,85.33546263134683,83.20982855556757,86.07091054784846,81.03178101700622,75.80454920281267,83.50465890877442
265.0,85.30942248426018,83.10982855556755,86.13156734312867,80.95886152773579,75.15651403005957,83.47157250427934
272.0,85.58382334167595,83.285387104659,86.47091054784846,81.2588615277358,74.86602065823462,83.73939296638972
280.0,85.82526453928847,83.37269145322595,86.82076211162325,81.5330720663529,74.92562678188781,83.99381368920672
290.0,86.11832544184972,83.39389595883674,87.19888657798577,81.69672833775408,75.20661435354774,84.25927822436819
300.0,86.1944886893229,83.24066681957173,87.27740200741134,81.57509526571383,75.0724837644857,84.27276056924694
307.0,85.87106744273919,82.72457993687897,86.99523726086699,81.10171532523349,74.09402968038677,83.90550053826038
315.0,85.31457895753312,82.05274994214359,86.47740200741134,80.53300832467667,72.69017693340598,83.33008395600888
325.0,84.59179815677408,81.18230649956844,85.84956693475488,79.95500518765789,71.38487057287094,82.63128002827611
335.0,83.76941986366728,80.26322504785603,85.12833223333885,79.201060770527,70.3720125612656,81.84266121317542
345.0,82.81395652088273,79.263225047856,84.22833223333885,78.27201677652043,69.6797713367972,80.91151191503465
355.0,82.0809849055068,78.53209919948372,83.60748009891589,77.43758920389362,69.0903013994454,80.21863692277734
365.0,81.93753193576904,78.28230649956843,83.5074800989159,77.11054694634605,68.7324402053148,80.05778267970499
375.0,82.53753193576905,78.83209919948374,84.2052150227068,77.63608855592193,69.1747330766181,80.68503696862574
387.0,83.88343461029552,80.04552333168527,85.57194694757591,78.77444232727746,70.42439979452087,82.0017700412693
400.0,85.46251322065521,81.47915446671193,87.05268458216538,79.91255411127862,71.71526828001669,83.4732818857589
412.0,86.40921140720404,82.36174268592247,87.95263989204597,80.49067127550254,72.14617124019281,84.35259794851093
425.0,86.50921140720405,82.39723594431544,87.95263989204597,80.27875766846512,71.56496996290221,84.3660244835499
437.0,85.68888863538652,81.51411392837596,87.25263989204598,79.32844564874449,70.65139989686108,83.58238755434115
450.0,84.51664590330462,80.13736534393183,86.3066916966184,78.15075980042367,69.63112349412984,82.49385057693448
462.0,83.7269682029423,79.13736534393183,85.62561608974062,77.31925918329802,68.67034176185633,81.72835744155883
475.0,83.52611609167009,78.80814994938132,85.62561608974062,77.23361507579494,68.29508311484557,81.62020633717484
487.0,84.05800804769342,79.2746684327642,86.3082681842588,77.59513357909651,68.47093068795945,82.20677653772862
500.0,85.00807851055698,80.12933043421359,87.16747820888094,78.16688484569167,68.90364677221262,83.07097031810629
515.0,85.44123053036839,80.41326997082844,87.68174813653778,78.36934589951434,69.41252564638306,83.5173182753193
530.0,84.95905592381314,79.66870529959135,87.2657685524923,77.75417970878286,69.47288209594532,83.04150857450205
545.0,83.68681963215332,77.92345819872818,86.15587820122089,76.361945508011,68.1497543109887,81.80792774152077
560.0,82.29736051976008,76.07093249231426,84.95587820122088,75.0252223888777,66.5274652191767,80.48846340395677
580.0,81.42545420369876,74.93088317154636,84.16387696110996,73.9728412697826,65.22403755946831,79.62949980590572
600.0,81.06882143514854,74.4988231392986,83.83110894000976,73.42205422918832,64.15007665747349,79.26626991225348
615.0,81.1524231134238,74.79980341180726,83.88726098164356,73.39313464549463,63.55583570274021,79.33942826289044
630.0,80.93913968958947,74.67863643206259,83.69847192723996,73.20111635686985,63.48828189963949,79.14849993047588
650.0,80.50993626900295,74.43243475604747,83.40956977035981,73.09275727376858,63.77840092468625,78.83362335707386
670.0,80.30993626900295,74.29764339402715,83.19691356696552,73.1910537392938,63.72667098454937,78.64852607241323
690.0,80.12664543441659,74.181262425955,83.14929853369921,73.29306777253466,63.68855639171326,78.56531614468567
710.0,80.11178284407282,74.54827552839255,83.17405810574651,73.59608938972687,64.06960506943176,78.62408120423719
730.0,80.03878621388876,74.90962074754836,83.29052906630287,73.75565612810756,63.93109844729011,78.70890653854006
750.0,79.83980936753105,75.07757950460712,83.37036071307416,73.67374582154463,63.8996517054847,78.71123336682379
775.0,79.59980341180724,75.10497668676807,83.20381086945238,73.63511415813468,63.74907755773967,78.55121593628706
800.0,79.44492572056969,74.89780984381858,82.91099651675145,73.50096587873036,62.86059950261239,78.30835703724249
825.0,79.41248611872857,74.57277674488687,82.79595578035355,73.51234990574649,62.58974964824736,78.20388425142612
850.0,79.6967307977497,74.67089600007291,82.85068587507065,73.79500060136311,62.4643001536885,78.33883158093572
875.0,80.040363060939,75.0708960000729,83.16285514030562,74.09214397993242,62.39638398020543,78.66430420364703
900.0,80.35632382767523,75.45131759580826,83.56285514030562,74.25907630580602,62.62563032381496,79.02291906507631
925.0,80.61721049921987,75.72756634145692,83.80045665101633,74.35077167002127,62.48088939926359,79.25901962344221
950.0,80.62332853367798,75.79533257014982,84.06555525308627,74.27572678709362,62.185158043764574,79.41352528074269
975.0,80.47703977141008,75.78779399843016,84.27929218201658,74.06865171075023,62.002801795368555,79.48902381690488
1000.0,80.48854399594791,75.91403481914588,84.51182024319182,73.93283141806329,61.99919597706051,79.63656659482629
1030.0,80.5322203479123,76.0694604479239,84.5564531555593,73.77123050669483,61.98847403556806,79.67946839930394
1060.0,80.61065864377773,76.08201452057558,84.52433873404574,73.77123050669483,62.063906905379724,79.68041611574033
1090.0,80.72081894554056,76.03913968958946,84.29456579860081,73.84770675997503,62.197702743379295,79.5708443310509
1120.0,80.56382205324667,75.66597401860918,84.00218424685733,73.81448420435575,62.00657071451241,79.32166432261403
1150.0,80.45872457742297,75.26649538425083,83.52914859375029,73.62981463014165,61.54517650080109,78.97228972890719
1180.0,80.39037884047718,75.0311234227367,83.02532928192389,73.32992330859477,60.74528280928726,78.62922133280847
1220.0,80.35597330084369,74.75465901190178,82.60633271210381,72.8025147154274,59.586773281053866,78.33323408249727
1250.0,80.12285985267755,74.24453229386481,82.2735096274037,72.06119177917654,58.07840519045837,77.99273052484615
1280.0,79.70252973822755,73.40258201738351,82.04785609701565,71.18285806128947,56.474339305840374,77.62063872932995
1320.0,79.21208790807138,72.42926873244251,81.9038661954523,70.3706568824484,55.27666813367097,77.27787300904374
1360.0,78.95380919627272,71.57669878874965,81.79926738875102,69.7974896657787,54.262140486615664,77.06054040783764
1400.0,78.89398241754958,71.07473140136791,81.71412477986054,69.43704188515315,53.17545747267377,76.94972939263779
1450.0,78.9908906874782,70.76988350036802,81.75629976897588,69.10505841180901,51.93452030604078,76.97823009529402
1500.0,78.97551113390337,70.26632597758203,82.01620007356863,68.69785859679867,50.492852128900125,77.09645901328956
1550.0,78.47693080019972,69.21572115435795,82.4855751700934,68.11966658590948,49.471707320476696,77.20291628850434
1600.0,77.92245276659231,68.55000005502637,82.91369122766115,67.85355092259731,49.741696634490154,77.33895490504658
1650.0,77.88487039281674,68.62755046916483,83.11428275093456,68.01411658339723,50.858251790272504,77.48240555450525
1700.0,78.09074275843801,69.20857942301257,83.09543912104097,68.23205152852766,52.08692350873872,77.53642930276638
1750.0,78.75640835343413,70.52451222983247,82.88167881383268,68.72076774923593,52.89828120350339,77.60710440418542
1800.0,79.412106446973,71.68297529590969,82.78539737555711,69.51918551683265,53.158775248488695,77.79795683995167
1850.0,79.85327412490557,72.21646141951132,83.00967150208655,70.3183797612113,53.04206701860983,78.11936773180187
1900.0,80.35327412490555,72.76698477766233,83.37049134743809,71.17088462005592,52.68300362628267,78.54863778827243
1950.0,80.82568045314932,73.34583390202485,83.51103908525249,71.85912527752457,52.221438448921674,78.83658777144468
2000.0,81.13090041982177,73.46396636452283,83.64620602575144,72.22609383212914,51.923665824013966,79.03454395840514
2060.0,81.02883004806296,73.03749266009874,83.83817948708996,72.29677932795676,51.90515658276152,79.0953785877173
2120.0,80.81224949657775,72.35054792039128,83.98398616530379,72.1844648901745,51.985403372853796,79.08169618782951
2180.0,80.52831837467518,71.9296506062916,83.90612951973725,72.0461084552191,52.00174373302062,78.92678123163194
2240.0,80.39168843870094,71.84027530866607,83.56297687090624,71.72629401205151,51.797158615188266,78.65564798987644
2300.0,80.10922325566852,71.76673210761147,82.99942399675076,70.99710130029362,51.48938668314142,78.19265499083309
2360.0,79.46414005097654,70.76083563859727,82.41620007356863,69.73619257107217,50.96735054277926,77.5476415011231
2400.0,78.37158989436597,68.4721853534241,81.98201683417855,68.19561161322633,50.0192129297896,76.81786252466486
2500.0,77.19608138550126,65.34331590698912,81.63880447692621,66.95995054090736,48.59580655841816,76.16444706856754
2580.0,76.20275034532503,62.77044124537494,81.15524171572967,65.93956390016743,47.40598774407988,75.51598867173917
2650.0,75.48696333611682,61.6409163131822,80.7274463730034,65.34012724516155,46.69332070835631,75.01156036982964
2720.0,75.40326404189223,62.41123284744552,80.73336173564601,65.32896765905954,46.97018903614031,75.00507389585984
2800.0,75.81630316976612,64.8710687614826,80.79551109581578,65.35317789735385,47.65882961148364,75.18046393965605
2900.0,76.36933270824217,67.46268190818897,81.0680966401059,65.75031351766422,48.23692244021237,75.57812851013102
3000.0,77.30261247566854,70.18230649956843,81.63870861170815,65.9414182320578,48.76349535004269,76.3145435107493
3070.0,78.09867922255579,72.48795498774301,82.19569462922756,65.50927008276831,49.20791559676033,77.01934995673578
3150.0,78.78451696627418,73.87117608287159,83.12181659339765,65.62410810632396,49.75668402608909,77.90876141647958
3250.0,79.48854508842582,74.70417076915649,84.17501094050807,66.3526185563773,50.79147812713191,78.85797855184038
3350.0,80.1231203439938,75.26551908472693,84.94919257536992,67.94333971350827,51.922071356900176,79.59447107376559
