Freq "Rear Wall Bounce"
22.4 52.35940132532754
23.0 52.56195227909295
23.6 52.906591345834
24.0 53.55318780745081
25.0 54.20206939804241
25.8 54.806000649762225
26.5 55.28584873900151
27.2 54.845862067546804
28.0 54.03059158133651
29.0 52.997237757917034
30.0 51.798064266442495
30.7 50.79060794544141
31.5 50.07996383981957
32.5 49.89471914318487
33.5 50.80511396895399
34.5 52.661097780403836
35.5 54.86972408078667
36.5 56.674312437307506
37.5 58.084303393639445
38.7 59.0523793568902
40.0 59.665233744068146
41.2 60.9332218631112
42.5 62.26950920161481
43.7 63.849751025647194
45.0 65.40240344432345
46.2 66.53526849022937
47.5 67.52801101277235
48.7 68.57377234113802
50.0 69.77786151465486
51.5 70.93189752757374
53.0 71.95719171323371
54.5 72.87588673748718
56.0 73.66831208967926
58.0 74.32035232759124
60.0 74.71932981897284
61.5 74.90026121067052
63.0 74.920490050107
65.0 74.84458752638977
67.0 74.78514440154078
69.0 74.79487825413325
71.0 74.85438539910537
73.0 74.89465177157071
75.0 75.029113013911
77.5 75.10908058714354
80.0 75.21426964431566
82.5 75.35919998643035
85.0 75.63416069935268
87.5 75.93943726059277
90.0 76.35477425987337
92.5 76.68700385758936
95.0 76.91533622447791
97.5 76.98386167973779
100.0 76.9758972086859
103.0 76.98684052587089
106.0 76.99908639176219
109.0 77.00440846961042
112.0 77.01503309929812
115.0 76.92045911884512
118.0 76.8328933294229
122.0 76.80319865638803
125.0 76.83716209172448
128.0 76.94464893229443
132.0 77.0175095087639
136.0 76.99273870057992
140.0 76.78319419085513
145.0 76.48515232150721
150.0 76.13842201416479
155.0 75.8965580553743
160.0 75.97792117535509
165.0 76.18246151979592
170.0 76.40571795151398
175.0 76.49454833271403
180.0 76.52588758215173
185.0 76.51760839083107
190.0 76.61480742668336
195.0 76.96155345939356
200.0 76.94405750362439
206.0 76.24333655228655
212.0 75.5263679252506
218.0 75.04923362537656
224.0 75.17061875082786
230.0 76.00178234439322
236.0 76.62551523818101
240.0 76.7765662362064
250.0 76.48188792239209
258.0 75.80454920281267
265.0 75.15651403005957
272.0 74.86602065823463
280.0 74.92562678188781
290.0 75.20661435354774
300.0 75.0724837644857
307.0 74.09402968038675
315.0 72.69017693340598
325.0 71.38487057287092
335.0 70.37201256126562
345.0 69.6797713367972
355.0 69.09030139944538
365.0 68.73244020531479
375.0 69.17473307661811
387.0 70.42439979452088
400.0 71.71526828001667
412.0 72.14617124019281
425.0 71.56496996290221
437.0 70.65139989686108
450.0 69.63112349412985
462.0 68.67034176185633
475.0 68.29508311484558
487.0 68.47093068795947
500.0 68.90364677221261
515.0 69.41252564638307
530.0 69.47288209594534
545.0 68.14975431098871
560.0 66.52746521917669
580.0 65.2240375594683
600.0 64.15007665747349
615.0 63.555835702740225
630.0 63.48828189963949
650.0 63.77840092468624
670.0 63.72667098454937
690.0 63.68855639171328
710.0 64.06960506943177
730.0 63.9310984472901
750.0 63.899651705484686
775.0 63.74907755773965
800.0 62.86059950261239
825.0 62.58974964824735
850.0 62.46430015368851
875.0 62.396383980205414
900.0 62.62563032381496
925.0 62.480889399263575
950.0 62.18515804376459
975.0 62.00280179536854
1000.0 61.99919597706052
1030.0 61.988474035568046
1060.0 62.06390690537971
1090.0 62.19770274337931
1120.0 62.00657071451242
1150.0 61.545176500801105
1180.0 60.74528280928725
1220.0 59.58677328105388
1250.0 58.07840519045838
1280.0 56.47433930584036
1320.0 55.27666813367095
1360.0 54.26214048661565
1400.0 53.175457472673756
1450.0 51.93452030604077
1500.0 50.49285212890014
1550.0 49.47170732047668
1600.0 49.74169663449017
1650.0 50.85825179027252
1700.0 52.08692350873871
1750.0 52.89828120350337
1800.0 53.15877524848868
1850.0 53.04206701860984
1900.0 52.683003626282684
1950.0 52.22143844892166
2000.0 51.92366582401395
2060.0 51.905156582761535
2120.0 51.98540337285378
2180.0 52.00174373302063
2240.0 51.79715861518825
2300.0 51.48938668314143
2360.0 50.96735054277927
2400.0 50.01921292978959
2500.0 48.595806558418175
2580.0 47.405987744079866
2650.0 46.693320708356296
2720.0 46.9701890361403
2800.0 47.658829611483625
2900.0 48.23692244021235
3000.0 48.763495350042675
3070.0 49.207915596760344
3150.0 49.756684026089104
3250.0 50.791478127131896
3350.0 51.92207135690019
3450.0 52.81774008075065
3550.0 53.48949165801348
3650.0 53.83443090188864
3750.0 54.01760791639616
3870.0 54.095256891826054
4000.0 54.089744411971125
4120.0 54.12376077069534
4250.0 54.226566253728734
4370.0 54.481877576461684
4500.0 54.899543845357854
4620.0 55.15132040384417
4750.0 55.403666773946824
4870.0 55.52293020050773
5000.0 55.468671546782545
5150.0 55.72064506605081
5300.0 55.9453634695022
5450.0 55.71131025926205
5600.0 55.468351625332545
5800.0 55.23743584389827
6000.0 55.00174509601088
6150.0 55.1064524623781
6300.0 55.46919388581627
6500.0 55.7759659027365
6700.0 55.955772328065265
6900.0 55.82472853673964
7100.0 55.32972221834284
7300.0 55.021000221643405
7500.0 54.99939481003797
7750.0 55.05204990090853
8000.0 55.287595047388905
8250.0 55.65529214644506
8500.0 55.9760301273552
8750.0 55.98557931933642
9000.0 55.45811345084168
9250.0 54.677655765716864
9500.0 54.03933314274515
9750.0 54.007524029943696
10000.0 54.66861716280435
10300.0 55.602563228415974
10600.0 56.22548367165312
10900.0 56.25117220982172
11200.0 55.81800082940562
11500.0 55.1650033799193
11800.0 54.566582718141305
12200.0 54.38988541396192
12500.0 54.29559234954296
12800.0 53.940829644318555
13200.0 53.21838518531807
13600.0 52.43554812599068
14000.0 52.03751047235791
14500.0 51.55697471499438
15000.0 50.39820027454918
15500.0 48.69519067193566
16000.0 46.79387036917011
16500.0 45.56829734940463
17000.0 46.092369221198126
17500.0 48.20994516271243
18000.0 50.87864164351045
18500.0 52.1287845278968
19000.0 50.59275926590071
19500.0 46.08613468937709
