Freq "Listening Window"
22.4 28.262715128719492
23.0 28.784675052844335
23.6 31.7627209636334
24.0 34.06272096363341
25.0 34.67371188078215
25.8 35.196379682153406
26.5 35.719188709671045
27.2 35.873182467254026
28.0 33.80753351717868
29.0 33.56369937115787
30.0 35.06369937115787
30.7 37.11789968521899
31.5 40.05216318018182
32.5 43.86369937115785
33.5 47.629262801319186
34.5 50.8292628013192
35.5 53.47443217786463
36.5 55.82978542290192
37.5 57.82978542290192
38.7 59.62978542290193
40.0 61.35091303121865
41.2 63.07292674088369
42.5 64.82851691571366
43.7 66.82851691571368
45.0 68.14011600568249
46.2 69.03934278041183
47.5 70.29433208957104
48.7 71.37292674088368
50.0 72.39534422015055
51.5 73.39534422015055
53.0 74.41815867227389
54.5 75.41815867227389
56.0 76.59534422015055
58.0 77.69534422015055
60.0 79.19534422015056
61.5 80.49534422015054
63.0 81.5181586722739
65.0 82.47292674088368
67.0 83.4729267408837
69.0 84.38389189260347
71.0 85.18389189260347
73.0 85.87240928545118
75.0 86.50650676003507
77.5 87.1292628013192
80.0 87.52926280131919
82.5 87.80650676003508
85.0 87.9292628013192
87.5 87.9292628013192
90.0 87.8292628013192
92.5 87.6292628013192
95.0 87.24085990201309
97.5 86.94085990201307
100.0 86.72926280131921
103.0 86.58564852743845
106.0 86.58564852743845
109.0 86.68564852743846
112.0 86.85216318018182
115.0 86.94085990201307
118.0 86.94085990201307
122.0 86.97443217786461
125.0 86.99534422015054
128.0 86.9292628013192
132.0 86.82926280131919
136.0 86.70650676003508
140.0 86.52926280131919
145.0 86.46266219704499
150.0 86.440596263917
155.0 86.4085138360871
160.0 86.41990150418412
165.0 86.37417056997491
170.0 86.33152359614765
175.0 86.25216318018181
180.0 86.10851383608708
185.0 85.80851383608709
190.0 85.44311466938888
195.0 85.07797090521646
200.0 84.72290382905908
206.0 84.48174139685021
212.0 84.46971091734336
218.0 84.58174139685022
224.0 84.6705149388869
230.0 84.68254319444469
236.0 84.65195418656793
240.0 84.59348412374017
250.0 84.63661791239856
258.0 84.63984079370813
265.0 84.62345992577946
272.0 84.62345992577946
280.0 84.8166100760434
290.0 84.94364776073257
300.0 84.97849973538176
307.0 84.91232035939368
315.0 84.84389935666702
325.0 84.72173764160482
335.0 84.45951591783411
345.0 84.26619466886268
355.0 84.15568081801229
365.0 84.18969590084711
375.0 84.31474419761533
387.0 84.4921002687453
400.0 84.57301802566613
412.0 84.52757030854065
425.0 84.3459868258594
437.0 84.13086421728691
450.0 84.09686362871354
462.0 84.12482558594951
475.0 84.12107826974065
487.0 84.33352700639317
500.0 84.7433900226155
515.0 85.27459777509226
530.0 85.77459777509227
545.0 86.00854112203488
560.0 85.93714002570009
580.0 85.80247623757235
600.0 85.62060621849702
615.0 85.4276680562612
630.0 85.25467761341102
650.0 85.0404938879114
670.0 84.9955408246714
690.0 85.10110136405085
710.0 85.1195181358652
730.0 85.0703832807132
750.0 84.9262638329825
775.0 84.55054268345899
800.0 84.4895553346375
825.0 84.57419829386555
850.0 84.53536113250308
875.0 84.49720931253067
900.0 84.11304869024664
925.0 83.80334278542844
950.0 83.27549794729873
975.0 82.77711093488617
1000.0 82.88577924957151
1030.0 82.95790360668609
1060.0 83.05617472157738
1090.0 83.29226996498431
1120.0 83.24013744428359
1150.0 83.05066544771861
1180.0 83.27019871455184
1220.0 83.76414692327236
1250.0 84.25470803117217
1280.0 84.52573648671972
1320.0 84.34493362365937
1360.0 83.65809409732994
1400.0 83.08740542014958
1450.0 83.03442002084066
1500.0 82.84672547651083
1550.0 82.4914924177473
1600.0 81.86781298033343
1650.0 81.37307528106496
1700.0 81.4638899314574
1750.0 81.95550016724238
1800.0 82.54235350987688
1850.0 82.87097104614784
1900.0 82.6220902192466
1950.0 82.87839268277108
2000.0 83.4192304813593
2060.0 83.5769330653788
2120.0 83.21975916331596
2180.0 82.98742253797116
2240.0 83.23076259989983
2300.0 83.37158872095446
2360.0 83.16376125735775
2400.0 83.71073821418
2500.0 83.94321126111298
2580.0 83.29271730871301
2650.0 83.49346035749318
2720.0 83.3990836416359
2800.0 83.15134295649234
2900.0 82.82798506730755
3000.0 82.78645536337974
3070.0 83.06428463121418
3150.0 82.68850529191732
3250.0 82.45332484255547
3350.0 82.15475323951472
3450.0 81.80557896221688
3550.0 81.91663359332878
3650.0 81.85510526358253
3750.0 81.55159414304738
3870.0 81.95757088223033
4000.0 83.00789494635556
4120.0 84.44753975063679
4250.0 85.32845769481284
4370.0 86.12028990296514
4500.0 85.33324088831147
4620.0 84.3683205980985
4750.0 83.28854695383083
4870.0 82.68674151690482
5000.0 82.2272738685955
5150.0 82.11762221697913
5300.0 82.28103038125727
5450.0 83.15891168228225
5600.0 83.55043263063743
5800.0 84.00348758727968
6000.0 84.08914077030266
6150.0 83.2095945576431
6300.0 81.2833394692842
6500.0 79.62184963792072
6700.0 79.38265980026321
6900.0 80.61593572698055
7100.0 82.97354572636445
7300.0 85.95360605688174
7500.0 85.4346702292816
7750.0 82.55471345548602
8000.0 80.95994278571906
8250.0 80.75162654179394
8500.0 82.38001980646898
8750.0 85.98866610482257
9000.0 85.82888736732153
9250.0 83.25272214794711
9500.0 81.78184280711396
9750.0 82.3030626389289
10000.0 83.22952734081741
10300.0 85.95311715753684
10600.0 87.35389606248401
10900.0 83.8071888095412
11200.0 80.77538778872943
11500.0 83.64674061182376
11800.0 88.36300693421454
12200.0 84.3837488310077
12500.0 82.28626349690552
12800.0 85.00567003241261
13200.0 88.44952805614543
13600.0 86.46536794289844
14000.0 84.55993248644563
14500.0 83.68790879731145
15000.0 87.64715846009199
15500.0 82.36531345949187
16000.0 79.90952243433469
16500.0 83.18170232108055
17000.0 81.01185857675024
17500.0 80.03087962735141
18000.0 84.41122692889967
18500.0 83.19113507710372
19000.0 80.96977026683786
19500.0 83.71501715780511
