Freq "On Axis"
22.4 28.070886075949375
23.0 28.670886075949397
23.6 31.670886075949397
24.0 33.97088607594938
25.0 34.6708860759494
25.8 35.27088607594936
26.5 35.77088607594936
27.2 35.97088607594938
28.0 33.870886075949386
29.0 33.6708860759494
30.0 35.1708860759494
30.7 37.27088607594936
31.5 40.1708860759494
32.5 44.070886075949375
33.5 47.77088607594936
34.5 50.97088607594938
35.5 53.6708860759494
36.5 55.97088607594938
37.5 57.97088607594938
38.7 59.77088607594936
40.0 61.47088607594938
41.2 63.17088607594938
42.5 64.97088607594938
43.7 66.97088607594938
45.0 68.27088607594939
46.2 69.17088607594938
47.5 70.37088607594939
48.7 71.47088607594938
50.0 72.57088607594937
51.5 73.57088607594937
53.0 74.57088607594937
54.5 75.57088607594937
56.0 76.77088607594938
58.0 77.87088607594939
60.0 79.37088607594939
61.5 80.67088607594938
63.0 81.67088607594938
65.0 82.57088607594937
67.0 83.57088607594937
69.0 84.47088607594938
71.0 85.27088607594938
73.0 85.97088607594938
75.0 86.67088607594938
77.5 87.27088607594936
80.0 87.67088607594938
82.5 87.97088607594938
85.0 88.07088607594937
87.5 88.07088607594937
90.0 87.97088607594938
92.5 87.77088607594938
95.0 87.37088607594939
97.5 87.07088607594937
100.0 86.87088607594939
103.0 86.77088607594938
106.0 86.77088607594938
109.0 86.87088607594939
112.0 87.07088607594937
115.0 87.1708860759494
118.0 87.1708860759494
122.0 87.1708860759494
125.0 87.1708860759494
128.0 87.07088607594937
132.0 86.97088607594938
136.0 86.87088607594939
140.0 86.67088607594938
145.0 86.57088607594937
150.0 86.57088607594937
155.0 86.57088607594937
160.0 86.57088607594937
165.0 86.57088607594937
170.0 86.57088607594937
175.0 86.47088607594938
180.0 86.27088607594938
185.0 85.97088607594938
190.0 85.67088607594938
195.0 85.37088607594939
200.0 84.97088607594938
206.0 84.87088607594939
212.0 84.77088607594936
218.0 84.97088607594938
224.0 84.97088607594938
230.0 85.07088607594937
236.0 85.07088607594937
240.0 84.97088607594938
250.0 84.97088607594938
258.0 84.97088607594938
265.0 85.07088607594937
272.0 85.07088607594937
280.0 85.17088607594938
290.0 85.17088607594938
300.0 85.27088607594938
307.0 85.17088607594938
315.0 85.07088607594937
325.0 84.97088607594938
335.0 84.77088607594936
345.0 84.6708860759494
355.0 84.57088607594937
365.0 84.57088607594937
375.0 84.77088607594936
387.0 84.87088607594939
400.0 84.97088607594938
412.0 84.97088607594938
425.0 84.77088607594936
437.0 84.57088607594937
450.0 84.57088607594937
462.0 84.57088607594937
475.0 84.57088607594937
487.0 84.87088607594939
500.0 85.27088607594938
515.0 85.67088607594938
530.0 86.17088607594937
545.0 86.37088607594939
560.0 86.37088607594939
580.0 86.27088607594938
600.0 86.17088607594937
615.0 85.97088607594938
630.0 85.77088607594939
650.0 85.57088607594937
670.0 85.47088607594938
690.0 85.47088607594938
710.0 85.57088607594937
730.0 85.57088607594937
750.0 85.57088607594937
775.0 85.37088607594939
800.0 85.37088607594939
825.0 85.47088607594938
850.0 85.37088607594939
875.0 85.27088607594938
900.0 84.77088607594936
925.0 84.47088607594938
950.0 83.97088607594938
975.0 83.67088607594937
1000.0 83.97088607594938
1030.0 84.07088607594937
1060.0 84.27088607594938
1090.0 84.47088607594938
1120.0 84.27088607594938
1150.0 84.17088607594938
1180.0 84.47088607594938
1220.0 85.17088607594938
1250.0 85.57088607594937
1280.0 85.57088607594937
1320.0 85.27088607594938
1360.0 84.57088607594937
1400.0 83.97088607594938
1450.0 83.67088607594937
1500.0 83.27088607594939
1550.0 82.87088607594939
1600.0 82.57088607594937
1650.0 82.37088607594939
1700.0 82.47088607594938
1750.0 82.57088607594937
1800.0 82.57088607594937
1850.0 82.77088607594938
1900.0 82.87088607594939
1950.0 83.17088607594938
2000.0 83.17088607594938
2060.0 82.97088607594938
2120.0 83.17088607594938
2180.0 83.57088607594937
2240.0 84.07088607594937
2300.0 84.37088607594939
2360.0 84.37088607594939
2400.0 84.47088607594938
2500.0 84.6708860759494
2580.0 84.6708860759494
2650.0 85.27088607594938
2720.0 85.37088607594939
2800.0 85.27088607594938
2900.0 85.17088607594938
3000.0 84.97088607594938
3070.0 84.97088607594938
3150.0 84.6708860759494
3250.0 84.37088607594939
3350.0 83.97088607594938
3450.0 83.67088607594937
3550.0 83.57088607594937
3650.0 83.77088607594938
3750.0 83.77088607594938
3870.0 83.67088607594937
4000.0 84.27088607594938
4120.0 84.6708860759494
4250.0 85.37088607594939
4370.0 85.77088607594939
4500.0 85.17088607594938
4620.0 84.87088607594939
4750.0 84.37088607594939
4870.0 84.27088607594938
5000.0 84.07088607594937
5150.0 84.07088607594937
5300.0 84.27088607594938
5450.0 84.47088607594938
5600.0 84.77088607594936
5800.0 85.17088607594938
6000.0 85.17088607594938
6150.0 84.27088607594938
6300.0 83.17088607594938
6500.0 82.27088607594936
6700.0 82.1708860759494
6900.0 83.27088607594939
7100.0 84.6708860759494
7300.0 85.37088607594939
7500.0 84.77088607594936
7750.0 83.97088607594938
8000.0 83.07088607594937
8250.0 83.27088607594939
8500.0 84.17088607594938
8750.0 84.97088607594938
9000.0 85.67088607594938
9250.0 84.87088607594939
9500.0 83.57088607594937
9750.0 83.77088607594938
10000.0 84.57088607594937
10300.0 85.47088607594938
10600.0 85.57088607594937
10900.0 83.47088607594938
11200.0 83.87088607594939
11500.0 83.97088607594938
11800.0 86.77088607594938
12200.0 85.27088607594938
12500.0 84.27088607594938
12800.0 84.37088607594939
13200.0 87.1708860759494
13600.0 86.17088607594937
14000.0 85.27088607594938
14500.0 85.87088607594939
15000.0 87.07088607594937
15500.0 83.87088607594939
16000.0 81.87088607594939
16500.0 84.77088607594936
17000.0 81.87088607594939
17500.0 83.57088607594937
18000.0 86.57088607594937
18500.0 84.27088607594938
19000.0 84.6708860759494
19500.0 84.87088607594939
