Freq "Listening Window"
22.4 13.82074469445844
23.0 16.90192199987557
23.6 20.799239635949007
24.0 21.830140390506855
25.0 22.87631390355476
25.8 24.545783632378644
26.5 26.07050006575666
27.2 27.644080450285955
28.0 28.834419532382086
29.0 29.795824419472197
30.0 30.82803248689713
30.7 33.542931410352665
31.5 36.02046459031247
32.5 38.1171267095247
33.5 39.3686090697001
34.5 40.578329017719156
35.5 41.81734946549993
36.5 43.60505794485026
37.5 45.54886465106337
38.7 47.4986495535688
40.0 48.84265797544701
41.2 50.23528291392721
42.5 51.628571014349845
43.7 53.215601338845815
45.0 55.26210201116102
46.2 57.031152655664
47.5 58.26245331064963
48.7 59.468363614850645
50.0 60.89142018601025
51.5 62.2678493355353
53.0 63.50160927483738
54.5 64.76784933553532
56.0 66.11280452020216
58.0 67.40109891757996
60.0 68.37938831314837
61.5 69.16784933553531
63.0 69.73536789692034
65.0 70.38118352183234
67.0 70.91407121073067
69.0 71.29315791174706
71.0 71.63791109447128
73.0 71.85984724378523
75.0 71.95984724378523
77.5 72.0046358692106
80.0 72.18268671292999
82.5 72.28268671293
85.0 72.44825014309134
87.5 72.59139662722333
90.0 72.7026181957119
92.5 72.92397098064363
95.0 73.24621813619387
97.5 73.48014598862513
100.0 73.60261819571191
103.0 73.70463586921062
106.0 73.80842617819278
109.0 73.90018799345155
112.0 74.09669076332767
115.0 74.29315791174706
118.0 74.52397098064365
122.0 74.61407121073066
125.0 74.50842617819278
128.0 74.43398767226378
132.0 74.41218673094615
136.0 74.39266395716345
140.0 74.35722697916562
145.0 74.26139416440662
150.0 74.16139416440663
155.0 74.20712829207825
160.0 74.17037358864611
165.0 74.05906828555639
170.0 73.83888884595628
175.0 73.51612484557472
180.0 73.33299402942605
185.0 73.37350041214569
190.0 73.48061108542827
195.0 73.43973070906831
200.0 73.31444110673024
206.0 73.21169492378583
212.0 73.25678775394877
218.0 73.41444110673024
224.0 73.60879917676165
230.0 73.79238997202104
236.0 73.8688001653699
240.0 73.79679106348675
250.0 73.69679106348674
258.0 73.68502412361622
265.0 73.78502412361622
272.0 73.8207741794891
280.0 73.73860463543318
290.0 73.65678775394876
300.0 73.66890683126685
307.0 73.60837466603547
315.0 73.82532191920329
325.0 74.00837466603548
335.0 74.18318596441884
345.0 74.09174904138125
355.0 74.11447622683886
365.0 74.3121423393966
375.0 74.21501250003736
387.0 73.96043625056969
400.0 73.50542361690576
412.0 73.16257774425021
425.0 72.86681676223269
437.0 72.8643696478438
450.0 73.21850412245861
462.0 73.32398421848532
475.0 73.33334940193693
487.0 73.48348234013477
500.0 73.82250116331646
515.0 74.25955928395534
530.0 74.49549147119727
545.0 74.31196081862687
560.0 74.38681226409282
580.0 74.30100364365656
600.0 73.80100364365656
615.0 72.85246093291866
630.0 72.10182631283706
650.0 72.31757866272906
670.0 72.80851324125358
690.0 73.10606019069924
710.0 73.41149764081193
730.0 74.43897581789544
750.0 75.06099878375032
775.0 74.48553857280562
800.0 74.09612444803723
825.0 74.7035195155047
850.0 75.10060778325415
875.0 75.04205297786534
900.0 75.5165585622898
925.0 75.82197769453605
950.0 75.92753317591061
975.0 75.84678650155249
1000.0 75.70848600537322
1030.0 75.38259809927364
1060.0 75.05731174782615
1090.0 74.75381763838172
1120.0 74.68054644907612
1150.0 74.39090083554639
1180.0 74.06681211570637
1220.0 74.1711158220112
1250.0 74.49085286171614
1280.0 74.84221623195766
1320.0 75.82596880742621
1360.0 76.75813966876541
1400.0 76.97981710515373
1450.0 76.70973073005295
1500.0 76.10426334939878
1550.0 75.75599831972377
1600.0 75.1503633700383
1650.0 75.79171149719798
1700.0 76.1768531369646
1750.0 76.90910338996612
1800.0 76.40405857240505
1850.0 75.42168152045102
1900.0 75.51554406525572
1950.0 76.66493678883654
2000.0 76.81590877623837
2060.0 76.88387685598804
2120.0 76.59328493659055
2180.0 76.73171164165522
2240.0 76.83436976135404
2300.0 76.9450338780429
2360.0 77.18042412430135
2400.0 77.35831451752138
2500.0 77.05944735594178
2580.0 76.84538239750054
2650.0 77.00677016161431
2720.0 77.08108929176201
2800.0 76.89187593833493
2900.0 77.04321357828876
3000.0 77.09430432656471
3070.0 77.4111265102682
3150.0 78.20284293074258
3250.0 78.58964953570846
3350.0 78.94544206706962
3450.0 78.64694030385942
3550.0 78.07418982372029
3650.0 77.48041489445228
3750.0 77.58907953786398
3870.0 77.74853074438839
4000.0 78.25314491363825
4120.0 78.8132392704019
4250.0 78.21066305216816
4370.0 77.39941107968029
4500.0 78.0292411645032
4620.0 79.29113308431484
4750.0 79.67151689809815
4870.0 79.06558752425893
5000.0 78.74868428270436
5150.0 79.12068793244462
5300.0 78.95296200846298
5450.0 79.2234950468684
5600.0 79.35253722176711
5800.0 78.6446700743716
6000.0 77.82527393576562
6150.0 77.51489216730359
6300.0 77.38222872229528
6500.0 77.64464712017484
6700.0 76.86603038940198
6900.0 78.1784270196031
7100.0 77.930219667796
7300.0 77.6894618548287
7500.0 78.14367102437755
7750.0 77.36344719112273
8000.0 76.55380644792325
8250.0 76.01935375270594
8500.0 75.76950420267679
8750.0 75.59191575918886
9000.0 75.9552688491661
9250.0 76.3041810303499
9500.0 75.8111006162091
9750.0 76.11761835991491
10000.0 74.20022838275685
10300.0 73.0362835881897
10600.0 75.02467374394877
10900.0 76.92340246544704
11200.0 78.2591982106838
11500.0 77.21893207601899
11800.0 78.03407872538918
12200.0 78.37827673607913
12500.0 75.19449333022105
12800.0 73.01940249404568
13200.0 75.67497864980561
13600.0 76.36738988036456
14000.0 75.71709744869116
14500.0 75.35952560761855
15000.0 75.4773219993546
15500.0 74.892989751768
16000.0 77.00017053095684
16500.0 75.75770064149005
17000.0 71.71279896915912
17500.0 66.62495538604661
18000.0 68.74315390585856
18500.0 64.23199325680415
19000.0 61.08220438765137
19500.0 56.32990142389403
