Freq,Floor Bounce,Ceiling Bounce,Front Wall Bounce,Side Wall Bounce,Rear Wall Bounce,Total Early Reflection
22.4,-144.20000000000005,-144.6992325055444,-144.32919997707103,-144.56019289851662,-145.143968287691,-144.57427177467628
23.0,-143.3330781488395,-143.7992325055444,-143.46236662751323,-143.65001526224967,-144.13292376264627,-143.66667947016055
23.6,-142.06641017312,-142.6992325055444,-142.31053871213135,-142.4652065059156,-142.7844824587986,-142.457317661815
24.0,-141.16641017311997,-141.76641017312,-141.39539584673378,-141.56335571556446,-141.85733109390662,-141.5425507568031
25.0,-140.1330781488395,-140.79923250554435,-140.38064851113944,-140.55237082321548,-140.8132856749865,-140.5280083903778
25.8,-139.26641017312,-139.96641017312004,-139.51053871213134,-139.6923503630615,-140.008528526784,-139.67983568681814
26.5,-138.53307814883948,-139.2992325055444,-138.81053871213135,-139.02793865638847,-139.33464132719274,-138.9905060294426
27.2,-137.6992325055444,-138.4992325055444,-138.01053871213134,-138.2021957167617,-138.51439357168329,-138.17411726570242
28.0,-136.76641017312,-137.59923250554436,-137.0548990652718,-137.26054078725184,-137.53084977545365,-137.23143135802763
29.0,-135.59923250554442,-136.39923250554438,-135.89607625443222,-136.0913642448064,-136.36477176166528,-136.0597484390567
30.0,-134.6992325055444,-135.4992325055444,-134.95361150888925,-135.16953128122344,-135.4446119734127,-135.14280607857597
30.7,-133.83307814883955,-134.53230478694707,-134.08198937993575,-134.289292780359,-134.56477176166527,-134.25143684530076
31.5,-132.96641017312004,-133.665648591315,-133.19640492506107,-133.42710268611336,-133.70096021608117,-133.38224809705997
32.5,-132.03307814883948,-132.6992325055444,-132.23866550158186,-132.49561060738807,-132.76417040985802,-132.43732108413514
33.5,-131.1330781488395,-131.76641017312,-131.3237707537856,-131.56274514210344,-131.8074599807698,-131.51097487477944
34.5,-130.36641017312002,-130.9992325055444,-130.55229435651063,-130.79399894597753,-131.0704428545211,-130.74831718382393
35.5,-129.6330781488395,-130.2992325055444,-129.8237707537856,-130.0898735716935,-130.34293140252788,-130.0291227420975
36.5,-128.83307814883955,-129.4992325055444,-129.02377075378564,-129.3093780050977,-129.5622051276627,-129.2365452474723
37.5,-127.99999999999999,-128.59923250554436,-128.13735287363647,-128.42458608682404,-128.68225931964696,-128.36073396544737
38.7,-127.20000000000003,-127.7992325055444,-127.3503634701547,-127.63260293873257,-127.88833060403248,-127.56617807092896
40.0,-126.60000000000001,-127.23154916194567,-126.75036347015468,-127.06210928100352,-127.30375979186248,-126.98095822446776
41.2,-126.20000000000003,-126.7992325055444,-126.29057821323379,-126.59620794713065,-126.86339757133457,-126.5417517076762
42.5,-125.70000000000003,-126.2992325055444,-125.82019886982663,-126.15326864480663,-126.3875151055668,-126.06372568890622
43.7,-125.20000000000003,-125.83154916194569,-125.29057821323373,-125.65029720379106,-125.92609504609077,-125.57009014141134
45.0,-124.66641017312007,-125.2992325055444,-124.76434796999858,-125.14179338388611,-125.42008932475652,-125.04830220870683
46.2,-124.20000000000003,-124.83154916194569,-124.29057821323373,-124.68105363194387,-124.95912007944604,-124.58218645574628
47.5,-123.83307814883953,-124.43154916194565,-123.89057821323375,-124.32547878858945,-124.64250270949451,-124.2132793513674
48.7,-123.56641017312005,-124.16486940822016,-123.61764191466811,-124.06240022981756,-124.42074203898515,-123.95405779617924
50.0,-123.36641017312,-123.9969304289575,-123.38768713491946,-123.87568019133305,-124.27259085442368,-123.76550736640307
51.5,-123.0992325055444,-123.76486940822018,-123.13024063229913,-123.63593631041287,-124.06003212314077,-123.52213918563739
53.0,-122.83307814883948,-123.4969304289575,-122.8572630899324,-123.34970452958679,-123.81337179556162,-123.253669392145
54.5,-122.5992325055444,-123.19693042895749,-122.55726308993239,-123.1009192723211,-123.50234693466136,-122.9762129285729
56.0,-122.39923250554442,-122.9969304289575,-122.3572630899324,-122.92025486168755,-123.27423951847571,-122.77496616485938
58.0,-122.33154916194569,-122.86336424332818,-122.24264445817361,-122.83571802558247,-123.24169847919073,-122.68729635316042
60.0,-122.23154916194567,-122.79693042895751,-122.12872955882959,-122.77328953651407,-123.2457781940547,-122.61605910709652
61.5,-122.1315491619457,-122.7284919921306,-121.98256722169309,-122.74833502906334,-123.31083259002024,-122.55424593435019
63.0,-121.9969304289575,-122.62849199213063,-121.86786331042639,-122.65683575914157,-123.34852360920057,-122.4676410904713
65.0,-121.79693042895745,-122.42849199213065,-121.66786331042634,-122.5064163164664,-123.29320111856701,-122.30043830482525
67.0,-121.76336424332816,-122.29309498964538,-121.5212853630254,-122.38155336970395,-123.23853910442311,-122.19993007121967
69.0,76.53513059177983,75.6069050103546,76.553148571074,75.68350862963145,74.91665237789333,75.90283240560312
71.0,76.60306957104252,75.64283030471972,76.66645101402317,75.7352580306725,74.93772650331262,75.96490036648578
73.0,76.70306957104252,75.70690501035459,76.75314857107402,75.80038806307343,75.01030232504448,76.04418063781087
75.0,76.83663575667187,75.81227178315618,76.86645101402316,75.92317745361663,75.14413237184341,76.16577490823634
77.5,76.90306957104251,75.9122717831562,77.02567982240602,75.99263863667615,75.21817920127563,76.26213802191059
80.0,77.00306957104253,76.01227178315618,77.14069714428086,76.04816541560045,75.25083259107578,76.34687176291713
82.5,77.17150800786939,76.11227178315617,77.31343491025892,76.09793817122099,75.23467271469218,76.45339076729506
85.0,77.27150800786939,76.1489851487955,77.41343491025891,76.09761882378578,75.17566491562597,76.49958140678687
87.5,77.37609175449222,76.11916705502753,77.5854634563061,76.0961003333536,74.95581500817369,76.53070541616174
90.0,77.50690501035459,76.18982856673472,77.69866743582993,76.09045151572397,74.24741558935911,76.51315456333195
92.5,77.57609175449221,76.22758719283591,77.75915357776027,76.12868799367708,73.21833565476429,76.45150867728672
95.0,77.60690501035458,76.32758719283594,77.78613120935624,76.22192187573616,72.60529308121748,76.44923390769182
97.5,77.5404416794549,76.41916705502754,77.72849455971726,76.40077377822148,73.16634960779311,76.51797187484748
100.0,77.50690501035459,76.57609175449223,77.71444170516426,76.64356377433991,74.3716682966008,76.70978001785666
103.0,77.60690501035458,76.61227178315617,77.84385112334901,76.8285839514065,75.23709536215722,76.9181924840811
106.0,77.9404416794549,76.71916705502754,78.17405579439144,76.92947094022912,75.42691329778906,77.14485988886248
109.0,78.30986628672329,76.82758719283592,78.57405579439146,77.02714312299491,75.27849580051034,77.35746067165691
112.0,78.6760917544922,77.09897445130925,78.97338618194904,77.23967165532015,75.26140601144026,77.6416505887027
115.0,79.0457671943847,77.37082970284298,79.30143527884006,77.52261856079488,75.29731495280366,77.92942935151197
118.0,79.34576719438469,77.63752777300029,79.60143527884007,77.84958390267651,75.25547593120373,78.19250064268402
122.0,79.54576719438468,77.89897445130926,79.8288447224094,78.1485395659276,75.1630925596689,78.40073301661702
125.0,79.74576719438468,78.07082970284299,80.01343491025892,78.35853164673635,75.18969389465498,78.57715272215302
128.0,79.84576719438469,78.13752777300027,80.10143527884006,78.44031970801505,75.3154613737987,78.66681276769246
132.0,79.88219967332303,78.20963256681621,80.20373903532824,78.48457201305963,75.43186270058884,78.73687462366688
136.0,79.98219967332305,78.23752777300028,80.33422299219573,78.61662916142934,75.38295863027693,78.82516282544623
140.0,80.08219967332303,78.33752777300028,80.41918322803824,78.76998640449513,75.24928559035813,78.91052552636829
145.0,80.08219967332303,78.4096325668162,80.45915357776026,78.83954578732532,75.2917407782542,78.95169029319976
150.0,80.08219967332303,78.33752777300028,80.44727977717086,78.82558674594124,75.53115187663185,78.95418754885529
155.0,79.95260953202218,78.1096325668162,80.42255294462024,78.67232653426852,75.7686985658929,78.86770705126538
160.0,79.92349685065979,77.78888547155005,80.38701524287636,78.38594814964982,75.79811539327338,78.74642237915101
165.0,79.96096514237182,77.50265450340339,80.42318650162237,78.09395183962933,75.68049044530754,78.65780162141554
170.0,80.13257218046557,77.5179278976485,80.59994880509885,77.97095667260359,75.48781227348388,78.72083412692152
175.0,80.33257218046558,77.7672655885961,80.86628618678077,77.99669706428767,75.2491623248068,78.88039539664072
180.0,80.56096514237183,78.14258273663015,81.11539627082226,78.2219200467674,74.93489191718335,79.09371975450351
185.0,80.66096514237182,78.36726558859611,81.22620160320888,78.57323034297568,74.56894044910288,79.22578800208413
190.0,80.66096514237182,78.42526453928849,81.28081701880137,78.86626513654096,74.25128547124518,79.28361205657212
195.0,80.57082970284299,78.22526453928847,81.26155128320973,79.04565865977938,74.13108753435134,79.24661528008451
200.0,80.34314826109436,78.00982855556755,81.26155128320973,79.1205650184922,74.1363092787625,79.16723841521663
206.0,80.28219812790056,77.86136837622763,81.29233175487757,79.11207922615641,74.11417435258366,79.13583731120383
212.0,80.35521969308378,77.86136837622763,81.32689466348619,79.11950235416735,73.99992543283771,79.16072727913226
218.0,80.4950645803583,78.00497668676807,81.49191026034482,79.15765807722339,73.84825356533209,79.27225673033443
224.0,80.62869245367796,78.20497668676808,81.65654486975164,79.26665497129157,73.66469889902011,79.40392028920026
230.0,80.82869245367796,78.36136837622763,81.79634279537467,79.36329732198008,73.51817738513091,79.53921037646144
236.0,80.99506458035829,78.38538710465899,81.86660878581203,79.39095774011902,73.34278285597449,79.60853193837939
240.0,80.99506458035829,78.20982855556757,81.78218534804516,79.283921425266,73.18613913927281,79.52628562200118
250.0,80.7950645803583,77.83469773360899,81.50269450907562,79.01470460938398,73.00713673554593,79.26196571188312
258.0,80.42869245367797,77.25295536787779,81.13805347571807,78.59199783068432,72.82421233320936,78.8641094076081
265.0,80.20942248426019,76.61719474435358,80.95409714776697,78.20930769946034,72.77637150234618,78.58009558636391
272.0,80.27584607527146,76.28759923684217,81.22584099316592,77.94653761971767,72.92867814177531,78.61722852454656
280.0,80.8708338338135,74.96672073686061,81.64339465678383,77.06985746030746,72.77711991757259,78.6860471924412
290.0,80.94475297190878,73.86691728331715,81.7060192458131,76.19061795447678,71.72193591315836,78.49101036228038
300.0,80.65671344964049,72.58583713932596,81.31442305029385,75.38511939594808,70.20602404070037,77.99131256805303
307.0,80.10483255371187,71.07096325109015,80.64191794356672,74.27621441017848,68.87496566582105,77.25347981066382
315.0,79.77283899448726,68.78556617708726,79.96667298652014,73.0401565059826,68.27168958921756,76.60020521897938
325.0,80.08866490030833,64.34686547290103,79.35116836484895,72.81482157130925,67.63382869208938,76.35131727077389
335.0,80.12235821714528,61.28134835276019,79.34721398399554,72.6789404027453,67.27571752205444,76.316790714823
345.0,80.13248601826457,64.75452704753104,79.25506370778984,73.96031963414801,66.70533132991481,76.43249860610233
355.0,80.38401608284236,66.5986252174199,79.457753091671,74.236396835733,66.52506738908177,76.68560144866278
365.0,80.52566031429832,68.82597437627054,79.17447930381842,74.18654386169453,66.55130310151876,76.70112752425945
375.0,80.20663873427829,72.60703247028057,78.67590901232903,73.92714055088248,66.24710221812022,76.54630077670711
387.0,79.96348032238099,73.81852635130015,78.20559944803506,73.68216380836864,66.12693765842752,76.37196333323102
400.0,79.38098490550679,75.4760917544922,77.72771348518134,73.65799703436754,65.97909789027291,76.20015931749613
412.0,78.87244826645843,75.7053180676647,77.49679524160099,72.85487868892056,65.57433667216243,75.87557910472775
425.0,79.03513059177983,75.40464502318535,77.53869168081305,72.6479897144233,65.2946727207955,75.872834533915
437.0,79.63752777300029,75.00034112939828,77.4002410140595,72.65683962559142,65.09818989934364,76.02594483212417
450.0,79.9281210048995,74.92643297742508,76.86269297768915,72.12956397200533,65.179182643829,75.9689049220285
462.0,79.9708338338135,74.92457993687897,76.03218199151804,70.9245921613699,65.14814668729258,75.7091731003655
475.0,79.72585044351925,74.63753193576905,75.07642515445599,69.70928251219244,64.62377273856492,75.24810817970825
487.0,79.53392832814568,74.12812100489948,74.35342381439956,68.66079000551521,64.14775986958192,74.85405681502328
500.0,79.80261155895364,73.60962251076207,74.22566436382569,68.2616511519116,64.22884246071017,74.89463341733311
515.0,80.58652064166793,73.4361070797735,74.72857449879848,68.90820273539848,64.6484375424901,75.4880754971434
530.0,81.32179599023938,73.49780984381856,75.421016236932,69.90175108904656,64.80898783454606,76.14043230079392
545.0,81.51832613468224,73.70330383828929,75.83564207486128,70.40741369991801,64.16594260447035,76.37963144437293
560.0,81.04511556931756,73.52526453928849,75.87911490223775,70.36366765244362,63.19369537766741,76.05094980246464
580.0,80.38493492460849,72.68382334167596,75.8663236534383,70.30324777584042,62.149132799493046,75.53366523279898
600.0,79.7441577493485,71.19179815677408,75.95147588371924,70.4188448921926,60.93336277811353,75.02584077312382
615.0,79.07449351030438,69.81378996755589,75.76551196023284,70.40228317104167,59.608174545627136,74.471265855363
630.0,78.57977745790568,69.23131741555754,75.35656177371027,70.18495358459214,58.36435056000012,74.01175540399856
650.0,78.31592692226707,68.81798740949019,74.90415267976103,69.98735689678279,57.91969925299999,73.69203974801043
670.0,78.47977745790568,67.94229207642539,74.76688318784029,70.10538202961673,58.77583875748253,73.71666520322088
690.0,79.03964531976001,66.80524403428,75.0690101242043,70.6100564742507,60.37673095464142,74.13907676933708
710.0,79.63821129888743,66.26949218884523,75.5733398568883,71.28000197871229,61.618097353230056,74.68960597327433
730.0,79.97001488257477,66.62330268140094,75.99942293182198,71.83113801012506,61.77495510298402,75.06402807884722
750.0,80.14044167945492,66.88343461029551,76.295321329403,72.28677309602769,61.325740759458014,75.29085201531431
775.0,80.25017075212573,66.0137899675559,76.50838785263063,72.65671356977815,60.83257929820776,75.42390912580893
800.0,80.29238562216104,64.48681963215334,76.56078004667151,72.87063869493468,60.42120024094737,75.45408255572966
825.0,80.27383110211923,63.266125019512074,76.55557646695387,72.80028820974458,59.860038502350676,75.4132302524912
850.0,80.24680047887706,62.646453490870215,76.48672339854237,72.52855057513413,59.39453769111462,75.33997152909723
875.0,80.18239860760774,61.63963019565519,76.48764728011773,72.2963816442841,59.43632450852178,75.26690905812096
900.0,80.11852635130015,59.43818451355057,76.6139316586015,72.36239435340535,59.80748396414543,75.2552657343008
925.0,80.15518710397394,56.83652759863698,76.72227817460765,72.4334881741511,60.20795140974555,75.30702212771817
950.0,80.05603736524559,54.94268308191046,76.53142096048346,72.22500664377964,59.90455606298727,75.16597296672596
975.0,80.03268615537793,54.49194416356771,76.24379833967026,71.83794803271172,58.898870973951404,75.02947818268424
1000.0,80.06803106656234,55.80393928472863,76.32979499755905,71.86068369380017,58.242648156477244,75.07658251517948
1030.0,80.1361070797735,58.228128337082836,76.92979499755906,72.42088929241056,58.33515399607357,75.34805158769642
1060.0,80.28759923684218,60.16466314161461,77.88980656947531,73.33129372998512,59.21297169582782,75.83807223538399
1090.0,80.46497174328421,60.328665605279355,78.75136306860567,74.17681645049986,60.04140750268125,76.32587491920775
1120.0,80.0966525278081,58.99405145179192,79.07037566921483,74.34796730609946,59.874537032145625,76.27283865090031
1150.0,79.21721049921987,57.39374553979276,79.11172539377426,74.10097697870215,58.82171758003345,75.84399803459202
1180.0,78.02404759789094,56.12415619908758,78.82294809105099,73.35499800255091,57.126927446745626,75.11304408582234
1220.0,76.4599427951302,56.6096325668162,78.22039678564055,72.19087213227618,55.41032319829894,74.08258001487384
1250.0,75.23149824232536,58.13079337118232,77.73503997323259,71.09240995866054,53.94563806920563,73.28272914592337
1280.0,74.7842853103743,58.5582277076668,77.24983929952855,70.13302393866027,52.88197262711519,72.76000314853333
1320.0,75.03979099609552,59.47010987615202,77.1468538971753,69.7539259992681,52.49184298923397,72.75394549336121
1360.0,75.54875038436586,60.65131759580825,77.18882708288334,69.761266737401,52.08075288874046,72.96736114194033
1400.0,76.23880349000402,60.332572180465576,77.44660347700987,70.1990062902692,51.90369659244742,73.39695965111922
1450.0,77.04398373334426,58.205665074741134,77.62000304294496,70.65105878622498,51.6555138253736,73.8332627175796
1500.0,77.50971850821644,55.58894610108875,77.58590364557277,70.91117964463105,51.91098529926403,74.03358921372852
1550.0,77.51742555847723,54.02673277112048,77.26632439309071,70.79535224404025,52.09034115178726,73.88004999802065
1600.0,77.29522328534448,55.05218445042321,76.82914859603358,70.5365367405112,51.70789844102042,73.5645681942078
1650.0,77.1291409815626,57.49813951615853,76.63564480912574,70.5184822668543,50.94172452609406,73.41122960428714
1700.0,77.13608842191849,60.157401967128195,76.72504790658708,70.86138785709603,50.77644486382492,73.50668228823554
1750.0,77.06001078363336,62.69996104206953,77.0337610724846,71.30165263440362,50.78974517867802,73.6848287812378
1800.0,76.89713500822783,64.7756958151824,77.43280386388146,71.54158048282635,50.128672888783356,73.86262404262206
1850.0,76.51834399736175,65.78444762363009,77.71672971373022,71.5800095361086,49.831216535395654,73.88248933056086
1900.0,76.38481481945334,65.49430744544665,77.63177796218339,71.41427339972668,49.40721006286488,73.76379212765768
1950.0,76.38577255446926,64.02285902893766,77.31898496788567,71.20133067950182,49.38467245108582,73.55052132581451
2000.0,76.69915287516717,62.450170752125715,77.1193281891286,71.25585987992764,50.58719974626037,73.56044897499358
2060.0,77.16700472518416,61.6735496620026,77.3557000946628,71.74219851146307,50.886367356678775,73.90964024737958
2120.0,77.43917445440232,61.637813404178516,77.57155565482883,72.0453930090338,51.10625021323382,74.15717403321459
2180.0,76.94133545707508,61.90348581491061,77.1930282730086,71.63179882362088,50.74189090856838,73.73177454850362
2240.0,75.86319866652691,62.24127727300389,76.53207477174949,70.88362146182847,49.81432028095507,72.90494692241573
2300.0,75.19628374205206,62.891264909729145,76.36264712636356,70.69573661602625,49.41231964898368,72.55915080908109
2360.0,75.16691728331715,63.65336093747689,76.70621034115187,71.29921137166032,49.75882277607381,72.8150261740884
2400.0,75.28076305060014,64.0213420467888,77.09044363353323,71.7889947580411,50.487341925176494,73.12353031446959
2500.0,74.98305499081518,63.52092431887674,76.91901635489575,71.49382489655721,50.81153275034764,72.88552493369754
2580.0,74.6931644598768,61.86045298924827,76.55937959077515,70.94586711524352,50.59495641241945,72.49598139325265
2650.0,74.88947797533699,59.12584437283688,76.33272036035585,70.58509103825229,49.983377308155056,72.36377112398836
2720.0,75.23929799453647,56.34123053036839,76.17151367029871,70.48260772714542,49.6908718966052,72.38184756899602
2800.0,75.22991305380788,55.603069571042525,75.82553285197008,70.32948750212336,49.3763450458146,72.19182227863138
2900.0,74.78951846766061,56.86336865784946,75.4170752049556,70.16836914447914,48.89163500100058,71.81245665727728
3000.0,74.33499040488627,58.58407839372549,75.09354226333048,70.04914841187488,48.77589814055425,71.48327403782046
3070.0,74.19697953590239,59.78177997241296,74.97581699023172,69.99849987174389,48.64132052240096,71.38316908666194
