Freq "Ceiling Bounce"
22.4 -142.82708060681017
23.0 -141.9270806068102
23.6 -140.8270806068101
24.0 -139.89425827438583
25.0 -138.92708060681014
25.8 -138.09425827438588
26.5 -137.4270806068102
27.2 -136.62708060681018
28.0 -135.7270806068102
29.0 -134.52708060681016
30.0 -133.62708060681024
30.7 -132.66015288821285
31.5 -131.7934966925808
32.5 -130.82708060681017
33.5 -129.89425827438583
34.5 -129.12708060681018
35.5 -128.4270806068102
36.5 -127.62708060681017
37.5 -126.72708060681019
38.7 -125.92708060681018
40.0 -125.3593972632115
41.2 -124.92708060681018
42.5 -124.42708060681018
43.7 -123.95939726321147
45.0 -123.42708060681018
46.2 -122.95939726321147
47.5 -122.5593972632115
48.7 -122.292717509486
50.0 -122.12477853022328
51.5 -121.89271750948596
53.0 -121.62477853022328
54.5 -121.32477853022333
56.0 -121.12477853022328
58.0 -120.99121234459396
60.0 -120.92477853022329
61.5 -120.85634009339644
63.0 -120.75634009339642
65.0 -120.55634009339643
67.0 -120.42094309091122
69.0 77.4790569090888
71.0 77.51498220345395
73.0 77.57905690908879
75.0 77.68442368189038
77.5 77.7844236818904
80.0 77.88442368189038
82.5 77.98442368189038
85.0 78.0211370475297
87.5 77.99131895376173
90.0 78.06198046546892
92.5 78.09973909157011
95.0 78.19973909157014
97.5 78.29131895376175
100.0 78.44824365322641
103.0 78.48442368189039
106.0 78.59131895376174
109.0 78.69973909157012
112.0 78.97112635004346
115.0 79.24298160157718
118.0 79.50967967173449
122.0 79.77112635004346
125.0 79.94298160157719
128.0 80.00967967173447
132.0 80.0817844655504
136.0 80.10967967173447
140.0 80.20967967173448
145.0 80.2817844655504
150.0 80.20967967173448
155.0 79.9817844655504
160.0 79.66103737028423
165.0 79.3748064021376
170.0 79.39007979638271
175.0 79.6394174873303
180.0 80.01473463536435
185.0 80.23941748733031
190.0 80.2974164380227
195.0 80.09741643802268
200.0 79.88198045430175
206.0 79.73352027496183
212.0 79.73352027496183
218.0 79.87712858550228
224.0 80.07712858550228
230.0 80.23352027496183
236.0 80.25753900339319
240.0 80.08198045430177
250.0 79.7068496323432
258.0 79.12510726661199
265.0 78.48934664308779
272.0 78.15975113557637
280.0 76.83887263559483
290.0 75.73906918205135
300.0 74.45798903806016
307.0 72.94311514982435
315.0 70.65771807582146
325.0 66.21901737163525
335.0 63.15350025149441
345.0 66.62667894626526
355.0 68.47077711615411
365.0 70.69812627500473
375.0 74.47918436901477
387.0 75.69067825003434
400.0 77.3482436532264
412.0 77.57746996639891
425.0 77.27679692191955
437.0 76.87249302813247
450.0 76.7985848761593
462.0 76.79673183561319
475.0 76.50968383450324
487.0 76.0002729036337
500.0 75.48177440949628
515.0 75.30825897850771
530.0 75.36996174255277
545.0 75.57545573702349
560.0 75.39741643802269
580.0 74.55597524041015
600.0 73.06395005550829
615.0 71.6859418662901
630.0 71.10346931429176
650.0 70.69013930822439
670.0 69.81444397515959
690.0 68.67739593301421
710.0 68.14164408757945
730.0 68.49545458013513
750.0 68.75558650902973
775.0 67.88594186629011
800.0 66.35897153088752
825.0 65.13827691824629
850.0 64.51860538960442
875.0 63.5117820943894
900.0 61.310336412284784
925.0 58.70867949737118
950.0 56.814834980644676
975.0 56.36409606230191
1000.0 57.676091183462844
1030.0 60.10028023581705
1060.0 62.03681504034883
1090.0 62.20081750401356
1120.0 60.866203350526135
1150.0 59.26589743852696
1180.0 57.996308097821796
1220.0 58.481784465550405
1250.0 60.00294526991652
1280.0 60.430379606401004
1320.0 61.342261774886225
1360.0 62.523469494542454
1400.0 62.20472407919978
1450.0 60.077816973475336
1500.0 57.46109799982297
1550.0 55.89888466985464
1600.0 56.9243363491574
1650.0 59.37029141489275
1700.0 62.0295538658624
1750.0 64.57211294080373
1800.0 66.6478477139166
1850.0 67.65659952236429
1900.0 67.36645934418085
1950.0 65.89501092767186
2000.0 64.3223226508599
2060.0 63.545701560736816
2120.0 63.50996530291272
2180.0 63.77563771364481
2240.0 64.1134291717381
2300.0 64.76341680846335
2360.0 65.52551283621108
2400.0 65.893493945523
2500.0 65.39307621761095
2580.0 63.732604887982475
2650.0 60.9979962715711
2720.0 58.213382429102595
2800.0 57.47522146977673
2900.0 58.735520556583666
3000.0 60.45623029245969
3070.0 61.653931871147165
3150.0 62.63076151045452
3250.0 63.45613139576005
3350.0 63.86897975920442
3450.0 63.67247252078016
3550.0 63.29617178509794
3650.0 63.07509334802141
3750.0 63.140552946003965
3870.0 63.548285898676895
4000.0 63.59029094022577
4120.0 63.13749378604942
4250.0 62.348326084868276
4370.0 61.250029958527335
4500.0 60.367194078294176
4620.0 59.535912627873316
4750.0 59.03004180905721
4870.0 58.70428347373628
5000.0 58.51689533494225
5150.0 57.891514367297205
5300.0 56.129922148052245
5450.0 54.050060729717856
5600.0 52.777831384456746
5800.0 52.92820348425066
6000.0 53.87219230732525
6150.0 53.76703044617982
6300.0 53.013068211916405
6500.0 53.61690487064298
6700.0 55.26645934418086
6900.0 56.51722384700146
7100.0 56.711177280247526
7300.0 56.67188992198412
7500.0 56.93484114279545
7750.0 57.20816734102061
8000.0 57.11562228902771
8250.0 55.718251657762394
8500.0 53.72916256450053
8750.0 52.9391361915098
9000.0 53.183061451708866
9250.0 53.19455099726538
9500.0 52.760727207486454
9750.0 53.15708682334271
10000.0 54.184618311348984
10300.0 54.05078833079678
10600.0 52.689105854826764
10900.0 51.24365990660358
11200.0 50.444600165192625
11500.0 50.2125935781891
11800.0 50.62737470769717
12200.0 51.347678660727794
12500.0 52.30254275681834
12800.0 52.390906884552706
13200.0 52.02829387719281
13600.0 52.465800953494195
14000.0 53.68033456086418
14500.0 54.55890075365538
15000.0 54.31180058803132
15500.0 53.395297725741
16000.0 52.640011986002676
16500.0 52.56295806463466
17000.0 52.432769989541285
17500.0 51.80324477973049
18000.0 51.55896610265593
18500.0 51.30991351247114
19000.0 50.70981629444897
19500.0 50.047465856887
