Freq "Floor Bounce"
22.4 -142.32784810126577
23.0 -141.46092625010533
23.6 -140.1942582743858
24.0 -139.2942582743858
25.0 -138.26092625010523
25.8 -137.39425827438583
26.5 -136.66092625010526
27.2 -135.8270806068101
28.0 -134.89425827438583
29.0 -133.7270806068102
30.0 -132.82708060681017
30.7 -131.96092625010527
31.5 -131.09425827438588
32.5 -130.16092625010532
33.5 -129.26092625010529
34.5 -128.49425827438586
35.5 -127.76092625010527
36.5 -126.96092625010526
37.5 -126.12784810126583
38.7 -125.32784810126581
40.0 -124.72784810126579
41.2 -124.32784810126581
42.5 -123.82784810126581
43.7 -123.32784810126581
45.0 -122.7942582743858
46.2 -122.32784810126581
47.5 -121.96092625010526
48.7 -121.69425827438583
50.0 -121.49425827438584
51.5 -121.22708060681019
53.0 -120.96092625010532
54.5 -120.72708060681019
56.0 -120.5270806068102
58.0 -120.45939726321147
60.0 -120.3593972632115
61.5 -120.25939726321148
63.0 -120.12477853022328
65.0 -119.92477853022329
67.0 -119.89121234459394
69.0 78.40728249051404
71.0 78.47522146977671
73.0 78.57522146977672
75.0 78.70878765540608
77.5 78.77522146977671
80.0 78.87522146977673
82.5 79.0436599066036
85.0 79.14365990660359
87.5 79.24824365322642
90.0 79.37905690908879
92.5 79.44824365322641
95.0 79.47905690908878
97.5 79.4125935781891
100.0 79.37905690908879
103.0 79.47905690908878
106.0 79.81259357818912
109.0 80.1820181854575
112.0 80.54824365322641
115.0 80.9179190931189
118.0 81.2179190931189
122.0 81.4179190931189
125.0 81.61791909311889
128.0 81.71791909311891
132.0 81.75435157205725
136.0 81.85435157205725
140.0 81.95435157205723
145.0 81.95435157205723
150.0 81.95435157205723
155.0 81.82476143075637
160.0 81.795648749394
165.0 81.83311704110602
170.0 82.00472407919978
175.0 82.20472407919978
180.0 82.43311704110603
185.0 82.53311704110602
190.0 82.53311704110602
195.0 82.44298160157719
200.0 82.21530015982854
206.0 82.15435002663476
212.0 82.22737159181798
218.0 82.3672164790925
224.0 82.50084435241216
230.0 82.70084435241216
236.0 82.86721647909249
240.0 82.86721647909249
250.0 82.6672164790925
258.0 82.30084435241217
265.0 82.08157438299439
272.0 82.14799797400566
280.0 82.74298573254771
290.0 82.81690487064299
300.0 82.52886534837471
307.0 81.97698445244608
315.0 81.64499089322148
325.0 81.96081679904253
335.0 81.99451011587948
345.0 82.00463791699877
355.0 82.25616798157658
365.0 82.39781221303251
375.0 82.07879063301249
387.0 81.83563222111519
400.0 81.253136804241
412.0 80.74460016519264
425.0 80.90728249051404
437.0 81.50967967173447
450.0 81.8002729036337
462.0 81.84298573254772
475.0 81.59800234225345
487.0 81.40608022687988
500.0 81.67476345768785
515.0 82.45867254040213
530.0 83.19394788897358
545.0 83.39047803341644
560.0 82.91726746805176
580.0 82.2570868233427
600.0 81.6163096480827
615.0 80.94664540903858
630.0 80.4519293566399
650.0 80.18807882100127
670.0 80.35192935663989
690.0 80.91179721849421
710.0 81.51036319762163
730.0 81.84216678130898
750.0 82.01259357818913
775.0 82.12232265085991
800.0 82.16453752089524
825.0 82.14598300085343
850.0 82.11895237761127
875.0 82.05455050634194
900.0 81.99067825003435
925.0 82.02733900270815
950.0 81.92818926397979
975.0 81.90483805411213
1000.0 81.94018296529653
1030.0 82.0082589785077
1060.0 82.15975113557637
1090.0 82.3371236420184
1120.0 81.96880442654232
1150.0 81.08936239795408
1180.0 79.89619949662514
1220.0 78.3320946938644
1250.0 77.10365014105956
1280.0 76.65643720910852
1320.0 76.91194289482972
1360.0 77.42090228310006
1400.0 78.11095538873822
1450.0 78.91613563207845
1500.0 79.38187040695064
1550.0 79.38957745721143
1600.0 79.1673751840787
1650.0 79.00129288029679
1700.0 79.00824032065269
1750.0 78.93216268236756
1800.0 78.76928690696204
1850.0 78.39049589609596
1900.0 78.25696671818754
1950.0 78.25792445320346
2000.0 78.57130477390137
2060.0 79.03915662391837
2120.0 79.31132635313652
2180.0 78.81348735580929
2240.0 77.73535056526113
2300.0 77.06843564078626
2360.0 77.03906918205135
2400.0 77.15291494933435
2500.0 76.85520688954938
2580.0 76.565316358611
2650.0 76.76162987407119
2720.0 77.11144989327067
2800.0 77.10206495254208
2900.0 76.66167036639482
3000.0 76.20714230362047
3070.0 76.06913143463659
3150.0 76.52165440228295
3250.0 77.21940798955059
3350.0 77.76031416529452
3450.0 77.9693088114231
3550.0 77.96349094568117
3650.0 77.94954482683626
3750.0 78.03837737481639
3870.0 78.28576453032609
4000.0 78.40660806991701
4120.0 78.3697538643376
4250.0 78.18641606342958
4370.0 78.00762561583907
4500.0 77.61939969404871
4620.0 77.0427983604353
4750.0 76.32793156550059
4870.0 75.63733557097483
5000.0 75.23906634237018
5150.0 75.26278130784728
5300.0 75.38536290246918
5450.0 75.70117278400772
5600.0 75.9401767762273
5800.0 75.86324101330877
6000.0 75.71754662623825
6150.0 75.31262267878414
6300.0 74.80028023581704
6500.0 74.19998941679466
6700.0 74.24353670759325
6900.0 74.5649556043705
7100.0 74.85725039250006
7300.0 75.2043733791643
7500.0 75.34651807660826
7750.0 74.80206147258565
8000.0 74.05743936630493
8250.0 73.36003874565826
8500.0 73.06037025036862
8750.0 73.50132079887304
9000.0 74.25263486871584
9250.0 74.48773283611764
9500.0 74.05232780556035
9750.0 73.6757949617923
10000.0 73.9896581909841
10300.0 74.73276473719451
10600.0 75.25842821080833
10900.0 75.31420696184732
11200.0 74.90070438790738
11500.0 74.0093099225359
11800.0 73.16904950777275
12200.0 73.44498677430639
12500.0 74.81234617559005
12800.0 75.32787300979895
13200.0 74.76898356033126
13600.0 74.19733974183374
14000.0 74.20354730941663
14500.0 74.43908094478586
15000.0 74.97212187742102
15500.0 75.41720829727531
16000.0 75.11655494087776
16500.0 73.94768499220162
17000.0 72.83496075292649
17500.0 72.45486463372096
18000.0 72.28679970135289
18500.0 71.70511701608918
19000.0 70.73440455023707
19500.0 69.80164913707164
