Freq "Estimated In-Room Response"
22.4 -6.742190369795239
23.0 -5.986100526175633
23.6 -4.941845954484151
24.0 -2.556304309230839
25.0 -0.6463434844221894
25.8 0.801456217972472
26.5 2.0616194806134303
27.2 3.090016511113461
28.0 4.090187793373374
29.0 4.987824700251949
30.0 6.002600197836799
30.7 7.908698862753923
31.5 10.284601117643504
32.5 12.594834102252761
33.5 14.61922588503991
34.5 16.005837340241143
35.5 16.61661686207576
36.5 18.253494528426202
37.5 18.702191459016873
38.7 17.92939615386537
40.0 16.55369292295795
41.2 14.779396204499292
42.5 14.403939548620045
43.7 14.08809307545836
45.0 13.57805162302192
46.2 13.376936817343434
47.5 12.954574531538256
48.7 13.492166237266886
50.0 14.048276308780586
51.5 14.453382353951966
53.0 14.927460067879267
54.5 15.928478995473924
56.0 16.8190716374052
58.0 17.45391092830657
60.0 18.187804290381465
61.5 19.150990344262723
63.0 19.87708136417443
65.0 20.663441486966875
67.0 21.94966835848102
69.0 23.098157332490885
71.0 24.232409603301264
73.0 25.98467123895047
75.0 28.828005643588412
77.5 33.91908790657179
80.0 35.86206149900387
82.5 34.86935652373616
85.0 34.58703084519915
87.5 35.91487780839056
90.0 37.105428837085086
92.5 38.348620171042015
95.0 39.59144750301165
97.5 41.23580911588785
100.0 42.82050406526574
103.0 44.34345576251833
106.0 45.84385157649238
109.0 47.52475604606106
112.0 49.031095373742204
115.0 50.578448959004405
118.0 51.956082731531794
122.0 53.20949947480163
125.0 54.51382726303464
128.0 55.59445147816241
132.0 56.64833142459038
136.0 57.64114333731253
140.0 58.49174484650426
145.0 59.44634819196578
150.0 60.16921802545464
155.0 60.77659856313409
160.0 61.448675213499655
165.0 62.01144666054138
170.0 62.49243804957085
175.0 62.92884247603183
180.0 63.23779252177138
185.0 63.523425533334574
190.0 63.78218811151031
195.0 63.947950350195484
200.0 64.05713731513823
206.0 64.13485755044341
212.0 64.16474162038041
218.0 64.19016789477789
224.0 64.19349625807205
230.0 64.16052699909828
236.0 64.20137794343542
240.0 64.21018211638126
250.0 64.21801622241227
258.0 64.25919034561032
265.0 64.28429638472281
272.0 64.33804481596196
280.0 64.39247855958165
290.0 64.44666622824982
300.0 64.49335225055701
307.0 64.47449068249601
315.0 64.40201831424284
325.0 64.33819184045211
335.0 64.23667608011912
345.0 64.0806804767717
355.0 63.90050178365432
365.0 63.75202366200442
375.0 63.62500844622868
387.0 63.52107202332297
400.0 63.41014804778675
412.0 63.35072029388394
425.0 63.33119945434878
437.0 63.31486804016767
450.0 63.3019198354891
462.0 63.30502183349873
475.0 63.31119982452847
487.0 63.309751108830554
500.0 63.3411526043198
515.0 63.38705493300489
530.0 63.46345856277472
545.0 63.52444490417217
560.0 63.58978894716482
580.0 63.647536856119444
600.0 63.67309715388582
615.0 63.60600659788308
630.0 63.54464785950084
650.0 63.48586388825822
670.0 63.40377146600291
690.0 63.40580238901434
710.0 63.47043878461814
730.0 63.618413886727254
750.0 63.76084345089902
775.0 63.82363554276017
800.0 63.82972822441948
825.0 63.71937297118252
850.0 63.62418765447592
875.0 63.55997106635995
900.0 63.75484420870971
925.0 63.77394606966121
950.0 63.60636452431213
975.0 63.40068492663485
1000.0 62.89247477639937
1030.0 62.71047496984659
1060.0 62.921581975818825
1090.0 63.32977893691158
1120.0 63.63246414345704
1150.0 63.75802389551181
1180.0 63.68704556899765
1220.0 63.36456113219798
1250.0 62.90736541511187
1280.0 62.53783292190944
1320.0 62.55261094820051
1360.0 62.628807991796066
1400.0 62.68182537829115
1450.0 62.542129923335295
1500.0 62.345548552533586
1550.0 62.13137109075571
1600.0 61.915232957046456
1650.0 61.67755814389663
1700.0 61.69633913600785
1750.0 61.92251790327106
1800.0 61.981682968569615
1850.0 61.514866726050926
1900.0 60.95927689933602
1950.0 60.96829204975943
2000.0 61.49123804386552
2060.0 61.77964692016546
2120.0 61.50205151019476
2180.0 60.751258444477955
2240.0 60.387925816732505
2300.0 60.81556587591389
2360.0 61.085231117204174
2400.0 60.625981289982306
2500.0 60.372879091559994
2580.0 60.63876041360159
2650.0 60.822536844218504
2720.0 60.653263414002424
2800.0 60.639485008605845
2900.0 60.94505292127836
3000.0 61.017471822071286
3070.0 60.9227713375344
3150.0 61.05758346432587
3250.0 61.08272352157607
3350.0 61.13341537156374
3450.0 61.45737235295947
3550.0 61.5962051845127
3650.0 61.75427366390254
3750.0 61.7083505529603
3870.0 61.69635650967058
4000.0 62.203986835294444
4120.0 63.23562976092305
4250.0 63.89816094202274
4370.0 64.10955644378375
4500.0 64.31376240217081
4620.0 64.61038403479945
4750.0 63.909238626828625
4870.0 63.04039749948383
5000.0 63.24681308013972
5150.0 63.52720223822966
5300.0 62.590332705648194
5450.0 62.30588451428525
5600.0 62.48948890540778
5800.0 61.702363474390225
6000.0 61.39020271920009
6150.0 61.479997434910004
6300.0 60.76435823500873
6500.0 60.57224315637821
6700.0 61.023876273736974
6900.0 60.90497891928588
7100.0 60.869212820302096
7300.0 60.71265793533996
7500.0 60.2477498682416
7750.0 59.87478051998015
8000.0 59.99700071960412
8250.0 60.02169934905304
8500.0 60.01413251881063
8750.0 59.98455013245187
9000.0 59.82277972520842
9250.0 60.21738543903787
9500.0 60.32620504953486
9750.0 59.942666568521815
10000.0 59.5344978061505
10300.0 59.49796009460307
10600.0 60.42383762972743
10900.0 60.63887255106002
11200.0 60.326221876698156
11500.0 60.26791154680119
11800.0 59.92884189100991
12200.0 58.72332807016042
12500.0 58.88752797825053
12800.0 60.6272335560018
13200.0 60.01066899367781
13600.0 59.48116284397081
14000.0 58.34054727021045
14500.0 57.254858466497026
15000.0 58.509060182749735
15500.0 60.63867438978927
16000.0 59.419112514265024
16500.0 58.56214626753578
17000.0 56.47832277261442
17500.0 55.893729191439746
18000.0 56.45436779531016
18500.0 54.52840313940962
19000.0 58.03605872800682
19500.0 55.118261203191565
