Freq "Sound Power"
22.4 49.94710312465517
23.0 50.13886898541084
23.6 50.330756160534676
24.0 50.48556544849272
25.0 50.645592951349926
25.8 50.790175903261414
26.5 50.918430734647956
27.2 51.039764091723356
28.0 51.14710312465519
29.0 51.25953314891731
30.0 51.34710312465518
30.7 51.43270188246852
31.5 51.510848945929936
32.5 51.578300495951254
33.5 51.64135553084367
34.5 51.6856070793458
35.5 51.73674462921868
36.5 51.790175903261414
37.5 51.832267154479254
38.7 51.86969635367058
40.0 51.89527989878033
41.2 51.930756160534656
42.5 51.956339266724484
43.7 51.976611028817246
45.0 51.99947934026608
46.2 52.02579738082528
47.5 52.039764091723356
48.7 52.04387496130386
50.0 52.069696353670565
51.5 52.07913662923477
53.0 52.08556544849273
54.5 52.09527989878033
56.0 52.110848945929945
58.0 52.115318505239486
60.0 52.115318505239486
61.5 52.13075616053467
63.0 52.13075616053467
65.0 52.13674462921867
67.0 52.13674462921867
69.0 52.15633926672447
71.0 52.15633926672447
73.0 52.15633926672447
75.0 52.164091904866794
77.5 52.15633926672447
80.0 52.15633926672447
82.5 52.14710312465519
85.0 52.15393513339225
87.5 52.14818615442894
90.0 52.143865253615246
92.5 52.143865253615246
95.0 52.143865253615246
97.5 52.148880073175505
100.0 52.1655956380166
103.0 52.197480158213324
106.0 52.22204878660156
109.0 52.252069983845004
112.0 52.2791453229637
115.0 52.30518521713876
118.0 52.326996665616605
122.0 52.328413537316635
125.0 52.3215641434078
128.0 52.30181762669898
132.0 52.261520745980164
136.0 52.21785401607485
140.0 52.167965207328194
145.0 52.11701145368855
150.0 52.07453061310068
155.0 52.02416503693223
160.0 51.987690165541906
165.0 51.96327439917194
170.0 51.94640496381558
175.0 51.94334176068175
180.0 51.94668797739823
185.0 51.94760163219961
190.0 51.94942944326549
195.0 51.96460968510722
200.0 51.96717092787647
206.0 51.972562871953826
212.0 51.976158458184756
218.0 51.959586653476535
224.0 51.94086802865726
230.0 51.91122815256489
236.0 51.873589996289084
240.0 51.81459176321573
250.0 51.74120081383222
258.0 51.6381767488288
265.0 51.52324089634705
272.0 51.40947607841781
280.0 51.25368354409778
290.0 51.0838534213066
300.0 50.93826506753095
307.0 50.7655568540213
315.0 50.589807954036374
325.0 50.40693781214071
335.0 50.23934805138629
345.0 50.06618231664763
355.0 49.923930373023225
365.0 49.79406776401855
375.0 49.69222162612314
387.0 49.621001465501635
400.0 49.580899938333204
412.0 49.58740311311084
425.0 49.619063449310744
437.0 49.67212307919053
450.0 49.72070003812834
462.0 49.782689433798566
475.0 49.81411710470999
487.0 49.82845110825818
500.0 49.796788610944006
515.0 49.71081431750949
530.0 49.60856946244208
545.0 49.47892979765123
560.0 49.35618187905666
580.0 49.21606135916187
600.0 49.0982746010021
615.0 48.99538125585188
630.0 48.9138219857651
650.0 48.85783527564308
670.0 48.8329459942108
690.0 48.815354100175355
710.0 48.825615239913986
730.0 48.82913574791347
750.0 48.840092181986506
775.0 48.83917893668507
800.0 48.78873774567785
825.0 48.711401811385954
850.0 48.602476658410254
875.0 48.45398824437555
900.0 48.284312865214034
925.0 48.11584238451604
950.0 47.94575553346388
975.0 47.77248266502599
1000.0 47.6041145742724
1030.0 47.42919022016977
1060.0 47.268127096851174
1090.0 47.116689127460205
1120.0 46.96533576484977
1150.0 46.837155369464895
1180.0 46.7228611001683
1220.0 46.63289623762192
1250.0 46.55624305600135
1280.0 46.491905966053864
1320.0 46.46126409293839
1360.0 46.44113742746855
1400.0 46.4469029651267
1450.0 46.45364267695277
1500.0 46.47104475531458
1550.0 46.50718015165927
1600.0 46.533263310410305
1650.0 46.55788653767675
1700.0 46.56032007067893
1750.0 46.56677585146318
1800.0 46.53864809331205
1850.0 46.45650567552532
1900.0 46.34967137960862
1950.0 46.16320420498049
2000.0 45.93670403408203
2060.0 45.639892306795076
2120.0 45.29544634519024
2180.0 44.92918363784534
2240.0 44.57415032616103
2300.0 44.23578337804284
2360.0 43.92365643562073
2400.0 43.638113604728176
2500.0 43.41380277837929
2580.0 43.265706636107694
2650.0 43.185750633626185
2720.0 43.1902681740811
2800.0 43.24137641215515
2900.0 43.34994715324045
3000.0 43.520447409586865
3070.0 43.66731707559633
3150.0 43.830871631756565
3250.0 43.95369754288136
3350.0 44.02411335173338
3450.0 44.069123053005896
3550.0 44.08232520327368
3650.0 44.08781759944716
3750.0 44.06145418015656
3870.0 44.07215846279428
4000.0 44.08508197627732
4120.0 44.09464291451549
4250.0 44.1108835078588
4370.0 44.122309528422804
4500.0 44.11354418417655
4620.0 44.09804721604459
4750.0 44.08445554899723
4870.0 44.047427762802016
5000.0 44.00642375022336
5150.0 43.955366035777175
5300.0 43.91860957254089
5450.0 43.88752333063901
5600.0 43.83459341802106
5800.0 43.816891429006574
6000.0 43.797605168174655
6150.0 43.77527130141026
6300.0 43.79563809116625
6500.0 43.8046188311107
6700.0 43.836232808899595
6900.0 43.901743314825
7100.0 43.95919684248
7300.0 44.0199101338351
7500.0 44.090951169985715
7750.0 44.15505030819163
8000.0 44.22117324347194
8250.0 44.265231960124765
8500.0 44.27694259813025
8750.0 44.300560409666446
9000.0 44.31297041050563
9250.0 44.32641415890053
9500.0 44.334971479703626
9750.0 44.350405453873265
10000.0 44.35428425798193
10300.0 44.35579393386769
10600.0 44.32699051715815
10900.0 44.28411906754775
11200.0 44.24498751020097
11500.0 44.188322836726655
11800.0 44.12570276672342
12200.0 44.04678650992511
12500.0 43.972146428443565
12800.0 43.88767371755158
13200.0 43.81400068670125
13600.0 43.7192803489358
14000.0 43.6211025804793
14500.0 43.51438972349051
15000.0 43.407230228429256
15500.0 43.26702236055108
16000.0 43.13674596502183
16500.0 42.98375381906
17000.0 42.82363596474555
17500.0 42.65280911633798
18000.0 42.45280911633796
18500.0 42.25710605079831
19000.0 42.03244365319597
19500.0 41.79886793200396
