Freq "Front Wall Bounce"
20.5078 68.03125849578493
21.9727 69.034923143734
23.4375 70.8676935488084
24.9023 73.5358316446636
26.3672 75.79310057849835
27.832 77.12351461107565
29.2969 78.23220223236507
30.7617 79.02400816068477
32.2266 79.41546676406543
33.6914 79.81833654490308
35.1562 80.10596104746625
36.6211 80.40347152246161
38.0859 80.73526599687487
39.5508 81.03707361919494
41.0156 81.32669331495953
42.4805 81.65128680425609
43.9453 81.98652108758286
45.4102 82.30418620810046
46.875 82.7046261013351
48.3398 83.03546703226536
51.2695 83.71435603231403
52.7344 84.07872480652249
54.1992 84.4189784041232
55.6641 84.74841553242214
58.5938 85.3017980794669
60.0586 85.59956739114223
62.9883 85.98791765966074
64.4531 86.1935009720294
67.3828 86.81147662610547
68.8477 86.99146243933086
71.7773 87.39209134799891
74.707 87.77080648486898
77.6367 88.06414920339552
79.1016 88.1116685202077
82.0312 88.15659178591628
84.9609 88.33353878187197
87.8906 88.41285704697717
90.8203 88.54115386277329
95.2148 88.52715181721511
98.1445 88.50189854454834
101.074 88.41277101975024
105.469 88.23388877455073
108.398 88.15409738701977
112.793 87.94413300815587
117.188 87.74328433738935
120.117 87.73187610111015
124.512 87.56817278575053
128.906 87.52357729551423
133.301 87.34153972969263
139.16 86.98278369062174
143.555 87.02839675676557
147.949 87.01139523542344
153.809 86.72741926842221
159.668 86.37528199929325
165.527 86.55734171875619
171.387 86.86128024456912
177.246 86.60470535644177
183.105 85.92848637816664
188.965 85.74196177782663
196.289 86.0421745339983
203.613 85.38828868316781
210.938 86.19605629278551
218.262 86.91091329691236
225.586 86.33464129595666
232.91 86.28928197974768
241.699 86.51870263548346
250.488 86.33922762056277
259.277 86.22724209650261
268.066 86.06075166814392
276.855 86.18976203766725
287.109 86.22339788763226
297.363 86.32103579256746
307.617 87.11500597141281
319.336 86.37428705843186
329.59 86.07978391549825
341.309 85.38403102947643
353.027 85.60011386439803
366.211 85.75236565000647
379.395 86.0270169679612
392.578 86.19504367200747
405.762 85.83147801632109
420.41 85.81969803348184
435.059 85.86935724656925
451.172 86.42070393543136
465.82 87.26750057528429
483.398 87.29324006921058
499.512 87.43627295464489
517.09 87.00118412746019
536.133 87.64622513241348
555.176 88.26039747495014
574.219 86.8415426328823
594.727 85.68466247038761
615.234 84.53235028562528
637.207 84.62493256843018
659.18 84.96311535651961
682.617 85.3730350502438
707.52 85.50366598324669
732.422 84.80621309125073
757.324 84.47986457358908
785.156 84.02407751275315
811.523 83.02577267647285
840.82 83.21630790865026
870.117 83.37353042153802
900.879 83.82571024666652
933.105 84.61870457767871
965.332 85.18651744978806
1000.49 85.51736820841823
1035.64 85.9677051743293
1072.27 85.23469884608906
1108.89 84.67852646542042
1148.44 84.54123860865377
1189.45 84.57527156512829
1230.47 84.76706420194877
1274.41 85.60949694210264
1319.82 85.8097779325544
1366.7 86.03375175065972
1413.57 85.98948850787986
1463.38 84.97148056542255
1516.11 84.8655326363807
1568.85 84.20795275519917
1624.51 84.23940847964643
1681.64 84.52976641610095
1741.7 84.67615101156763
1803.22 84.0717257457212
1866.21 84.144629519275
1932.13 85.43629137849902
1999.51 85.83163472643788
2069.82 85.00942202221611
2143.07 84.84296953673723
2219.24 85.62644079614495
2296.88 86.18896259350973
2378.91 85.38900549839592
2462.4 85.59430279810594
2548.83 86.12859095095729
2639.65 85.5612084167403
2731.93 85.76581244302601
2828.61 86.35947836258292
2928.22 85.77196826058652
3030.76 85.61996061993858
3137.7 85.8504494537132
3249.02 86.44529487984104
3363.28 86.37466438222826
3481.93 86.19522788988115
3604.98 86.38393461472651
3732.42 85.84489700775376
3864.26 85.29286530999553
4000.49 84.56672878053182
4141.11 84.92730134746785
4287.6 85.02997873269763
4438.48 85.10591310424626
4595.21 85.4037896435993
4756.35 85.73873136475609
4924.8 85.60770944455749
5097.66 86.11392261323138
5277.83 85.83849236982955
5463.87 85.89190711757132
5657.23 86.26910147555233
5856.45 85.98444214054223
6062.99 86.63723289533094
6276.86 86.55989205812665
6498.05 86.90637665693937
6726.56 86.47775224650555
6963.87 86.27713373017824
7209.96 85.2788157236138
7464.84 85.44672612452709
7727.05 85.12794012366118
7999.51 85.08141609368678
8282.23 85.24889738447922
8573.73 85.13841670397014
8876.95 85.46720964883842
9188.96 85.60205564288655
9514.16 85.64330288355502
9849.61 85.85318757511462
10196.8 86.07600303539218
10555.7 86.23266708813574
10927.7 86.26265864300456
11313.0 86.36863352355914
11712.9 86.40465732616622
12126.0 86.44641259050991
12553.7 86.44448841976595
12996.1 86.28055337526311
13454.6 86.22189427530523
13929.2 85.92186020692054
14419.9 85.74868960507905
14928.2 85.89031946306324
15455.6 86.91348044292492
16000.5 86.63299503698877
16564.5 84.72046219369903
17148.9 83.46926538856428
17752.4 83.2586345251711
18379.4 83.35579198770493
19026.9 83.50135803507811
19697.8 83.44553855296547
19999.5 83.36462858827498
