Freq "Early Reflections DI"
22.4 39.21792690791386
23.0 39.434247230679546
23.6 39.83137055505907
24.0 40.197398522916615
25.0 40.388253936687676
25.8 40.4525389283815
26.5 40.54295204619564
27.2 40.64809931804325
28.0 40.75322633075061
29.0 40.79541248782229
30.0 40.83560355257231
30.7 40.849365083960606
31.5 40.856344042151335
32.5 40.843425049782866
33.5 40.833092376065935
34.5 40.813817997866096
35.5 40.8037588406452
36.5 40.75080339805628
37.5 40.745642357669325
38.7 40.74236528317991
40.0 40.72641717929808
41.2 40.68767127206607
42.5 40.67289013202958
43.7 40.60131343168696
45.0 40.56488752076797
46.2 40.48747193762844
47.5 40.44812645605393
48.7 40.58374205288365
50.0 40.92361713968373
51.5 41.30254053819371
53.0 41.48918681476468
54.5 41.47652537463205
56.0 41.36356518338303
58.0 41.23819817464464
60.0 41.10991180187433
61.5 41.05370059619564
63.0 41.01053708389887
65.0 41.04239462596689
67.0 41.08304883494357
69.0 41.170440040138985
71.0 41.227370166176584
73.0 41.31771212639731
75.0 41.41106415602053
77.5 41.42132613162259
80.0 41.42228916310141
82.5 41.311789005351244
85.0 41.21141387470462
87.5 41.085131798566934
90.0 41.05729606928402
92.5 41.10100352693863
95.0 41.24067289117903
97.5 41.341846294985714
100.0 41.31666027566952
103.0 41.32504664650317
106.0 41.30157165204923
109.0 41.36467925769739
112.0 41.345083235224294
115.0 41.35081566071666
118.0 41.385130436353435
122.0 41.471628443216744
125.0 41.54315854349163
128.0 41.547364853531064
132.0 41.559368621554086
136.0 41.57968659571419
140.0 41.59006936402933
145.0 41.550710713197674
150.0 41.537328088648195
155.0 41.55512706879348
160.0 41.61458122415402
165.0 41.72051746927157
170.0 41.793883298331494
175.0 41.87714605802368
180.0 41.85225538354233
185.0 41.81938991874698
190.0 41.82612770950334
195.0 41.9116038449157
200.0 41.95184902040107
206.0 41.95965451714427
212.0 42.013790349377786
218.0 42.0954508638154
224.0 42.141731681013994
230.0 42.278662299417434
236.0 42.48922157938733
240.0 42.33019545125593
250.0 42.02119822162436
258.0 41.9092134518385
265.0 41.91644686969967
272.0 42.00926946116405
280.0 42.1199692289092
290.0 42.17346290275181
300.0 42.21601363275279
307.0 42.261751807788045
315.0 42.29218053671521
325.0 42.26896717921258
335.0 42.31353583835015
345.0 42.47972997038933
355.0 42.640805876071454
365.0 42.71617662832729
375.0 42.8444476822479
387.0 42.98238721693059
400.0 43.259109443522135
412.0 43.331980217098746
425.0 43.38968149380615
437.0 43.43771506092989
450.0 43.509940023734856
462.0 43.59974530712661
475.0 43.65545662138143
487.0 43.38052619893109
500.0 42.7893816360919
515.0 42.538429080331596
530.0 42.48668128386251
545.0 42.40058035786308
560.0 42.27251313115484
580.0 42.10950178289643
600.0 41.94496797235652
615.0 41.80150665285555
630.0 41.9590478606446
650.0 42.01323261246419
670.0 42.00923097924051
690.0 42.096720181443075
710.0 42.289815127841166
730.0 42.78924369052088
750.0 42.06354115454401
775.0 41.664606770690426
800.0 41.830364144564086
825.0 42.00182637934516
850.0 42.35896793248472
875.0 42.73319073806165
900.0 43.020000302099035
925.0 43.13105235949968
950.0 43.230341331414124
975.0 43.20814925561538
1000.0 43.1342363918603
1030.0 42.07610534853487
1060.0 41.53121294187342
1090.0 42.21856983977773
1120.0 42.75007754997229
1150.0 43.04458247820253
1180.0 42.84557499817444
1220.0 43.35939685640052
1250.0 43.093426645257125
1280.0 43.86782694983191
1320.0 45.02300981791433
1360.0 45.14667300368562
1400.0 44.99935512303706
1450.0 44.81280078888915
1500.0 45.24133666674078
1550.0 45.203621315453205
1600.0 44.963104702804
1650.0 44.88327278946802
1700.0 44.71387696987682
1750.0 44.22835008037829
1800.0 44.096648766579435
1850.0 44.163143619607254
1900.0 44.01495184776472
1950.0 44.02237195733012
2000.0 44.151288533279356
2060.0 43.99570034734231
2120.0 44.11445270363136
2180.0 44.15397954759699
2240.0 43.94766232482296
2300.0 44.0282282826886
2360.0 44.008351265956335
2400.0 44.060873912138504
2500.0 44.02296392315593
2580.0 43.73897287469714
2650.0 43.5812840123362
2720.0 44.129649678405485
2800.0 44.50731023167019
2900.0 44.82048603766974
3000.0 44.981230200145546
3070.0 45.32644427345282
3150.0 45.22713590387015
3250.0 45.0861928622777
3350.0 45.05153893090403
3450.0 45.1007182460161
3550.0 44.82428072548905
3650.0 44.861325439326265
3750.0 44.66984437292794
3870.0 44.92715751032914
4000.0 45.17040188257688
4120.0 45.25927467595639
4250.0 45.40857912210711
4370.0 45.45541395026194
4500.0 45.35626570919533
4620.0 45.270184155288774
4750.0 45.2233349362193
4870.0 45.253267955254955
5000.0 45.31061269498453
5150.0 45.23802806339347
5300.0 45.30557195582895
5450.0 45.62760688692457
5600.0 45.54098275780137
5800.0 45.38659127446837
6000.0 45.217659402265966
6150.0 45.26937749983384
6300.0 45.282640488416874
6500.0 45.12076975660901
6700.0 45.0887974546101
6900.0 44.94978234365499
7100.0 44.936607116255686
7300.0 45.228282820921876
7500.0 45.57421399753353
7750.0 45.53607003998178
8000.0 45.03594023969269
8250.0 45.01330169597466
8500.0 45.17456574364418
8750.0 44.90937694179445
9000.0 44.563652203085326
9250.0 44.24487993548075
9500.0 44.395931594848065
9750.0 45.04693868380335
10000.0 45.72111655295099
10300.0 45.35552957666694
10600.0 45.483637906561555
10900.0 44.96001322577638
11200.0 45.3783443503706
11500.0 45.48751923538248
11800.0 45.39267687690233
12200.0 45.64988133376548
12500.0 45.159768431550674
12800.0 45.53571643142655
13200.0 46.02615122922104
13600.0 46.09787873459888
14000.0 46.28378236962892
14500.0 46.619047826895766
15000.0 45.82376206812879
15500.0 45.810207333028444
16000.0 45.88035680457092
16500.0 45.30737811178787
17000.0 43.68394160962113
17500.0 42.80115255007111
18000.0 45.51318780830542
18500.0 45.63352402538155
19000.0 44.92530103902614
19500.0 43.810882499798794
