Freq "Sound Power"
22.4 42.86655685926986
23.0 43.49505318133829
23.6 45.14106870995663
24.0 46.84038325615269
25.0 48.03206645185996
25.8 48.93010136882778
26.5 49.98352333668883
27.2 51.38495246799663
28.0 52.79979042240434
29.0 54.36264643520833
30.0 55.98480883821789
30.7 57.65522040281523
31.5 59.123014638348295
32.5 60.344865965598714
33.5 61.339208434137035
34.5 62.42539963062275
35.5 63.69767450667784
36.5 64.89053085670783
37.5 65.96843783267495
38.7 66.95539128095831
40.0 67.83679577043189
41.2 68.70477531744503
42.5 69.5578847937707
43.7 70.33758918195275
45.0 70.94377624706759
46.2 71.34215855152674
47.5 71.33117430152181
48.7 70.88416123219132
50.0 70.34023965087246
51.5 70.41775900773717
53.0 71.26106917814771
54.5 72.54787595501729
56.0 73.76734796525983
58.0 74.56395221650071
60.0 74.96571101853588
61.5 75.15301692516033
63.0 75.43191428947783
65.0 75.6194758249754
67.0 75.68575927020028
69.0 75.84060968001077
71.0 76.0793598158783
73.0 76.392091509825
75.0 76.87783911502189
77.5 77.58514303061493
80.0 78.46760427912858
82.5 79.57561287366788
85.0 80.59910383722462
87.5 81.33140028808963
90.0 81.73241000963324
92.5 82.03152201025752
95.0 82.29245869806515
97.5 82.8556893576124
100.0 83.76173369594642
103.0 84.55386014878628
106.0 85.09946694010206
109.0 85.41534302756787
112.0 85.89136711018439
115.0 86.31335988453475
118.0 86.42469662484659
122.0 86.40862763627922
125.0 86.73537732295404
128.0 87.21804429215693
132.0 87.33841335232387
136.0 87.1182235414989
140.0 87.07951168931548
145.0 87.20396100603422
150.0 86.92621067119286
155.0 86.60200510663401
160.0 86.27154826360017
165.0 85.87663185472947
170.0 85.55065574259815
175.0 85.45708883053832
180.0 85.39897005375137
185.0 85.29013329121769
190.0 84.89985040329081
195.0 84.595659189785
200.0 84.27172752633005
206.0 84.10284685024361
212.0 84.65527836472923
218.0 84.64251230852214
224.0 84.62423570773136
230.0 84.40616065658672
236.0 84.16888326715151
240.0 83.94363350848644
250.0 83.44873891685623
258.0 83.5541125813563
265.0 83.73792357805799
272.0 83.79333580923138
280.0 83.72955824175025
290.0 83.3685382918657
300.0 83.12793998073924
307.0 82.89434727193488
315.0 82.37727465235338
325.0 81.7938712506142
335.0 81.40227386014881
345.0 81.17597996376092
355.0 81.80195122566157
365.0 82.79498924585711
375.0 82.95513753433737
387.0 82.39288457381657
400.0 81.67841797355881
412.0 81.2939734052587
425.0 81.1216029848788
437.0 80.83840860809445
450.0 80.56926224254751
462.0 80.47002442116191
475.0 80.76209221678695
487.0 81.1495130262606
500.0 81.46038824508291
515.0 81.82243545504045
530.0 81.86805134810038
545.0 81.88827338029391
560.0 81.9740025683136
580.0 82.06939471566606
600.0 82.1098822499426
615.0 81.9079621892598
630.0 81.42865228233305
650.0 81.11748068866727
670.0 81.12268738883613
690.0 80.96781190968856
710.0 80.6483100941788
730.0 80.69296673592329
750.0 80.47996518623737
775.0 80.47994655568637
800.0 80.30109809102004
825.0 80.0004010917864
850.0 79.76407368435663
875.0 79.38789341272893
900.0 79.17064524913926
925.0 78.59846720854273
950.0 78.2350213248667
975.0 77.92598003275694
1000.0 77.69191176773555
1030.0 78.28688230769416
1060.0 79.25282160553185
1090.0 78.97685290577033
1120.0 78.7382261217712
1150.0 78.18556591916035
1180.0 77.42795833956677
1220.0 76.02375052057083
1250.0 74.83687204991051
1280.0 73.98861540242946
1320.0 73.46735293151322
1360.0 73.83674020254223
1400.0 74.02451945264104
1450.0 74.52824794871844
1500.0 74.92872404603375
1550.0 74.7696949429687
1600.0 75.24479656226906
1650.0 74.92456551040807
1700.0 74.7149544730194
1750.0 74.8508299853756
1800.0 74.74301531294323
1850.0 74.71920056700966
1900.0 75.50774041962886
1950.0 75.73914418833164
2000.0 75.81835701690696
2060.0 76.33553289508173
2120.0 76.29971642628661
2180.0 76.29227706097609
2240.0 76.50792367878049
2300.0 76.39149951858461
2360.0 76.26018567757427
2400.0 76.45995015468758
2500.0 76.67934188951736
2580.0 77.30375819626316
2650.0 77.43121070277071
2720.0 77.00898433154111
2800.0 76.5246764307813
2900.0 76.05297957735483
3000.0 76.15474102102225
3070.0 75.68599836007057
3150.0 75.15752733145375
3250.0 74.792037212991
3350.0 75.0055306544381
3450.0 75.43560283382996
3550.0 76.13583265936678
3650.0 77.03721461294992
3750.0 78.59177429078954
3870.0 79.15258606372986
4000.0 78.54883021399324
4120.0 78.19347271109814
4250.0 77.72039551264896
4370.0 76.2305531240636
4500.0 75.90232485005319
4620.0 75.99821848819332
4750.0 76.79843140235462
4870.0 77.92138626468447
5000.0 78.36784557100104
5150.0 78.51594887754352
5300.0 77.96652460771715
5450.0 75.8557253555604
5600.0 75.41984906373624
5800.0 76.20380306156501
6000.0 77.47003002366345
6150.0 78.36788236428634
6300.0 78.81713991989737
6500.0 78.75999019678504
6700.0 77.66945127043678
6900.0 76.2393062195619
7100.0 76.19900416362655
7300.0 76.5142517592505
7500.0 78.6945528628248
7750.0 79.75990708249826
8000.0 80.25264243122004
8250.0 79.82665093934473
8500.0 77.67235087927769
8750.0 76.6626884090283
9000.0 78.38997614588432
9250.0 81.41397896774473
9500.0 81.89475627554172
9750.0 79.33788249378631
10000.0 81.69041162201233
10300.0 80.20142150397162
10600.0 79.56908004859275
10900.0 79.90805471978568
11200.0 82.02769494107622
11500.0 79.79597748113677
11800.0 79.5982355602328
12200.0 80.02236902222525
12500.0 78.5953376721712
12800.0 77.46026553207808
13200.0 77.93386252091922
13600.0 75.90022483103041
14000.0 75.68853445509679
14500.0 77.08771279164752
15000.0 79.08510999421257
15500.0 77.87267971802915
16000.0 76.13451425433205
16500.0 80.93684433299447
17000.0 78.2865372334333
17500.0 76.95913731297111
18000.0 79.41633384342816
18500.0 80.59825278761473
19000.0 76.80502621087565
19500.0 75.69754505327737
