Freq "Listening Window"
20.5078 64.99057041931836
21.9727 77.01940051214918
23.4375 80.42847960784046
24.9023 83.82973084522125
26.3672 86.39587251560526
27.832 89.85817145468472
29.2969 92.83185627471646
30.7617 95.20877289072023
32.2266 97.48852707145485
33.6914 99.60170004756728
35.1562 101.4512945034859
36.6211 103.0588694064236
38.0859 104.39738054055904
39.5508 105.601511336118
41.0156 106.5452618300984
42.4805 107.34248909701671
43.9453 107.87632123403408
45.4102 108.25978583164225
46.875 108.45170887952997
48.3398 108.65404487778898
51.2695 109.31222970272897
52.7344 109.32070798356504
54.1992 109.35567820574674
55.6641 109.40826231919654
58.5938 109.45155359439491
60.0586 109.50666645230645
62.9883 109.56429565454222
64.4531 109.58418680094569
67.3828 109.70356643645194
68.8477 109.76158740257883
71.7773 109.86754546208293
74.707 109.95362422722953
77.6367 110.05660493924911
79.1016 110.12304632246297
82.0312 110.21106821427217
84.9609 110.22057816258305
87.8906 110.26705632667725
90.8203 110.24010530798795
95.2148 110.58947936131469
98.1445 110.67176973218749
101.074 110.4646535258536
105.469 110.49896027884564
108.398 110.63891130015647
112.793 110.6369055331797
117.188 110.70275219841285
120.117 110.88349347976997
124.512 111.09196819514207
128.906 110.95701436274702
133.301 110.68720910570886
139.16 110.88839278654642
143.555 111.05257655975737
147.949 110.96987034725001
153.809 110.82208814897169
159.668 110.82290219141241
165.527 110.91280302183786
171.387 111.05494517541752
177.246 111.15478220522296
183.105 111.18471971216098
188.965 111.45393711415691
196.289 111.41490357175685
203.613 111.37150678760784
210.938 110.9680513291291
218.262 110.48911369252936
225.586 110.77460194035179
232.91 110.24251283942284
241.699 109.95788105239467
250.488 110.58358431077868
259.277 110.49490282154319
268.066 109.9630069140033
276.855 109.72451761036456
287.109 109.97610051517508
297.363 110.19803143610388
307.617 110.13371892596703
319.336 109.94924856455336
329.59 110.58856248665576
341.309 110.61640691376549
353.027 110.80318730203128
366.211 111.45382669388944
379.395 111.00404896865045
392.578 110.42897731819086
405.762 110.63383527323711
420.41 110.85687878282262
435.059 109.67424779035267
451.172 110.32455770865242
465.82 110.43082995055842
483.398 110.25676427117003
499.512 110.47060911120032
517.09 109.5335986533745
536.133 109.14628437754116
555.176 109.30735208957182
574.219 109.81479651025553
594.727 108.91784945137654
615.234 110.3882751129834
637.207 111.81569789121343
659.18 110.41517010255508
682.617 110.78815978863436
707.52 109.88239988320733
732.422 107.74787457420233
757.324 104.99450061147216
785.156 107.08001972895123
811.523 108.80759353947892
840.82 110.43737024728864
870.117 110.66641588690082
900.879 110.02692716919695
933.105 110.4034184624927
965.332 110.28421099213422
1000.49 110.02192695940164
1035.64 109.39464548736693
1072.27 108.91590429473435
1108.89 108.91520301652817
1148.44 108.75048660933238
1189.45 109.35771411161734
1230.47 109.2578860106428
1274.41 109.41184465223697
1319.82 108.73491129907195
1366.7 108.64370331890781
1413.57 109.17317642996646
1463.38 110.15847774870474
1516.11 110.5015690615008
1568.85 109.85959269147295
1624.51 109.10346578074278
1681.64 109.38058830703939
1741.7 110.22776536983271
1803.22 110.40214001735671
1866.21 109.63144556949852
1932.13 108.89220306977211
1999.51 109.88373431947133
2069.82 110.59879641652233
2143.07 110.57255900301487
2219.24 110.33875175784799
2296.88 110.78696381161687
2378.91 110.85134895142396
2462.4 111.07373257709452
2548.83 111.782996061497
2639.65 110.5587102060805
2731.93 109.94794401816371
2828.61 110.48083813569716
2928.22 110.09910458616383
3030.76 110.20220972468029
3137.7 110.03924029046813
3249.02 109.74985595227248
3363.28 109.94874228102033
3481.93 110.53991273155758
3604.98 110.66077500320158
3732.42 111.13313499377959
3864.26 111.29758104032739
4000.49 111.18716058745268
4141.11 111.08895519579623
4287.6 110.95693984830051
4438.48 111.15676630375924
4595.21 111.24431687569229
4756.35 111.53288592794351
4924.8 111.4413746125605
5097.66 112.2632524308453
5277.83 112.35515091854845
5463.87 112.71469213695441
5657.23 112.67324239750886
5856.45 112.62394539592928
6062.99 112.45623776834326
6276.86 112.59873105676786
6498.05 112.72294580854485
6726.56 112.45866615125497
6963.87 112.51574821706087
7209.96 112.63227156822532
7464.84 112.28714213706589
7727.05 111.85863570558205
7999.51 111.74943123990695
8282.23 111.67904416102179
8573.73 111.55016172764043
8876.95 111.41250331928009
9188.96 111.02890346264205
9514.16 110.6953570877975
9849.61 110.62290618571349
10196.8 110.38189618346175
10555.7 109.88420598383445
10927.7 109.45744157220771
11313.0 110.97383979857935
11712.9 112.03207035471263
12126.0 111.93376344645004
12553.7 110.92696086949304
12996.1 111.54955525031848
13454.6 112.67908719968968
13929.2 113.2922039726573
14419.9 113.26921778014587
14928.2 112.30271184469665
15455.6 110.44014949565413
16000.5 108.29718373467334
16564.5 109.3905041009935
17148.9 109.9666354296689
17752.4 109.8221440594345
18379.4 110.82778007827937
19026.9 111.42974176299285
19697.8 108.7817359480198
19999.5 106.0090433323624
