Freq "Sound Power"
20.5078 75.56351153642211
21.9727 76.43449474930497
23.4375 79.88573092128317
24.9023 83.37320834164325
26.3672 86.10325229146409
27.832 89.69882389457756
29.2969 92.56025057091912
30.7617 94.87056948323333
32.2266 97.25273381178152
33.6914 99.32202497312551
35.1562 101.09990811773562
36.6211 102.69008763455196
38.0859 104.0236187485562
39.5508 105.20829350076252
41.0156 106.12370045017988
42.4805 106.87711786493861
43.9453 107.36217805347485
45.4102 107.82402426014812
46.875 108.05634405838214
48.3398 108.21632727777843
51.2695 108.65421559798736
52.7344 108.66833127080892
54.1992 108.73379068959511
55.6641 108.87895161666972
58.5938 108.98157404497277
60.0586 109.04528687132358
62.9883 109.09266996454387
64.4531 109.12818177226968
67.3828 109.20351401663913
68.8477 109.24187049105451
71.7773 109.31905045302054
74.707 109.39199023786938
77.6367 109.4608218210102
79.1016 109.50412503943402
82.0312 109.56031985429343
84.9609 109.60774715300937
87.8906 109.60477649475487
90.8203 109.60568933772939
95.2148 109.76926765137165
98.1445 109.82367986314702
101.074 109.66009257642246
105.469 109.64579279196958
108.398 109.70854127625127
112.793 109.77618077177415
117.188 109.74753871653039
120.117 109.82249279244346
124.512 109.78791623340855
128.906 109.79764140417862
133.301 109.79456166318874
139.16 109.71686777700758
143.555 109.80074222977245
147.949 109.75973267872305
153.809 109.67730298837527
159.668 109.59578262128579
165.527 109.60962403947627
171.387 109.6432140613681
177.246 109.75639811103976
183.105 109.65273307359905
188.965 109.68966572743356
196.289 109.62223065183044
203.613 109.47469809362576
210.938 109.08088382159744
218.262 108.91746364935516
225.586 108.81116825185114
232.91 108.40616262802915
241.699 108.19147308729285
250.488 108.01978591207254
259.277 107.80847189980464
268.066 107.39183313012737
276.855 107.15349617325032
287.109 107.21171836991783
297.363 106.87907936397922
307.617 106.73181938523857
319.336 106.41757730162585
329.59 106.85884945506886
341.309 107.06754246070989
353.027 107.02016632693477
366.211 107.40144304484981
379.395 107.65349426026805
392.578 107.21133156628593
405.762 106.69518976253266
420.41 107.08277084230336
435.059 106.40641373399322
451.172 106.50497436338968
465.82 106.40831541607237
483.398 106.16072713927156
499.512 106.2801893136763
517.09 106.03817704146033
536.133 105.8203547027768
555.176 105.99754644998642
574.219 106.21141426963965
594.727 105.28094284497215
615.234 105.62995190944787
637.207 106.46847582709417
659.18 105.20822526324608
682.617 104.78869206837828
707.52 104.01095674151175
732.422 102.8320713481386
757.324 101.72474957019932
785.156 103.1845695242983
811.523 104.19616175893029
840.82 105.17381203717804
870.117 105.50156625954966
900.879 105.023796041797
933.105 105.95232858013479
965.332 105.3052304294871
1000.49 105.52448411868889
1035.64 105.0438062914055
1072.27 104.70943106438166
1108.89 104.15363091200533
1148.44 103.90434648160394
1189.45 103.73306622752243
1230.47 103.00812016292237
1274.41 102.7765956663745
1319.82 101.8675848224206
1366.7 101.66930561248735
1413.57 101.8218380946829
1463.38 102.13694532602848
1516.11 102.1064158537695
1568.85 101.45187776262846
1624.51 101.36468354172644
1681.64 101.37869489387083
1741.7 101.91683522438784
1803.22 102.15835454512744
1866.21 101.80637181776301
1932.13 101.41894788034567
1999.51 102.21117489047612
2069.82 102.78186017032576
2143.07 103.11614251025136
2219.24 103.07350638602944
2296.88 103.13776877676028
2378.91 103.07633295014222
2462.4 103.36441884960213
2548.83 104.02436429432841
2639.65 103.19934210407473
2731.93 102.7331728640792
2828.61 102.92636147641642
2928.22 102.64024799656497
3030.76 102.6570339434234
3137.7 102.55178702788515
3249.02 102.27491016609217
3363.28 102.50217931197648
3481.93 102.98134372040822
3604.98 103.22078503687462
3732.42 103.41665109540997
3864.26 103.50464547138287
4000.49 103.33983816763389
4141.11 103.31242994670001
4287.6 103.29107670480052
4438.48 103.53508561376185
4595.21 103.6212946936549
4756.35 103.78069575304173
4924.8 103.99542895128207
5097.66 104.40937962150475
5277.83 104.69683791466673
5463.87 104.88059286688508
5657.23 104.8028030300255
5856.45 104.86982714996634
6062.99 104.7285316682581
6276.86 104.83325127567402
6498.05 104.74994662233807
6726.56 104.53082209376757
6963.87 104.69410110509699
7209.96 104.70020256104785
7464.84 104.25624537356545
7727.05 103.780694905716
7999.51 103.57188972797873
8282.23 103.45277326043177
8573.73 103.29474606907335
8876.95 103.05393367102052
9188.96 102.68879424719606
9514.16 102.42036149882013
9849.61 102.23706637583648
10196.8 101.86004334864582
10555.7 101.2997730735613
10927.7 100.82104212474206
11313.0 102.27138668833149
11712.9 103.34210402211164
12126.0 103.16446204026099
12553.7 102.02191639679589
12996.1 102.62784706579765
13454.6 103.68577854898487
13929.2 104.28179471382752
14419.9 104.2172138901302
14928.2 103.15568368364156
15455.6 101.28225632187682
16000.5 99.1702820510739
16564.5 100.1281417617106
17148.9 100.57400581532012
17752.4 100.35877433758249
18379.4 101.31374298974298
19026.9 101.82645453889337
19697.8 99.16141759219278
19999.5 96.588022798434
