Freq "Estimated In-Room Response"
20.0 24.38656548694695
20.2909 24.510374645035853
20.586 24.690541359877557
20.8855 25.136595960269347
21.1893 26.076425045457228
21.4975 26.849148489009025
21.8102 27.234791069137884
22.1274 27.444477260708936
22.4492 27.911871675796988
22.7758 28.89669826800221
23.1071 30.0178618835248
23.4432 30.76965251480064
23.7841 31.160507812422708
24.1301 31.547532550703664
24.4811 32.03566819197877
24.8372 32.50623592637618
25.1984 32.96812687026073
25.5649 33.61849773705134
25.9368 34.499901131518925
26.3141 35.359277877696655
26.6968 36.00736931548147
27.0851 36.57633723336957
27.4791 37.24850061182508
27.8788 37.87482165539657
28.2843 38.34634403476741
28.6957 38.84424261136158
29.1131 39.47512800005771
29.5365 40.12987635020471
29.9661 40.73165198575376
30.402 41.28585226696501
30.8442 41.81420221246006
31.2929 42.37084941620054
31.748 42.962258585983534
32.2098 43.50844220849052
32.6783 43.946422987327765
33.1536 44.45076280385081
33.6359 45.06026253978436
34.1251 45.60566818995606
34.6215 46.11192987585011
35.125 46.65354933208769
35.6359 47.209747987976314
36.1543 47.760757661899206
36.6802 48.28579138903859
37.2137 48.81729767478461
37.755 49.33366859773467
38.3041 49.85360063194173
38.8613 50.37522266636503
39.4265 50.89860993490561
40.0 51.40862195503193
40.5818 51.90016017036899
41.1721 52.38528816178862
41.771 52.820364075279315
42.3785 53.264874592844336
42.9949 53.685351221039554
43.6203 54.04046809470647
44.2548 54.39295883053704
44.8985 54.862319846399856
45.5515 55.29570181608301
46.2141 55.71372285128656
46.8863 56.100479916805455
47.5683 56.53745014178281
48.2602 56.98923875175292
48.9621 57.40851145392115
49.6743 57.86437783674364
50.3968 58.269038430477465
51.1299 58.68482143817796
51.8736 59.09332725435907
52.6281 59.48977370742165
53.3936 59.884801358107836
54.1702 60.25984135109621
54.9581 60.64180438754009
55.7575 61.01144826787694
56.5685 61.37809145065597
57.3914 61.72999898609197
58.2261 62.07972836333079
59.073 62.42473096712712
59.9323 62.75188034717662
60.804 63.08624058974493
61.6884 63.41929026420593
62.5857 63.75523303165021
63.496 64.0987157859388
64.4196 64.42337727143513
65.3566 64.73880689976549
66.3073 65.05183793049153
67.2717 65.34758889595935
68.2502 65.64230274504362
69.2429 65.93065576308084
70.2501 66.22656749596398
71.2719 66.51256906385828
72.3086 66.81259223011193
73.3603 67.08567657730904
74.4274 67.33803996857053
75.5099 67.57436570607705
76.6083 67.78115270646103
77.7226 67.98144850268062
78.8531 68.20580272728637
80.0 68.44776800662719
81.1636 68.68836654872415
82.3442 68.91846737521975
83.5419 69.14171516199933
84.757 69.3381056000195
85.9899 69.50583367729769
87.2406 69.66094129493811
88.5096 69.81759705332597
89.797 69.97079136917097
91.1031 70.10903298301069
92.4282 70.20245150529094
93.7726 70.2435109890144
95.1366 70.24920390183775
96.5204 70.28671302487666
97.9243 70.34235096298724
99.3486 70.40413061254168
100.794 70.45924205486945
102.26 70.51168765703902
103.747 70.55498921835834
105.256 70.59065568281565
106.787 70.61969647876028
108.34 70.62404456349132
109.916 70.5700242886482
111.515 70.50929487840963
113.137 70.49532597566015
114.783 70.47642929808609
116.452 70.44589041806259
118.146 70.42636989798828
119.865 70.41037805479344
121.608 70.38892007737333
123.377 70.37099878690492
125.171 70.35305322174469
126.992 70.33568626058597
128.839 70.31395927278307
130.713 70.27913876526696
132.615 70.20430733026298
134.543 70.12841855363538
136.5 70.07866799622863
138.486 70.03064929867851
140.5 69.95283200223264
142.544 69.85944135614321
144.617 69.79405882766787
146.721 69.7180393078705
148.855 69.70076468348599
151.02 69.6936269081838
153.217 69.59101605997479
155.445 69.53694198068126
157.706 69.50410473476443
160.0 69.26152984131335
162.327 69.07495643097805
164.688 69.03675008583755
167.084 69.01937563215449
169.514 69.05317399377702
171.98 68.87242220061549
174.481 68.68344829917683
177.019 68.59981860678425
179.594 68.58851952186942
182.206 68.5685485386713
184.856 68.60915525948832
187.545 68.66699354264274
190.273 68.69843385197171
193.041 68.67556899714747
195.849 68.64906182908929
198.697 68.68641096381639
201.587 68.66970655480847
204.52 68.49592081719129
207.494 68.28668595544261
210.512 68.03235950606214
213.574 68.11587774114439
216.681 68.170392171825
219.833 68.09761695711292
223.03 68.05418488487685
226.274 68.10442994616731
229.565 68.07193906256447
232.905 67.96987084228286
236.292 67.93293813641134
239.729 67.83987971576015
243.216 67.87128516130552
246.754 67.92604289702282
250.343 67.89536763431633
253.984 67.76188953631348
257.678 67.67769767020985
261.426 67.64431005302285
265.229 67.61156130386237
269.087 67.41098002676554
273.001 67.31053005789701
276.972 67.38636448093122
281.0 67.19991567726349
285.088 67.29371861869909
289.234 67.45378057259893
293.441 67.64423461172902
297.709 67.61068948015841
302.04 67.26667632863952
306.433 67.04080975752166
310.89 67.1588064819296
315.412 67.32422506867044
320.0 67.23415799770645
324.655 67.08537825287573
329.377 67.03689118605902
334.168 67.16752091520831
339.028 66.87569558144875
343.959 66.82824565090347
348.962 66.82110920005175
354.038 66.78336430066169
359.188 66.94546308012221
364.412 66.87599451264339
369.713 66.75816931182989
375.09 66.62564776800616
380.546 66.65775164465734
386.081 66.83748934683794
391.697 66.55135174897308
397.394 66.63926844487113
403.175 66.58071623618758
409.039 66.71656969373431
414.989 66.69622763593259
421.025 66.83333959787635
427.149 66.9704556587232
433.362 67.10863275878361
439.665 67.28037127964839
446.06 67.32683836029906
452.548 67.35350323820997
459.131 67.36367077308695
465.809 67.37044107101468
472.584 67.32574045969439
479.458 67.2701459978623
486.432 67.1379368131449
493.507 67.0474848404825
500.686 66.95737913395945
507.968 66.83274544565776
515.357 66.68831353695799
522.853 66.5621200110966
530.458 66.45273255699638
538.174 66.37785440283092
546.002 66.31810378910893
553.943 66.27698320604227
562.001 66.25578123177011
570.175 66.25032750075533
578.469 66.26729381189924
586.883 66.30027714353966
595.419 66.34814872217713
604.08 66.40969942590075
612.866 66.47929545113017
621.78 66.55377014563283
630.824 66.63013774735039
640.0 66.70145202674892
649.309 66.76241989676015
658.753 66.8167392971915
668.335 66.85651029512016
678.056 66.87696775292979
687.919 66.88118835590417
697.925 66.86560025001849
708.077 66.82984423964689
718.376 66.77419557780104
728.825 66.70391086109345
739.426 66.61487681092335
750.181 66.51664734271625
761.093 66.41092192805286
772.163 66.30620058645158
783.394 66.20458602886308
794.789 66.11140360064606
806.349 66.03162652930436
818.078 65.9719552556807
829.977 65.9292472741845
842.05 65.90686938709632
854.298 65.90147326604044
866.724 65.90705006929588
879.33 65.92054089493318
892.12 65.9340958060285
905.097 65.940557206327
918.262 65.93950546927702
931.618 65.92708289346476
945.169 65.89815496930869
958.917 65.85766880781381
972.864 65.80701035733779
987.015 65.75036843204454
1001.37 65.6924763234307
1015.94 65.63895902967008
1030.71 65.59648573557845
1045.71 65.56976886136664
1060.92 65.55875156638598
1076.35 65.55425967253679
1092.0 65.55490587007252
1107.89 65.54905731973125
1124.0 65.52812334778838
1140.35 65.4877774328383
1156.94 65.41920715571807
1173.77 65.32076612816002
1190.84 65.19922784419734
1208.16 65.06193032482604
1225.73 64.91869670073729
1243.56 64.78412404954314
1261.65 64.67381275298011
1280.0 64.59594852119449
1298.62 64.55259956807286
1317.51 64.53882636891032
1336.67 64.53828430565781
1356.11 64.54092843178391
1375.84 64.52603160221855
1395.85 64.4897176375947
1416.15 64.4270333307403
1436.75 64.34830383730488
1457.65 64.26086022713544
1478.85 64.18717510386344
1500.36 64.13746677525126
1522.19 64.11484437892642
1544.33 64.1061545193833
1566.79 64.09685812948678
1589.58 64.06380059442594
1612.7 63.994541325927884
1636.16 63.877124293424345
1659.95 63.72534120389905
1684.1 63.56214655110213
1708.6 63.41567525594195
1733.45 63.31590309775247
1758.66 63.26550701921502
1784.24 63.2459273392426
1810.19 63.224133832286824
1836.52 63.16514491189818
1863.24 63.053915916358704
1890.34 62.897390694341865
1917.83 62.731781075663136
1945.73 62.5944250916975
1974.03 62.51542011368316
2002.74 62.486510261768615
2031.87 62.47033777591784
2061.43 62.42128441990255
2091.41 62.31605193629801
2121.83 62.16934331298944
2152.69 62.03133014205635
2184.01 61.95152226102161
2215.77 61.94728238181267
2248.0 61.99191754546834
2280.7 62.03113810981566
2313.87 62.02989930522122
2347.53 61.99359516264974
2381.68 61.96316520936041
2416.32 61.97262398937785
2451.46 62.0225402249861
2487.12 62.07828316192921
2523.3 62.109328114735504
2560.0 62.119432986503284
2597.24 62.147084301752884
2635.01 62.22233818254659
2673.34 62.33328879021937
2712.23 62.43625031305993
2751.68 62.49439582157467
2791.7 62.51552709121026
2832.31 62.545654819067295
2873.5 62.62024231163272
2915.3 62.72870376522464
2957.7 62.822628867014075
3000.72 62.868404742732665
3044.37 62.87893181901369
3088.65 62.89406721152193
3133.58 62.93676856279323
3179.16 62.984796955597446
3225.4 62.994178128884116
3272.31 62.94797255596417
3319.91 62.8795598254122
3368.2 62.82346420329509
3417.19 62.770208188559934
3466.89 62.68150910956744
3517.32 62.561733851299124
3568.48 62.470156969643995
3620.39 62.434202576971614
3673.05 62.4149306754675
3726.47 62.39582631836478
3780.67 62.42081521412052
3835.67 62.49260266221991
3891.46 62.54935928175358
3948.06 62.593076223614716
4005.49 62.68512646068379
4063.75 62.79209134158411
4122.86 62.818092711062974
4182.82 62.79141175440529
4243.66 62.79586228590405
4305.39 62.78046880020884
4368.01 62.68473202565178
4431.55 62.552165662961386
4496.01 62.41364628681818
4561.4 62.268619336134535
4627.75 62.173380427902345
4695.06 62.11594858569663
4763.35 62.07250000315216
4832.64 62.11176027763729
4902.93 62.18649948708432
4974.24 62.260224704532504
5046.6 62.39724700136857
5120.0 62.50324041718346
5194.47 62.57928855976658
5270.03 62.675451264236756
5346.68 62.65739411939863
5424.45 62.62782341879618
5503.35 62.62341092723847
5583.4 62.55137846711408
5664.61 62.61210711122075
5747.01 62.65778724590719
5830.6 62.71687730550374
5915.41 62.87342639286345
6001.45 62.877723693895376
6088.74 62.8772538254926
6177.3 62.76216536657971
6267.15 62.691954345390045
6358.31 62.7202003686412
6450.8 62.794131441704906
6544.62 63.02194629621306
6639.82 63.204588991918484
6736.4 63.42679083813661
6834.38 63.511957980648546
6933.79 63.58245584919672
7034.64 63.50819039721293
7136.96 63.39517839690184
7240.77 63.149998597868915
7346.09 62.972850565071326
7452.94 62.808993192849215
7561.35 62.78788216698021
7671.33 62.78699462453051
7782.91 62.90599495078676
7896.12 63.002271615795564
8010.97 63.11321552096247
8127.49 63.180530181497716
8245.71 63.17129319461175
8365.65 63.13839393205177
8487.33 63.1351727631845
8610.78 63.08579323303009
8736.03 62.77092690160505
8863.09 62.39561387044684
8992.01 62.0781076246748
9122.8 61.89428496213277
9255.5 61.91306169025505
9390.12 62.00457598592379
9526.7 62.003227730855656
9665.27 61.86587589207792
9805.86 61.651201949459434
9948.49 61.45507427144628
10093.2 61.39990623659591
10240.0 61.52643859498352
10388.9 61.7290220984366
10540.1 61.89504453429291
10693.4 61.991941131009185
10848.9 62.02213483097245
11006.7 62.00666233485737
11166.8 61.97713493615852
11329.2 61.87014329195672
11494.0 61.70437034734056
11661.2 61.63113242472784
11830.8 61.767267115431366
12002.9 62.027908112713575
12177.5 62.18314871278781
12354.6 62.078105981720825
12534.3 61.75515146368309
12716.6 61.43089014329942
12901.6 61.29104130772333
13089.2 61.248582308214466
13279.6 61.19254688313377
13472.8 61.029077996785674
13668.8 60.77962462138734
13867.6 60.45261491341964
14069.3 60.04461880052499
14273.9 59.66687378436765
14481.5 59.51526480575305
14692.2 59.527302502490016
14905.9 59.38417676575324
15122.7 58.936725808367214
15342.7 58.44834486762299
15565.8 58.22642747980625
15792.2 58.26782537148392
16021.9 58.31732020113573
16255.0 58.22661690340158
16491.4 58.06763101186556
16731.3 57.97076864652209
16974.7 58.04453506010972
17221.6 57.9708552638525
17472.1 57.73230631302721
17726.2 57.38501670464957
17984.0 56.974568181852476
18245.6 56.766402543271255
18511.0 56.77421542238372
18780.2 56.806451518487336
19053.4 56.650441766569244
19330.5 56.45389365236203
19611.7 56.46345519303446
19897.0 56.55837826060713
