Freq "Estimated In-Room Response"
22.4 -9.035146016416945
23.0 -7.399801174368378
23.6 -5.752001860922348
24.0 -4.136827481645497
25.0 -2.5146809614885797
25.8 -0.9443685735379859
26.5 0.636047083567945
27.2 2.1766160850468452
28.0 3.7254785399871935
29.0 5.28750216329837
30.0 6.8349182934149155
30.7 8.39519915929003
31.5 9.986256214178496
32.5 11.592914658421506
33.5 13.229030761190984
34.5 14.86004230426289
35.5 16.522685709294592
36.5 18.199908920812874
37.5 19.86066935270091
38.7 21.513004507583076
40.0 23.157469482942417
41.2 24.79134826102296
42.5 26.40292894056509
43.7 28.005663756734435
45.0 29.614908922445835
46.2 31.24144073539054
47.5 32.89162217131744
48.7 34.556829817663186
50.0 36.258480030381804
51.5 37.993001352215146
53.0 39.78348782493336
54.5 41.58948291954965
56.0 43.43895882353564
58.0 45.33239257417233
60.0 47.24774653880826
61.5 49.201125505678846
63.0 51.17562181331505
65.0 53.20310511224747
67.0 55.22645608358832
69.0 57.260812338347506
71.0 59.248383526924016
73.0 61.18141021012117
75.0 63.080918604766595
77.5 64.86075993766354
80.0 66.54273557777276
82.5 68.10733941744448
85.0 69.56808037698295
87.5 70.8980885613899
90.0 72.1178361502027
92.5 73.22914470956162
95.0 74.24948479468239
97.5 75.17816233568435
100.0 76.00023763603853
103.0 76.7547342717928
106.0 77.43065334882384
109.0 78.0281335843496
112.0 78.55375675424231
115.0 79.00566437017866
118.0 79.40065293995558
122.0 79.73058316072306
125.0 80.00545567562887
128.0 80.20275067271652
132.0 80.37579702213401
136.0 80.50356961662528
140.0 80.59148506640469
145.0 80.65633891390738
150.0 80.69028619009852
155.0 80.72688784139568
160.0 80.7475774346255
165.0 80.75582513769771
170.0 80.7805024422835
175.0 80.7860388557648
180.0 80.79666371891835
185.0 80.76421272388933
190.0 80.75760852575883
195.0 80.7158701950502
200.0 80.64862899513155
206.0 80.54398968020087
212.0 80.42526121018949
218.0 80.30584760198967
224.0 80.17218815672578
230.0 80.04036531102429
236.0 79.89520130216026
240.0 79.77220758692123
250.0 79.65368249931979
258.0 79.54849196351783
265.0 79.46312801234227
272.0 79.40092662303923
280.0 79.33789889391107
290.0 79.29798101509188
300.0 79.26611236103082
307.0 79.2351732405786
315.0 79.20669912451903
325.0 79.1687827777989
335.0 79.13270433579316
345.0 79.08862765801607
355.0 79.0306287277794
365.0 78.9357019766851
375.0 78.83769576696511
387.0 78.71507601053594
400.0 78.5452458049468
412.0 78.36708217911392
425.0 78.15575521617129
437.0 77.9311520486407
450.0 77.73116758126807
462.0 77.51032678298017
475.0 77.3615119350325
487.0 77.23520918180914
500.0 77.21076680062194
515.0 77.21682324297059
530.0 77.33718965994181
545.0 77.478159870632
560.0 77.67138847748416
580.0 77.85072420463908
600.0 77.99954073556914
615.0 78.09278235872168
630.0 78.16935594689174
650.0 78.16742567940125
670.0 78.14615880351744
690.0 78.0827127840821
710.0 78.04897515449609
730.0 78.06625223926162
750.0 78.09642823055326
775.0 78.18220422039725
800.0 78.29377793260718
825.0 78.38473977513152
850.0 78.429172966765
875.0 78.39121988044592
900.0 78.29978831916193
925.0 78.12934323961056
950.0 77.92124739098124
975.0 77.70745232666664
1000.0 77.50603462016744
1030.0 77.359211140367
1060.0 77.25475675582796
1090.0 77.15505622788027
1120.0 77.08423196628218
1150.0 77.01030675842571
1180.0 76.95653982007026
1220.0 76.85949377938095
1250.0 76.80358844708192
1280.0 76.70304867568953
1320.0 76.59511160732495
1360.0 76.52481958814629
1400.0 76.44590435503247
1450.0 76.37191504077367
1500.0 76.34463190487
1550.0 76.31991573056447
1600.0 76.32422656440225
1650.0 76.33168332629883
1700.0 76.38060724843237
1750.0 76.40713409142651
1800.0 76.43125487978124
1850.0 76.40479365084188
1900.0 76.3613472597856
1950.0 76.31545410146379
2000.0 76.24769015770984
2060.0 76.17795151175349
2120.0 76.11961593924134
2180.0 76.07587335833696
2240.0 76.02738406597918
2300.0 76.00787684159556
2360.0 75.99912611302409
2400.0 75.98202585575781
2500.0 76.00382361223988
2580.0 76.06933572955667
2650.0 76.10294175613357
2720.0 76.20264675692442
2800.0 76.25602817566332
2900.0 76.34687459493733
3000.0 76.39197261537176
3070.0 76.40137736061607
3150.0 76.4390257594402
3250.0 76.39424420308987
3350.0 76.37716681099684
3450.0 76.3181990505093
3550.0 76.26673853921939
3650.0 76.1866269820796
3750.0 76.06326855205833
3870.0 75.96990900247019
4000.0 75.85382576870322
4120.0 75.74637246644996
4250.0 75.64818740962399
4370.0 75.53963835892552
4500.0 75.442830766607
4620.0 75.33789566908193
4750.0 75.25032402877216
4870.0 75.13672636094941
5000.0 75.00907262226235
5150.0 74.95721916192194
5300.0 74.88630162713883
5450.0 74.82791679237862
5600.0 74.74308021176161
5800.0 74.7157245649806
6000.0 74.68642291442856
6150.0 74.6732478606628
6300.0 74.65976781218941
6500.0 74.64884125744699
6700.0 74.61215140563198
6900.0 74.61952723746509
7100.0 74.62405998886774
7300.0 74.63503105300376
7500.0 74.6745367941419
7750.0 74.76395617385117
8000.0 74.84048608291577
8250.0 75.00316292568994
8500.0 75.1502906940171
8750.0 75.32162268636492
9000.0 75.45288831661996
9250.0 75.57532369421561
9500.0 75.64637051854709
9750.0 75.69661000460206
10000.0 75.6941608756257
10300.0 75.66161651952025
10600.0 75.57917212650085
10900.0 75.43613538190615
11200.0 75.21041449498749
11500.0 74.91816135072938
11800.0 74.59693284646394
12200.0 74.29442542676756
12500.0 74.19420655503511
12800.0 74.26670652922309
13200.0 74.53486697160366
13600.0 74.8184197967842
14000.0 75.10621240437568
14500.0 75.41709410326233
15000.0 75.66719345911022
15500.0 75.82976417780151
16000.0 75.83577476901627
16500.0 75.67070031420883
17000.0 75.30823341508606
17500.0 74.80035898279196
18000.0 74.2031320598846
18500.0 73.56504332925434
19000.0 72.75357518161722
19500.0 71.91410161399351
