Freq "Sound Power"
20.5078 65.51656657504947
21.9727 68.38820632487472
23.4375 70.38623706831261
24.9023 72.40601833349326
26.3672 74.06767354099217
27.832 75.6226064791918
29.2969 76.72130162644585
30.7617 77.73459803379964
32.2266 78.46192724195244
33.6914 79.0349910627326
35.1562 79.2808670100504
36.6211 79.5413440709013
38.0859 79.67432280553739
39.5508 79.8429732784647
41.0156 79.94974534681413
42.4805 80.00328823554275
43.9453 79.98311617977396
45.4102 80.12625243771726
46.875 80.19173191973609
48.3398 80.19190614906636
51.2695 80.29950920424804
52.7344 80.36377277195314
54.1992 80.57623737335472
55.6641 80.63805611852828
58.5938 80.75110623621379
60.0586 80.85341510661702
62.9883 81.1264374848502
64.4531 81.17420377696028
67.3828 81.25691102987803
68.8477 81.37065439836965
71.7773 81.60394723759534
74.707 81.77128287075374
77.6367 81.94184511884814
79.1016 82.00609101072808
82.0312 81.98949573348487
84.9609 82.11193368013889
87.8906 82.18983075785893
90.8203 82.35475027424951
95.2148 82.4595438766466
98.1445 82.56741924571465
101.074 82.51838032148555
105.469 82.6846634069521
108.398 82.8518500191594
112.793 82.89560580905919
117.188 82.88395031062267
120.117 82.94794070392021
124.512 82.90566575830263
128.906 82.83653965345033
133.301 82.86546769616976
139.16 82.89340571986583
143.555 82.87493523691852
147.949 82.82584657066417
153.809 82.76103272642906
159.668 82.91592989566412
165.527 83.01042860915882
171.387 82.93772546712475
177.246 82.91181334961865
183.105 82.84902108601477
188.965 82.86619079388497
196.289 83.03433626554528
203.613 82.93609915923889
210.938 82.83087218987511
218.262 82.90419214497715
225.586 83.00147004292188
232.91 82.75431371017558
241.699 82.60815715809397
250.488 82.58902881719968
259.277 82.70507508944175
268.066 82.27952294635439
276.855 82.36205073253197
287.109 82.29653120727838
297.363 82.19162166994468
307.617 82.13911536000407
319.336 81.84347377252223
329.59 81.76805349082915
341.309 81.43605201125706
353.027 81.44385784234636
366.211 81.71691463539285
379.395 82.50472427558873
392.578 82.31158212168297
405.762 81.54549992710345
420.41 81.49787881912091
435.059 81.58626474040591
451.172 81.69891300925912
465.82 81.36748730995929
483.398 81.53181182150051
499.512 81.6220829972661
517.09 81.19013192574963
536.133 81.01836771923497
555.176 80.94786094722579
574.219 80.94815437222431
594.727 80.62392630764815
615.234 80.42760816274269
637.207 80.2757710860025
659.18 79.74969267121757
682.617 79.6890862824021
707.52 79.96585547163166
732.422 79.78515896273039
757.324 79.63736027175125
785.156 79.67122678065306
811.523 79.51993448492289
840.82 79.67564781756533
870.117 79.46735109741905
900.879 79.65174237236023
933.105 79.23109214563745
965.332 79.23741458637306
1000.49 78.94781540389533
1035.64 78.7722843216225
1072.27 78.61326377433784
1108.89 78.41138783732714
1148.44 78.31059131168465
1189.45 78.2637721218501
1230.47 78.05858502698813
1274.41 77.92623526601042
1319.82 78.27136578850913
1366.7 78.24051496549288
1413.57 78.11637631792216
1463.38 77.73272314878959
1516.11 77.25339570483638
1568.85 76.74650025238395
1624.51 76.88397642681008
1681.64 77.26363128239183
1741.7 76.86358966011363
1803.22 76.57057585833854
1866.21 76.05971693225861
1932.13 75.70710144922484
1999.51 76.06420150450528
2069.82 76.28581885001563
2143.07 76.1557151366271
2219.24 75.62926493928133
2296.88 75.14443486767838
2378.91 75.37891867381428
2462.4 75.79389904797061
2548.83 75.41370992789211
2639.65 74.86823960613073
2731.93 74.19574070324501
2828.61 74.2532342807929
2928.22 74.58731594605209
3030.76 74.96538874506648
3137.7 75.31873055299081
3249.02 75.44770849935837
3363.28 75.57257371591822
3481.93 76.56185753721104
3604.98 77.24504124132952
3732.42 77.1873376231433
3864.26 76.34034175098834
4000.49 75.97369963164121
4141.11 75.85064328722208
4287.6 75.7627802713616
4438.48 75.52562552046012
4595.21 75.06183025277646
4756.35 74.91621378811098
4924.8 75.33322302515896
5097.66 76.49725127592646
5277.83 77.01291832431586
5463.87 76.99993273335932
5657.23 76.684497655379
5856.45 76.21557405209646
6062.99 76.05236248870911
6276.86 75.62943647454344
6498.05 75.6135322793055
6726.56 74.96460599551911
6963.87 74.18674126049525
7209.96 75.19577980229104
7464.84 76.18419965388335
7727.05 76.83279886582406
7999.51 76.17227731795276
8282.23 75.52600236463897
8573.73 74.86088219659746
8876.95 74.26348988780884
9188.96 73.21895522311755
9514.16 72.95954382113216
9849.61 73.16954667178301
10196.8 73.3254041402824
10555.7 73.11274064007814
10927.7 72.71454034025768
11313.0 72.09706961170642
11712.9 71.44692193652642
12126.0 71.12557884751064
12553.7 70.92821256316051
12996.1 70.7214442773965
13454.6 70.40945075645311
13929.2 70.09315045222745
14419.9 69.58661422343243
14928.2 68.73954173152234
15455.6 68.18705793315536
16000.5 67.67904421625661
16564.5 67.32846458934316
17148.9 66.84448836891592
17752.4 66.15562906772165
18379.4 65.23239456479509
19026.9 64.40651046401388
19697.8 63.60015437220767
19999.5 63.278518614303664
