Freq "Estimated In-Room Response"
20.5078 58.68351702796707
21.9727 59.52218208289028
23.4375 59.72233571791227
24.9023 61.27404613543081
26.3672 62.382106310712146
27.832 63.73486585570555
29.2969 64.510036844615
30.7617 65.38905586548944
32.2266 66.19982183531923
33.6914 66.82987293701366
35.1562 67.51072523917026
36.6211 68.27177701741684
38.0859 68.9328450365695
39.5508 69.60332096503492
41.0156 70.19840543646362
42.4805 70.82324886977158
43.9453 71.40275277999451
45.4102 72.00459451731031
46.875 72.63502650808906
48.3398 73.18900293103484
51.2695 74.20631853787717
52.7344 74.67702062222203
54.1992 75.13890377181227
55.6641 75.64586340955388
58.5938 76.57949053863211
60.0586 76.96195234551823
62.9883 77.7323368797233
64.4531 78.10252746149911
67.3828 78.83769098969647
68.8477 79.14811659460904
71.7773 79.74020059153088
74.707 80.4248503117541
77.6367 80.94857019945319
79.1016 81.21836098065305
82.0312 81.61388825815379
84.9609 82.0722985154825
87.8906 82.48162125308465
90.8203 82.94076562979595
95.2148 83.52523343811475
98.1445 83.93226442680772
101.074 84.24437028868249
105.469 84.48523462931269
108.398 84.65987173588745
112.793 84.78047772565094
117.188 84.6842826666639
120.117 84.7950848608388
124.512 85.15405186753293
128.906 85.07532121772996
133.301 84.92712167366578
139.16 84.7748753284519
143.555 84.68922210029122
147.949 85.02011710180561
153.809 85.18736794840027
159.668 84.87041951004137
165.527 84.72315600096948
171.387 84.65667637184185
177.246 84.76586334553356
183.105 84.71624029751302
188.965 84.84150369306003
196.289 84.78662512670076
203.613 84.84741139289241
210.938 84.59961962727971
218.262 84.79904578659304
225.586 84.37461428960364
232.91 84.11315194742964
241.699 83.8887655120899
250.488 85.32125850393841
259.277 84.86269616124994
268.066 84.73008220251577
276.855 84.5983842169684
287.109 83.9712454530996
297.363 83.85330192407973
307.617 83.47908973674325
319.336 83.44298459996224
329.59 83.9116382367125
341.309 83.67233783141143
353.027 83.63460928370037
366.211 83.53525825056622
379.395 83.55675224928663
392.578 84.47744006289832
405.762 84.03882238831486
420.41 84.07546233553313
435.059 83.2554915640305
451.172 82.38339058265805
465.82 83.17215510663229
483.398 83.57988230591471
499.512 83.6910921353086
517.09 82.76931135118603
536.133 82.91810908771035
555.176 83.2460070890664
574.219 82.84818189753055
594.727 82.99566891094993
615.234 83.28101569259391
637.207 83.5477875199301
659.18 83.9294576542888
682.617 83.23940919588722
707.52 83.02128302871118
732.422 83.13137217728504
757.324 83.6994572572625
785.156 83.67601647648843
811.523 83.08498212522387
840.82 83.85064614367101
870.117 83.87309903587276
900.879 82.8291871755682
933.105 82.20490733949391
965.332 82.28300836753128
1000.49 82.08440306585418
1035.64 81.47944866494797
1072.27 81.71296051272442
1108.89 81.67728551900582
1148.44 81.24397777727098
1189.45 81.08622012310593
1230.47 81.44921621475186
1274.41 81.20858498743247
1319.82 81.77546223045681
1366.7 81.92401301807594
1413.57 82.15121381249344
1463.38 82.53649603125118
1516.11 82.18549026260199
1568.85 82.01980511934147
1624.51 81.94726559196093
1681.64 82.34723797289266
1741.7 82.30008645915717
1803.22 82.46028722669163
1866.21 82.04578212856632
1932.13 81.93978443207632
1999.51 81.65691221061422
2069.82 81.46520433124178
2143.07 80.91381901136062
2219.24 80.71151881284695
2296.88 81.38435848500102
2378.91 81.25923723066337
2462.4 80.88912255552488
2548.83 81.06578203234947
2639.65 81.69203792394093
2731.93 81.66084764573498
2828.61 81.48989093094069
2928.22 80.98893780953227
3030.76 81.06141086866538
3137.7 81.2695518838811
3249.02 80.72583293359313
3363.28 80.9931605974473
3481.93 80.78369840693605
3604.98 80.59233961100826
3732.42 80.61087457783061
3864.26 80.28068678883479
4000.49 80.62463010583878
4141.11 80.45977940974359
4287.6 80.22166827571334
4438.48 80.49308650866064
4595.21 80.00857239346011
4756.35 80.1252276621277
4924.8 79.92863942235157
5097.66 80.07802726417312
5277.83 79.88034292722585
5463.87 80.09412402988205
5657.23 79.95097262531512
5856.45 79.80193481630207
6062.99 79.92643644081191
6276.86 79.83775631569141
6498.05 79.73818591957516
6726.56 79.94124693575877
6963.87 79.96260303902247
7209.96 80.01549030219994
7464.84 79.78899114173716
7727.05 79.46891281755654
7999.51 79.34686117497886
8282.23 79.1645678235176
8573.73 79.33720992468234
8876.95 79.59357073290009
9188.96 79.50443162753535
9514.16 79.35242091195535
9849.61 79.29232925817617
10196.8 79.22925767921565
10555.7 79.12709475308581
10927.7 79.09095412332604
11313.0 79.14388346013227
11712.9 79.21432117522966
12126.0 79.25138952596785
12553.7 79.07580441901509
12996.1 78.68302856584486
13454.6 78.46783841085849
13929.2 78.87206240906266
14419.9 79.15176570339888
14928.2 79.19405056493062
15455.6 78.65463280306946
16000.5 77.97806867324447
16564.5 77.56743631549641
17148.9 77.11282788325695
17752.4 76.4227984078479
18379.4 75.55041673438035
19026.9 74.49934713772593
19697.8 73.86198033328947
19999.5 73.69051439612332
