Freq "Estimated In-Room Response"
22.4 -2.074302698454005
23.0 -0.6236207872979094
23.6 0.8096135799073352
24.0 2.215860071730475
25.0 3.634233581066269
25.8 4.986320935990278
26.5 6.287037749834695
27.2 7.557472509837794
28.0 8.81586007173047
29.0 10.118486790381041
30.0 11.48532897208446
30.7 12.928975000677383
31.5 14.496272983977178
32.5 16.20961357990734
33.5 18.048994271007075
34.5 19.958735777198797
35.5 21.925697301545995
36.5 23.958735777198797
37.5 25.972104065245986
38.7 27.972104065245986
40.0 29.890366636056
41.2 31.772104065245998
42.5 33.53694907125691
43.7 35.20961357990734
45.0 36.797066753016054
46.2 38.28318461103524
47.5 39.657225824987194
48.7 40.896272983977155
50.0 42.049616837120254
51.5 43.05821281806965
53.0 43.9872703158442
54.5 44.86493639256378
56.0 45.718486790381064
58.0 46.61119390559978
60.0 47.57210406524598
61.5 48.61752300972674
63.0 49.817560789203085
65.0 51.18632093599024
67.0 52.6747827500771
69.0 54.27478275007711
71.0 55.92354261966146
73.0 57.590482784874425
75.0 59.25674273364852
77.5 60.85722582498718
80.0 62.33694907125691
82.5 63.69790431341448
85.0 64.95177724709788
87.5 66.05884325673175
90.0 67.02397848796483
92.5 67.86436254189834
95.0 68.57447219815371
97.5 69.16612189527359
100.0 69.61756078920308
103.0 69.96820176559311
106.0 70.18598660972748
109.0 70.31600556098473
112.0 70.37920219952984
115.0 70.35689155488276
118.0 70.27425529524166
122.0 70.16626979077985
125.0 70.01291618058715
128.0 69.84399484182038
132.0 69.67282533400405
136.0 69.48869414781828
140.0 69.30208616019704
145.0 69.15160091890779
150.0 68.98805349491593
155.0 68.85379898399616
160.0 68.75624951370278
165.0 68.68374993380856
170.0 68.63451769633934
175.0 68.61586731445581
180.0 68.61428510199167
185.0 68.62096600345737
190.0 68.64016366023566
195.0 68.65113028737143
200.0 68.65812030462334
206.0 68.64357294718104
212.0 68.61949747595125
218.0 68.58152579852084
224.0 68.50593350387638
230.0 68.4187458133973
236.0 68.28232444532512
240.0 68.13534805860363
250.0 67.95904563241211
258.0 67.74048764918841
265.0 67.49361270776606
272.0 67.22768949659536
280.0 66.96612739135377
290.0 66.70622430851442
300.0 66.47040671705302
307.0 66.26420222381401
315.0 66.09703959918735
325.0 65.95900566557266
335.0 65.86438292966653
345.0 65.83780593560728
355.0 65.84058812949338
365.0 65.86178270929524
375.0 65.92150134695326
387.0 65.98817547456648
400.0 66.07315944620854
412.0 66.17402556884231
425.0 66.27452503859521
437.0 66.36816029105182
450.0 66.45382252231101
462.0 66.50494274449429
475.0 66.51987901837822
487.0 66.50736300184872
500.0 66.44969975514927
515.0 66.33302564695757
530.0 66.17410620095565
545.0 66.00784093859303
560.0 65.82782058035421
580.0 65.6550266989166
600.0 65.49788601064503
615.0 65.37171972225269
630.0 65.29578832765273
650.0 65.28638282957839
670.0 65.32800845991716
690.0 65.4003309006107
710.0 65.51885939997231
730.0 65.62723718519646
750.0 65.77208498859564
775.0 65.91458561583252
800.0 66.04776719402766
825.0 66.14338387089329
850.0 66.21683167351411
875.0 66.26248849815255
900.0 66.2653373612314
925.0 66.2611226274451
950.0 66.22072399438477
975.0 66.1549550444627
1000.0 66.08263654929242
1030.0 65.96464236630305
1060.0 65.83423661572554
1090.0 65.69464456185374
1120.0 65.52610367134763
1150.0 65.35030593182557
1180.0 65.15417592201564
1220.0 64.94644005049084
1250.0 64.71057559002588
1280.0 64.46678546774197
1320.0 64.2208692910302
1360.0 63.98543498038748
1400.0 63.78769643748956
1450.0 63.59380330153658
1500.0 63.470336089960625
1550.0 63.41810712916664
1600.0 63.390589337514086
1650.0 63.43574698373877
1700.0 63.50876359640405
1750.0 63.6054147721636
1800.0 63.736904841743765
1850.0 63.869716970086145
1900.0 64.00854229367387
1950.0 64.10330399101062
2000.0 64.16212981233929
2060.0 64.1663808015458
2120.0 64.10154949944389
2180.0 64.01970816859549
2240.0 63.92422106790707
2300.0 63.779596114302905
2360.0 63.67224633824131
2400.0 63.55351860934918
2500.0 63.464329634675465
2580.0 63.40771740071433
2650.0 63.39809432078202
2720.0 63.402551784197385
2800.0 63.442570046043315
2900.0 63.489741920878814
3000.0 63.54457051817593
3070.0 63.57832201125534
3150.0 63.572316288049294
3250.0 63.56598123458488
3350.0 63.50667081948913
3450.0 63.42142219801201
3550.0 63.34648492101354
3650.0 63.25846440664279
3750.0 63.16113929167459
3870.0 63.06284930782273
4000.0 62.974940323001405
4120.0 62.853131705802994
4250.0 62.7510343248417
4370.0 62.660739404421946
4500.0 62.5917405574648
4620.0 62.56176452116131
4750.0 62.56474696073643
4870.0 62.57603797074117
5000.0 62.65442450036241
5150.0 62.77406781692778
5300.0 62.93250772637752
5450.0 63.104466833197435
5600.0 63.26652428981507
5800.0 63.444422086584325
6000.0 63.56059853787927
6150.0 63.60617584079904
6300.0 63.565136038164496
6500.0 63.44210184059416
6700.0 63.193414869670136
6900.0 62.911480617638645
7100.0 62.55116811192869
7300.0 62.22397128356977
7500.0 61.87660376220876
7750.0 61.59370166251877
8000.0 61.324308531131976
8250.0 61.17899141058744
8500.0 61.079045281647296
8750.0 61.032013753505
9000.0 61.033831854410565
9250.0 61.0592976263445
9500.0 61.06812269722165
9750.0 61.06869377967905
10000.0 61.06320341597015
10300.0 60.988642526901
10600.0 60.894378485875905
10900.0 60.754085644882224
11200.0 60.59930927802087
11500.0 60.46104244275483
11800.0 60.290234741257976
12200.0 60.15121815617074
12500.0 60.06320229233859
12800.0 59.96970677022324
13200.0 59.916488004570624
13600.0 59.871210554046144
14000.0 59.81646705679411
14500.0 59.72336270150801
15000.0 59.61591569987752
15500.0 59.43586635706578
16000.0 59.215416746449534
16500.0 58.89784768211439
17000.0 58.52302927976612
17500.0 58.09739213133834
18000.0 57.615116501036155
18500.0 57.11546304531201
19000.0 56.600894417733315
19500.0 56.067714024526666
