Freq "Listening Window"
22.4 0.6448717512254518
23.0 2.2910475535188084
23.6 3.913005613110357
24.0 5.5130056131103515
25.0 7.113005613110374
25.8 8.713005613110369
26.5 10.291047553518837
27.2 11.83293526236045
28.0 13.420686679525602
29.0 14.954683081334338
30.0 16.53293526236044
30.7 18.132935262360434
31.5 19.774881550574094
32.5 21.374881550574116
33.5 23.06275086565313
34.5 24.73921517058119
35.5 26.439215170581207
36.5 28.139215170581195
37.5 29.839215170581213
38.7 31.559956571224262
40.0 33.236405687029986
41.2 34.904075363132364
42.5 36.52498486321261
43.7 38.1249848632126
45.0 39.7017849235051
46.2 41.19053496374991
47.5 42.69053496374991
48.7 44.07899271118893
50.0 45.39053496374993
51.5 46.613005816654095
53.0 47.77899271118895
54.5 48.89052899113585
56.0 49.95660314969004
58.0 50.956603149690025
60.0 51.911991013256014
61.5 52.85660314969002
63.0 53.75660314969002
65.0 54.65660314969003
67.0 55.51199101325601
69.0 56.40076749445562
71.0 57.200767494455604
73.0 58.07823306508388
75.0 58.90076749445562
77.5 59.700767494455604
80.0 60.5007674944556
82.5 61.322676588301135
85.0 62.12267658830113
87.5 62.87823306508389
90.0 63.656092155009375
92.5 64.38950905739507
95.0 65.14498217571202
97.5 65.82267658830112
100.0 66.52267658830112
103.0 67.18950905739509
106.0 67.80025584655587
109.0 68.44498217571203
112.0 69.04498217571202
115.0 69.56743157327173
118.0 70.15609215500938
122.0 70.64548281841985
125.0 71.09002197288078
128.0 71.56743157327173
132.0 71.96743157327174
136.0 72.36743157327174
140.0 72.74574765970299
145.0 73.09002197288079
150.0 73.36743157327174
155.0 73.61275652700277
160.0 73.81275652700279
165.0 74.01275652700278
170.0 74.11275652700277
175.0 74.23460537419207
180.0 74.28027241338663
185.0 74.31275652700278
190.0 74.34600095967627
195.0 74.38027241338663
200.0 74.38027241338663
206.0 74.38027241338663
212.0 74.3482912457407
218.0 74.32651131486145
224.0 74.30358724897965
230.0 74.29181126989523
236.0 74.28152873995623
240.0 74.24829124574069
250.0 74.23814172963594
258.0 74.1935137772447
265.0 74.13814172963595
272.0 74.0935137772447
280.0 74.07213795325735
290.0 74.05088177762605
300.0 74.0071028882851
307.0 73.9730433389121
315.0 73.96362588424361
325.0 73.99775908035804
335.0 74.03214589566929
345.0 74.03214589566929
355.0 74.10116044138324
365.0 74.12463011359425
375.0 74.1479736349689
387.0 74.23913446256306
400.0 74.28555452053827
412.0 74.30059154242551
425.0 74.32200401710554
437.0 74.32569524703379
450.0 74.35235940203349
462.0 74.36826739884364
475.0 74.36060573008659
487.0 74.3978290500468
500.0 74.39056217868256
515.0 74.38344895477626
530.0 74.36967147893498
545.0 74.37513134896498
560.0 74.36225013991951
580.0 74.38027997349639
600.0 74.36827398215283
615.0 74.3692071851064
630.0 74.44044285882273
650.0 74.44263823625735
670.0 74.48146304406282
690.0 74.5143631957902
710.0 74.57274292896497
730.0 74.61366453237176
750.0 74.64641802306238
775.0 74.64590205381145
800.0 74.65815786792554
825.0 74.69256687487534
850.0 74.6805078151252
875.0 74.65387116372439
900.0 74.61559413702382
925.0 74.5684469715898
950.0 74.51888390873714
975.0 74.49676165583142
1000.0 74.48776493934093
1030.0 74.4454132785357
1060.0 74.43921759171079
1090.0 74.43492606115127
1120.0 74.4463080495047
1150.0 74.44604734453208
1180.0 74.47724271524542
1220.0 74.51795789286243
1250.0 74.56502547913998
1280.0 74.59937900163352
1320.0 74.67248885982318
1360.0 74.73678420402413
1400.0 74.78640247837232
1450.0 74.86547876498426
1500.0 74.89192718820348
1550.0 74.89538215609142
1600.0 74.91137464243316
1650.0 74.90275865205001
1700.0 74.81969595732814
1750.0 74.67364766521908
1800.0 74.51922510259189
1850.0 74.29856827510756
1900.0 74.10372204861439
1950.0 73.80476701813704
2000.0 73.53746087435812
2060.0 73.24304225829434
2120.0 72.91213472539951
2180.0 72.60651345281556
2240.0 72.30101309771746
2300.0 72.03925951761713
2360.0 71.80290340147414
2400.0 71.56461345534139
2500.0 71.37786546552822
2580.0 71.20625396406048
2650.0 71.11475738857825
2720.0 71.08358436068107
2800.0 71.02896109030871
2900.0 71.0327753777506
3000.0 71.10673772914663
3070.0 71.14665297911706
3150.0 71.17844131916881
3250.0 71.23198439586481
3350.0 71.28783957255087
3450.0 71.32656565564193
3550.0 71.41093364284055
3650.0 71.50596793962954
3750.0 71.57283512108368
3870.0 71.69668173155897
4000.0 71.81587973806371
4120.0 72.00547968408704
4250.0 72.18074544583837
4370.0 72.38857094137728
4500.0 72.58445476313562
4620.0 72.79338216057718
4750.0 73.0167744728144
4870.0 73.16205193068868
5000.0 73.3860511833305
5150.0 73.55409842306977
5300.0 73.75596010965674
5450.0 73.87625687187854
5600.0 73.99582030262866
5800.0 74.130086177599
6000.0 74.21822564932782
6150.0 74.24035177942903
6300.0 74.30127750851935
6500.0 74.30211136352821
6700.0 74.27250136693172
6900.0 74.23926104004975
7100.0 74.17242154860374
7300.0 74.08845508948775
7500.0 73.96794382758817
7750.0 73.84137149783268
8000.0 73.75679870975354
8250.0 73.60805272385898
8500.0 73.50192549785469
8750.0 73.3722420211867
9000.0 73.2187755465342
9250.0 73.12034644904541
9500.0 73.01251124588752
9750.0 72.91183231611976
10000.0 72.82205149432895
10300.0 72.80236826245782
10600.0 72.7987712517251
10900.0 72.77476007910307
11200.0 72.85171850441205
11500.0 72.87159036066744
11800.0 72.90478090825488
12200.0 72.95390586861944
12500.0 73.0281302831497
12800.0 73.05882837913195
13200.0 73.12016170615718
13600.0 73.13850997689578
14000.0 73.1125233462661
14500.0 73.00794917966724
15000.0 72.86809190573146
15500.0 72.63779442873667
16000.0 72.28617494503138
16500.0 71.80932160238868
17000.0 71.19835859117427
17500.0 70.55260243123374
18000.0 69.80086307976873
18500.0 69.02681433398993
19000.0 68.22832798184278
19500.0 67.37632285896856
