Freq "Front Wall Bounce"
22.4 40.728240576241376
23.0 43.64066149619259
23.6 46.44242667402207
24.0 47.72533241323322
25.0 48.599069030530984
25.8 49.47194738697007
26.5 49.339091155356726
27.2 47.45739534555
28.0 48.04203745387423
29.0 49.291989342131274
30.0 50.05124775938168
30.7 49.943168427931454
31.5 50.17294973454872
32.5 50.64330176915439
33.5 51.98934343779459
34.5 53.53383813804541
35.5 55.085227129190386
36.5 56.743566864699574
37.5 58.34349976786366
38.7 60.19373893559805
40.0 62.156839168840136
41.2 63.6463972185753
42.5 65.211332781499
43.7 67.29402558211287
45.0 69.17055545120898
46.2 69.40324675147562
47.5 69.03398379486292
48.7 68.58077571836853
50.0 69.0791061143826
51.5 69.8623623269543
53.0 70.65357235970978
54.5 71.17831661258039
56.0 71.75408843578373
58.0 72.37399037943577
60.0 72.96955890952816
61.5 73.4403547273055
63.0 73.88270257952705
65.0 74.18336306542558
67.0 74.36345119026583
69.0 74.50857261778269
71.0 74.89932941842932
73.0 75.30400815718167
75.0 75.57266367710969
77.5 75.71508314243883
80.0 75.7
82.5 75.55742449135815
85.0 75.48585448910238
87.5 75.40097926743464
90.0 75.10432842854023
92.5 74.94346508697897
95.0 74.77198631358856
97.5 74.687474450758
100.0 74.65839089711046
103.0 74.687474450758
106.0 74.8297799508283
109.0 74.97198631358856
112.0 75.08651449586094
115.0 75.12946066855592
118.0 75.22880715674528
122.0 75.32880715674528
125.0 75.2431393953378
128.0 75.14313939533781
132.0 74.94313939533782
136.0 74.81475531529209
140.0 74.50065786069426
145.0 74.20065786069425
150.0 73.90362500576275
155.0 73.87397253892371
160.0 73.84675150375354
165.0 74.04675150375354
170.0 74.19044363353323
175.0 74.36394512452715
180.0 74.43537086618986
185.0 74.53537086618987
190.0 74.33924275721989
195.0 74.08539130564125
200.0 73.68539130564125
206.0 73.12940676691628
212.0 72.62940676691628
218.0 72.32940676691626
224.0 72.42940676691627
230.0 73.02940676691627
236.0 73.8136394060688
240.0 74.49366590096781
250.0 74.93924275721992
258.0 75.09366590096782
265.0 74.91998423401444
272.0 74.66035311823197
280.0 74.24574459001023
290.0 73.78748929892042
300.0 73.67297191737703
307.0 73.80229476693692
315.0 74.25000634017073
325.0 74.77848478147017
335.0 75.04675150375354
345.0 74.98086845464633
355.0 74.90126136965907
365.0 74.9600593685791
375.0 75.06005936857912
387.0 75.06779163544479
400.0 75.0136394060688
412.0 75.1729181897017
425.0 75.33924275721992
437.0 75.32386986096213
450.0 75.03366980709029
462.0 74.86035311823196
475.0 74.97848478147016
487.0 74.59229614141321
500.0 74.28468356256603
515.0 74.21561744083199
530.0 74.33842054300757
545.0 74.79888657798578
560.0 75.58147278830732
580.0 76.09343859806336
600.0 76.402876283004
615.0 76.463736118014
630.0 76.25821708819498
650.0 76.202876283004
670.0 76.00287628300401
690.0 75.52285588808361
710.0 74.90470702014275
730.0 74.6596855474149
750.0 74.53443179205897
775.0 74.52758020744902
800.0 74.47091054784845
825.0 74.33156734312867
850.0 74.19888657798577
875.0 74.064750136811
900.0 74.14636972502741
925.0 74.07755820836576
950.0 74.22093228243583
975.0 74.27755820836575
1000.0 74.53763373458919
1030.0 75.2563032996247
1060.0 75.40570195188221
1090.0 75.03871757721683
1120.0 74.51063265137014
1150.0 74.34124799874559
1180.0 74.09064436625222
1220.0 74.63763373458919
1250.0 75.07755820836574
1280.0 75.46348233692478
1320.0 76.04329663334434
1360.0 76.1281333000674
1400.0 76.04540219268524
1450.0 76.27146493467717
1500.0 76.21155865308228
1550.0 76.05378373474547
1600.0 75.44878181929043
1650.0 74.96690313153269
1700.0 74.49921749581698
1750.0 74.31888731293627
1800.0 74.74505370485437
1850.0 74.72893828215967
1900.0 75.5066916966184
1950.0 76.2996394049785
2000.0 76.75630329962469
2060.0 77.26554496792102
2120.0 78.24831893971333
2180.0 78.5904280961703
2240.0 78.77187541720465
2300.0 78.14977242527428
2360.0 77.08664191481759
2400.0 77.3433888131779
2500.0 77.67640057047572
2580.0 78.10250741783179
2650.0 77.53275157997822
2720.0 76.42079444990027
2800.0 76.4059350948675
2900.0 76.46138002358114
3000.0 76.07491539298238
3070.0 75.13849512065678
3150.0 74.57945761727862
3250.0 74.75526248684176
3350.0 75.30696922900135
3450.0 75.51914616852093
3550.0 75.78747899297782
3650.0 75.66759933964369
3750.0 74.65950382099223
3870.0 74.32037185935934
4000.0 75.16144740703687
4120.0 76.0101145313217
4250.0 76.4531942031537
4370.0 76.52857859375538
4500.0 76.41004779294259
4620.0 76.16068818418816
4750.0 76.73341526917744
4870.0 77.26340201745823
5000.0 77.29009840257406
5150.0 76.67525122642456
5300.0 76.43064160024609
5450.0 76.0163537242835
5600.0 74.82180195495916
5800.0 74.53383584519855
6000.0 74.62205704336665
6150.0 75.61659672718082
6300.0 75.7306545775798
6500.0 75.45243494667304
6700.0 74.55858125211864
6900.0 75.05061476690102
7100.0 74.9265718191283
7300.0 74.41194931108798
7500.0 75.157526392141
7750.0 76.00569477061627
8000.0 77.43787692169067
8250.0 76.73278882757177
8500.0 76.06580351577787
8750.0 75.92805359620257
9000.0 76.23502122931328
9250.0 74.99212260426057
9500.0 74.73966678216007
9750.0 76.56282998830761
10000.0 76.76827510958958
10300.0 76.4907971650834
10600.0 75.95436045331478
10900.0 76.0359381866568
11200.0 76.20721959487668
11500.0 75.89715721023524
11800.0 74.73551824911732
12200.0 75.65243494667303
12500.0 74.94179206952262
12800.0 72.74399390702415
13200.0 69.67360538006176
13600.0 69.92979499755904
14000.0 71.6034946642643
14500.0 69.56584344186211
15000.0 69.38831552292606
15500.0 70.14794918895079
16000.0 76.83231074449358
16500.0 76.10991459708927
17000.0 72.71980286068185
17500.0 72.20952052616687
18000.0 71.22367387794186
18500.0 68.90100581578638
19000.0 67.6874943711473
19500.0 67.70747624722371
