Freq "On Axis"
20.5078 65.66840000000002
21.9727 66.5949
23.4375 67.55609999999999
24.9023 68.88650000000001
26.3672 69.3571
27.832 70.3322
29.2969 71.3696
30.7617 72.255
32.2266 73.0868
33.6914 73.9191
35.1562 74.6768
36.6211 75.5382
38.0859 76.4298
39.5508 77.13479999999998
41.0156 77.7995
42.4805 78.5735
43.9453 79.3769
45.4102 79.98430000000002
46.875 80.59990000000002
48.3398 81.27860000000001
51.2695 82.5754
52.7344 83.271
54.1992 83.93369999999999
55.6641 84.4966
58.5938 85.6454
60.0586 86.2818
62.9883 87.40209999999999
64.4531 87.8679
67.3828 88.7371
68.8477 89.2394
71.7773 90.0103
74.707 90.60139999999998
77.6367 90.90520000000001
79.1016 90.9601
82.0312 91.106
84.9609 91.1756
87.8906 91.266
90.8203 91.3344
95.2148 91.0325
98.1445 90.8477
101.074 90.7076
105.469 90.2033
108.398 89.895
112.793 89.1934
117.188 89.084
120.117 89.1053
124.512 88.9618
128.906 89.0833
133.301 88.7529
139.16 88.1071
143.555 88.233
147.949 88.56820000000002
153.809 88.49719999999999
159.668 87.1544
165.527 87.137
171.387 87.1828
177.246 87.0721
183.105 86.8846
188.965 87.2787
196.289 86.7897
203.613 86.93109999999999
210.938 87.2628
218.262 86.9734
225.586 87.0468
232.91 88.01750000000001
241.699 87.16330000000002
250.488 88.1959
259.277 89.0163
268.066 87.797
276.855 87.2598
287.109 88.5403
297.363 88.4723
307.617 88.04769999999999
319.336 87.58609999999999
329.59 88.10319999999999
341.309 87.5308
353.027 88.36019999999999
366.211 88.27000000000001
379.395 87.6848
392.578 88.48149999999998
405.762 87.80859999999998
420.41 87.7361
435.059 87.1456
451.172 88.1734
465.82 88.7578
483.398 88.3567
499.512 87.1089
517.09 89.0687
536.133 89.22199999999998
555.176 88.5179
574.219 88.1757
594.727 88.3237
615.234 87.6723
637.207 86.9321
659.18 88.156
682.617 88.1823
707.52 87.6633
732.422 87.6632
757.324 88.2171
785.156 88.2043
811.523 89.0597
840.82 89.33619999999999
870.117 89.2759
900.879 89.47660000000002
933.105 88.9435
965.332 88.5592
1000.49 87.9583
1035.64 88.4417
1072.27 88.3626
1108.89 88.1497
1148.44 88.2137
1189.45 88.1626
1230.47 87.8794
1274.41 87.7228
1319.82 89.4169
1366.7 90.1721
1413.57 89.54929999999999
1463.38 90.31560000000002
1516.11 90.8686
1568.85 91.12119999999999
1624.51 91.3237
1681.64 91.1786
1741.7 90.5937
1803.22 89.6876
1866.21 89.9138
1932.13 89.464
1999.51 87.5067
2069.82 87.79230000000001
2143.07 88.678
2219.24 87.6608
2296.88 87.4524
2378.91 87.9131
2462.4 87.2672
2548.83 86.11250000000001
2639.65 86.2742
2731.93 86.6469
2828.61 87.2499
2928.22 87.5966
3030.76 87.9178
3137.7 88.10229999999999
3249.02 88.3532
3363.28 88.36689999999999
3481.93 89.4183
3604.98 88.7732
3732.42 89.857
3864.26 91.2883
4000.49 91.7894
4141.11 91.7497
4287.6 91.65690000000001
4438.48 91.5908
4595.21 91.9604
4756.35 90.40470000000002
4924.8 89.963
5097.66 90.1003
5277.83 89.4523
5463.87 88.2631
5657.23 87.79919999999998
5856.45 88.911
6062.99 89.1903
6276.86 89.8196
6498.05 89.0903
6726.56 88.1015
6963.87 87.7687
7209.96 87.6696
7464.84 88.2749
7727.05 88.707
7999.51 89.14189999999999
8282.23 89.3647
8573.73 89.9384
8876.95 90.1191
9188.96 89.7522
9514.16 90.1413
9849.61 90.83540000000002
10196.8 91.1779
10555.7 91.1426
10927.7 90.5435
11313.0 90.3834
11712.9 90.66480000000001
12126.0 91.20250000000001
12553.7 91.85229999999999
12996.1 92.2956
13454.6 92.1216
13929.2 91.9793
14419.9 91.8238
14928.2 91.6133
15455.6 91.24370000000002
16000.5 90.7713
16564.5 90.1109
17148.9 89.4586
17752.4 88.8024
18379.4 88.4793
19026.9 88.15090000000001
19697.8 87.824
19999.5 87.65620000000001
