Freq "Sound Power"
20.5078 64.89037646344661
21.9727 65.98367650040888
23.4375 66.99368422642667
24.9023 68.85998117340866
26.3672 68.89290516305559
27.832 69.56840897495259
29.2969 70.77491581187087
30.7617 71.64245304491392
32.2266 72.41407917394966
33.6914 73.2765205364043
35.1562 74.10696355904406
36.6211 74.83474852995963
38.0859 75.62694873609729
39.5508 76.34091395924104
41.0156 77.05655345027581
42.4805 77.76751022549936
43.9453 78.45231185721892
45.4102 79.18356613337818
46.875 79.86525840335726
48.3398 80.53965318074599
51.2695 81.83775328740174
52.7344 82.47460024510659
54.1992 83.10750871180328
55.6641 83.6863308774108
58.5938 84.80067716660949
60.0586 85.38828996577644
62.9883 86.41900751019924
64.4531 86.81389331742696
67.3828 87.82232927965268
68.8477 88.33380744078293
71.7773 89.06580488220123
74.707 89.59015912503547
77.6367 89.90987183493023
79.1016 90.00122013164494
82.0312 90.07620590119588
84.9609 90.07729124394724
87.8906 90.12696018402951
90.8203 90.14666686964017
95.2148 89.69664599465001
98.1445 89.37522546878384
101.074 89.04705595040181
105.469 88.48486281136019
108.398 88.21603216375775
112.793 87.44939336619156
117.188 87.03643000205494
120.117 87.17190687423798
124.512 86.96449539767993
128.906 86.63375967232147
133.301 86.25985870150483
139.16 85.66976819695705
143.555 85.6346219369335
147.949 85.91178038300225
153.809 85.47351663564234
159.668 84.75380026832994
165.527 83.99792042996668
171.387 84.03310118122022
177.246 83.77520305752375
183.105 83.82318470002043
188.965 83.84870073360298
196.289 83.2409956172838
203.613 83.05202555873771
210.938 82.85417771388677
218.262 83.24481717685013
225.586 82.92616013920932
232.91 83.02231668008021
241.699 82.34216735863305
250.488 83.05765149369866
259.277 83.76212230346167
268.066 84.02716006771058
276.855 82.68712633993411
287.109 82.9882850767801
297.363 83.12303348120139
307.617 83.10139999100586
319.336 82.45058140961804
329.59 83.12761502674411
341.309 82.4108792129013
353.027 82.32434519310767
366.211 81.99729377177704
379.395 81.8406357393209
392.578 82.36037582382656
405.762 82.3837356417282
420.41 81.88977883057605
435.059 81.8115758691433
451.172 81.9670730528382
465.82 82.21590806479571
483.398 82.81214500411404
499.512 82.41686595386491
517.09 82.7153920669279
536.133 83.01558830731776
555.176 82.62983619592778
574.219 83.02442500005712
594.727 82.64248721747781
615.234 83.08727856152103
637.207 82.88715786356599
659.18 83.00813296668386
682.617 83.1897988104175
707.52 83.22697219345254
732.422 83.00279015362639
757.324 83.32273729814138
785.156 83.23918587987805
811.523 83.46546097514438
840.82 83.74428089861382
870.117 83.50694148135221
900.879 83.70759245980705
933.105 83.36969402501026
965.332 83.1801929914967
1000.49 82.62791377197678
1035.64 82.72098334226652
1072.27 82.8735593439194
1108.89 83.57917285316807
1148.44 83.40813581331294
1189.45 82.61388470812382
1230.47 82.44737778769257
1274.41 82.29241521534891
1319.82 82.22809461492962
1366.7 82.56468349822238
1413.57 82.2676868608762
1463.38 82.13728550749119
1516.11 81.75252239545992
1568.85 81.98109105297499
1624.51 82.39219291522758
1681.64 82.41493144872014
1741.7 82.01105894757941
1803.22 82.43296676053757
1866.21 82.67116082773143
1932.13 82.88099727081362
1999.51 82.52008836171039
2069.82 82.87913689370656
2143.07 82.93669045206025
2219.24 82.17195684934174
2296.88 81.55176859832216
2378.91 81.3901785538159
2462.4 80.87236466411741
2548.83 79.5881640587463
2639.65 78.74566461640288
2731.93 78.39906616101378
2828.61 78.8482076102648
2928.22 78.98143108406256
3030.76 79.22796634853174
3137.7 79.76359596887941
3249.02 80.18119999021106
3363.28 80.62500635525639
3481.93 81.60586146624823
3604.98 81.93603537056029
3732.42 82.31091656591644
3864.26 82.9740097908864
4000.49 83.87509136367188
4141.11 83.92712497422924
4287.6 84.16213458803156
4438.48 84.3732424424625
4595.21 84.51740241699805
4756.35 84.35791140687756
4924.8 84.04288454027767
5097.66 83.90329187523876
5277.83 84.07887620704076
5463.87 83.75036832510834
5657.23 83.40500603325869
5856.45 82.74265744864384
6062.99 82.15700893986333
6276.86 81.87251577572754
6498.05 81.60213779207122
6726.56 81.4413317931091
6963.87 81.47878889478582
7209.96 81.24082394437752
7464.84 81.14745894556252
7727.05 81.03385198205801
7999.51 80.78295453090257
8282.23 80.50881592243354
8573.73 80.58205507417323
8876.95 80.85697857340168
9188.96 81.15104094065431
9514.16 81.3867152576434
9849.61 81.51473313829732
10196.8 81.43196241661968
10555.7 81.3768207157523
10927.7 81.45650494047308
11313.0 81.37778501124515
11712.9 81.33529614283921
12126.0 81.41974430148446
12553.7 81.29560677441462
12996.1 81.11338618794221
13454.6 80.71857365002856
13929.2 80.11963937172769
14419.9 79.54045800523059
14928.2 78.86045167715224
15455.6 78.1229996691755
16000.5 77.11950139290646
16564.5 75.98713871862836
17148.9 74.85763763425605
17752.4 74.00300521591964
18379.4 73.33311320266048
19026.9 72.70321261615167
19697.8 71.8055507344145
19999.5 71.34853137854537
