Freq "Rear Wall Bounce"
20.5078 56.5330839636006
21.9727 58.16059294304395
23.4375 59.5624562923104
24.9023 61.77342454728168
26.3672 64.49379018680744
27.832 64.42061141997318
29.2969 65.50259001865886
30.7617 66.21042943990541
32.2266 67.28033061726276
33.6914 68.1961405304314
35.1562 69.34993824402463
36.6211 70.54898063685053
38.0859 71.63782298181818
39.5508 72.08313267075431
41.0156 72.90118862094589
42.4805 73.88705681877812
43.9453 74.63641752363361
45.4102 75.63419432803028
46.875 76.36800806640042
48.3398 77.08698278555772
51.2695 78.6044865914426
52.7344 79.21630624885319
54.1992 79.83013309026074
55.6641 80.36663051930674
58.5938 81.30065087362429
60.0586 81.72378258241554
62.9883 82.50201207650508
64.4531 82.770272871666
67.3828 83.28586242122452
68.8477 83.48412994605825
71.7773 83.89792948040319
74.707 84.21289226609946
77.6367 84.3068390173643
79.1016 84.31999458135304
82.0312 84.49318802369876
84.9609 84.61209395967099
87.8906 84.70766957955772
90.8203 84.53890676384101
95.2148 84.70389814925153
98.1445 84.64524879548136
101.074 84.59852250833262
105.469 84.5539667610893
108.398 84.5391025349387
112.793 84.48770362149618
117.188 84.25341000231728
120.117 84.15051016699582
124.512 84.41478799268683
128.906 84.43774505065836
133.301 84.18942445673447
139.16 84.05424984639166
143.555 83.91024902422105
147.949 83.87489598763901
153.809 83.79636982843968
159.668 83.11391915266437
165.527 83.04630778636574
171.387 82.89459471980834
177.246 83.58448725744799
183.105 83.20103246164206
188.965 83.14054569499051
196.289 83.12674705838073
203.613 82.7011162874256
210.938 82.25389336894284
218.262 82.41838752363265
225.586 82.54509061711013
232.91 82.12025865803442
241.699 81.47660326669826
250.488 81.38047144926651
259.277 81.28209310367312
268.066 81.87393293309341
276.855 82.24861647356899
287.109 81.56291841288296
297.363 81.8869433047368
307.617 82.14567575582495
319.336 81.81157646388502
329.59 81.4479109664571
341.309 80.9261064911961
353.027 80.62949960113949
366.211 80.51872193261312
379.395 80.44700779105247
392.578 80.39090215702576
405.762 80.37730568544974
420.41 80.03088172155677
435.059 79.8653594561575
451.172 79.72556922527669
465.82 78.93925127281761
483.398 79.29183743779873
499.512 79.35194554895963
517.09 78.8046630710293
536.133 79.15063706636008
555.176 79.10156579155053
574.219 78.34672075280247
594.727 78.79012334516895
615.234 78.82384390544286
637.207 78.05304034465135
659.18 78.34126325037248
682.617 78.09930890968697
707.52 77.14445402714085
732.422 77.0935726364478
757.324 77.12311191248978
785.156 77.72940180972458
811.523 76.93572042101553
840.82 76.97043527952465
870.117 75.85515203812606
900.879 75.60523858400146
933.105 75.64854060953424
965.332 74.93204735079952
1000.49 75.65686506199044
1035.64 75.26605942293207
1072.27 74.85121522225599
1108.89 75.16849385843489
1148.44 73.86343827565172
1189.45 73.82331645195472
1230.47 72.99038477482998
1274.41 72.88581252185932
1319.82 71.99435426722658
1366.7 72.3732295291224
1413.57 71.76862679204626
1463.38 71.42733721266723
1516.11 70.68490536317499
1568.85 71.00250483762366
1624.51 71.22684054929054
1681.64 70.08725327101378
1741.7 69.74720812655293
1803.22 70.34836923130003
1866.21 70.48115208939157
1932.13 70.53733573079373
1999.51 71.08228772241236
2069.82 71.66982658342621
2143.07 71.64253967662023
2219.24 71.35573749446527
2296.88 71.27351845813105
2378.91 71.26537105273461
2462.4 71.06691268035416
2548.83 71.42043835595712
2639.65 71.13814532645564
2731.93 71.04366204665132
2828.61 71.09300177501146
2928.22 71.24082221671651
3030.76 70.83474763800916
3137.7 70.6586686758302
3249.02 71.39836727309569
3363.28 70.5923276085379
3481.93 70.37569250280727
3604.98 70.61656099162032
3732.42 70.51918580652824
3864.26 71.17112081655003
4000.49 70.65446308437497
4141.11 70.57108939747977
4287.6 70.56710628178007
4438.48 70.48345738449277
4595.21 70.43809908061529
4756.35 69.69495886982212
4924.8 70.51190163751585
5097.66 69.98053623507066
5277.83 69.5299481071477
5463.87 69.50068179509084
5657.23 68.7973679627303
5856.45 68.95670355527221
6062.99 68.20695400549013
6276.86 67.65050772624627
6498.05 67.1605906381998
6726.56 66.37221475951024
6963.87 65.54864117366833
7209.96 65.10688988757818
7464.84 64.80675466321851
7727.05 64.28220943495803
7999.51 63.44924079706995
8282.23 63.22544467213912
8573.73 63.46368248530611
8876.95 62.542807935419006
9188.96 61.87300822871782
9514.16 61.20933951227035
9849.61 61.316509463684255
10196.8 60.856652445602606
10555.7 59.99053536095485
10927.7 58.407581749952584
11313.0 55.962190092869804
11712.9 54.235818184405304
12126.0 53.31711742890158
12553.7 53.20069958535831
12996.1 53.844802996824086
13454.6 54.521317243676776
13929.2 55.5182100645487
14419.9 55.833632702549494
14928.2 54.3128241009604
15455.6 52.274698439233674
16000.5 49.99351586749091
16564.5 48.9938964394326
17148.9 49.86038719199311
17752.4 50.37255777244013
18379.4 50.44176347374466
19026.9 49.68745473644003
19697.8 48.29004143361266
19999.5 48.95203819337257
