Freq "Total Early Reflection"
20.5078 51.79247106379884
21.9727 52.651530699642706
23.4375 53.956006099157804
24.9023 56.69152797134973
26.3672 59.52560283689476
27.832 60.83075721874772
29.2969 62.03847233249715
30.7617 63.13542239863199
32.2266 64.4208166894631
33.6914 65.54001897033714
35.1562 66.81234436931896
36.6211 68.16315024788321
38.0859 69.73732524317379
39.5508 70.32982121785821
41.0156 71.39327549050756
42.4805 72.35235861391106
43.9453 73.20379472935934
45.4102 74.11934825150449
46.875 75.02430269010377
48.3398 75.9292861908168
51.2695 77.54953686575612
52.7344 78.30140789563974
54.1992 78.92484279284149
55.6641 79.49300953256629
58.5938 80.55431917501477
60.0586 81.02994832799591
62.9883 81.9139526988336
64.4531 82.2536141556501
67.3828 82.87177302500965
68.8477 83.09524467927916
71.7773 83.56802088985413
74.707 83.9478851183429
77.6367 84.0710148011458
79.1016 84.09790607604762
82.0312 84.30572387064774
84.9609 84.48306757423015
87.8906 84.58350797953233
90.8203 84.50712188087087
95.2148 84.81111970859766
98.1445 84.8077316283414
101.074 84.82772476846166
105.469 84.82297899459223
108.398 84.8220316256818
112.793 84.73307804568715
117.188 84.5499804918746
120.117 84.53525040843257
124.512 84.80731708012827
128.906 84.82517441050982
133.301 84.72783542151569
139.16 84.5825398685742
143.555 84.41057630567296
147.949 84.42997066408826
153.809 84.51459301645846
159.668 83.91984410154835
165.527 83.82769158223499
171.387 83.89736762239995
177.246 84.32706945431906
183.105 84.03794113939108
188.965 84.12413774625492
196.289 84.17181373688217
203.613 83.6920408743111
210.938 83.65716161429641
218.262 83.87721497928216
225.586 83.7582757466443
232.91 83.4905316559913
241.699 83.54942121345002
250.488 83.19746199443809
259.277 83.45617157870302
268.066 84.03647584284042
276.855 83.38915234852985
287.109 82.18218601981775
297.363 83.24175245823014
307.617 83.75437732870466
319.336 83.52207554238521
329.59 83.37982368641806
341.309 83.37798938419114
353.027 83.18223002631679
366.211 83.80305449168549
379.395 83.54384239603444
392.578 83.41825495989494
405.762 83.38588824624959
420.41 83.03681197459287
435.059 83.1061404286186
451.172 83.03283353362556
465.82 83.11519449297688
483.398 82.96057066458258
499.512 83.04949692472891
517.09 82.68376355928255
536.133 82.88022636334166
555.176 82.57607320869185
574.219 82.78785783812141
594.727 83.10829384834653
615.234 82.8395844199635
637.207 82.99398079494767
659.18 82.32468244066398
682.617 81.93718439759594
707.52 81.95082042430079
732.422 81.87350377531985
757.324 81.9869762933873
785.156 82.74995085554949
811.523 82.18701462814849
840.82 82.44694337787796
870.117 81.69785951413027
900.879 81.65630028332373
933.105 81.534709579248
965.332 81.44770908988671
1000.49 81.73186384012719
1035.64 81.85569362934172
1072.27 81.85564916102417
1108.89 81.76687012959673
1148.44 81.55994633452895
1189.45 80.80760529192864
1230.47 80.22580750022479
1274.41 80.06493911548014
1319.82 79.60187359972872
1366.7 79.33925895293319
1413.57 79.3140627539943
1463.38 78.9981307266745
1516.11 78.78000596148358
1568.85 79.03908496494412
1624.51 78.93868864525496
1681.64 78.11449487090069
1741.7 77.77266208881652
1803.22 78.58899984476807
1866.21 78.88857167388204
1932.13 78.583631638918
1999.51 78.66329820917974
2069.82 79.49685778142229
2143.07 79.23159611762779
2219.24 78.85845950891314
2296.88 79.39998072626626
2378.91 79.53646181577656
2462.4 79.02317831248584
2548.83 79.38803705429919
2639.65 79.54031225583122
2731.93 79.34169214303647
2828.61 79.53887084917598
2928.22 79.63910306961176
3030.76 79.64412422922635
3137.7 80.32379847334153
3249.02 80.74171996058817
3363.28 81.13962020274616
3481.93 81.3387111135997
3604.98 81.38708828356928
3732.42 81.31968806649145
3864.26 81.37490550383635
4000.49 81.07331716636105
4141.11 81.03958566276356
4287.6 81.05967719960239
4438.48 80.99361068824913
4595.21 81.13275774975567
4756.35 80.91050063972926
4924.8 80.97931917013385
5097.66 81.19131361705658
5277.83 81.25142455589004
5463.87 81.35064824543323
5657.23 81.43237552172583
5856.45 81.53789391314416
6062.99 81.46114649380283
6276.86 81.13673488709009
6498.05 81.05193478532797
6726.56 80.94709711317918
6963.87 80.91804107923717
7209.96 80.95855906668973
7464.84 80.90012600356802
7727.05 80.76102086579715
7999.51 80.68976491529757
8282.23 80.47669422937362
8573.73 80.53944667473176
8876.95 80.46913862323389
9188.96 80.3766167892476
9514.16 80.21239575683464
9849.61 80.08921972167992
10196.8 80.11501124469396
10555.7 80.3581860401459
10927.7 80.64828528649974
11313.0 81.00871264082025
11712.9 81.30831601230423
12126.0 81.42922834880939
12553.7 81.29093093014532
12996.1 81.01876357252215
13454.6 80.4535319796694
13929.2 79.83216964107575
14419.9 79.26719172522982
14928.2 79.25512836160028
15455.6 79.0678895117787
16000.5 78.70771946299968
16564.5 78.06184599794531
17148.9 77.09933256987046
17752.4 75.98050201493237
18379.4 74.82051105989277
19026.9 73.6646966392632
19697.8 72.44253698576236
19999.5 71.80584825793484
