Freq "Rear Wall Bounce"
20.5078 59.02852918165996
21.9727 60.33648749795566
23.4375 61.319433531863524
24.9023 62.24243162428121
26.3672 63.11744550017755
27.832 63.97100239289733
29.2969 64.82404600328154
30.7617 65.61030315011452
32.2266 66.41104056666057
33.6914 67.09897889001897
35.1562 67.79767633666245
36.6211 68.45986634315797
38.0859 69.0653671932488
39.5508 69.72819494940723
41.0156 70.37600674457353
42.4805 70.91078682747192
43.9453 71.48389413220035
45.4102 72.10902023349415
46.875 72.5964429779639
48.3398 73.1112099811933
51.2695 73.54449486874535
52.7344 73.6361236855081
54.1992 73.90386824992197
55.6641 74.63268444601812
58.5938 75.3841294181016
60.0586 75.73782348015902
62.9883 76.27563020543369
64.4531 76.51623580036731
67.3828 76.97478531936687
68.8477 77.18632964699873
71.7773 77.53101782217988
74.707 77.78441580813539
77.6367 77.96371403252758
79.1016 78.034214218037
82.0312 78.15286404801373
84.9609 78.2341706553268
87.8906 78.3052715581429
90.8203 78.3778163870289
95.2148 78.35121418380227
98.1445 78.32951400678775
101.074 78.3085142142971
105.469 78.17486843183374
108.398 78.11076788009326
112.793 77.99402006026068
117.188 77.86576461966419
120.117 77.79361850892941
124.512 77.68985362939998
128.906 77.57048190638942
133.301 77.48177054783882
139.16 77.41133801812883
143.555 77.32068044139179
147.949 77.27080027126472
153.809 77.09582076059971
159.668 76.91376656940287
165.527 77.01144749271536
171.387 76.95172597268515
177.246 76.7663802027677
183.105 76.6766628545908
188.965 76.46290738658143
196.289 76.1798263666245
203.613 76.34211939209304
210.938 76.2650060103115
218.262 76.19984440246962
225.586 76.09345386536552
232.91 75.84752967381735
241.699 75.65952469727486
250.488 75.14379236707968
259.277 74.64051960185006
268.066 76.26013812215984
276.855 76.45200504990515
287.109 76.34077310098249
297.363 76.29685755133525
307.617 76.66822818699751
319.336 77.5318020596635
329.59 76.94036890277327
341.309 77.11659723644524
353.027 76.74904892000806
366.211 76.73552815158554
379.395 77.0585658928476
392.578 77.13714856871076
405.762 77.01289060608512
420.41 76.78239228745598
435.059 76.37910612358544
451.172 76.24587003571293
465.82 75.89569439526105
483.398 76.24495779532738
499.512 76.50687659102748
517.09 76.51214829880414
536.133 76.55926391812372
555.176 76.34536475681463
574.219 75.98100344801435
594.727 75.95510519266108
615.234 75.76327747884861
637.207 75.84248090929451
659.18 75.84380072289252
682.617 75.55978859603638
707.52 75.35398414984436
732.422 75.70329939995636
757.324 75.63211268224299
785.156 75.14411691150438
811.523 75.42102604663273
840.82 75.34446724354444
870.117 75.52433385972944
900.879 75.64906392424572
933.105 75.64371747268899
965.332 75.56100478540297
1000.49 75.41653559447897
1035.64 74.50121418885027
1072.27 73.86209529349104
1108.89 73.4915842583435
1148.44 73.64801686822088
1189.45 73.7561584499748
1230.47 74.35813002352427
1274.41 74.33538850367424
1319.82 74.05882401370224
1366.7 72.83926336609541
1413.57 72.69979972542004
1463.38 72.94354176256182
1516.11 73.37432649775702
1568.85 73.28604463800293
1624.51 71.74229999991545
1681.64 70.83596929987755
1741.7 71.43225589293016
1803.22 71.50902074171726
1866.21 70.96884371145282
1932.13 70.00579034127244
1999.51 69.49510395861796
2069.82 69.58003463272397
2143.07 68.84330430327661
2219.24 67.62100677199855
2296.88 68.00997658448597
2378.91 68.7154045684606
2462.4 68.64196522988883
2548.83 69.00264471831751
2639.65 69.81028290121003
2731.93 69.07384968320616
2828.61 68.26312695331274
2928.22 68.64515484038387
3030.76 68.3655187499406
3137.7 67.14951114456517
3249.02 66.51119333228701
3363.28 66.68705331444042
3481.93 66.45866448028089
3604.98 66.45499364514431
3732.42 66.68292008124102
3864.26 66.43995399479863
4000.49 66.40086913657001
4141.11 66.86527425363153
4287.6 65.91716315697875
4438.48 65.31504592303047
4595.21 65.737954806611
4756.35 64.96822551078978
4924.8 65.48984248910288
5097.66 64.62437229215365
5277.83 65.69041213847052
5463.87 66.31688917692281
5657.23 65.47328625549406
5856.45 65.71447884016482
6062.99 64.57558747434697
6276.86 62.97638004693832
6498.05 62.58781009575037
6726.56 64.69086333632234
6963.87 65.23774735517304
7209.96 65.2902931142516
7464.84 65.56179423607148
7727.05 64.45839796561887
7999.51 64.88884141709448
8282.23 66.34040651496778
8573.73 67.0371100664217
8876.95 66.85914023954138
9188.96 67.63371923439693
9514.16 67.78444562791142
9849.61 68.1810868946468
10196.8 68.20191191375268
10555.7 67.60806142410749
10927.7 67.40742387785784
11313.0 68.28455257900795
11712.9 68.74176518682114
12126.0 68.77149205956941
12553.7 68.23477462448113
12996.1 67.75125200661522
13454.6 67.19690120300683
13929.2 66.83211574524707
14419.9 65.9536397481705
14928.2 64.4065825307107
15455.6 63.10083329707294
16000.5 62.39862805946987
16564.5 62.15275550972095
17148.9 61.7611824083869
17752.4 62.21972580762136
18379.4 61.63885465079983
19026.9 61.045804582351764
19697.8 61.13743131308598
19999.5 61.286338149020025
