Freq "Ceiling Bounce"
22.4 30.500803663518113
23.0 32.2008036635181
23.6 33.7371993745049
24.0 35.03719937450491
25.0 36.50324244341458
25.8 38.1032424434146
26.5 39.70324244341457
27.2 41.969799966419956
28.0 43.56979996641995
29.0 45.09961806018792
30.0 46.59961806018792
30.7 47.899618060187905
31.5 49.1996180601879
32.5 50.693463216112136
33.5 52.39346321611215
34.5 54.29346321611213
35.5 55.62451252362058
36.5 56.95753792174699
37.5 57.98884421027984
38.7 59.088844210279845
40.0 60.45370248243492
41.2 61.55370248243493
42.5 62.519083749446736
43.7 63.21908374944674
45.0 63.81908374944673
46.2 64.48498432007744
47.5 65.05140040584803
48.7 65.4175547625529
50.0 65.78498432007744
51.5 66.0175547625529
53.0 66.31755476255292
54.5 66.5175547625529
56.0 66.8175547625529
58.0 67.2175547625529
60.0 67.5175547625529
61.5 67.9175547625529
63.0 68.25140040584803
65.0 68.58422273827237
67.0 68.78422273827239
69.0 68.95140040584803
71.0 69.05140040584803
73.0 69.08422273827239
75.0 69.08422273827239
77.5 69.11755476255291
80.0 69.15140040584802
82.5 69.25140040584803
85.0 69.38422273827238
87.5 69.58422273827239
90.0 69.85140040584803
92.5 70.0175547625529
95.0 70.18422273827238
97.5 70.35140040584803
100.0 70.51755476255292
103.0 70.65140040584804
106.0 70.75140040584803
109.0 70.85140040584803
112.0 70.98576350317224
115.0 71.11908374944673
118.0 71.28576350317223
122.0 71.45370248243492
125.0 71.65370248243492
128.0 71.81908374944673
132.0 72.01908374944675
136.0 72.18576350317223
140.0 72.31908374944673
145.0 72.35140040584803
150.0 72.31755476255292
155.0 72.18422273827237
160.0 71.95140040584803
165.0 71.68576350317224
170.0 71.38576350317223
175.0 71.05370248243493
180.0 70.88884421027984
185.0 70.65753792174701
190.0 70.65753792174701
195.0 70.65753792174701
200.0 70.65753792174701
206.0 70.75753792174699
212.0 70.75753792174699
218.0 70.72214091926178
224.0 70.62214091926178
230.0 70.52214091926179
236.0 70.32214091926178
240.0 70.25753792174699
250.0 70.25753792174699
258.0 70.32672466588463
265.0 70.32672466588463
272.0 70.2629046945486
280.0 70.16979996641993
290.0 70.24046147812712
300.0 70.27822010422834
307.0 70.21159805376423
315.0 70.11652137198928
325.0 70.04960736270165
335.0 70.04960736270165
345.0 70.24960736270167
355.0 70.57822010422832
365.0 70.86979996641993
375.0 71.13283258471546
387.0 71.39640010577709
400.0 71.49107459084732
412.0 71.5604991981157
425.0 71.59107459084733
437.0 71.52672466588461
450.0 71.35753792174701
462.0 71.22451252362059
475.0 70.95605691871901
487.0 70.7284637173381
500.0 70.43399228385539
515.0 70.00301091877323
530.0 69.74109512749298
545.0 69.48113042540841
560.0 69.19476343520817
580.0 69.11258158703006
600.0 69.1430118994904
615.0 69.05097404079069
630.0 68.95097404079067
650.0 68.96895835324213
670.0 68.9451216007153
690.0 68.98840025424781
710.0 69.0451216007153
730.0 68.75097404079068
750.0 68.47932536507037
775.0 68.41731843929263
800.0 68.50831418961192
825.0 68.70080366351813
850.0 68.8304103692981
875.0 68.8304103692981
900.0 68.8629046945486
925.0 68.96691231222881
950.0 69.04535220258444
975.0 68.85536821257816
1000.0 68.85536821257816
1030.0 68.79476343520818
1060.0 68.68394314940916
1090.0 68.9129903408132
1120.0 69.28394314940915
1150.0 69.96026547820861
1180.0 70.38609554273923
1220.0 70.8194132513603
1250.0 70.96817094379175
1280.0 71.10240212243467
1320.0 71.07763078836966
1360.0 70.89454880208478
1400.0 70.57875391629189
1450.0 70.16521186892551
1500.0 69.6867399911659
1550.0 69.09915306598047
1600.0 68.66001120204298
1650.0 68.07375325538621
1700.0 67.65253856941952
1750.0 67.26178606870873
1800.0 66.94844275521098
1850.0 66.7316178168992
1900.0 66.66895835324212
1950.0 66.63445625306835
2000.0 66.71941325136031
2060.0 66.7935727049943
2120.0 66.86025542215447
2180.0 66.7652118689255
2240.0 66.65537240689788
2300.0 66.37521284827137
2360.0 66.06442287894832
2400.0 65.90864095908583
2500.0 65.69073562231449
2580.0 65.60864095908583
2650.0 65.49512950558949
2720.0 65.44535508789713
2800.0 65.27819925284932
2900.0 65.14786885570783
3000.0 64.88466338054054
3070.0 64.70720305943095
3150.0 64.50269291624845
3250.0 64.20149944911078
3350.0 63.94530105602111
3450.0 63.75903308598696
3550.0 63.68853358731572
3650.0 63.613027681756776
3750.0 63.64827630541954
3870.0 63.911907716871596
4000.0 64.07218156890264
4120.0 64.35496203389097
4250.0 64.6016211464046
4370.0 64.96719110316411
4500.0 65.26719110316411
4620.0 65.43161781689919
4750.0 65.44283338290812
4870.0 65.38816484716146
5000.0 65.47706588881749
5150.0 65.6553724068979
5300.0 65.91956907443628
5450.0 65.6919101843963
5600.0 65.33901550373143
5800.0 65.2092425231127
6000.0 65.15316264961997
6150.0 65.10655334513017
6300.0 65.08142628257471
6500.0 64.91597479870762
6700.0 64.58761052992273
6900.0 64.59621674290578
7100.0 64.67847042945286
7300.0 64.8111734429284
7500.0 64.8864956320066
7750.0 65.00144820048178
8000.0 65.01940231030413
8250.0 65.17349194033007
8500.0 65.48609554273924
8750.0 65.76215617444207
9000.0 66.23241288380537
9250.0 66.54881500621728
9500.0 66.77706843834271
9750.0 66.80478721835567
10000.0 66.62622619661234
10300.0 66.42884962347226
10600.0 66.18709405126401
10900.0 65.77519293460811
11200.0 65.28230715074228
11500.0 64.48812455999744
11800.0 63.463902882220864
12200.0 62.46966525504041
12500.0 61.99615624307768
12800.0 61.92632872657481
13200.0 61.884500379791874
13600.0 61.911855211614736
14000.0 61.79260580233368
14500.0 61.75018989658062
15000.0 61.76031322885049
15500.0 61.70910313328936
16000.0 61.541375669830444
16500.0 61.08410852212877
17000.0 60.39716457369916
17500.0 59.47964521251825
18000.0 58.501926749382406
18500.0 57.56619494102797
19000.0 56.68312296475355
19500.0 55.63004134769788
