Freq "Rear Wall Bounce"
22.4 31.85657863857803
23.0 33.281931009111574
23.6 34.688560046339674
24.0 35.759344015258606
25.0 37.13119810153118
25.8 38.50495259475376
26.5 40.03818662428928
27.2 42.09935699890541
28.0 43.61320828234581
29.0 45.04933421234348
30.0 46.48580735673154
30.7 47.73853922326562
31.5 49.026022851106475
32.5 50.490341620865635
33.5 52.19019633832073
34.5 54.010793314671446
35.5 55.381973494978396
36.5 56.68939901694459
37.5 57.75571284558528
38.7 58.856422694282074
40.0 60.24888422838988
41.2 61.35928201413175
42.5 62.2747143858506
43.7 63.054435854987005
45.0 63.62199974835805
46.2 64.33315943761345
47.5 64.8612590426011
48.7 65.27162727828494
50.0 65.58773982242003
51.5 65.84371628318513
53.0 66.13376793721748
54.5 66.40118555795901
56.0 66.68892873327964
58.0 67.05636401837721
60.0 67.39202650698978
61.5 67.78071000167792
63.0 68.1216238536032
65.0 68.447886971317
67.0 68.66866246676794
69.0 68.86866246676796
71.0 68.95828714208773
73.0 68.96866246676795
75.0 68.9900652981266
77.5 68.97923703683338
80.0 68.99458760766157
82.5 69.04651316099893
85.0 69.15159683933379
87.5 69.30403584954989
90.0 69.48834981364149
92.5 69.65196872764452
95.0 69.80917224974705
97.5 69.9830656841544
100.0 70.1196654337889
103.0 70.23572544153132
106.0 70.33049584134751
109.0 70.40464273710198
112.0 70.49986891140222
115.0 70.56864559609345
118.0 70.66888697423217
122.0 70.71601354053261
125.0 70.84203922475083
128.0 70.9467669456762
132.0 71.13075056371483
136.0 71.33597432128856
140.0 71.54591209675122
145.0 71.74094888081737
150.0 71.8273491032946
155.0 71.80082526258583
160.0 71.6291082662978
165.0 71.31536488404363
170.0 70.8926599051368
175.0 70.46015673665154
180.0 70.05096672027837
185.0 69.77084958519247
190.0 69.72053377589795
195.0 69.78406291769096
200.0 69.936692239157
206.0 69.98896662177853
212.0 69.94198663123105
218.0 69.8158940957743
224.0 69.7279211253813
230.0 69.67066294019949
236.0 69.44732957967898
240.0 69.15118624954279
250.0 68.83840222641867
258.0 68.66355102705485
265.0 68.60032844550888
272.0 68.61629472410793
280.0 68.55759467235998
290.0 68.30254927959996
300.0 68.08414247993805
307.0 67.97621099101615
315.0 67.8313767314507
325.0 67.84364096860374
335.0 68.13393655273568
345.0 68.46490624476381
355.0 68.68113348647493
365.0 68.84926746582514
375.0 68.94107076872889
387.0 69.05776325647125
400.0 69.25134147491129
412.0 69.20326219709067
425.0 68.90881759635114
437.0 68.50938795412702
450.0 68.08721997613438
462.0 67.88671195223505
475.0 68.02479420467895
487.0 68.0278216885425
500.0 67.80217234031545
515.0 67.70894309957134
530.0 67.74400468795785
545.0 67.49752178244086
560.0 67.12578604656385
580.0 66.82902372037152
600.0 66.23705943067769
615.0 65.63524640048975
630.0 65.38712744755396
650.0 65.10259264563578
670.0 64.70928865160003
690.0 64.70239743680118
710.0 64.88989648112846
730.0 64.74538728508634
750.0 64.58447760363939
775.0 64.30211076414722
800.0 64.02921818667281
825.0 63.806517384118436
850.0 63.57249599391827
875.0 63.421667780083894
900.0 63.141417363393145
925.0 62.83122891801976
950.0 62.436253911389684
975.0 62.35191632227935
1000.0 62.2979223446859
1030.0 62.031985027004936
1060.0 61.80744752164067
1090.0 61.87142145523828
1120.0 61.79582880962553
1150.0 61.93115160060691
1180.0 61.86075798905483
1220.0 61.758304054324796
1250.0 61.47310965314118
1280.0 61.42506975763956
1320.0 61.30154141688007
1360.0 60.913607135839385
1400.0 60.46956810094257
1450.0 60.00441605687688
1500.0 59.59776546602403
1550.0 59.11331187618826
1600.0 58.756785599083244
1650.0 58.31112488832561
1700.0 57.8261424229683
1750.0 57.324917638764944
1800.0 56.95971519912577
1850.0 56.659201931187795
1900.0 56.56035263450022
1950.0 56.34798342242222
2000.0 56.219188578053945
2060.0 56.01976496720427
2120.0 55.76263107938516
2180.0 55.56341283933091
2240.0 55.27724763449625
2300.0 54.88773141365641
2360.0 54.37155488311721
2400.0 53.87820098839666
2500.0 53.50570520020142
2580.0 53.05513902358807
2650.0 52.59134014818042
2720.0 52.16998147704375
2800.0 51.68953230027087
2900.0 51.259536437132155
3000.0 50.85649423526225
3070.0 50.85502197606941
3150.0 50.72078374410694
3250.0 50.80524439865974
3350.0 50.81625950218181
3450.0 51.06595474524623
3550.0 51.24737039815186
3650.0 51.550428729951264
3750.0 51.74004092128955
3870.0 51.71762185037727
4000.0 51.730634918855586
4120.0 51.73532506875229
4250.0 51.75742549711583
4370.0 51.67570819158135
4500.0 51.53485674143191
4620.0 51.22740561344979
4750.0 50.95485677794936
4870.0 50.61144573163243
5000.0 50.30351521668781
5150.0 49.921427278757236
5300.0 49.5743636271402
5450.0 48.92724466412628
5600.0 48.332862401334225
5800.0 47.97857285996885
6000.0 47.80883129850467
6150.0 47.70042583319177
6300.0 47.6319824551809
6500.0 47.67759684762582
6700.0 47.77961540245239
6900.0 48.17619251121273
7100.0 48.61319572770769
7300.0 49.11375059224456
7500.0 49.541858421154544
7750.0 49.76699928877059
8000.0 49.709255922989726
8250.0 49.483183090940116
8500.0 49.06403071484988
8750.0 48.650862960515624
9000.0 48.40980904122743
9250.0 48.01094947737825
9500.0 47.80734501308474
9750.0 47.54631257079079
10000.0 47.4804038806506
10300.0 47.38711546122455
10600.0 47.33553661077225
10900.0 47.177195907428384
11200.0 46.919501331893755
11500.0 46.359901208048925
11800.0 45.219006394928485
12200.0 43.99782166436198
12500.0 42.73833288118108
12800.0 42.06952384334549
13200.0 41.56283503531007
13600.0 41.4094665515088
14000.0 41.17390230891628
14500.0 41.10009222769399
15000.0 41.16285042148944
15500.0 41.10366521133234
16000.0 40.730912446120314
16500.0 40.27721444132895
17000.0 39.699350524441215
17500.0 38.9197228301329
18000.0 38.445530209932215
18500.0 37.793930680144896
19000.0 37.114611790375406
19500.0 36.54153521397403
