Freq "Side Wall Bounce"
22.4 32.29908810709934
23.0 33.68059307017573
23.6 35.01949183256416
24.0 36.09785609303627
25.0 37.37660819654188
25.8 38.736998954489096
26.5 40.212306813743524
27.2 42.21006113976661
28.0 43.71006113976664
29.0 45.147149405000945
30.0 46.54624855237013
30.7 47.76489011537076
31.5 49.08432484393326
32.5 50.54396845048443
33.5 52.222945509667696
34.5 54.08294805437281
35.5 55.46211340960694
36.5 56.762113409606926
37.5 57.86211340960692
38.7 58.96211340960694
40.0 60.382948054372804
41.2 61.52157071745498
42.5 62.421570717454955
43.7 63.22157071745498
45.0 63.74165599637156
46.2 64.46119474234182
47.5 65.00139211624763
48.7 65.42157071745497
50.0 65.74165599637156
51.5 65.94165599637157
53.0 66.22110176237115
54.5 66.48064597778591
56.0 66.72110176237116
58.0 67.1009209770721
60.0 67.3806459777859
61.5 67.76027588070905
63.0 68.08064597778592
65.0 68.36027588070905
67.0 68.5806459777859
69.0 68.76027588070905
71.0 68.86027588070904
73.0 68.90092097707209
75.0 68.94027672897049
77.5 68.98064597778591
80.0 69.00092097707208
82.5 69.14165599637157
85.0 69.32157071745497
87.5 69.52157071745496
90.0 69.76211340960694
92.5 69.94165599637157
95.0 70.1023023206405
97.5 70.28338957194298
100.0 70.38338957194297
103.0 70.483389571943
106.0 70.56395064819496
109.0 70.66395064819496
112.0 70.78526041028545
115.0 70.94530504353962
118.0 71.08751894170379
122.0 71.26670626616769
125.0 71.44849756031407
128.0 71.62934852351542
132.0 71.7875189417038
136.0 71.94530504353962
140.0 71.98338957194296
145.0 71.98338957194296
150.0 71.88338957194297
155.0 71.68338957194298
160.0 71.4252366727071
165.0 71.12757995317386
170.0 70.85226959352626
175.0 70.61564374029257
180.0 70.49805014496485
185.0 70.40352961026538
190.0 70.38505351870533
195.0 70.40352961026538
200.0 70.48078789497028
206.0 70.54079116945019
212.0 70.5807878949703
218.0 70.49805014496485
224.0 70.43700614024073
230.0 70.29805014496486
236.0 70.13700614024071
240.0 70.05945612203075
250.0 70.04520600354645
258.0 70.08668237198825
265.0 70.06813431484035
272.0 70.06813431484035
280.0 70.036773874776
290.0 70.036773874776
300.0 70.08264684748963
307.0 70.09912659892176
315.0 70.02338785614022
325.0 69.98937136577422
335.0 70.10700008330893
345.0 70.31309906233545
355.0 70.59956388711855
365.0 70.85173061676618
375.0 71.08022887307925
387.0 71.32067426217552
400.0 71.50277851919637
412.0 71.61308677913885
425.0 71.70277851919636
437.0 71.78770652141827
450.0 71.68409573448086
462.0 71.68088975309384
475.0 71.66800561954845
487.0 71.56303236952157
500.0 71.40325521722887
515.0 71.26213480580067
530.0 71.04260029820792
545.0 70.66213480580068
560.0 70.26638103474006
580.0 69.89865197820876
600.0 69.50654330073864
615.0 69.2041562806338
630.0 69.04641652253586
650.0 68.93121780081692
670.0 68.83898596074418
690.0 68.94162036229098
710.0 69.08699976130585
730.0 69.0035795905875
750.0 68.8489957632746
775.0 68.73849811436014
800.0 68.65106766154805
825.0 68.6183019515973
850.0 68.58974997286994
875.0 68.56472837317774
900.0 68.41529909768653
925.0 68.25882685951234
950.0 68.10680832883388
975.0 67.9407824925339
1000.0 67.77413530058693
1030.0 67.58885469295305
1060.0 67.35799636827329
1090.0 67.35454430200677
1120.0 67.45289439743443
1150.0 67.56635718480345
1180.0 67.62606236482675
1220.0 67.6953651589675
1250.0 67.71744609614326
1280.0 67.75956354370038
1320.0 67.8285631718421
1360.0 67.61192303353685
1400.0 67.30749967091339
1450.0 67.0885241368667
1500.0 66.81643077420695
1550.0 66.6329857942503
1600.0 66.4762754693673
1650.0 66.09743438461943
1700.0 65.81829118513596
1750.0 65.61447160241705
1800.0 65.44657989541554
1850.0 65.41132181743347
1900.0 65.51041420743125
1950.0 65.57187084343735
2000.0 65.61804065097742
2060.0 65.66474916054516
2120.0 65.63950528257598
2180.0 65.6132274314365
2240.0 65.58395430199364
2300.0 65.52575657030094
2360.0 65.26963232570152
2400.0 65.07799197044646
2500.0 64.88522876186958
2580.0 64.6813748253888
2650.0 64.53357438010819
2720.0 64.43844751242196
2800.0 64.21227319390674
2900.0 64.03537068246352
3000.0 63.789250712455896
3070.0 63.69590983134543
3150.0 63.61773774082006
3250.0 63.471586843006534
3350.0 63.377585541694614
3450.0 63.30098645203924
3550.0 63.25233040697351
3650.0 63.21136571526969
3750.0 63.19232001508932
3870.0 63.162693482837085
4000.0 63.22350372403943
4120.0 63.2217626345511
4250.0 63.18016890773029
4370.0 63.20291177131068
4500.0 63.18323845075709
4620.0 63.08485150977525
4750.0 62.84437923945906
4870.0 62.485575178582295
5000.0 62.177674840631354
5150.0 62.09421502408324
5300.0 62.08146242711781
5450.0 61.928849936675675
5600.0 61.66978142208919
5800.0 61.62755963385128
6000.0 61.75003264480608
6150.0 61.85090724959652
6300.0 61.85363877187983
6500.0 61.854427726754295
6700.0 61.713658567207474
6900.0 61.766974408889254
7100.0 61.911121189126035
7300.0 62.19356234571838
7500.0 62.50593719085768
7750.0 62.767247875392854
8000.0 62.90850100680798
8250.0 63.000920010963426
8500.0 63.000774449817214
8750.0 62.95261628862359
9000.0 62.994524331566694
9250.0 62.961564538254876
9500.0 62.99715374246391
9750.0 62.940611661209616
10000.0 62.72434021480534
10300.0 62.47167576077315
10600.0 62.24315310230459
10900.0 61.98308835263374
11200.0 61.72102564405078
11500.0 61.173707356139246
11800.0 60.202301213276385
12200.0 59.15072333241247
12500.0 58.60328197102693
12800.0 58.59727726311161
13200.0 58.647007086866225
13600.0 58.781751835742426
14000.0 58.82746371799257
14500.0 58.858601811365915
15000.0 58.85999992947221
15500.0 58.75185122111532
16000.0 58.46933634478371
16500.0 57.95414736047279
17000.0 57.15413177177075
17500.0 56.05463692919865
18000.0 54.92586895279925
18500.0 53.83565316767617
19000.0 52.91163933184177
19500.0 51.792464111450414
