Freq "Ceiling Bounce"
22.4 55.195064580358306
23.0 56.96194867563766
23.6 58.83546263134683
24.0 61.395064580358294
25.0 62.59506458035828
25.8 63.63546263134684
26.5 64.66194867563765
27.2 65.79506458035827
28.0 67.09506458035828
29.0 67.56194867563765
30.0 68.36194867563766
30.7 69.02179738688896
31.5 70.6950645803583
32.5 72.1950645803583
33.5 73.22179738688898
34.5 74.52179738688893
35.5 76.09506458035828
36.5 77.85521969308378
37.5 79.79506458035827
38.7 81.72179738688898
40.0 83.12179738688896
41.2 84.98219812790056
42.5 86.52179738688895
43.7 87.78219812790056
45.0 89.12179738688896
46.2 90.02179738688895
47.5 91.02179738688895
48.7 91.88219812790057
50.0 92.78219812790056
51.5 93.58219812790054
53.0 94.48219812790053
54.5 95.48219812790056
56.0 96.48219812790055
58.0 97.58219812790055
60.0 98.68219812790055
61.5 99.70963256681621
63.0 100.70963256681621
65.0 101.78219812790054
67.0 102.68219812790055
69.0 103.6096325668162
71.0 104.4096325668162
73.0 105.14314826109434
75.0 105.8096325668162
77.5 106.4096325668162
80.0 106.8096325668162
82.5 107.14314826109435
85.0 107.3096325668162
87.5 107.3096325668162
90.0 107.28219812790057
92.5 107.20963256681621
95.0 107.10963256681619
97.5 107.0096325668162
100.0 106.9096325668162
103.0 106.88219812790057
106.0 106.88219812790057
109.0 106.9096325668162
112.0 106.98219812790056
115.0 106.9096325668162
118.0 106.84898359150841
122.0 106.68219812790055
125.0 106.48219812790055
128.0 106.28219812790056
132.0 106.04898359150842
136.0 105.78219812790057
140.0 105.48219812790056
145.0 105.28219812790056
150.0 105.12179738688894
155.0 105.02179738688895
160.0 104.92179738688895
165.0 104.88219812790055
170.0 104.82179738688895
175.0 104.72179738688895
180.0 104.62179738688896
185.0 104.62179738688896
190.0 104.52179738688893
195.0 104.42179738688897
200.0 104.32179738688895
206.0 104.22179738688895
212.0 104.16194867563766
218.0 104.1950645803583
224.0 104.2950645803583
230.0 104.3950645803583
236.0 104.49506458035829
240.0 104.49506458035829
250.0 104.59506458035828
258.0 104.59506458035828
265.0 104.6950645803583
272.0 104.6950645803583
280.0 104.63546263134683
290.0 104.56878033996792
300.0 104.43546263134684
307.0 104.33546263134681
315.0 104.2094224842602
325.0 104.1094224842602
335.0 103.98382334167594
345.0 103.95062128010365
355.0 103.95062128010365
365.0 104.02526453928849
375.0 104.092378988098
387.0 104.12526453928848
400.0 104.0672655885961
412.0 104.0672655885961
425.0 104.04258273663014
437.0 103.90982855556756
450.0 103.68538710465899
462.0 103.48538710465897
475.0 103.46136837622761
487.0 103.63776734285541
500.0 103.8816120853342
515.0 103.95865724017871
530.0 103.90330383828929
545.0 103.81395652088273
560.0 103.85906263657509
580.0 103.85906263657509
600.0 103.75906263657508
615.0 103.49220047151572
630.0 103.25906263657508
650.0 103.0590626365751
670.0 103.0590626365751
690.0 103.08098490550681
710.0 103.08098490550681
730.0 102.88098490550679
750.0 102.70330383828929
775.0 102.4809849055068
800.0 102.00330383828931
825.0 101.42602452356691
850.0 100.92602452356692
875.0 100.58161208533421
900.0 100.50497668676807
925.0 101.0377673428554
950.0 101.7710674427392
975.0 102.74805664755614
1000.0 103.41655999317605
1030.0 103.41655999317605
1060.0 102.75159316859872
1090.0 101.60943953665229
1120.0 100.40967169524963
1150.0 99.2292653088357
1180.0 98.36096514237182
1220.0 98.09188145404555
1250.0 98.34314826109434
1280.0 99.0552196930838
1320.0 99.77662798253907
1360.0 100.36826674204795
1400.0 100.73752777300028
1450.0 100.96668408046666
1500.0 100.86784633169401
1550.0 100.57383513626847
1600.0 100.39804670748717
1650.0 100.37813636156328
1700.0 100.15638566828012
1750.0 99.54704584057053
1800.0 98.53393288349785
1850.0 97.16466409131462
1900.0 95.90597097685226
1950.0 94.81828671879963
2000.0 94.22975098047417
2060.0 94.64089469560577
2120.0 95.80853968442109
2180.0 96.50289359939015
2240.0 96.45507704354388
2300.0 96.09867748547335
2360.0 95.88509849376585
2400.0 95.57133549446029
2500.0 94.76268190818898
2580.0 94.23012365263646
2650.0 94.38528746757073
2720.0 94.7124664126148
2800.0 94.80041009172008
2900.0 94.83952019133505
3000.0 95.22566228536353
3070.0 95.65959385611933
3150.0 96.15352165026991
3250.0 96.295628709618
3350.0 96.33921128322952
3450.0 96.31711090628748
3550.0 97.16226370149552
3650.0 97.0311234227367
3750.0 95.23071797249132
3870.0 94.37096325109015
4000.0 94.42975098047417
4120.0 96.0948466445546
4250.0 96.8160558339961
4370.0 96.41124970721758
4500.0 96.10922325566852
4620.0 95.96227233162624
4750.0 95.51272459152538
4870.0 95.481105713881
5000.0 95.68163098701491
5150.0 96.1693733457101
5300.0 95.27252120740995
5450.0 94.53042214017363
5600.0 94.75820021338124
5800.0 95.14707489675645
6000.0 95.12057765478032
6150.0 94.16691728331718
6300.0 95.10229297394157
6500.0 94.04191488711727
6700.0 94.0572318457852
6900.0 94.56573825599008
7100.0 93.5150545311996
7300.0 93.65054781598833
7500.0 92.28988236549817
7750.0 91.69547568728547
8000.0 91.28594782122285
8250.0 91.60817797771601
8500.0 93.4790493475812
8750.0 94.14556025894034
9000.0 94.94090967285551
9250.0 95.93079337118232
9500.0 94.7881710085173
9750.0 93.16890305823625
10000.0 91.9617483841589
10300.0 92.31892667728226
10600.0 91.72609800738645
10900.0 92.81505453119958
11200.0 93.89985839331693
11500.0 94.82746723085971
11800.0 93.59540175394477
12200.0 90.07138676754205
12500.0 89.6383891065734
12800.0 91.92089915765378
13200.0 93.8242529409981
13600.0 88.59758033768287
14000.0 84.86471726465469
14500.0 90.39898600207457
15000.0 96.1311234227367
15500.0 93.87787805979313
16000.0 86.21171220727221
16500.0 88.81767976686996
17000.0 92.42630272058379
17500.0 79.59071920437908
18000.0 82.60417076915651
18500.0 80.8263027205838
19000.0 85.20640338576241
19500.0 80.61565131269062
