Freq "Floor Bounce"
22.4 58.18163459014785
23.0 59.91703159263305
23.6 61.81703159263306
24.0 64.38163459014784
25.0 65.58163459014789
25.8 66.61703159263307
26.5 67.61703159263307
27.2 68.71703159263306
28.0 70.01703159263307
29.0 70.41703159263308
30.0 71.21703159263306
30.7 71.91703159263308
31.5 73.58163459014786
32.5 75.01703159263307
33.5 76.08163459014786
34.5 77.38163459014784
35.5 78.91703159263305
36.5 80.71703159263306
37.5 82.61703159263307
38.7 84.51703159263309
40.0 85.88163459014787
41.2 87.71703159263306
42.5 89.31703159263307
43.7 90.51703159263307
45.0 91.81703159263307
46.2 92.75056826173339
47.5 93.71703159263306
48.7 94.51703159263309
50.0 95.41703159263307
51.5 96.21703159263306
53.0 97.11703159263307
54.5 98.0862183367707
56.0 99.11703159263307
58.0 100.11703159263307
60.0 101.21703159263306
61.5 102.28621833677069
63.0 103.28621833677069
65.0 104.28621833677069
67.0 105.1862183367707
69.0 106.08621833677068
71.0 106.8862183367707
73.0 107.61703159263307
75.0 108.28621833677069
77.5 108.81703159263309
80.0 109.28621833677069
82.5 109.5862183367707
85.0 109.6862183367707
87.5 109.6862183367707
90.0 109.65295688699821
92.5 109.5862183367707
95.0 109.4862183367707
97.5 109.3862183367707
100.0 109.28621833677069
103.0 109.22239836543467
106.0 109.22239836543467
109.0 109.25589377666319
112.0 109.28621833677069
115.0 109.22239836543467
118.0 109.12239836543468
122.0 108.95589377666317
125.0 108.75589377666317
128.0 108.55589377666318
132.0 108.29232625560152
136.0 108.02239836543468
140.0 107.69232625560151
145.0 107.45589377666319
150.0 107.29232625560152
155.0 107.19232625560153
160.0 107.09232625560153
165.0 106.99232625560153
170.0 106.89232625560152
175.0 106.76273611430067
180.0 106.66273611430066
185.0 106.56273611430066
190.0 106.42929363730602
195.0 106.2999551490132
200.0 106.09995514901321
206.0 105.99995514901319
212.0 105.8999551490132
218.0 105.8710917246503
224.0 105.9377137751144
230.0 105.97109172465031
236.0 106.00910103358773
240.0 105.90910103358773
250.0 105.90910103358773
258.0 105.84765435527876
265.0 105.8197591490947
272.0 105.79232471017903
280.0 105.6591101737869
290.0 105.43192396916744
300.0 105.23192396916743
307.0 105.03192396916744
315.0 104.8455892136253
325.0 104.64558921362531
335.0 104.4455892136253
345.0 104.31954906653867
355.0 104.2865428796
365.0 104.2865428796
375.0 104.30250557037648
387.0 104.26074786238212
400.0 104.20250557037649
412.0 104.10250557037648
425.0 104.00250557037647
437.0 103.70250557037649
450.0 103.37012619972839
462.0 103.00250557037648
475.0 102.82805447992699
487.0 102.82805447992699
500.0 102.91278108568187
515.0 102.99901205382851
530.0 103.0591101737869
545.0 103.28095628512146
560.0 103.68095628512145
580.0 104.18095628512147
600.0 104.55327484337282
615.0 104.7602958129807
630.0 104.8992828835749
650.0 105.14708670822218
670.0 105.38709870186115
690.0 105.77815764884083
710.0 106.05404247297086
730.0 106.21500750149217
750.0 106.21337270280553
775.0 106.22651428540856
800.0 105.95947548397568
825.0 105.5186397897878
850.0 105.0493841076142
875.0 104.38964136511699
900.0 103.66697094780756
925.0 102.99178046008208
950.0 102.40402300746037
975.0 101.79044322391816
1000.0 100.98834738019367
1030.0 99.79139258483376
1060.0 98.43701875072152
1090.0 97.6155010722584
1120.0 97.39586110181305
1150.0 97.46531878246117
1180.0 97.42723748856596
1220.0 97.1729488056752
1250.0 97.14898136501911
1280.0 97.62804877792125
1320.0 98.61971550898451
1360.0 99.62244026041203
1400.0 100.59611983039892
1450.0 101.42723748856596
1500.0 102.09252518988622
1550.0 102.43116824526597
1600.0 102.70706362609737
1650.0 103.00285423566059
1700.0 103.15891358960764
1750.0 103.2533418457623
1800.0 103.18162187280748
1850.0 102.87062072890454
1900.0 102.51980689973655
1950.0 102.28344751811993
2000.0 102.05703094947454
2060.0 101.55703094947454
2120.0 100.84706882346133
2180.0 100.11890885832479
2240.0 99.65515425405167
2300.0 99.41948791881826
2360.0 99.18859949878049
2400.0 98.9920565836194
2500.0 98.6792671140256
2580.0 98.25279096758617
2650.0 97.9132903521457
2720.0 97.86393577855118
2800.0 98.03685986333359
2900.0 98.15373573341815
3000.0 98.49218328496457
3070.0 98.90071573032345
3150.0 99.31613480255173
3250.0 99.73185656363187
3350.0 100.13185656363186
3450.0 99.96463466937477
3550.0 99.73619204680915
3650.0 100.08367450508884
3750.0 99.9664504099537
3870.0 99.71840368884814
4000.0 99.85252668895052
4120.0 100.02401169404571
4250.0 99.81265632050606
4370.0 99.42936443666521
4500.0 99.11681688270126
4620.0 99.74139175979403
4750.0 100.68119609875534
4870.0 100.87739679668924
5000.0 100.40560226956394
5150.0 100.4626707623742
5300.0 100.13117746885817
5450.0 99.71980689973655
5600.0 100.22166248151994
5800.0 99.92401169404569
6000.0 99.5471042008088
6150.0 100.31600960792746
6300.0 100.52569725408334
6500.0 100.09994453977434
6700.0 99.76132159528267
6900.0 99.37058073474014
7100.0 98.76476282560076
7300.0 97.89218498671934
7500.0 97.20451017249866
7750.0 96.80704810502141
8000.0 96.45146203935359
8250.0 96.10071799015593
8500.0 96.36478559418028
8750.0 98.05865018558436
9000.0 98.81980689973655
9250.0 99.71270859966198
9500.0 99.73669756734935
9750.0 99.47212170153462
10000.0 98.86406993930962
10300.0 98.37370279869839
10600.0 97.92811502605146
10900.0 98.3984977017945
11200.0 99.74701599051636
11500.0 100.22182068239083
11800.0 99.21977495013978
12200.0 98.22390784566683
12500.0 97.10658174951082
12800.0 98.85255614120575
13200.0 100.07657520575643
13600.0 99.26793388418876
14000.0 95.55544057242246
14500.0 98.12095369110347
15000.0 104.06793388418875
15500.0 102.68198834114891
16000.0 96.47717619588126
16500.0 97.57354089159561
17000.0 101.53528852057136
17500.0 89.92541488577785
18000.0 86.89137337968255
18500.0 86.33320142792986
19000.0 90.24614195986246
19500.0 86.85515704863231
