Freq "Floor Bounce"
22.4 57.57150800786938
23.0 59.30690501035461
23.6 61.20690501035459
24.0 63.7715080078694
25.0 64.97150800786939
25.8 66.00690501035457
26.5 67.0069050103546
27.2 68.10690501035457
28.0 69.40690501035458
29.0 69.80690501035458
30.0 70.60690501035457
30.7 71.30690501035458
31.5 72.97150800786939
32.5 74.40690501035458
33.5 75.47150800786939
34.5 76.77150800786937
35.5 78.30690501035458
36.5 80.1069050103546
37.5 82.0069050103546
38.7 83.90690501035458
40.0 85.27150800786937
41.2 87.10690501035458
42.5 88.7069050103546
43.7 89.90690501035459
45.0 91.2069050103546
46.2 92.14044167945492
47.5 93.10690501035458
48.7 93.90690501035459
50.0 94.8069050103546
51.5 95.6069050103546
53.0 96.5069050103546
54.5 97.4760917544922
56.0 98.50690501035459
58.0 99.50690501035459
60.0 100.6069050103546
61.5 101.6760917544922
63.0 102.67609175449222
65.0 103.67609175449222
67.0 104.57609175449221
69.0 105.4760917544922
71.0 106.27609175449221
73.0 107.00690501035459
75.0 107.67609175449222
77.5 108.20690501035459
80.0 108.67609175449222
82.5 108.9760917544922
85.0 109.07609175449223
87.5 109.07609175449223
90.0 109.04283030471974
92.5 108.9760917544922
95.0 108.87609175449221
97.5 108.77609175449221
100.0 108.67609175449222
103.0 108.61227178315617
106.0 108.61227178315617
109.0 108.64576719438469
112.0 108.67609175449222
115.0 108.61227178315617
118.0 108.51227178315618
122.0 108.34576719438469
125.0 108.14576719438469
128.0 107.94576719438469
132.0 107.68219967332304
136.0 107.41227178315619
140.0 107.08219967332305
145.0 106.84576719438469
150.0 106.68219967332304
155.0 106.58219967332305
160.0 106.48219967332304
165.0 106.38219967332304
170.0 106.28219967332305
175.0 106.15260953202217
180.0 106.05260953202217
185.0 105.95260953202218
190.0 105.81916705502753
195.0 105.68982856673472
200.0 105.48982856673472
206.0 105.38982856673472
212.0 105.28982856673473
218.0 105.26096514237182
224.0 105.32758719283592
230.0 105.36096514237182
236.0 105.39897445130926
240.0 105.29897445130923
250.0 105.29897445130923
258.0 105.23752777300027
265.0 105.2096325668162
272.0 105.18219812790056
280.0 105.04898359150842
290.0 104.82179738688895
300.0 104.62179738688896
307.0 104.42179738688897
315.0 104.23546263134682
325.0 104.03546263134682
335.0 103.83546263134683
345.0 103.70942248426019
355.0 103.67641629732152
365.0 103.67641629732152
375.0 103.692378988098
387.0 103.65062128010364
400.0 103.592378988098
412.0 103.492378988098
425.0 103.392378988098
437.0 103.09237898809802
450.0 102.7599996174499
462.0 102.392378988098
475.0 102.2179278976485
487.0 102.2179278976485
500.0 102.3026545034034
515.0 102.38888547155004
530.0 102.44898359150842
545.0 102.67082970284298
560.0 103.07082970284299
580.0 103.57082970284297
600.0 103.94314826109435
615.0 104.1501692307022
630.0 104.28915630129643
650.0 104.5369601259437
670.0 104.77697211958265
690.0 105.16803106656234
710.0 105.4439158906924
730.0 105.60488091921367
750.0 105.60324612052703
775.0 105.61638770313006
800.0 105.34934890169721
825.0 104.90851320750933
850.0 104.43925752533572
875.0 103.77951478283852
900.0 103.05684436552907
925.0 102.3816538778036
950.0 101.7938964251819
975.0 101.18031664163966
1000.0 100.37822079791519
1030.0 99.18126600255528
1060.0 97.82689216844304
1090.0 97.00537448997991
1120.0 96.78573451953459
1150.0 96.85519220018269
1180.0 96.81711090628747
1220.0 96.56282222339671
1250.0 96.53885478274063
1280.0 97.01792219564277
1320.0 98.00958892670602
1360.0 99.01231367813354
1400.0 99.98599324812044
1450.0 100.81711090628748
1500.0 101.48239860760773
1550.0 101.8210416629875
1600.0 102.0969370438189
1650.0 102.3927276533821
1700.0 102.54878700732917
1750.0 102.64321526348382
1800.0 102.57149529052901
1850.0 102.26049414662606
1900.0 101.90968031745807
1950.0 101.67332093584143
2000.0 101.44690436719605
2060.0 100.94690436719604
2120.0 100.23694224118286
2180.0 99.50878227604632
2240.0 99.0450276717732
2300.0 98.80936133653977
2360.0 98.57847291650201
2400.0 98.3819300013409
2500.0 98.06914053174712
2580.0 97.6426643853077
2650.0 97.30316376986721
2720.0 97.25380919627271
2800.0 97.4267332810551
2900.0 97.54360915113965
3000.0 97.88205670268606
3070.0 98.29058914804497
3150.0 98.70600822027323
3250.0 99.1217299813534
3350.0 99.52172998135339
3450.0 99.3545080870963
3550.0 99.12606546453068
3650.0 99.47354792281037
3750.0 99.35632382767523
3870.0 99.10827710656966
4000.0 99.24240010667204
4120.0 99.41388511176721
4250.0 99.20252973822755
4370.0 98.81923785438673
4500.0 98.50669030042276
4620.0 99.13126517751556
4750.0 100.07106951647687
4870.0 100.26727021441076
5000.0 99.79547568728547
5150.0 99.8525441800957
5300.0 99.52105088657967
5450.0 99.10968031745809
5600.0 99.61153589924146
5800.0 99.31388511176722
6000.0 98.93697761853032
6150.0 99.70588302564899
6300.0 99.91557067180486
6500.0 99.48981795749587
6700.0 99.15119501300418
6900.0 98.76045415246168
7100.0 98.15463624332229
7300.0 97.28205840444085
7500.0 96.59438359022018
7750.0 96.19692152274293
8000.0 95.84133545707509
8250.0 95.49059140787743
8500.0 95.75465901190178
8750.0 97.44852360330587
9000.0 98.20968031745807
9250.0 99.10258201738351
9500.0 99.12657098507087
9750.0 98.86199511925612
10000.0 98.25394335703116
10300.0 97.7635762164199
10600.0 97.31798844377296
10900.0 97.78837111951603
11200.0 99.13688940823789
11500.0 99.61169410011236
11800.0 98.60964836786131
12200.0 97.61378126338833
12500.0 96.49645516723233
12800.0 98.24242955892727
13200.0 99.46644862347796
13600.0 98.65780730191027
14000.0 94.94531399014397
14500.0 97.51082710882498
15000.0 103.45780730191028
15500.0 102.07186175887044
16000.0 95.86704961360277
16500.0 96.96341430931712
17000.0 100.92516193829287
17500.0 89.31528830349939
18000.0 86.28124679740408
18500.0 85.72307484565138
19000.0 89.63601537758399
19500.0 86.24503046635384
