Freq "Front Wall Bounce"
22.4 57.5816424075462
23.0 59.29681251256302
23.6 61.19681251256303
24.0 63.752519640681285
25.0 64.9816424075462
25.8 65.99681251256304
26.5 66.99681251256304
27.2 68.09681251256303
28.0 69.39681251256305
29.0 69.85251964068125
30.0 70.65251964068126
30.7 71.35251964068125
31.5 72.99681251256301
32.5 74.4225149636949
33.5 75.49681251256301
34.5 76.79681251256302
35.5 78.3225149636949
36.5 80.12251496369491
37.5 82.02251496369489
38.7 83.9677916354448
40.0 85.3225149636949
41.2 87.1677916354448
42.5 88.7225149636949
43.7 89.97848478147016
45.0 91.32251496369491
46.2 92.2225149636949
47.5 93.19366590096783
48.7 93.99366590096783
50.0 94.89366590096783
51.5 95.75251964068126
53.0 96.62251496369491
54.5 97.59366590096782
56.0 98.59366590096782
58.0 99.67848478147017
60.0 100.77848478147017
61.5 101.79366590096782
63.0 102.79366590096781
65.0 103.84865957364795
67.0 104.74865957364794
69.0 105.67848478147017
71.0 106.47848478147017
73.0 107.19366590096783
75.0 107.89366590096782
77.5 108.41998423401444
80.0 108.91998423401442
82.5 109.21998423401443
85.0 109.37848478147016
87.5 109.37848478147016
90.0 109.31998423401444
92.5 109.21998423401443
95.0 109.15000634017072
97.5 109.05000634017073
100.0 108.97848478147017
103.0 108.91998423401442
106.0 108.91998423401442
109.0 108.97848478147017
112.0 109.01998423401444
115.0 108.97848478147017
118.0 108.90489499373622
122.0 108.71998423401443
125.0 108.55000634017073
128.0 108.35000634017072
132.0 108.11998423401442
136.0 107.81998423401443
140.0 107.57848478147017
145.0 107.31998423401444
150.0 107.15000634017072
155.0 107.05000634017073
160.0 106.99366590096781
165.0 106.91998423401444
170.0 106.85000634017072
175.0 106.77848478147017
180.0 106.69366590096782
185.0 106.59366590096782
190.0 106.51998423401444
195.0 106.39366590096783
200.0 106.26528715999551
206.0 106.19366590096782
212.0 106.11998423401444
218.0 106.15000634017072
224.0 106.19366590096782
230.0 106.29366590096781
236.0 106.39366590096783
240.0 106.39366590096783
250.0 106.39366590096783
258.0 106.42386986096213
265.0 106.49366590096783
272.0 106.49366590096783
280.0 106.42386986096213
290.0 106.32386986096213
300.0 106.19366590096782
307.0 106.0392427572199
315.0 105.93924275721993
325.0 105.79817545090704
335.0 105.69817545090704
345.0 105.63924275721992
355.0 105.7136394060688
365.0 105.7600593685791
375.0 105.81363940606882
387.0 105.8600593685791
400.0 105.8600593685791
412.0 105.8351604799582
425.0 105.7600593685791
437.0 105.5912035894883
450.0 105.28242230727825
462.0 105.03516047995821
475.0 104.88242230727826
487.0 104.9106896630263
500.0 104.958217088195
515.0 104.958217088195
530.0 104.75086213388187
545.0 104.55086213388186
560.0 104.5596855474149
580.0 104.63698126844557
600.0 104.65378373474546
615.0 104.58643721525844
630.0 104.55378373474547
650.0 104.65378373474546
670.0 104.88643721525843
690.0 105.20343598990847
710.0 105.50343598990845
730.0 105.70343598990846
750.0 105.88147278830732
775.0 106.08147278830732
800.0 106.09326599014054
825.0 106.01063265137014
850.0 105.91063265137015
875.0 105.71063265137013
900.0 105.3319538584431
925.0 105.13195385844311
950.0 104.98643721525845
975.0 105.03698126844559
1000.0 105.23698126844558
1030.0 105.25990168395998
1060.0 105.28317516021497
1090.0 105.29662980417906
1120.0 105.48712752383464
1150.0 105.58876707001816
1180.0 105.68876707001816
1220.0 105.58712752383464
1250.0 105.45051165087548
1280.0 105.39662980417907
1320.0 105.33425292632064
1360.0 105.22913394039209
1400.0 105.23439926267993
1450.0 105.22146308291563
1500.0 105.10453485950543
1550.0 104.90057786149109
1600.0 104.7265793803394
1650.0 104.61393058884913
1700.0 104.47167008971796
1750.0 104.35163275511489
1800.0 104.24276254134932
1850.0 103.95293138724823
1900.0 103.70813311685254
1950.0 103.6765329014756
2000.0 103.80807627512492
2060.0 104.01374717070802
2120.0 104.44422390056066
2180.0 104.6509188028188
2240.0 104.63657822994506
2300.0 104.68024262618201
2360.0 104.75821395708073
2400.0 104.75249391690186
2500.0 104.63132394747355
2580.0 104.43132394747356
2650.0 104.17630395629821
2720.0 103.86874622486269
2800.0 103.58208873941682
2900.0 103.4923058821755
3000.0 103.81967485335787
3070.0 104.22149681975654
3150.0 104.53654901049214
3250.0 104.69446458781259
3350.0 104.72974030129487
3450.0 104.6512383097396
3550.0 104.87386837072636
3650.0 105.05898496379349
3750.0 104.74421296668545
3870.0 104.82839496623626
4000.0 105.24639752437561
4120.0 105.69735317853436
4250.0 105.57220339946775
4370.0 104.87695445332682
4500.0 104.70120123656599
4620.0 105.46077248504447
4750.0 106.02143996406319
4870.0 105.91357417083272
5000.0 105.46953416416187
5150.0 105.42988640422008
5300.0 105.22834569022386
5450.0 105.2748062713897
5600.0 105.6456532312606
5800.0 105.314807615582
6000.0 105.02311369421719
6150.0 105.02673740673664
6300.0 105.39336774643091
6500.0 105.45998333162352
6700.0 105.6119165494798
6900.0 105.87038999546958
7100.0 105.63031477888032
7300.0 105.34390764335579
7500.0 105.1720959446539
7750.0 105.13404383616285
8000.0 105.05565059064443
8250.0 105.28716864405256
8500.0 105.75823093972598
8750.0 105.63244934447704
9000.0 105.56078529755021
9250.0 105.70463183920347
9500.0 106.11777013732132
9750.0 106.05479699682397
10000.0 105.92040196575233
10300.0 106.39743426257354
10600.0 106.27876950848777
10900.0 105.80007694583605
11200.0 105.29844148404875
11500.0 105.61359852851339
11800.0 106.25235523786587
12200.0 107.03696834924499
12500.0 107.42024850561755
12800.0 107.19590067001297
13200.0 106.78304260926879
13600.0 107.13141954687636
14000.0 107.82777559471745
14500.0 107.92944797182865
15000.0 105.48897367998535
15500.0 105.40945759156504
16000.0 104.81862286396527
16500.0 102.76379414104828
17000.0 101.74590685447949
17500.0 100.60650886166059
18000.0 98.19774032633966
18500.0 92.9071385440521
19000.0 91.70148704718086
19500.0 98.45523628118272
