Freq "Estimated In-Room Response"
20.5078 43.30991025133646
21.2402 43.25599655243225
21.9727 43.6829418487096
22.7051 44.5284507754847
23.4375 46.29769193746692
24.1699 47.18851168605768
25.6348 48.98427674270637
26.3672 50.09900426745172
27.0996 50.84588774834215
27.832 51.79776997181328
29.2969 53.86233415606357
30.0293 54.9353963951087
31.4941 57.096917210366016
32.2266 57.93984363319794
33.6914 59.671706102149926
34.4238 60.668666901437916
35.8887 62.48433937192992
37.3535 64.12269496978587
38.8184 65.67630967923505
39.5508 66.36455733441451
41.0156 67.6755238772958
42.4805 69.57697066904473
43.9453 70.95408278116584
45.4102 72.27438416723885
47.6074 73.86241023856958
49.0723 74.68657786151306
50.5371 75.27843695748838
52.7344 75.8117298908482
54.1992 76.02581104140607
56.3965 76.17345978029884
58.5938 76.10933234817387
60.0586 76.06931205314906
62.2559 76.22301219212574
64.4531 76.22701197952576
66.6504 76.26708702786979
69.5801 76.34127646709562
71.7773 76.41650853802554
73.9746 76.49030684017784
76.9043 76.62836776784401
79.834 76.76465639796321
82.7637 76.98743007332969
85.6934 77.16495330332671
88.623 77.4308290256552
91.5527 77.48528351362997
94.4824 77.61144704859186
98.1445 77.98443152991885
101.807 78.25613644961201
105.469 78.48407875362626
109.131 78.70629964209003
112.793 78.97154506444137
116.455 79.1689703593101
120.85 79.48462613002052
125.244 79.77043764525158
129.639 79.96164842186626
134.033 80.04618397240151
138.428 80.38725562808929
143.555 80.64296073246199
148.682 80.81223152666244
153.809 80.98089245373625
159.668 81.20034810417211
164.795 81.35969398049137
170.654 81.44275676287228
176.514 81.50966572055965
183.105 81.53686163067916
189.697 81.64763598515249
196.289 81.70185253974802
202.881 81.71641164460242
210.205 81.67027876569217
217.529 81.68171788034547
225.586 81.63476750386828
232.91 81.61275221542923
241.699 81.45978890059203
249.756 81.39061710025472
258.545 81.35739022747593
268.066 81.113347184961
277.588 81.02916908474815
287.109 80.92198060666797
297.363 80.79065363425968
307.617 80.70075506858629
318.604 80.44279261286705
329.59 80.19246283446681
341.309 79.91100957285776
353.76 79.86334625084274
366.211 79.74629558330696
378.662 79.73278895878816
392.578 79.40508915646602
405.762 79.22275490259352
420.41 79.00871890319344
435.059 78.90670676787501
450.439 78.61209416665743
466.553 78.53692020257635
482.666 78.41423287211511
500.244 78.34643156075833
517.822 77.82938945188214
536.133 77.66969958882918
554.443 77.52070572058365
574.219 77.09875560332216
594.727 77.15644875173255
615.234 78.01233038727786
637.207 77.28543899849599
659.912 77.1693182226543
683.35 78.27862761571048
706.787 77.90928904828168
731.689 77.73925296116252
758.057 77.95154017448642
784.424 77.97741728639565
812.256 78.27733903131337
840.82 78.52836725062659
870.85 78.69115804000155
901.611 78.73937157099553
933.105 78.97874053844684
966.064 78.80703633361723
999.756 78.83252897260478
1034.91 78.49307559715876
1071.53 78.36220674038378
1109.62 78.20529404705661
1148.44 78.3149053617219
1189.45 78.38376361841478
1231.2 78.4583089514892
1274.41 78.35256267134538
1319.82 78.1111053649345
1365.97 77.71682944278973
1414.31 77.48513478795664
1464.11 77.49102019729534
1515.38 77.60302645028925
1568.85 77.45551288407093
1624.51 77.23607252944922
1681.64 76.92232821324075
1740.97 76.72117396808436
1802.49 76.95523817226487
1866.21 76.59226399311267
1932.13 75.96828149821881
2000.24 76.03131116715346
2070.56 76.23433433178144
2143.8 76.0396655855753
2219.24 75.58141319017545
2297.61 76.09303597583293
2378.17 76.81546261011533
2462.4 76.6722399148335
2548.83 76.71916014784487
2638.92 77.15911879540268
2731.93 77.33007261111219
2828.61 77.72785926018094
2928.22 77.83397133058486
3031.49 77.74460008720165
3138.43 78.0856387096358
3249.02 78.38111252156703
3363.28 78.16402263791707
3481.93 78.06912955978964
3604.98 78.11051690159844
3732.42 77.9048076415264
3863.53 78.15558280109401
3999.76 78.335103454858
4141.11 78.18164017086426
4286.87 78.64931414285708
4438.48 78.69162652069924
4594.48 79.09280734121039
4757.08 79.38986584328542
4924.8 79.25776314341414
5098.39 79.26582038885182
5277.83 78.75606978381634
5463.87 78.51210534789034
5656.49 78.29035722266303
5856.45 78.11526674109169
6062.99 77.96958421293311
6276.86 77.98107000229246
6498.05 77.13913035585342
6727.29 77.31597153200761
6964.6 77.26088510301969
7209.96 77.05116182194838
7464.11 76.72969872008407
7727.78 76.33840027352157
8000.24 76.2363436019769
8282.23 77.0503810434435
8574.46 77.85707472276006
8876.22 77.97004530909636
9189.7 77.3192927824126
9513.43 76.38113719784307
9848.88 76.09150733241226
10196.8 76.37222238606581
10556.4 76.13719611662286
10928.5 75.67574578324057
11313.7 75.51388694612531
11712.9 75.29061315884795
12126.0 75.36427308549008
12553.7 75.86931519903446
12996.1 76.04179754864276
13454.6 75.67763616331472
13928.5 74.94016519851367
14419.9 74.75098967527265
14928.2 75.30319885385946
15454.8 75.99940732627262
15999.8 75.80740298816082
16564.5 74.81381648248181
17148.2 74.61649065089864
17753.2 75.09884000694962
18379.4 74.75426462198934
19027.6 73.57906137573296
19698.5 73.75263383648829
19999.5 73.90357757867251
