Freq "Sound Power"
20.5078 50.37732360857569
21.9727 48.51978353352217
23.4375 51.430591197435916
24.9023 54.28416997480346
26.3672 54.82571760224903
27.832 55.74911450921232
29.2969 57.302000236781
30.7617 57.97028115550316
32.2266 61.00119220222663
33.6914 62.700690340449626
35.1562 64.58730448654917
36.6211 66.17951109127011
38.0859 68.07039750607436
39.5508 69.5081137681986
41.0156 71.16837309962455
42.4805 72.7256883796661
43.9453 74.19893537157846
45.4102 75.45269059341926
46.875 76.59451090473708
48.3398 77.67650205278385
51.2695 79.21175032938221
52.7344 79.75195209291732
54.1992 80.20429503101388
55.6641 80.53710519293467
58.5938 81.07171458320914
60.0586 81.36483997701092
62.9883 81.82350012416556
64.4531 82.01721416110206
67.3828 82.3692015609258
68.8477 82.5323366593816
71.7773 82.99882456021287
74.707 83.3589386445409
77.6367 83.60692718476622
79.1016 83.742370603492
82.0312 83.97400778047003
84.9609 84.01051474063848
87.8906 84.11721961392354
90.8203 84.16750490195304
95.2148 84.07328995878879
98.1445 84.1184232802765
101.074 84.02071514330811
105.469 84.02493378453518
108.398 84.04727259821719
112.793 84.04790167047997
117.188 83.8967771160024
120.117 83.80508798953122
124.512 83.56602411730279
128.906 83.3106456396892
133.301 83.10913728006236
139.16 82.76594741407314
143.555 82.51481754929306
147.949 82.27318788201534
153.809 82.00793719412869
159.668 81.93966463633109
165.527 81.99902837024082
171.387 81.83157717990359
177.246 81.62486932908772
183.105 81.52476322351309
188.965 81.63944941180128
196.289 81.78528517526533
203.613 81.89873348272228
210.938 82.14350309663911
218.262 82.49004500329343
225.586 82.95232379496241
232.91 83.37015154081678
241.699 83.56473378955306
250.488 83.79182700222164
259.277 84.36024623147938
268.066 84.14406966370163
276.855 84.34400290928619
287.109 84.38070535782938
297.363 84.42448403101086
307.617 84.26686932764935
319.336 83.62125066960765
329.59 83.4437487443771
341.309 83.21847190288968
353.027 82.99528887820934
366.211 83.20688705517979
379.395 83.41170183486425
392.578 83.11419688787579
405.762 82.9385098571223
420.41 83.10408884657505
435.059 82.75605438455604
451.172 82.78861458320415
465.82 82.83235494813371
483.398 83.20129536233316
499.512 83.04468760125651
517.09 83.01694420984774
536.133 82.62410048737412
555.176 82.94815437416005
574.219 83.01871451851568
594.727 82.98329203460297
615.234 82.89026421477003
637.207 82.82193391976142
659.18 82.43512661483211
682.617 81.91146715564506
707.52 82.66925319730504
732.422 82.30474979875228
757.324 82.73948805989119
785.156 82.42757097504364
811.523 79.72392269269683
840.82 80.99776080587006
870.117 80.89758139034605
900.879 80.80046226480859
933.105 81.10011112363239
965.332 81.7188832620124
1000.49 81.88966046360494
1035.64 81.27027865635047
1072.27 80.95901411845907
1108.89 80.08727188779775
1148.44 79.82932447844716
1189.45 79.1950981428123
1230.47 78.71321257170827
1274.41 78.37065350243122
1319.82 78.48929237465035
1366.7 78.50743198862219
1413.57 78.83235585567517
1463.38 78.368895997544
1516.11 77.13360124431237
1568.85 76.35672113083623
1624.51 76.71363218047125
1681.64 76.81385003319517
1741.7 77.02579721780421
1803.22 77.2982197253348
1866.21 76.91858995559419
1932.13 76.6331158938988
1999.51 77.06095441080129
2069.82 77.74534961163027
2143.07 78.24496619161728
2219.24 77.6943051254767
2296.88 77.8037715207464
2378.91 77.63900281963983
2462.4 78.1220548563237
2548.83 78.18231264086788
2639.65 77.82634370846564
2731.93 76.71456964361103
2828.61 76.37386657194648
2928.22 76.60640747883745
3030.76 76.55811437476726
3137.7 76.39442776996802
3249.02 76.58064889138926
3363.28 76.72790196195159
3481.93 77.10339046836364
3604.98 77.11735967811968
3732.42 76.79173383288071
3864.26 76.5433344134699
4000.49 76.21697191599218
4141.11 76.89658843151133
4287.6 77.28222831496399
4438.48 77.20713630990245
4595.21 76.83436362501395
4756.35 77.22679264375364
4924.8 77.55279898458582
5097.66 77.1129589602423
5277.83 77.09437055524423
5463.87 77.51267526246986
5657.23 77.38659760465211
5856.45 77.87286833026597
6062.99 78.48550222443038
6276.86 77.69117992155732
6498.05 77.22899461518307
6726.56 77.5678391681948
6963.87 77.24443835700747
7209.96 77.29218290873172
7464.84 77.07783040012112
7727.05 76.92565311428409
7999.51 76.71125410261514
8282.23 76.42270969301828
8573.73 76.14249831694897
8876.95 75.60249991792901
9188.96 75.58110087206492
9514.16 75.36267787140142
9849.61 75.32905036677737
10196.8 74.8170881775151
10555.7 74.54031735923064
10927.7 74.13605304851292
11313.0 73.89739266812057
11712.9 73.52184241085898
12126.0 72.76610019327008
12553.7 72.2762828432187
12996.1 71.68882751251088
13454.6 71.38492370935317
13929.2 70.85653576650066
14419.9 70.35154832736615
14928.2 70.06253017172907
15455.6 69.64021827161801
16000.5 69.00320950439671
16564.5 68.17980516242278
17148.9 67.32066349021584
17752.4 65.98792214252597
18379.4 64.59347322602915
19026.9 63.39388670633113
19697.8 62.151522379597566
19999.5 61.6969729818878
