Freq,Floor Bounce,Ceiling Bounce,Front Wall Bounce,Side Wall Bounce,Rear Wall Bounce,Total Early Reflection
20.5078,61.14847771538267,55.48295182277032,58.06794921962346,58.322123916655315,58.22909750922231,58.623354785393914
21.9727,64.05030527992123,59.08697698270187,61.43886794795871,61.52976532526439,61.27489129954144,61.76541538992426
23.4375,66.0119370576311,61.58159151625854,63.68340071707054,63.74531447185221,63.52633563818999,63.94024031164294
24.9023,67.39739709474385,63.208364550310804,65.20061093198656,65.18476050837414,64.71751437059093,65.35548905822604
26.3672,69.57624912542676,65.83270890001238,67.64710503138947,67.61047079400656,67.23495774973829,67.74909999891649
27.832,71.12162091391396,67.68325510648988,69.37120623052951,69.27362919708023,68.78616545709275,69.39380981235422
29.2969,72.56329249653494,69.28611844383495,70.93181759188086,70.78575641006955,70.23476682849645,70.89622185593585
30.7617,73.87267837999138,70.7403704259416,72.33632137969187,72.17479032387796,71.62473096571541,72.27442748618544
32.2266,75.10516059685004,72.10397231300577,73.66629318751751,73.47499711198914,72.88178993408313,73.56283631600692
33.6914,76.1917732379477,73.36553601552576,74.85668029706919,74.64362674305882,74.03390194120637,74.72335632347854
35.1562,77.02288928469274,74.27555009640389,75.739531600732,75.51226404935763,74.90398432966525,75.59078081684581
36.6211,77.81831296151265,75.1138452998781,76.58012049484148,76.32954538196292,75.69069965553265,76.40474536899352
38.0859,78.66014302629696,76.00057634673296,77.486189130801,77.18501398278707,76.38487081900894,77.24480909287827
39.5508,79.32583649314553,76.78848026629397,78.21642455768793,77.90824377920346,77.14713326799044,77.96990375990315
41.0156,79.89513536042065,77.4281354740497,78.82562504572915,78.50220367484053,77.70539786597975,78.56149072589842
42.4805,80.47696005620526,77.99208076634194,79.4195308570952,79.075065102908,78.2629987040882,79.13740039547558
43.9453,81.0872068222891,78.63254987844338,80.07099999236308,79.67847012353461,78.72414958758088,79.73581502371869
45.4102,81.609160947647,79.24492069047088,80.64584672832969,80.2339850212541,79.20408983893768,80.28338942159739
46.875,81.95190117746513,79.66671805358648,81.0122334157901,80.63399845034726,79.72774816526105,80.68368205521277
48.3398,82.34879005067134,80.11031933405837,81.42980549985512,81.06578124736002,80.25523116208628,81.12049518095117
51.2695,83.40854167163118,81.11094239128086,82.48106579245275,82.08030405969821,81.24234463935706,82.14830930576045
52.7344,83.94059950322124,81.6409651463731,83.027549313346,82.6067869889611,81.68537553930909,82.66774570004155
54.1992,84.36797414795775,82.10436554541096,83.4692772455318,83.06183611685601,82.2066822155245,83.12447805406374
55.6641,84.77484721509238,82.53316698637387,83.89005640214035,83.48063920444457,82.67327887021511,83.54989485706542
58.5938,85.71326782859477,83.46571259832434,84.85068275338004,84.39486128835935,83.5405998015053,84.4759078411093
60.0586,86.18543095110257,83.92916994124175,85.33293300952467,84.85290632393954,83.95474649532831,84.93681994633589
62.9883,87.00794106202426,84.74161458056828,86.17572653708467,85.66370709273482,84.73355842430583,85.75295560433703
64.4531,87.47473321012909,85.2414027345932,86.6721761318633,86.13406298817033,85.18029794117663,86.22908057430134
67.3828,88.26635216562816,86.17184751453168,87.52770281383327,86.96760952254265,85.78183143495214,87.03643180185544
68.8477,88.69048324390177,86.62161394840301,87.94568462067562,87.42728679268687,86.39183843245297,87.49871131010484
71.7773,89.49177828161932,87.36887858194844,88.74222115865096,88.1952261192909,87.2091734951584,88.28610826487034
74.707,90.2300854021714,88.0700461830013,89.46815537882573,88.9264714946288,87.97285413628113,89.01826807512597
77.6367,90.77816423537189,88.57195865913323,90.0060427840776,89.46788208359827,88.63093107232241,89.57291018310222
79.1016,91.0098579045348,88.77256419331015,90.23527902452307,89.67618343225776,88.87656915028403,89.79682818255311
82.0312,91.53309319351187,89.27591084161625,90.79141633642632,90.15492391113997,89.19274377719198,90.28274665322205
84.9609,91.81106061561049,89.62215293354123,91.10764913765782,90.45017370389071,89.47067153659349,90.58356765889984
87.8906,91.99745584887867,89.82496336229185,91.28287628545927,90.64414826455645,90.01054270392358,90.82816415754344
90.8203,92.64885504498902,90.42186235415109,91.97421846205695,91.19139818226157,90.44784444255231,91.42519846310532
95.2148,92.9620760977876,90.78149151935152,92.34204472953375,91.4805546809251,90.38835494060565,91.69650936759955
98.1445,92.89183077498886,90.6876835255996,92.27188987473755,91.38002525776606,90.24628655220967,91.60614737205651
101.074,92.6881569866699,90.47173864589242,92.08786393977365,91.14587479909439,89.90207791705343,91.37903011886476
105.469,92.36953577271966,90.18631062467573,91.81360355710942,90.79306618745345,89.2764536371162,91.02754575041065
108.398,92.2176376631367,90.10832447353486,91.65571824265784,90.67295895136886,89.2103164567055,90.90402486726458
112.793,91.69740613136216,89.45204183710935,91.07770311020215,90.08067293085999,88.86112989318389,90.35783497887779
117.188,91.01082111856047,88.29134827347956,90.30311795175696,89.13731818702486,87.80398618004897,89.47634694599633
120.117,91.12667522726329,88.52967742202772,90.54282790559614,89.30915382567186,87.65469722231862,89.61686022604509
124.512,91.10451157730766,88.68224798486614,90.55766896136964,89.36976137692992,88.11264689765207,89.71029788539971
128.906,90.75410209588104,88.23575084339939,90.21707449568228,88.8935472873096,87.65831006299993,89.30984289134979
133.301,90.49456727495873,87.86793590885345,89.99515027883218,88.52135973210292,86.61785114161312,88.92313499569191
139.16,89.78300365182338,87.4607598648803,89.3423210002456,88.06049266124411,85.94309569000116,88.32604801263842
143.555,89.17974466667512,86.47378608887423,88.65789608882967,87.19158543244397,85.24295164775316,87.58042588397218
147.949,89.54496456337829,86.90959507070093,89.18372435559861,87.55047411008739,85.11897041988905,87.94343900635963
153.809,89.1933025314371,86.97894579666186,88.93540036956576,87.39604165248505,85.42102979624391,87.79496340459849
159.668,88.24389860009966,86.21806528605822,88.02172998712163,86.51911272595338,83.86885484231989,86.8349829889762
165.527,87.78926823908334,85.51568209646688,87.52800392506255,85.72760545941826,83.64370633853531,86.2909481851584
171.387,88.26068670470146,85.895743514882,88.0840071952078,85.87585072510333,82.46644232123052,86.56152378618896
177.246,88.34193964525487,86.23731317423959,88.2532651897426,86.29766059432696,83.10024000882133,86.81691836549471
183.105,87.98178266661228,86.26786295501856,87.95895833577289,86.1601344015338,82.9993695262218,86.60738600386951
188.965,88.08895793950278,86.01103581371062,88.0437367313052,86.02757692129903,83.43770567069048,86.63098609293776
196.289,89.09814216276781,86.81963495305546,89.05410409089872,86.8931148556583,83.6942298943051,87.51384155292779
203.613,89.28726241162418,86.7449819135305,89.17964560430303,86.88021778751077,83.70965815880037,87.59157352325089
210.938,90.39302085804304,87.64280538798253,90.30084380189797,87.94369152743205,83.70984088158775,88.57979705189226
218.262,90.98795036077205,88.49146679642628,90.90855074282244,88.8613199269585,83.019267818726,89.20589162821739
225.586,90.69859751332508,88.19893121874047,90.54288925901572,88.62137474151423,85.38058181937036,89.0756218162849
232.91,90.89027550500451,87.59220487783149,90.55068707733314,88.15175276229829,84.78794595653333,88.91165760988973
241.699,91.54073557590816,88.56865397739494,91.47310654643375,89.12239215736888,84.38184292514883,89.67566571294633
250.488,89.82436992494738,87.55618177937386,89.89853070446473,87.98246648718406,83.16292298816627,88.25102063769857
259.277,90.72189658719829,87.31238214959627,90.53740483399376,87.85432642143284,83.85236867179883,88.69708361776236
268.066,91.78183006822532,89.05328261240504,91.80643752670153,89.48371162264058,84.00558997454267,89.97089959443973
276.855,90.35158488333654,87.93801370828416,90.3203770325678,87.76566475814354,84.80452136591217,88.67234218285671
287.109,89.84727477591697,87.54760852157388,89.68340763046696,87.13466611673867,82.50194120499833,88.00519012593246
297.363,91.26790298716782,88.23899328465507,91.37643074721764,88.62669977570856,81.6698383420139,89.29866879990622
307.617,90.28938035830016,88.15608439046746,90.88475763392832,88.74746738917216,82.00635725388884,88.87289270863057
319.336,90.59105101767858,88.32694049087819,91.17206991306362,88.84844430006213,83.13976175268805,89.1476872966433
329.59,90.3378426164574,88.14965664134837,90.7555302065012,88.8508273036695,83.60770029621891,88.94426105500028
341.309,90.62915695776343,88.42814173687607,91.1858554331605,88.45664868152765,82.63119758868108,89.08526068142703
353.027,91.2789059441185,88.95243452433975,91.82635942473173,89.23998508652924,83.64465789407909,89.75136671399649
366.211,90.7086164881279,89.381338540978,91.4680454334165,89.07456109739658,81.6099654613533,89.44443367441575
379.395,90.40169721844028,88.98311499640704,91.23621297369436,89.0582161785955,83.16705346666743,89.27354534881381
392.578,90.31861660337741,88.18137462797796,91.08701089652182,88.4453787228588,81.70981981384563,88.8826197449694
405.762,88.3988415112049,87.12614628244293,89.37612050929229,86.83961129021225,81.12652717241163,87.30204289778213
420.41,85.73746697305761,84.17663739329282,87.14456237812162,84.07198722439689,78.58281714142248,84.7189736498711
435.059,85.46554462781023,84.37400120040671,86.55410252026981,83.9417530714342,78.67129094114055,84.47020390632414
451.172,85.63498162550678,83.93663114020097,87.0623342414675,83.87665809474585,76.94829019592089,84.51994405036196
465.82,86.6797482329228,84.70292535233362,87.82810734088763,84.44660450668411,77.38700326127804,85.31615596751243
483.398,86.79066529094936,85.46629007758423,87.82995517990715,84.3278767482271,77.97540433257574,85.49010278127054
499.512,85.55528655851552,85.60846109585496,87.4728122999,84.09777425162746,77.45830171432821,85.03676808850093
517.09,87.05641431093986,85.79163407265011,89.06907319864733,84.65198430535584,79.16841652629122,86.16729669888711
536.133,88.53642712862094,86.56624443573479,89.64046416646835,85.26250850385497,78.27164494354972,86.9742218097759
555.176,87.99897131828722,87.92434569391472,89.29921105921021,85.48310093112508,77.37458466877771,87.00690122781329
574.219,89.35588082322728,87.38910751866685,89.22162712135754,84.61917039768954,77.91916276848983,87.15644410401266
594.727,90.18035754462792,87.30445431497573,89.88377101155959,85.11616266492491,77.58189305697643,87.6873917154222
615.234,89.10264557585637,86.63178260922746,89.1881172554543,84.91950269408953,77.24351190794276,86.93144927952542
637.207,91.11876625290209,86.6728413108644,88.95838483152734,84.19400901058414,78.00694126629756,87.59102746611752
659.18,91.16182153338278,87.17934019396425,88.9011631868973,84.34862095050697,76.11655485208833,87.66199815468688
682.617,91.64633095070661,87.76523295616634,88.91121667424625,84.06535038749033,75.77675453364793,87.96541729392563
707.52,91.99939868320361,87.16610534083323,89.02721423752756,84.55124790791744,75.75243864093612,88.09897763135285
732.422,92.25420885127318,86.60361857668269,88.57850992085636,84.32044047210451,75.38119360608506,88.01226416355563
757.324,92.90860515951279,87.17066862433745,89.45893774822447,85.5909098126862,75.54868725008605,88.75761476620791
785.156,92.78220554851119,86.50930073517065,89.6758629157086,85.4708128952505,75.73239746873973,88.64897863864623
811.523,92.56202857792356,86.6948464011622,90.82989087144607,86.21358063055469,76.3292700789573,88.96826998495987
840.82,92.70110590859984,86.4928704473921,91.25221961589652,86.28336658082054,76.64725925306517,89.15280897057731
870.117,92.26565350828069,86.62161724669896,91.30368956258054,86.2790175522911,74.56170300065578,88.97347183456463
900.879,92.65857950983043,85.88330439718091,91.30028739708783,85.93144696962864,75.56217168586859,89.04053264238217
933.105,91.80859239307482,85.14114802062586,91.06968848587489,86.03012031255587,75.68851930728447,88.52535585045347
965.332,91.8941566684534,84.89231832233179,91.25342574854257,86.83302664410587,77.24510435905299,88.72168363912358
1000.49,90.76024292445176,85.2221069266236,90.97449314089711,86.34804309834543,77.76538238214687,88.15150557307089
1035.64,90.17174933239835,84.86947653022027,90.9038655518914,86.87987938177895,75.17312481840298,87.9225050852094
1072.27,89.59417262408563,84.65114941561279,91.06401474759328,86.6217014233333,77.21565660707103,87.77031559239992
1108.89,89.13659289365603,84.39465365505085,90.77185791185673,86.41280410767432,74.77884346648845,87.4149018378265
1148.44,88.07589989302436,84.34454992321066,90.39665826703026,85.87862852088416,75.90025900244471,86.87651464045314
1189.45,86.24974312633182,84.4690942716319,90.45383040474336,85.6713526646639,73.61950939552888,86.44196105670125
1230.47,84.51071076579578,84.75032651187574,90.87664070154798,85.36642102584291,73.61795468358855,86.37856645691419
1274.41,82.66429595828944,84.13005939654242,90.90512977811242,84.8978737473952,71.92881478968954,86.0199512760591
1319.82,81.77849640700198,84.58064330021996,91.00234487977953,83.97991762727602,71.43727132955478,85.93571162197206
1366.7,82.54872392299536,84.4255921586841,91.23912875795047,84.26833693100625,71.22078309126314,86.16478993834845
1413.57,82.89058220699988,84.87525441828215,91.2313194551071,84.07831373783888,71.4606648559472,86.23123307757876
1463.38,84.05359118369996,84.23538315005776,90.77178257107758,84.59308104985344,71.93405664325165,86.05847500033838
1516.11,84.50219876462685,84.85009602799461,90.22502747400917,84.59564174380336,71.75589650007767,85.89671920471726
1568.85,85.01150503429247,85.09639365677181,89.74106246884008,83.71666512603657,70.38262729350382,85.6318596901173
1624.51,85.69671897755786,84.91067034436225,89.78473033692734,83.04267238120333,70.71139387545922,85.67252602066577
1681.64,85.95921948411502,85.22314099102068,90.43803958911963,83.35428176672127,70.75947290883354,86.15278041625534
1741.7,86.46248245615583,84.59459772425659,90.36221179946202,83.05596902206607,70.99588411076583,86.09072661564171
1803.22,87.06667761141826,84.89347181530596,90.0773058534445,83.18239975756958,71.55269426286934,86.1444347248141
1866.21,87.38123846998857,84.77837112422752,90.31911751216911,83.6243671372653,71.78097162165567,86.37361332537995
1932.13,87.64599741926959,85.20627250249017,90.4596431583568,84.23119090204231,71.3349981925664,86.6338776461849
1999.51,87.38320629751836,84.87326971382593,90.41979787995488,84.054490319805,70.75730207913725,86.4783395246407
2069.82,88.02076115696404,84.14787642805773,90.21202844220458,84.3104495376508,71.19196253808813,86.48723392264073
2143.07,88.01530820638497,84.81243785238222,90.22730409042258,83.45798459477508,69.87305774872213,86.47619193838467
2219.24,88.15051709435896,83.66088474952981,90.14536053368221,83.42381014545263,69.1687793118481,86.33024484241851
2296.88,88.10855704311395,84.13250610276224,89.4307730490733,83.03853446389385,69.20430845878998,86.00468787365749
2378.91,87.57012892661233,83.03315440764739,89.47866877657792,83.05976572473901,69.11171796863094,85.7284286160738
2462.4,87.17422562454783,83.48174672117459,89.64217884944135,83.50569764616249,69.08827618233924,85.79284811732218
2548.83,87.18525941264782,82.47342742204971,88.93229419382263,82.96642006094679,69.50277136544098,85.28587864181362
2639.65,86.62963908036077,82.39569399397399,88.61550640932195,82.50537452028239,68.19678408658164,84.90100002518206
2731.93,86.35643563963794,81.8062723839842,89.1188600311839,82.88067814763207,68.25859876213852,85.05398953844669
2828.61,86.36517700169495,81.18623621256118,89.03960878932845,82.49210984850713,67.19422790921745,84.91022638781867
2928.22,86.1241511744254,80.81839658498386,88.6575194035726,81.60039442275672,66.70289472314106,84.51393661775447
3030.76,85.9614043271424,80.91625052496228,89.30090021641557,81.95106230791374,65.97725998475367,84.8573878557569
3137.7,86.22992601579702,80.61616926871926,89.22524857935692,81.86963527857208,66.68115537037066,84.85740895342603
3249.02,86.14644427055335,80.64686794631605,89.00713977241037,82.10648034407352,67.11036150913007,84.74513645411844
3363.28,86.16149160075845,81.3753012811588,90.06785700471161,83.49841271068345,68.09766515424873,85.55441682660391
3481.93,86.6452664073859,81.73950477974513,89.95225394970483,83.65934653524951,68.25005359670061,85.65642017314958
3604.98,85.91568385450859,81.12938555255059,90.48189820571254,83.9283799692201,67.96126826211596,85.77684209186043
3732.42,83.4403288612761,78.87839564541599,87.80254450641623,80.87527626935308,64.49482761265641,83.1222516882954
3864.26,81.53135886173841,77.4751010462202,87.39663654907706,80.11255811160635,62.79952095089236,82.31386167582986
4000.49,81.93194455844517,77.67987885198299,87.11063781214054,79.46412343726037,63.68897039907846,82.14571843799096
4141.11,82.37433090583956,78.21054203778215,88.53108280609779,80.97666764631497,63.75402099274787,83.34296190993409
4287.6,83.551761799399,78.8292745874077,88.8737945909733,81.39421693943358,64.193573354397,83.85601121275752
4438.48,83.608024913508,79.3341415927306,89.27428980725365,81.81277970253444,64.15066143463038,84.20224146865839
4595.21,83.97182122580428,79.3933158391029,89.6452158623079,82.11971392583655,63.92508817292524,84.54378318579894
4756.35,83.87444891952792,79.36242248691302,89.59510511675808,81.9213646686522,63.742117266900166,84.4696348055317
4924.8,83.77604824691024,79.29856031220588,89.6981167561687,81.79796705608258,63.392078465051426,84.50239348052447
5097.66,83.61978882660459,79.05458245628604,89.6584790599729,81.70972150524962,63.409758336548876,84.42598849766685
5277.83,83.1792137846254,78.33035295215824,89.40965396977539,81.50458549292914,62.902229184234,84.12383301319525
5463.87,82.44509459198153,77.40005970927866,89.21549634266282,81.23535435234696,61.655473756815056,83.80085611024914
5657.23,81.80811311112944,76.91476830967409,88.56939546035133,80.41250519598252,61.1224727922709,83.14453595601972
5856.45,81.41843214016471,76.94957845798335,88.53980178366054,80.40754573902638,61.34983846187119,83.06996197260806
6062.99,81.97036439919059,76.96774165732694,88.81055474550811,80.74076975795816,61.469327294788926,83.37492493959958
6276.86,81.85967408636364,76.79956008542146,89.17882305331074,81.10624797043563,61.60316801344679,83.65294411359646
6498.05,82.09390434634061,76.95821609870471,89.78118795162906,81.60956339185302,61.09813420902107,84.17839415843885
6726.56,82.34931676224936,76.83518057523469,90.11106911612383,81.9012857346421,61.3593294993848,84.47844791105997
6963.87,82.47988555610124,77.06511079848543,90.64876829073908,82.37022916370395,61.70068246430337,84.95009398261547
7209.96,82.96732680317179,77.0817776763236,91.35207973095113,83.11184846562246,62.3439112294822,85.61288905129344
7464.84,83.23028607159563,77.32044760584883,91.6925831118242,83.49026249726354,62.55546792838892,85.94636638242902
7727.05,82.07808442196152,76.17602051572507,90.62681873814593,82.48410790367943,61.64470919145886,84.87626591172972
7999.51,81.15166602378658,75.939541250059,89.91712833995744,81.80291246921469,60.8263729625272,84.16105471982544
8282.23,81.80116533270368,76.60213827268305,90.57214973743572,82.55368979967179,60.52645191690455,84.82619584689662
8573.73,81.78504116353491,76.86117657729609,90.51468787740886,82.57121511001468,60.94116848536255,84.7920295959646
8876.95,81.68225993937585,76.82975803758089,90.35216649270457,82.32077105608467,60.45915982125054,84.62912196841606
9188.96,81.70112953501409,76.41477446391525,90.40225518282314,82.17004322585488,60.07032426697624,84.6378300500508
9514.16,82.52637848800865,77.0662708895492,90.9303850473785,82.7069951361178,60.95210484769866,85.20211243656838
9849.61,82.98652353429989,77.3439612502686,91.17246496302732,82.77608708407475,59.98025695995217,85.44955092975282
