Freq,Floor Bounce,Ceiling Bounce,Front Wall Bounce,Side Wall Bounce,Rear Wall Bounce,Total Early Reflection
20.5078,61.55444135174626,55.88891545913394,58.47391285598711,58.728087553018966,58.63506114558594,59.02931842175754
21.9727,64.45626891628486,59.49294061906555,61.844831584322364,61.935728961628044,61.68085493590506,62.17137902628791
23.4375,66.41790069399472,61.987555152622164,64.08936435343416,64.15127810821586,63.93229927455364,64.34620394800656
24.9023,67.80336073110749,63.614328186674456,65.60657456835018,65.59072414473776,65.12347800695456,65.76145269458966
26.3672,69.98221276179041,66.23867253637603,68.05306866775312,68.0164344303702,67.64092138610192,68.15506363528013
27.832,71.52758455027761,68.08921874285352,69.77716986689313,69.67959283344388,69.19212909345639,69.79977344871787
29.2969,72.9692561328986,69.6920820801986,71.33778122824448,71.19172004643319,70.64073046486008,71.30218549229947
30.7617,74.27864201635504,71.14633406230523,72.74228501605552,72.5807539602416,72.03069460207904,72.68039112254907
32.2266,75.51112423321368,72.5099359493694,74.07225682388115,73.88096074835279,73.28775357044675,73.96879995237056
33.6914,76.59773687431134,73.7714996518894,75.26264393343284,75.04959037942247,74.43986557756999,75.12931995984216
35.1562,77.42885292105636,74.68151373276753,76.14549523709563,75.91822768572125,75.30994796602889,75.99674445320944
36.6211,78.22427659787627,75.51980893624173,76.98608413120513,76.73550901832657,76.09666329189629,76.81070900535717
38.0859,79.0661066626606,76.40653998309661,77.89215276716465,77.59097761915069,76.79083445537258,77.65077272924192
39.5508,79.73180012950915,77.19444390265761,78.62238819405157,78.3142074155671,77.55309690435408,78.37586739626677
41.0156,80.30109899678429,77.83409911041335,79.23158868209278,78.90816731120417,78.11136150234337,78.96745436226207
42.4805,80.88292369256888,78.3980444027056,79.82549449345885,79.48102873927162,78.66896234045184,79.54336403183922
43.9453,81.49317045865276,79.03851351480701,80.47696362872672,80.08443375989825,79.1301132239445,80.14177866008231
45.4102,82.01512458401065,79.65088432683451,81.05181036469334,80.63994865761775,79.61005347530131,80.68935305796104
46.875,82.35786481382878,80.07268168995013,81.41819705215374,81.03996208671089,80.13371180162468,81.08964569157641
48.3398,82.75475368703498,80.51628297042201,81.83576913621876,81.47174488372367,80.6611947984499,81.5264588173148
51.2695,83.81450530799482,81.51690602764451,82.88702942881638,82.48626769606183,81.64830827572071,82.55427294212407
52.7344,84.34656313958487,82.04692878273674,83.43351294970962,83.01275062532473,82.09133917567273,83.07370933640517
54.1992,84.7739377843214,82.51032918177461,83.87524088189542,83.46779975321967,82.61264585188815,83.53044169042737
55.6641,85.18081085145602,82.93913062273751,84.29602003850398,83.88660284080821,83.07924250657875,83.95585849342906
58.5938,86.11923146495842,83.87167623468797,85.25664638974368,84.80082492472299,83.94656343786895,84.88187147747294
60.0586,86.5913945874662,84.33513357760539,85.7388966458883,85.25886996030316,84.36071013169195,85.34278358269954
62.9883,87.41390469838792,85.14757821693192,86.5816901734483,86.06967072909845,85.13952206066948,86.15891924070067
64.4531,87.88069684649274,85.64736637095683,87.07813976822693,86.54002662453398,85.58626157754026,86.63504421066497
67.3828,88.67231580199179,86.57781115089531,87.93366645019692,87.3735731589063,86.18779507131579,87.44239543821908
68.8477,89.09644688026539,87.02757758476666,88.35164825703926,87.83325042905052,86.79780206881661,87.90467494646849
71.7773,89.89774191798294,87.77484221831207,89.1481847950146,88.60118975565453,87.61513713152203,88.69207190123397
74.707,90.63604903853503,88.47600981936492,89.87411901518935,89.33243513099245,88.37881777264477,89.42423171148961
77.6367,91.18412787173553,88.97792229549685,90.41200642044122,89.87384571996192,89.03689470868605,89.97887381946586
79.1016,91.41582154089843,89.17852782967378,90.64124266088672,90.08214706862138,89.28253278664765,90.20279181891674
82.0312,91.93905682987551,89.6818744779799,91.19737997278996,90.5608875475036,89.59870741355562,90.68871028958567
84.9609,92.21702425197412,90.02811656990487,91.51361277402147,90.85613734025435,89.87663517295712,90.98953129526348
87.8906,92.40341948524231,90.23092699865549,91.6888399218229,91.05011190092007,90.41650634028723,91.23412779390709
90.8203,93.05481868135266,90.82782599051474,92.38018209842058,91.59736181862519,90.85380807891595,91.83116209946895
95.2148,93.36803973415125,91.18745515571514,92.74800836589739,91.88651831728873,90.79431857696929,92.1024730039632
98.1445,93.29779441135248,91.09364716196322,92.67785351110119,91.78598889412972,90.6522501885733,92.01211100842015
101.074,93.09412062303353,90.87770228225604,92.49382757613728,91.55183843545802,90.30804155341706,91.78499375522838
105.469,92.77549940908331,90.59227426103935,92.21956719347307,91.19902982381709,89.68241727347984,91.4335093867743
108.398,92.62360129950032,90.51428810989852,92.06168187902148,91.0789225877325,89.61628009306912,91.30998850362822
112.793,92.1033697677258,89.85800547347299,91.48366674656579,90.48663656722361,89.26709352954751,90.76379861524143
117.188,91.41678475492411,88.69731190984318,90.70908158812058,89.54328182338851,88.20994981641259,89.88231058235998
120.117,91.53263886362693,88.93564105839137,90.94879154195978,89.71511746203551,88.06066085868227,90.02282386240874
124.512,91.51047521367128,89.08821162122979,90.96363259773328,89.77572501329354,88.5186105340157,90.11626152176335
128.906,91.16006573224469,88.64171447976302,90.62303813204592,89.29951092367324,88.06427369936357,89.71580652771343
133.301,90.90053091132238,88.2738995452171,90.40111391519584,88.92732336846655,87.02381477797675,89.32909863205556
139.16,90.188967288187,87.86672350124394,89.74828463660924,88.46645629760776,86.34905932636478,88.73201164900206
143.555,89.58570830303876,86.87974972523786,89.0638597251933,87.59754906880761,85.6489152841168,87.9863895203358
147.949,89.95092819974194,87.31555870706455,89.58968799196224,87.95643774645103,85.52493405625268,88.34940264272325
153.809,89.59926616780072,87.38490943302548,89.34136400592938,87.80200528884869,85.82699343260755,88.20092704096213
159.668,88.6498622364633,86.62402892242186,88.42769362348525,86.925076362317,84.27481847868354,87.24094662533983
165.527,88.19523187544699,85.9216457328305,87.93396756142619,86.13356909578191,84.04966997489895,86.69691182152202
171.387,88.6666503410651,86.30170715124562,88.48997083157145,86.28181436146697,82.87240595759415,86.96748742255258
177.246,88.74790328161852,86.64327681060324,88.65922882610623,86.70362423069061,83.50620364518495,87.22288200185834
183.105,88.38774630297591,86.6738265913822,88.36492197213654,86.56609803789742,83.40533316258542,87.01334964023314
188.965,88.49492157586643,86.41699945007427,88.44970036766885,86.43354055766268,83.84366930705413,87.03694972930141
196.289,89.50410579913145,87.2255985894191,89.46006772726237,87.29907849202195,84.10019353066875,87.91980518929142
203.613,89.69322604798782,87.1509455498941,89.58560924066666,87.28618142387442,84.11562179516399,87.99753715961454
210.938,90.79898449440668,88.04876902434617,90.7068074382616,88.34965516379567,84.11580451795137,88.98576068825588
218.262,91.39391399713567,88.89743043278993,91.3145143791861,89.26728356332215,83.42523145508962,89.61185526458102
225.586,91.10456114968872,88.6048948551041,90.94885289537935,89.02733837787788,85.78654545573399,89.48158545264852
232.91,91.29623914136816,87.99816851419513,90.95665071369677,88.55771639866194,85.19390959289699,89.31762124625338
241.699,91.94669921227178,88.97461761375857,91.8790701827974,89.5283557937325,84.78780656151248,90.08162934930996
250.488,90.230333561311,87.96214541573751,90.30449434082837,88.38843012354769,83.56888662452992,88.65698427406221
259.277,91.12786022356192,87.71834578595991,90.9433684703574,88.2602900577965,84.25833230816245,89.103047254126
268.066,92.18779370458896,89.4592462487687,92.21240116306517,89.88967525900424,84.41155361090632,90.37686323080338
276.855,90.75754851970017,88.3439773446478,90.72634066893143,88.17162839450718,85.21048500227582,89.07830581922033
287.109,90.25323841228062,87.95357215793753,90.08937126683061,87.5406297531023,82.90790484136198,88.41115376229611
297.363,91.67386662353144,88.6449569210187,91.78239438358129,89.0326634120722,82.07580197837753,89.70463243626985
307.617,90.69534399466382,88.5620480268311,91.29072127029195,89.1534310255358,82.41232089025249,89.27885634499422
319.336,90.99701465404222,88.73290412724181,91.57803354942725,89.25440793642575,83.5457253890517,89.55365093300692
329.59,90.74380625282105,88.55562027771201,91.16149384286484,89.25679094003316,84.01366393258255,89.35022469136392
341.309,91.03512059412706,88.83410537323972,91.59181906952413,88.8626123178913,83.03716122504471,89.49122431779065
353.027,91.68486958048213,89.35839816070339,92.23232306109536,89.64594872289287,84.05062153044273,90.15733035036011
366.211,91.11458012449152,89.78730217734164,91.87400906978014,89.4805247337602,82.01592909771695,89.85039731077937
379.395,90.80766085480393,89.38907863277069,91.642176610058,89.46417981495915,83.57301710303106,89.67950898517746
392.578,90.72458023974103,88.5873382643416,91.49297453288546,88.85134235922244,82.11578345020928,89.28858338133305
405.762,88.80480514756853,87.53210991880657,89.78208414565593,87.24557492657587,81.53249080877526,87.70800653414578
420.41,86.14343060942123,84.58260102965646,87.55052601448527,84.47795086076052,78.98878077778612,85.12493728623473
435.059,85.87150826417387,84.77996483677036,86.96006615663346,84.34771670779786,79.0772545775042,84.87616754268778
451.172,86.04094526187043,84.3425947765646,87.46829787783112,84.28262173110949,77.35425383228453,84.92590768672561
465.82,87.08571186928643,85.10888898869727,88.23407097725128,84.85256814304775,77.79296689764168,85.72211960387608
483.398,87.196628927313,85.87225371394786,88.23591881627078,84.73384038459075,78.38136796893939,85.89606641763416
499.512,85.96125019487916,86.01442473221861,87.87877593626365,84.50373788799108,77.86426535069185,85.44273172486459
517.09,87.4623779473035,86.19759770901378,89.47503683501095,85.05794794171949,79.57438016265486,86.57326033525077
536.133,88.94239076498458,86.97220807209843,90.04642780283199,85.66847214021861,78.67760857991335,87.38018544613955
555.176,88.40493495465087,88.33030933027834,89.70517469557383,85.88906456748872,77.78054830514134,87.41286486417691
574.219,89.76184445959093,87.79507115503048,89.62759075772118,85.0251340340532,78.32512640485346,87.56240774037629
594.727,90.58632118099158,87.71041795133937,90.28973464792321,85.52212630128855,77.98785669334006,88.09335535178582
615.234,89.50860921222,87.0377462455911,89.59408089181794,85.32546633045318,77.6494755443064,87.33741291588906
637.207,91.52472988926573,87.07880494722804,89.36434846789096,84.59997264694776,78.4129049026612,87.99699110248118
659.18,91.56778516974643,87.58530383032789,89.30712682326093,84.75458458687062,76.52251848845195,88.06796179105054
682.617,92.05229458707025,88.17119659252998,89.31718031060988,84.47131402385396,76.18271817001157,88.37138093028928
707.52,92.40536231956726,87.57206897719688,89.43317787389121,84.95721154428108,76.15840227729974,88.50494126771649
732.422,92.66017248763681,87.00958221304634,88.98447355722001,84.72640410846815,75.78715724244869,88.41822779991926
757.324,93.31456879587641,87.57663226070109,89.86490138458811,85.99687344904983,75.95465088644968,89.16357840257153
785.156,93.18816918487482,86.9152643715343,90.08182655207226,85.87677653161414,76.13836110510337,89.05494227500986
811.523,92.96799221428718,87.10081003752583,91.2358545078097,86.61954426691833,76.73523371532094,89.37423362132351
840.82,93.1070695449635,86.89883408375572,91.65818325226016,86.68933021718418,77.0532228894288,89.55877260694096
870.117,92.67161714464433,87.0275808830626,91.70965319894418,86.68498118865475,74.96766663701943,89.37943547092827
900.879,93.06454314619405,86.28926803354456,91.70625103345147,86.33741060599228,75.96813532223221,89.4464962787458
933.105,92.21455602943846,85.54711165698951,91.47565212223851,86.43608394891952,76.09448294364812,88.9313194868171
965.332,92.30012030481704,85.29828195869544,91.65938938490622,87.23899028046951,77.65106799541661,89.12764727548723
1000.49,91.16620656081541,85.62807056298725,91.38045677726073,86.75400673470908,78.1713460185105,88.55746920943453
1035.64,90.57771296876199,85.27544016658392,91.30982918825502,87.28584301814259,75.57908845476662,88.32846872157302
1072.27,90.00013626044925,85.05711305197642,91.46997838395693,87.02766505969694,77.62162024343466,88.17627922876356
1108.89,89.54255653001967,84.8006172914145,91.17782154822036,86.81876774403796,75.18480710285209,87.82086547419016
1148.44,88.48186352938801,84.75051355957429,90.80262190339388,86.28459215724779,76.30622263880834,87.28247827681678
1189.45,86.65570676269544,84.87505790799555,90.85979404110698,86.07731630102754,74.0254730318925,86.8479246930649
1230.47,84.91667440215942,85.15629014823936,91.28260433791162,85.77238466220655,74.0239183199522,86.78453009327781
1274.41,83.0702595946531,84.53602303290604,91.31109341447608,85.30383738375885,72.33477842605316,86.42591491242275
1319.82,82.1844600433656,84.98660693658361,91.40830851614317,84.38588126363965,71.84323496591841,86.34167525833571
1366.7,82.95468755935902,84.83155579504772,91.64509239431412,84.6743005673699,71.6267467276268,86.5707535747121
1413.57,83.29654584336352,85.2812180546458,91.63728309147074,84.48427737420252,71.86662849231085,86.6371967139424
1463.38,84.4595548200636,84.64134678642141,91.1777462074412,84.99904468621706,72.34002027961527,86.46443863670201
1516.11,84.90816240099048,85.25605966435823,90.63099111037279,85.00160538016698,72.1618601364413,86.30268284108088
1568.85,85.41746867065609,85.50235729313545,90.14702610520372,84.12262876240023,70.78859092986745,86.03782332648093
1624.51,86.10268261392152,85.31663398072588,90.19069397329096,83.44863601756697,71.11735751182285,86.0784896570294
1681.64,86.36518312047865,85.62910462738434,90.84400322548326,83.7602454030849,71.1654365451972,86.55874405261896
1741.7,86.86844609251946,85.00056136062021,90.76817543582567,83.46193265842969,71.40184774712945,86.49669025200535
1803.22,87.47264124778188,85.2994354516696,90.48326948980812,83.58836339393322,71.95865789923299,86.55039836117773
1866.21,87.7872021063522,85.18433476059117,90.72508114853275,84.03033077362895,72.1869352580193,86.77957696174359
1932.13,88.05196105563321,85.6122361388538,90.86560679472045,84.63715453840595,71.74096182893005,87.03984128254852
1999.51,87.789169933882,85.27923335018959,90.82576151631852,84.46045395616865,71.16326571550087,86.88430316100434
2069.82,88.42672479332766,84.55384006442135,90.61799207856824,84.71641317401445,71.59792617445179,86.89319755900438
2143.07,88.42127184274862,85.21840148874584,90.6332677267862,83.8639482311387,70.27902138508576,86.88215557474831
2219.24,88.55648073072261,84.06684838589346,90.55132417004585,83.82977378181626,69.57474294821172,86.73620847878216
2296.88,88.51452067947757,84.53846973912586,89.83673668543692,83.44449810025749,69.6102720951536,86.41065151002113
2378.91,87.97609256297595,83.43911804401104,89.88463241294157,83.46572936110266,69.51768160499459,86.13439225243744
2462.4,87.58018926091147,83.88771035753824,90.04814248580497,83.91166128252613,69.49423981870287,86.19881175368582
2548.83,87.59122304901145,82.87939105841336,89.33825783018625,83.37238369731043,69.90873500180462,85.69184227817725
2639.65,87.0356027167244,82.80165763033763,89.02147004568559,82.91133815664604,68.60274772294528,85.3069636615457
2731.93,86.76239927600156,82.21223602034782,89.52482366754755,83.28664178399569,68.66456239850216,85.45995317481034
2828.61,86.77114063805858,81.59219984892484,89.44557242569209,82.89807348487078,67.60019154558107,85.3161900241823
2928.22,86.53011481078904,81.22436022134751,89.06348303993623,82.00635805912034,67.10885835950471,84.91990025411812
3030.76,86.36736796350603,81.32221416132592,89.7068638527792,82.35702594427738,66.38322362111732,85.26335149212052
3137.7,86.63588965216066,81.02213290508291,89.63121221572057,82.27559891493573,67.08711900673428,85.26337258978967
3249.02,86.55240790691698,81.0528315826797,89.41310340877399,82.51244398043715,67.51632514549372,85.15110009048206
3363.28,86.56745523712209,81.78126491752244,90.47382064107525,83.90437634704709,68.50362879061238,85.96038046296754
3481.93,87.05123004374953,82.14546841610876,90.35821758606848,84.06531017161315,68.65601723306423,86.06238380951322
3604.98,86.32164749087222,81.53534918891421,90.88786184207618,84.33434360558375,68.36723189847962,86.18280572822407
3732.42,83.84629249763974,79.28435928177963,88.20850814277986,81.28123990571672,64.90079124902003,83.52821532465906
3864.26,81.93732249810203,77.88106468258384,87.80260018544071,80.51852174796998,63.20548458725598,82.71982531219349
4000.49,82.33790819480879,78.08584248834664,87.51660144850418,79.87008707362402,64.09493403544211,82.55168207435462
4141.11,82.7802945422032,78.61650567414578,88.93704644246144,81.38263128267859,64.15998462911149,83.74892554629773
4287.6,83.95772543576263,79.23523822377133,89.27975822733696,81.80018057579721,64.59953699076065,84.26197484912116
4438.48,84.01398854987166,79.74010522909425,89.6802534436173,82.21874333889807,64.55662507099403,84.60820510502204
4595.21,84.37778486216791,79.79927947546653,90.05117949867153,82.5256775622002,64.3310518092889,84.94974682216258
4756.35,84.28041255589154,79.76838612327666,90.00106875312173,82.32732830501583,64.14808090326382,84.87559844189535
4924.8,84.18201188327386,79.70452394856952,90.10408039253232,82.20393069244624,63.79804210141508,84.9083571168881
5097.66,84.02575246296823,79.46054609264968,90.06444269633653,82.11568514161326,63.8157219729125,84.83195213403047
5277.83,83.58517742098904,78.73631658852187,89.81561760613904,81.91054912929278,63.308192820597654,84.52979664955889
5463.87,82.85105822834517,77.80602334564232,89.62145997902645,81.6413179887106,62.06143739317868,84.2068197466128
5657.23,82.21407674749308,77.32073194603774,88.97535909671497,80.81846883234616,61.52843642863455,83.55049959238336
5856.45,81.82439577652833,77.35554209434699,88.94576542002417,80.81350937539001,61.75580209823481,83.47592560897168
6062.99,82.37632803555424,77.37370529369056,89.21651838187177,81.1467333943218,61.87529093115255,83.78088857596322
6276.86,82.26563772272729,77.2055237217851,89.58478668967437,81.51221160679928,62.00913164981044,84.05890774996011
6498.05,82.49986798270423,77.36417973506836,90.18715158799272,82.01552702821664,61.50409784538469,84.58435779480247
6726.56,82.75528039861298,77.24114421159832,90.51703275248747,82.30724937100572,61.76529313574842,84.88441154742362
6963.87,82.88584919246486,77.4710744348491,91.05473192710274,82.77619280006758,62.10664610066702,85.3560576189791
7209.96,83.37329043953541,77.48774131268722,91.75804336731478,83.51781210198611,62.749874865845854,86.01885268765709
7464.84,83.63624970795927,77.72641124221248,92.09854674818783,83.8962261336272,62.96143156475257,86.35233001879264
7727.05,82.48404805832517,76.58198415208871,91.03278237450955,82.89007154004307,62.05067282782248,85.28222954809334
7999.51,81.55762966015023,76.34550488642265,90.32309197632107,82.20887610557834,61.23233659889085,84.56701835618907
8282.23,82.2071289690673,77.00810190904667,90.97811337379936,82.95965343603542,60.93241555326817,85.23215948326028
8573.73,82.19100479989854,77.26714021365974,90.92065151377248,82.97717874637831,61.347132121726204,85.19799323232823
8876.95,82.08822357573949,77.23572167394452,90.75813012906819,82.72673469244832,60.86512345761419,85.0350856047797
9188.96,82.10709317137773,76.8207381002789,90.80821881918678,82.57600686221852,60.476287903339866,85.04379368641442
9514.16,82.93234212437228,77.47223452591284,91.33634868374212,83.11295877248143,61.358068484062315,85.60807607293202
