Freq "Front Wall Bounce"
20.5078 58.47391285598711
21.9727 61.844831584322364
23.4375 64.08936435343416
24.9023 65.60657456835018
26.3672 68.05306866775312
27.832 69.77716986689313
29.2969 71.33778122824448
30.7617 72.74228501605552
32.2266 74.07225682388115
33.6914 75.26264393343284
35.1562 76.14549523709563
36.6211 76.98608413120513
38.0859 77.89215276716465
39.5508 78.62238819405157
41.0156 79.23158868209278
42.4805 79.82549449345885
43.9453 80.47696362872672
45.4102 81.05181036469334
46.875 81.41819705215374
48.3398 81.83576913621876
51.2695 82.88702942881638
52.7344 83.43351294970962
54.1992 83.87524088189542
55.6641 84.29602003850398
58.5938 85.25664638974368
60.0586 85.7388966458883
62.9883 86.5816901734483
64.4531 87.07813976822693
67.3828 87.93366645019692
68.8477 88.35164825703926
71.7773 89.1481847950146
74.707 89.87411901518935
77.6367 90.41200642044122
79.1016 90.64124266088672
82.0312 91.19737997278996
84.9609 91.51361277402147
87.8906 91.6888399218229
90.8203 92.38018209842058
95.2148 92.74800836589739
98.1445 92.67785351110119
101.074 92.49382757613728
105.469 92.21956719347307
108.398 92.06168187902148
112.793 91.48366674656579
117.188 90.70908158812058
120.117 90.94879154195978
124.512 90.96363259773328
128.906 90.62303813204592
133.301 90.40111391519584
139.16 89.74828463660924
143.555 89.0638597251933
147.949 89.58968799196224
153.809 89.34136400592938
159.668 88.42769362348525
165.527 87.93396756142619
171.387 88.48997083157145
177.246 88.65922882610623
183.105 88.36492197213654
188.965 88.44970036766885
196.289 89.46006772726237
203.613 89.58560924066666
210.938 90.7068074382616
218.262 91.3145143791861
225.586 90.94885289537935
232.91 90.95665071369677
241.699 91.8790701827974
250.488 90.30449434082837
259.277 90.9433684703574
268.066 92.21240116306517
276.855 90.72634066893143
287.109 90.08937126683061
297.363 91.78239438358129
307.617 91.29072127029195
319.336 91.57803354942725
329.59 91.16149384286484
341.309 91.59181906952413
353.027 92.23232306109536
366.211 91.87400906978014
379.395 91.642176610058
392.578 91.49297453288546
405.762 89.78208414565593
420.41 87.55052601448527
435.059 86.96006615663346
451.172 87.46829787783112
465.82 88.23407097725128
483.398 88.23591881627078
499.512 87.87877593626365
517.09 89.47503683501095
536.133 90.04642780283199
555.176 89.70517469557383
574.219 89.62759075772118
594.727 90.28973464792321
615.234 89.59408089181794
637.207 89.36434846789096
659.18 89.30712682326093
682.617 89.31718031060988
707.52 89.43317787389121
732.422 88.98447355722001
757.324 89.86490138458811
785.156 90.08182655207226
811.523 91.2358545078097
840.82 91.65818325226016
870.117 91.70965319894418
900.879 91.70625103345147
933.105 91.47565212223851
965.332 91.65938938490622
1000.49 91.38045677726073
1035.64 91.30982918825502
1072.27 91.46997838395693
1108.89 91.17782154822036
1148.44 90.80262190339388
1189.45 90.85979404110698
1230.47 91.28260433791162
1274.41 91.31109341447608
1319.82 91.40830851614317
1366.7 91.64509239431412
1413.57 91.63728309147074
1463.38 91.1777462074412
1516.11 90.63099111037279
1568.85 90.14702610520372
1624.51 90.19069397329096
1681.64 90.84400322548326
1741.7 90.76817543582567
1803.22 90.48326948980812
1866.21 90.72508114853275
1932.13 90.86560679472045
1999.51 90.82576151631852
2069.82 90.61799207856824
2143.07 90.6332677267862
2219.24 90.55132417004585
2296.88 89.83673668543692
2378.91 89.88463241294157
2462.4 90.04814248580497
2548.83 89.33825783018625
2639.65 89.02147004568559
2731.93 89.52482366754755
2828.61 89.44557242569209
2928.22 89.06348303993623
3030.76 89.7068638527792
3137.7 89.63121221572057
3249.02 89.41310340877399
3363.28 90.47382064107525
3481.93 90.35821758606848
3604.98 90.88786184207618
3732.42 88.20850814277986
3864.26 87.80260018544071
4000.49 87.51660144850418
4141.11 88.93704644246144
4287.6 89.27975822733696
4438.48 89.6802534436173
4595.21 90.05117949867153
4756.35 90.00106875312173
4924.8 90.10408039253232
5097.66 90.06444269633653
5277.83 89.81561760613904
5463.87 89.62145997902645
5657.23 88.97535909671497
5856.45 88.94576542002417
6062.99 89.21651838187177
6276.86 89.58478668967437
6498.05 90.18715158799272
6726.56 90.51703275248747
6963.87 91.05473192710274
7209.96 91.75804336731478
7464.84 92.09854674818783
7727.05 91.03278237450955
7999.51 90.32309197632107
8282.23 90.97811337379936
8573.73 90.92065151377248
8876.95 90.75813012906819
9188.96 90.80821881918678
9514.16 91.33634868374212
9849.61 91.57842859939096
10196.8 92.45864627746984
10555.7 92.50268772414616
10927.7 92.2181182939786
11313.0 92.08352389694532
11712.9 92.42410063776164
12126.0 92.06320357177013
12553.7 92.0862757650098
12996.1 92.83025693461364
13454.6 91.85693468028738
13929.2 91.79100796612961
14419.9 91.73650112116474
14928.2 90.24850416031617
15455.6 88.33353764710033
16000.5 88.98500523550351
16564.5 89.84831667544799
17148.9 90.70520381351527
17752.4 92.23279731285862
18379.4 92.75811320136079
19026.9 91.24931434784403
19697.8 83.74693144291851
19999.5 79.95755737268172
