Freq "Side Wall Bounce"
20.5078 58.728087553018966
21.9727 61.935728961628044
23.4375 64.15127810821586
24.9023 65.59072414473776
26.3672 68.0164344303702
27.832 69.67959283344388
29.2969 71.19172004643319
30.7617 72.5807539602416
32.2266 73.88096074835279
33.6914 75.04959037942247
35.1562 75.91822768572125
36.6211 76.73550901832657
38.0859 77.59097761915069
39.5508 78.3142074155671
41.0156 78.90816731120417
42.4805 79.48102873927162
43.9453 80.08443375989825
45.4102 80.63994865761775
46.875 81.03996208671089
48.3398 81.47174488372367
51.2695 82.48626769606183
52.7344 83.01275062532473
54.1992 83.46779975321967
55.6641 83.88660284080821
58.5938 84.80082492472299
60.0586 85.25886996030316
62.9883 86.06967072909845
64.4531 86.54002662453398
67.3828 87.3735731589063
68.8477 87.83325042905052
71.7773 88.60118975565453
74.707 89.33243513099245
77.6367 89.87384571996192
79.1016 90.08214706862138
82.0312 90.5608875475036
84.9609 90.85613734025435
87.8906 91.05011190092007
90.8203 91.59736181862519
95.2148 91.88651831728873
98.1445 91.78598889412972
101.074 91.55183843545802
105.469 91.19902982381709
108.398 91.0789225877325
112.793 90.48663656722361
117.188 89.54328182338851
120.117 89.71511746203551
124.512 89.77572501329354
128.906 89.29951092367324
133.301 88.92732336846655
139.16 88.46645629760776
143.555 87.59754906880761
147.949 87.95643774645103
153.809 87.80200528884869
159.668 86.925076362317
165.527 86.13356909578191
171.387 86.28181436146697
177.246 86.70362423069061
183.105 86.56609803789742
188.965 86.43354055766268
196.289 87.29907849202195
203.613 87.28618142387442
210.938 88.34965516379567
218.262 89.26728356332215
225.586 89.02733837787788
232.91 88.55771639866194
241.699 89.5283557937325
250.488 88.38843012354769
259.277 88.2602900577965
268.066 89.88967525900424
276.855 88.17162839450718
287.109 87.5406297531023
297.363 89.0326634120722
307.617 89.1534310255358
319.336 89.25440793642575
329.59 89.25679094003316
341.309 88.8626123178913
353.027 89.64594872289287
366.211 89.4805247337602
379.395 89.46417981495915
392.578 88.85134235922244
405.762 87.24557492657587
420.41 84.47795086076052
435.059 84.34771670779786
451.172 84.28262173110949
465.82 84.85256814304775
483.398 84.73384038459075
499.512 84.50373788799108
517.09 85.05794794171949
536.133 85.66847214021861
555.176 85.88906456748872
574.219 85.0251340340532
594.727 85.52212630128855
615.234 85.32546633045318
637.207 84.59997264694776
659.18 84.75458458687062
682.617 84.47131402385396
707.52 84.95721154428108
732.422 84.72640410846815
757.324 85.99687344904983
785.156 85.87677653161414
811.523 86.61954426691833
840.82 86.68933021718418
870.117 86.68498118865475
900.879 86.33741060599228
933.105 86.43608394891952
965.332 87.23899028046951
1000.49 86.75400673470908
1035.64 87.28584301814259
1072.27 87.02766505969694
1108.89 86.81876774403796
1148.44 86.28459215724779
1189.45 86.07731630102754
1230.47 85.77238466220655
1274.41 85.30383738375885
1319.82 84.38588126363965
1366.7 84.6743005673699
1413.57 84.48427737420252
1463.38 84.99904468621706
1516.11 85.00160538016698
1568.85 84.12262876240023
1624.51 83.44863601756697
1681.64 83.7602454030849
1741.7 83.46193265842969
1803.22 83.58836339393322
1866.21 84.03033077362895
1932.13 84.63715453840595
1999.51 84.46045395616865
2069.82 84.71641317401445
2143.07 83.8639482311387
2219.24 83.82977378181626
2296.88 83.44449810025749
2378.91 83.46572936110266
2462.4 83.91166128252613
2548.83 83.37238369731043
2639.65 82.91133815664604
2731.93 83.28664178399569
2828.61 82.89807348487078
2928.22 82.00635805912034
3030.76 82.35702594427738
3137.7 82.27559891493573
3249.02 82.51244398043715
3363.28 83.90437634704709
3481.93 84.06531017161315
3604.98 84.33434360558375
3732.42 81.28123990571672
3864.26 80.51852174796998
4000.49 79.87008707362402
4141.11 81.38263128267859
4287.6 81.80018057579721
4438.48 82.21874333889807
4595.21 82.5256775622002
4756.35 82.32732830501583
4924.8 82.20393069244624
5097.66 82.11568514161326
5277.83 81.91054912929278
5463.87 81.6413179887106
5657.23 80.81846883234616
5856.45 80.81350937539001
6062.99 81.1467333943218
6276.86 81.51221160679928
6498.05 82.01552702821664
6726.56 82.30724937100572
6963.87 82.77619280006758
7209.96 83.51781210198611
7464.84 83.8962261336272
7727.05 82.89007154004307
7999.51 82.20887610557834
8282.23 82.95965343603542
8573.73 82.97717874637831
8876.95 82.72673469244832
9188.96 82.57600686221852
9514.16 83.11295877248143
9849.61 83.18205072043837
10196.8 83.6584203576309
10555.7 83.76004074378697
10927.7 83.35133763322743
11313.0 83.06868092731979
11712.9 83.57842859291031
12126.0 83.1157864648228
12553.7 83.21641071164362
12996.1 83.79844341995211
13454.6 82.48064825570754
13929.2 81.837896013357
14419.9 81.38519414310367
14928.2 79.60604854055005
15455.6 77.86090180298815
16000.5 78.66350195488864
16564.5 78.31032031710389
17148.9 76.41894130667725
17752.4 76.92935764927246
18379.4 77.72482852584876
19026.9 75.64143726548816
19697.8 67.07024519210653
19999.5 64.6763557794704
