Freq,On Axis,Listening Window,Sound Power,Early Reflections,Early Reflections DI,Sound Power DI,DI offset
20.507813,65.517111,65.52248894013512,65.62235039596756,65.50812537186604,40.014363568269076,39.90013854416756,40
21.972656,69.706474,69.70134002233961,69.58892548945332,69.59388036687133,40.107459655468276,40.11241453288629,40
23.4375,71.52797199999999,71.52315394654161,71.44586266434824,71.44271293990082,40.0804410066408,40.07729128219337,40
24.902344,73.22738700000001,73.21623565710134,72.98831704358577,73.05983980135055,40.15639585575079,40.22791861351557,40
26.367188,74.924106,74.91450025529316,74.72255925115164,74.7814399416741,40.13306031361907,40.191941004141526,40
27.832031,76.38347499999999,76.37286407535498,76.17140732194153,76.23835697743156,40.13450709792342,40.20145675341345,40
29.296875,77.421685,77.40896972421136,77.17825942441267,77.26166242746653,40.14730729674483,40.23071029979869,40
30.761719,78.460785,78.44743924049055,78.21428891567821,78.30083860553304,40.14660063495751,40.23315032481234,40
32.226563,79.391774,79.37731223443505,79.135487841537,79.22798449897037,40.14932773546468,40.24182439289805,40
33.691406,80.23674099999998,80.22015901883458,79.94399094918663,80.05548172999278,40.1646772888418,40.27616806964795,40
35.15625,80.899801,80.88186694030016,80.58788312996573,80.7095790313111,40.17228790898906,40.293983810334424,40
36.621094,81.475723,81.45659205861651,81.14857033872646,81.27825246169205,40.17833959692446,40.30802171989005,40
38.085938,81.97629199999999,81.95612604618205,81.63940113768719,81.77409468009702,40.18203136608503,40.31672490849486,40
39.550781,82.427702,82.40646267424471,82.08101886300497,82.22049600499555,40.185966669249154,40.32544381123974,40
41.015625,82.822021,82.79975525236894,82.46813136531811,82.61096444025577,40.18879081211317,40.331623887050824,40
42.480469,83.19080799999999,83.16735068440309,82.82694857602623,82.97437902701577,40.19297165738732,40.340402108376864,40
43.945313,83.511622,83.48691087623972,83.13582947586187,83.28861457199346,40.198296304246256,40.35108140037785,40
45.410156,83.81103600000002,83.78528654179308,83.42949531781092,83.5844888154167,40.20079772637638,40.355791223982166,40
46.875,84.09253699999998,84.06559619105296,83.70319399693825,83.86128001240736,40.2043161786456,40.36240219411471,40
48.339844,84.356265,84.32793965146378,83.95562562467985,84.11835149596745,40.209588155496334,40.372314026783926,40
51.269531,84.818395,84.78735121101583,84.39758401812557,84.5683641233935,40.21898708762234,40.38976719289026,40
52.734375,85.04019900000002,85.00769413645588,84.60751355611556,84.78325394115826,40.22444019529762,40.40018058034032,40
54.199219,85.254229,85.22026000075105,84.81072511927582,84.99083689862269,40.229423102128365,40.40953488147524,40
55.664063,85.459154,85.4234880198406,85.00023429903753,85.18683612779553,40.236651892045074,40.423253720803075,40
58.59375,85.846534,85.80697552913549,85.34629690086646,85.55017980581852,40.25679572331697,40.46067862826902,40
60.058594,86.025296,85.9835411976292,85.4959313531189,85.71213064923371,40.27141054839548,40.48760984451029,40
62.988281,86.357175,86.31157910011483,85.76459759932912,86.00997089008672,40.30160821002811,40.546981500785705,40
64.453125,86.494714,86.44849154336477,85.8993187377257,86.14656036082185,40.301931182542916,40.549172805639074,40
67.382813,86.75978,86.71318109963497,86.19777870016273,86.42765318484048,40.285527914794486,40.51540239947224,40
68.847656,86.87621300000002,86.82889563042156,86.32776812667873,86.54922872400793,40.279666906413624,40.50112750374282,40
71.777344,87.086832,87.03678473105491,86.54158960859242,86.75709133773665,40.279693393318254,40.49519512246249,40
74.707031,87.272186,87.21881558603039,86.7160360092777,86.93263131356946,40.28618427246093,40.50277957675269,40
77.636719,87.45428500000001,87.39683857862198,86.87125266243886,87.09731210665531,40.29952647196667,40.52558591618312,40
79.101563,87.519085,87.45954477739691,86.92065255315981,87.15261232178922,40.306932455607694,40.5388922242371,40
82.03125,87.609897,87.54640714660468,86.98043737358988,87.22434069974199,40.32206644686269,40.5659697730148,40
84.960938,87.692855,87.62468323669958,87.0326909934746,87.28578898327207,40.33889425342751,40.59199224322498,40
87.890625,87.787697,87.7140982229616,87.08053811256651,87.35064766746319,40.3634505554984,40.63356011039508,40
90.820313,87.851646,87.77266988095643,87.0999786169861,87.38522635846347,40.38744352249296,40.67269126397032,40
95.214844,87.953282,87.8669391018071,87.1498263458928,87.45144671997792,40.41549238182918,40.7171127559143,40
98.144531,88.049745,87.95849952721619,87.20931373041846,87.52516694936965,40.43333257784654,40.74918579679773,40
101.07422,88.080194,87.9838416649347,87.21144914630588,87.53636166495967,40.44747999997503,40.77239251862882,40
105.46875,88.085749,87.97901989612659,87.12951743161763,87.49042846993983,40.48859142618676,40.84950246450896,40
108.39844,88.14954099999999,88.03537146181314,87.09983416933855,87.50423106163016,40.53114040018298,40.93553729247459,40
112.79297,88.245841,88.12483170696409,87.13415860008645,87.56152390991349,40.5633077970506,40.99067310687764,40
117.1875,88.175371,88.04620402778527,87.00759205859116,87.45137529466983,40.594828733115435,41.03861196919411,40
120.11719,88.0914,87.95578220476513,86.86482704453007,87.3326633748731,40.62311882989202,41.090955160235055,40
124.51172,88.020718,87.87288868997936,86.66141902040785,87.19017644666582,40.682712243313546,41.211469669571514,40
128.90625,88.078605,87.9190334500042,86.53217185424243,87.15302159209125,40.76601185791296,41.38686159576177,40
133.30078,88.149308,87.98454631177795,86.43545458192855,87.1474358598973,40.83711045188065,41.549091729849394,40
139.16016,87.882537,87.71823555985868,86.30135650012079,86.93692993116888,40.78130562868981,41.416879059737894,40
143.55469,87.637906,87.46223586455979,86.05375942891841,86.67391365225309,40.788322212306696,41.408476435641376,40
147.94922,87.548811,87.3578599713276,85.82682611167147,86.50510536707424,40.85275460425336,41.531033859656134,40
153.80859,87.652033,87.44536579579157,85.72301116235586,86.49909394387107,40.9462718519205,41.722354633435714,40
159.66797,87.79290000000002,87.57455465760837,85.704169011847,86.5611514178189,41.01340323978947,41.870385645761374,40
165.52734,87.842086,87.61871670021345,85.62686803381,86.5620227180202,41.05669398219325,41.991848666403456,40
171.38672,87.658358,87.43496623896934,85.56423726162866,86.42639548226151,41.008570756707826,41.870728977340676,40
177.24609,87.35681099999998,87.11553410490163,85.25822911524502,86.0970152861765,41.01851881872513,41.85730498965661,40
183.10547,87.385782,87.11643635463788,85.00742964827555,85.9950665239953,41.12136983064258,42.10900670636234,40
188.96484,87.71243,87.42663206781302,85.05634827207594,86.21801548727882,41.2086165805342,42.37028379573708,40
196.28906,87.780679,87.49585237787812,85.04987698771937,86.26494325040774,41.23090912747038,42.44597539015875,40
203.61328,87.300923,87.00741480402215,84.52615368365906,85.76975247872049,41.237662325301656,42.48126112036309,40
210.9375,87.01639099999998,86.69809975011266,84.15865769903313,85.42145330538916,41.2766464447235,42.53944205107953,40
218.26172,87.116627,86.7721229062241,83.94894804737105,85.38529527102115,41.38682763520295,42.82317485885305,40
225.58594,87.532669,87.17483112659362,83.94269693581126,85.66039045108165,41.51444067551196,43.23213419078236,40
232.91016,87.482872,87.13722975528378,84.0773882399986,85.6857846704668,41.45144508481698,43.059841515285186,40
241.69922,87.415302,87.05250336920962,83.97841962696639,85.56247106002861,41.490032309181004,43.07408374224323,40
250.48828,87.716619,87.33803175032907,84.08694657614204,85.76143299080002,41.57659875952905,43.251085174187025,40
259.27734,87.965838,87.59305909770916,84.24986938829012,86.009045488083,41.584013609626155,43.343189709419036,40
268.06641,87.208337,86.82692028249527,83.8751131348126,85.35719570935245,41.46972457314281,42.95180714768267,40
276.85547,87.13484100000001,86.69904890187097,83.5272325942707,85.15581558238802,41.54323331948295,43.17181630760027,40
287.10938,87.403103,86.95658402329472,83.50818148395109,85.38669926900947,41.569884754285255,43.44840253934363,40
297.36328,87.29071500000002,86.84386839197813,83.54049282954198,85.33263805563611,41.511230336342024,43.30337556243616,40
307.61719,87.583172,87.108026608894,83.62063161150505,85.49664648618749,41.61138012270651,43.48739499738895,40
319.33594,87.303862,86.79597629356331,83.27585975599304,85.15278512807222,41.64319116549109,43.520116537570274,40
329.58984,87.7021,87.20080969221914,83.46422368164954,85.55187257471248,41.64893711750666,43.736586010569596,40
341.30859,87.740083,87.25423703850122,83.96488511551188,85.79022582935423,41.46401120914699,43.28935192298934,40
353.02734,87.677971,87.13236479790953,83.98848390709755,85.66972818162043,41.4626366162891,43.143880890811985,40
366.21094,87.798716,87.17825657971046,83.66646536888727,85.52226096473406,41.655995614976405,43.51179121082319,40
379.39453,88.15148800000001,87.54596947895261,83.83384406473776,85.83697638345565,41.708993095496965,43.71212541421485,40
392.57813,88.083341,87.48090853831621,84.25790950305522,85.94079219969207,41.540116338624145,43.222999035261,40
405.76172,87.51425400000001,86.86167490805754,84.12304631291082,85.35232550156074,41.509349406496796,42.73862859514672,40
420.41016,87.78078699999999,87.04079529725732,83.65616327258246,85.22956412425229,41.81123117300503,43.38463202467486,40
435.05859,87.754674,87.0239980005023,83.46971831103507,85.10304711012736,41.92095089037494,43.554279689467236,40
451.17188,87.250137,86.46034172403337,82.88497682759127,84.46843408721877,41.9919076368146,43.575364896442096,40
465.82031,87.247803,86.51927626039418,82.65853892430952,84.5050085268241,42.01426773357008,43.860737336084654,40
483.39844,85.92061200000002,85.27740288083147,82.20990650396402,83.55281850460928,41.7245843762222,43.06749637686745,40
499.51172,85.740081,84.9561471074131,82.38298460080394,83.28244024147574,41.67370686593736,42.573162506609165,40
517.08984,87.117013,86.14487740790815,82.46257124001924,83.73815253982721,42.40672486808094,43.68230616788891,40
536.13281,87.967384,87.01938127171012,81.80306568932814,84.26834221682371,42.751039054886405,45.21631558238198,40
555.17578,88.860155,87.9807739476967,82.37068550318904,85.32315776906735,42.657616178629354,45.61008844450767,40
574.21875,88.662088,87.82593891139754,82.45659915617838,85.34943346012756,42.476505451269986,45.36933975521916,40
594.72656,88.739995,87.90973684268464,82.8472561669972,85.61267013555049,42.29706670713415,45.06248067568744,40
615.23438,88.77871799999998,88.00813648977683,83.07212412712397,85.70806986852641,42.30006662125042,44.93601236265286,40
637.20703,88.128502,87.37974630956354,82.97666883975312,85.20161819743481,42.17812811212873,44.40307746981043,40
659.17969,88.731088,87.94427261037558,83.25182292525747,85.45606334133527,42.48820926904031,44.692449685118106,40
682.61719,88.837024,88.09711141567541,83.0565434812043,85.64505148541507,42.45205993026035,45.04056793447111,40
707.51953,87.585431,87.00059524697168,82.48881007853748,84.88955656828715,42.11103867868454,44.5117851684342,40
732.42188,87.876273,87.27643306398956,82.69845930283297,85.24450986794008,42.031923196049476,44.577973761156585,40
757.32422,86.995087,86.47530838804458,82.34233769727979,84.5946929540238,41.88061543402078,44.13297069076479,40
785.15625,87.625119,86.98286714818347,82.8039131140534,84.91869978293495,42.06416736524852,44.17895403413007,40
811.52344,87.154768,86.54376574220949,82.57401531950921,84.38537123513923,42.158394507070255,43.96975042270027,40
840.82031,87.31014,86.72862829286895,82.49327042144026,84.40266923076369,42.325959062105255,44.23535787142869,40
870.11719,87.180209,86.69493460933957,81.98271012205399,84.3944205062227,42.30051410311687,44.71222448728558,40
900.87891,86.541532,86.05988154359302,81.64381274062721,84.06616813919204,41.99371340440098,44.41606880296581,40
933.10547,86.092412,85.67606067435894,81.37396008678934,83.63901137940005,42.03704929495889,44.3021005875696,40
965.33203,85.76254,85.29437050373299,80.77412023375274,83.09225259428167,42.20211790945132,44.52025026998025,40
1000.4883,85.567884,84.8686967532279,80.32581740944086,82.73965137331918,42.12904537990872,44.542879343787035,40
1035.6445,85.647771,84.83751315946414,80.22747766606584,82.80100153945251,42.03651162001162,44.6100354933983,40
1072.2656,86.212191,85.17648020390472,80.06154215300283,82.9960068847062,42.18047331919851,45.114938050901884,40
1108.8867,86.915241,85.74766539689439,80.24092681794535,83.35825346297342,42.38941193392097,45.50673857894904,40
1148.4375,87.50826500000001,86.26961231595489,80.54456543011214,83.6487735582997,42.62083875765519,45.725046885842744,40
1189.4531,87.905322,86.67548639820454,80.90250426000497,84.10651780192002,42.56896859628452,45.772982138199566,40
1230.4688,88.004782,86.72651044167313,80.90388368600559,84.18200634818278,42.544504093490346,45.82262675566754,40
1274.4141,88.403529,87.02679059795089,81.02214149142212,84.28419391510506,42.74259668284583,46.004649106528774,40
1319.8242,88.647054,87.15846353354735,81.13343646881755,84.41661800718602,42.74184552636133,46.0250270647298,40
1366.6992,88.526825,86.88463153079188,81.19109558543961,84.18023574955528,42.7043957812366,45.69353594535227,40
1413.5742,88.81164,87.00344579362799,81.26450190478384,84.24650788241749,42.7569379112105,45.73894388884415,40
1463.3789,89.146586,87.1723881025114,81.07407263003262,84.20020992444482,42.972178178066585,46.09831547247879,40
1516.1133,88.62769900000002,86.4497853514795,80.33833859246857,83.36531983643529,43.084465515044215,46.11144675901093,40
1568.8477,88.151606,85.94387997656477,80.00548437744446,82.82967571706048,43.11420425950429,45.93839559912031,40
1624.5117,88.509806,86.22371748317053,80.19929337454158,82.86487435575155,43.35884312741898,46.02442410862895,40
1681.6406,89.17021,86.87958821428809,80.7487864678209,83.37816049637091,43.50142771791718,46.130801746467185,40
1741.6992,89.301968,87.17973521727902,81.16739861314478,83.56778962161569,43.61194559566333,46.012336604134234,40
1803.2227,88.64614000000002,86.8503189742954,81.1866472249105,83.15905509578933,43.69126387850608,45.6636717493849,40
1866.2109,87.803194,86.39982641997939,80.73705819537129,82.58419591782963,43.81563050214976,45.6627682246081,40
1932.1289,87.79859,86.78023755263318,81.0559250520847,82.88706708716128,43.8931704654719,45.72431250054848,40
1999.5117,87.89935200000001,87.28501724588129,81.69947105701148,83.29686044607006,43.988156799811236,45.58554618886981,40
2069.8242,87.278824,87.16043181987092,81.56010658923054,83.24018807510853,43.92024374476239,45.60032523064038,40
2143.0664,85.94167400000002,86.39204467923643,80.53906940564605,82.53766339364,43.85438128559643,45.85297527359039,40
2219.2383,85.784754,86.49277142650477,80.73043780616503,82.63598531100125,43.856786115503525,45.762333620339746,40
2296.875,86.527043,86.8667631707312,80.8545260553301,82.89036836450111,43.97639480623009,46.012237115401106,40
2378.9063,86.204173,86.53993360510259,80.73133547473553,82.72735536228264,43.81257824281995,45.80859813036706,40
2462.4023,86.41164399999998,86.50689361073013,80.784184440584,82.6421078798827,43.86478573084743,45.72270917014613,40
2548.8281,87.260262,86.65761569203936,81.00434865741478,82.68475424241458,43.97286144962477,45.65326703462458,40
2639.6484,86.19097,85.93466741775494,81.11674152868422,81.86801259355039,44.06665482420455,44.81792588907072,40
2731.9336,87.139739,86.1861759035181,79.80701256472565,82.414981253444,43.77119465007411,46.37916333879245,40
2828.6133,87.347979,86.42002952640543,79.96821862038078,82.60566662927242,43.81436289713301,46.45181090602465,40
2928.2227,86.71156,85.78342088785348,79.5518196170825,82.14688303194126,43.63653785591222,46.23160127077098,40
3030.7617,86.356687,85.60738830883152,79.37305686667487,82.07855148244637,43.528836826385145,46.234331442156645,40
3137.6953,86.700513,85.89304357019083,79.64467312652421,82.45753285780897,43.435510712381856,46.248370443666616,40
3249.0234,86.511513,85.65770579173719,79.47233681567398,82.37841290725115,43.27929288448604,46.1853689760632,40
3363.2813,86.822175,85.84598898974365,79.28902109940482,82.42291922682988,43.42306976291377,46.556967890338825,40
3481.9336,87.071799,86.03404194078536,79.26300367139054,82.47710475288183,43.55693718790353,46.77103826939482,40
3604.9805,87.756293,86.52886900117099,79.54067937781186,82.91474285442506,43.61412614674593,46.98818962335913,40
3732.4219,87.868381,86.58519752510166,79.62826410650725,83.06481946166954,43.52037806343212,46.95693341859442,40
3864.2578,88.004975,86.82645096134216,79.80063190267576,83.27127212778991,43.55517883355225,47.0258190586664,40
4000.4883,87.564113,86.74783582602488,79.92192625866103,83.2461282350727,43.50170759095218,46.82590956736385,40
4141.1133,87.25998399999999,86.44182822832103,79.76757239299549,82.98338791822796,43.45844031009307,46.67425583532554,40
4287.5977,86.833345,86.2546458082644,79.73954374851816,82.8140294494172,43.440616358847194,46.51510205974624,40
4438.4766,86.852207,86.14859947488662,79.91255020355628,82.87665927625841,43.271940198628215,46.236049271330344,40
4595.2148,86.324462,85.98966746193791,79.78794018432143,82.7889542575585,43.20071320437941,46.201727277616484,40
4756.3477,87.024677,86.47653390720122,79.83886228461928,83.02799904571083,43.44853486149039,46.637671622581934,40
4924.8047,86.66448000000001,86.14683591418863,79.67310149747966,82.73319546840496,43.41364044578367,46.473734416708965,40
5097.6563,86.652665,86.23003552495834,79.41495795816728,82.44347370510975,43.786561819848586,46.81507756679106,40
5277.832,86.951438,86.29509207983853,79.35852543883871,82.31656024266144,43.97853183717709,46.936566640999814,40
5463.8672,86.994956,86.41830695444595,79.3625015367865,82.34246674404952,44.075840210396436,47.05580541765946,40
5657.2266,87.228572,86.68390342283486,79.26694990686549,82.45162080681908,44.23228261601578,47.41695351596937,40
5856.4453,87.141391,86.67720130406762,79.1674555701825,82.53936388372523,44.13783742034239,47.509745733885126,40
6062.9883,86.57857800000001,86.49080059140888,79.17188399141621,82.53747124863816,43.95332934277073,47.318916599992676,40
6276.8555,86.97460300000002,86.75239016514062,79.15308366651787,82.63483523931791,44.117554925822716,47.59930649862275,40
6498.0469,87.174956,86.5856898019341,78.89674852559395,82.4613008605945,44.12438894133959,47.688941276340145,40
6726.5625,87.46771499999998,86.74452225440804,78.81694189502919,82.46616369861108,44.278358555796956,47.92758035937885,40
6963.8672,86.965187,86.34830706823487,78.30285538513793,82.0375639355993,44.31074313263558,48.04545168309694,40
7209.9609,86.869917,86.13684302406882,78.06099892276215,81.76535453546751,44.371488488601315,48.07584410130667,40
7464.8438,87.110115,86.32031534389985,77.93531585819362,81.69658999768932,44.623725346210534,48.38499948570623,40
7727.0508,87.00777700000002,86.21031434112334,77.63766258320076,81.42192601139085,44.788388329732484,48.57265175792257,40
7999.5117,87.247934,86.21696690724693,77.58109740747992,81.32000334469177,44.89696356255516,48.63586949976701,40
8282.2266,87.815362,86.5685543956442,77.68613339489585,81.56814840596347,45.00040598968073,48.88242100074835,40
8573.7305,87.915097,86.75544816661248,77.61255621830891,81.65240694505607,45.10304122155641,49.14289194830357,40
8876.9531,87.783739,86.78440584326242,77.55472766354504,81.63826480340633,45.14614103985609,49.22967817971738,40
9188.9648,87.724267,86.79477498922965,77.58135824895129,81.6602461306346,45.13452885859505,49.21341674027836,40
9514.1602,87.953086,86.83388742430704,77.53028706288498,81.65650847523888,45.17737894906816,49.303600361422056,40
9849.6094,88.139263,86.85006347009477,77.36693591323454,81.5443443768183,45.305719093276466,49.483127556860225,40
