Freq,On Axis,Listening Window,Sound Power,Early Reflections,Early Reflections DI,Sound Power DI,DI offset
20.507813,65.517111,65.52248894013513,65.62235039596756,65.50812537186606,40.014363568269076,39.900138544167575,40
21.972656,69.70647399999999,69.70134002233961,69.58892548945332,69.59388036687133,40.107459655468276,40.11241453288629,40
23.4375,71.527972,71.52315394654161,71.44586266434825,71.44271293990082,40.0804410066408,40.07729128219336,40
24.902344,73.227387,73.21623565710132,72.98831704358575,73.05983980135056,40.15639585575076,40.22791861351557,40
26.367188,74.924106,74.91450025529316,74.72255925115162,74.78143994167408,40.13306031361908,40.19194100414154,40
27.832031,76.383475,76.37286407535498,76.17140732194152,76.23835697743158,40.134507097923404,40.20145675341347,40
29.296875,77.421685,77.40896972421135,77.17825942441266,77.26166242746655,40.1473072967448,40.23071029979869,40
30.761719,78.46078499999999,78.44743924049054,78.2142889156782,78.30083860553306,40.14660063495748,40.23315032481234,40
32.226563,79.391774,79.37731223443504,79.13548784153699,79.22798449897037,40.14932773546467,40.24182439289805,40
33.691406,80.236741,80.22015901883458,79.94399094918663,80.05548172999278,40.1646772888418,40.27616806964795,40
35.15625,80.899801,80.88186694030014,80.58788312996573,80.70957903131108,40.17228790898906,40.29398381033441,40
36.621094,81.475723,81.45659205861651,81.14857033872644,81.27825246169203,40.178339596924474,40.308021719890064,40
38.085938,81.976292,81.95612604618205,81.63940113768717,81.77409468009702,40.18203136608503,40.316724908494876,40
39.550781,82.427702,82.40646267424472,82.08101886300497,82.22049600499557,40.185966669249154,40.32544381123975,40
41.015625,82.822021,82.79975525236895,82.46813136531811,82.61096444025577,40.18879081211318,40.33162388705084,40
42.480469,83.190808,83.16735068440309,82.82694857602624,82.97437902701579,40.192971657387304,40.34040210837685,40
43.945313,83.51162199999999,83.4869108762397,83.13582947586187,83.28861457199346,40.19829630424624,40.351081400377836,40
45.410156,83.811036,83.7852865417931,83.42949531781092,83.5844888154167,40.20079772637639,40.35579122398218,40
46.875,84.092537,84.06559619105298,83.70319399693825,83.86128001240738,40.2043161786456,40.36240219411472,40
48.339844,84.35626500000001,84.3279396514638,83.95562562467985,84.11835149596745,40.20958815549635,40.37231402678394,40
51.269531,84.818395,84.78735121101583,84.39758401812558,84.5683641233935,40.21898708762234,40.38976719289025,40
52.734375,85.040199,85.0076941364559,84.60751355611556,84.78325394115826,40.22444019529763,40.40018058034033,40
54.199219,85.254229,85.22026000075105,84.81072511927583,84.99083689862267,40.22942310212838,40.409534881475224,40
55.664063,85.45915400000001,85.4234880198406,85.00023429903754,85.18683612779552,40.23665189204509,40.42325372080306,40
58.59375,85.846534,85.80697552913547,85.34629690086646,85.5501798058185,40.25679572331697,40.46067862826901,40
60.058594,86.025296,85.9835411976292,85.49593135311889,85.7121306492337,40.271410548395494,40.4876098445103,40
62.988281,86.35717500000001,86.31157910011481,85.76459759932911,86.00997089008672,40.30160821002809,40.546981500785705,40
64.453125,86.494714,86.44849154336475,85.8993187377257,86.14656036082187,40.30193118254289,40.54917280563906,40
67.382813,86.75978,86.71318109963498,86.19777870016271,86.4276531848405,40.285527914794486,40.515402399472265,40
68.847656,86.876213,86.82889563042156,86.32776812667875,86.54922872400793,40.279666906413624,40.50112750374281,40
71.777344,87.086832,87.0367847310549,86.54158960859242,86.75709133773664,40.279693393318254,40.495195122462476,40
74.707031,87.272186,87.21881558603039,86.71603600927772,86.93263131356946,40.28618427246093,40.50277957675267,40
77.636719,87.454285,87.39683857862197,86.87125266243886,87.09731210665531,40.29952647196666,40.525585916183104,40
79.101563,87.51908500000002,87.45954477739691,86.92065255315981,87.15261232178922,40.306932455607694,40.5388922242371,40
82.03125,87.609897,87.54640714660468,86.9804373735899,87.22434069974199,40.32206644686269,40.565969773014785,40
84.960938,87.692855,87.62468323669958,87.0326909934746,87.28578898327206,40.338894253427526,40.59199224322498,40
87.890625,87.78769700000001,87.71409822296161,87.08053811256653,87.35064766746319,40.36345055549842,40.63356011039508,40
90.820313,87.851646,87.77266988095644,87.09997861698609,87.38522635846346,40.38744352249299,40.67269126397035,40
95.214844,87.953282,87.8669391018071,87.14982634589282,87.45144671997792,40.41549238182918,40.717112755914286,40
98.144531,88.049745,87.95849952721619,87.20931373041844,87.52516694936965,40.43333257784654,40.74918579679775,40
101.07422,88.080194,87.98384166493469,87.21144914630588,87.53636166495968,40.447479999975,40.772392518628806,40
105.46875,88.085749,87.97901989612659,87.12951743161764,87.49042846993984,40.488591426186744,40.849502464508944,40
108.39844,88.149541,88.03537146181313,87.09983416933856,87.50423106163016,40.53114040018296,40.935537292474564,40
112.79297,88.245841,88.12483170696409,87.13415860008645,87.56152390991349,40.5633077970506,40.99067310687764,40
117.1875,88.175371,88.04620402778528,87.00759205859117,87.45137529466982,40.59482873311546,41.03861196919411,40
120.11719,88.0914,87.95578220476511,86.86482704453006,87.3326633748731,40.62311882989201,41.090955160235055,40
124.51172,88.020718,87.87288868997938,86.66141902040785,87.19017644666582,40.68271224331356,41.21146966957153,40
128.90625,88.07860499999998,87.9190334500042,86.53217185424243,87.15302159209124,40.76601185791297,41.38686159576177,40
133.30078,88.14930800000002,87.98454631177796,86.43545458192855,87.14743585989729,40.837110451880676,41.54909172984941,40
139.16016,87.88253700000001,87.71823555985867,86.30135650012079,86.93692993116889,40.78130562868978,41.41687905973788,40
143.55469,87.637906,87.46223586455977,86.05375942891843,86.6739136522531,40.78832221230667,41.40847643564135,40
147.94922,87.548811,87.3578599713276,85.82682611167148,86.50510536707424,40.85275460425336,41.53103385965612,40
153.80859,87.652033,87.44536579579159,85.72301116235585,86.49909394387106,40.94627185192053,41.72235463343574,40
159.66797,87.7929,87.57455465760836,85.70416901184699,86.5611514178189,41.013403239789454,41.870385645761374,40
165.52734,87.842086,87.61871670021347,85.62686803380998,86.56202271802022,41.05669398219325,41.991848666403484,40
171.38672,87.65835799999999,87.43496623896935,85.56423726162866,86.42639548226151,41.00857075670784,41.87072897734069,40
177.24609,87.356811,87.11553410490161,85.25822911524503,86.09701528617649,41.01851881872513,41.85730498965658,40
183.10547,87.385782,87.1164363546379,85.00742964827556,85.9950665239953,41.12136983064259,42.10900670636234,40
188.96484,87.71243000000001,87.426632067813,85.05634827207594,86.21801548727882,41.20861658053418,42.370283795737066,40
196.28906,87.780679,87.49585237787812,85.04987698771939,86.26494325040774,41.23090912747038,42.445975390158736,40
203.61328,87.300923,87.00741480402215,84.52615368365905,85.76975247872049,41.237662325301656,42.4812611203631,40
210.9375,87.016391,86.69809975011268,84.15865769903311,85.42145330538918,41.2766464447235,42.53944205107956,40
218.26172,87.116627,86.7721229062241,83.94894804737105,85.38529527102114,41.38682763520296,42.82317485885305,40
225.58594,87.532669,87.1748311265936,83.94269693581127,85.66039045108167,41.514440675511935,43.23213419078233,40
232.91016,87.482872,87.13722975528377,84.07738823999858,85.68578467046682,41.45144508481695,43.059841515285186,40
241.69922,87.415302,87.05250336920962,83.97841962696639,85.56247106002861,41.490032309181004,43.07408374224323,40
250.48828,87.71661900000001,87.33803175032907,84.08694657614204,85.7614329908,41.57659875952906,43.251085174187025,40
259.27734,87.965838,87.59305909770916,84.24986938829014,86.009045488083,41.584013609626155,43.34318970941902,40
268.06641,87.208337,86.82692028249525,83.87511313481261,85.35719570935245,41.4697245731428,42.95180714768264,40
276.85547,87.134841,86.69904890187095,83.5272325942707,85.15581558238802,41.54323331948294,43.17181630760025,40
287.10938,87.40310299999999,86.95658402329474,83.50818148395109,85.38669926900948,41.569884754285255,43.44840253934365,40
297.36328,87.290715,86.84386839197813,83.54049282954199,85.33263805563612,41.51123033634201,43.303375562436145,40
307.61719,87.583172,87.108026608894,83.62063161150506,85.4966464861875,41.61138012270649,43.48739499738893,40
319.33594,87.30386200000001,86.7959762935633,83.27585975599304,85.15278512807221,41.64319116549109,43.52011653757026,40
329.58984,87.7021,87.20080969221915,83.46422368164956,85.55187257471249,41.64893711750666,43.736586010569596,40
341.30859,87.740083,87.25423703850123,83.96488511551189,85.79022582935421,41.46401120914702,43.28935192298934,40
353.02734,87.677971,87.13236479790953,83.98848390709753,85.66972818162041,41.46263661628912,43.143880890812,40
366.21094,87.798716,87.17825657971046,83.66646536888729,85.52226096473407,41.65599561497639,43.511791210823176,40
379.39453,88.151488,87.54596947895263,83.83384406473778,85.83697638345564,41.70899309549699,43.71212541421485,40
392.57813,88.083341,87.4809085383162,84.25790950305523,85.94079219969208,41.54011633862412,43.22299903526097,40
405.76172,87.514254,86.86167490805755,84.12304631291082,85.35232550156074,41.50934940649681,42.738628595146736,40
420.41016,87.780787,87.0407952972573,83.65616327258246,85.22956412425229,41.81123117300501,43.38463202467484,40
435.05859,87.754674,87.02399800050229,83.46971831103508,85.10304711012736,41.920950890374925,43.55427968946721,40
451.17188,87.250137,86.46034172403338,82.88497682759127,84.46843408721878,41.9919076368146,43.57536489644211,40
465.82031,87.247803,86.51927626039416,82.65853892430952,84.50500852682408,42.01426773357008,43.86073733608464,40
483.39844,85.920612,85.27740288083149,82.20990650396402,83.55281850460929,41.7245843762222,43.06749637686747,40
499.51172,85.740081,84.95614710741312,82.38298460080394,83.28244024147573,41.67370686593739,42.57316250660918,40
517.08984,87.117013,86.14487740790814,82.46257124001926,83.73815253982721,42.40672486808093,43.68230616788888,40
536.13281,87.967384,87.01938127171012,81.80306568932814,84.2683422168237,42.75103905488642,45.21631558238198,40
555.17578,88.86015500000002,87.98077394769669,82.37068550318904,85.32315776906735,42.65761617862934,45.61008844450765,40
574.21875,88.662088,87.82593891139753,82.4565991561784,85.34943346012757,42.47650545126996,45.36933975521913,40
594.72656,88.739995,87.90973684268464,82.84725616699721,85.6126701355505,42.297066707134135,45.062480675687425,40
615.23438,88.778718,88.00813648977685,83.07212412712397,85.7080698685264,42.30006662125045,44.936012362652875,40
637.20703,88.128502,87.37974630956356,82.97666883975313,85.20161819743481,42.178128112128746,44.40307746981043,40
659.17969,88.731088,87.94427261037558,83.25182292525747,85.45606334133528,42.4882092690403,44.692449685118106,40
682.61719,88.83702399999999,88.09711141567541,83.0565434812043,85.64505148541507,42.45205993026035,45.04056793447111,40
707.51953,87.585431,87.0005952469717,82.48881007853748,84.88955656828713,42.111038678684565,44.511785168434216,40
732.42188,87.876273,87.27643306398957,82.69845930283299,85.24450986794007,42.031923196049505,44.577973761156585,40
757.32422,86.995087,86.4753083880446,82.34233769727979,84.5946929540238,41.8806154340208,44.13297069076481,40
785.15625,87.625119,86.98286714818349,82.80391311405342,84.91869978293497,42.06416736524852,44.17895403413007,40
811.52344,87.15476799999999,86.5437657422095,82.57401531950923,84.38537123513923,42.15839450707027,43.96975042270027,40
840.82031,87.31014,86.72862829286896,82.49327042144026,84.4026692307637,42.325959062105255,44.235357871428704,40
870.11719,87.18020900000002,86.69493460933957,81.982710122054,84.39442050622269,42.30051410311688,44.71222448728557,40
900.87891,86.541532,86.05988154359301,81.64381274062723,84.06616813919206,41.99371340440095,44.41606880296578,40
933.10547,86.092412,85.67606067435894,81.37396008678932,83.63901137940005,42.03704929495889,44.30210058756961,40
965.33203,85.76254,85.294370503733,80.77412023375273,83.09225259428166,42.202117909451346,44.52025026998028,40
1000.4883,85.567884,84.86869675322791,80.32581740944086,82.73965137331919,42.12904537990872,44.54287934378705,40
1035.6445,85.647771,84.83751315946414,80.22747766606582,82.80100153945253,42.03651162001161,44.610035493398314,40
1072.2656,86.21219099999999,85.17648020390472,80.06154215300283,82.99600688470619,42.180473319198526,45.114938050901884,40
1108.8867,86.915241,85.74766539689439,80.24092681794535,83.35825346297344,42.389411933920954,45.50673857894904,40
1148.4375,87.508265,86.2696123159549,80.54456543011216,83.64877355829968,42.62083875765522,45.725046885842744,40
1189.4531,87.905322,86.67548639820455,80.90250426000499,84.10651780192003,42.56896859628452,45.772982138199566,40
1230.4688,88.004782,86.72651044167313,80.9038836860056,84.18200634818277,42.54450409349036,45.82262675566753,40
1274.4141,88.40352900000002,87.02679059795088,81.02214149142212,84.28419391510506,42.742596682845814,46.00464910652876,40
1319.8242,88.647054,87.15846353354735,81.13343646881754,84.416618007186,42.741845526361345,46.02502706472981,40
1366.6992,88.526825,86.88463153079189,81.19109558543961,84.1802357495553,42.7043957812366,45.69353594535228,40
1413.5742,88.81164000000001,87.00344579362799,81.26450190478386,84.24650788241748,42.756937911210514,45.73894388884413,40
1463.3789,89.146586,87.17238810251139,81.0740726300326,84.20020992444483,42.97217817806656,46.09831547247879,40
1516.1133,88.627699,86.44978535147949,80.33833859246857,83.3653198364353,43.08446551504419,46.11144675901092,40
1568.8477,88.15160600000002,85.94387997656476,80.00548437744447,82.8296757170605,43.11420425950426,45.938395599120284,40
1624.5117,88.509806,86.22371748317055,80.19929337454158,82.86487435575157,43.35884312741898,46.02442410862896,40
1681.6406,89.17021,86.87958821428808,80.74878646782089,83.37816049637091,43.50142771791717,46.130801746467185,40
1741.6992,89.30196799999999,87.17973521727902,81.16739861314478,83.56778962161567,43.61194559566334,46.012336604134234,40
1803.2227,88.64614,86.85031897429542,81.18664722491052,83.15905509578931,43.691263878506106,45.6636717493849,40
1866.2109,87.803194,86.39982641997938,80.7370581953713,82.58419591782965,43.81563050214973,45.66276822460807,40
1932.1289,87.79859,86.78023755263317,81.05592505208469,82.88706708716128,43.89317046547188,45.72431250054848,40
1999.5117,87.899352,87.2850172458813,81.69947105701146,83.29686044607006,43.98815679981125,45.58554618886984,40
2069.8242,87.27882400000001,87.16043181987094,81.56010658923056,83.24018807510853,43.9202437447624,45.60032523064038,40
2143.0664,85.941674,86.39204467923642,80.53906940564605,82.53766339364,43.85438128559642,45.852975273590374,40
2219.2383,85.784754,86.49277142650479,80.73043780616504,82.63598531100126,43.856786115503525,45.762333620339746,40
2296.875,86.527043,86.8667631707312,80.8545260553301,82.89036836450111,43.97639480623009,46.012237115401106,40
2378.9063,86.204173,86.53993360510259,80.73133547473553,82.72735536228265,43.81257824281994,45.80859813036706,40
2462.4023,86.411644,86.50689361073012,80.784184440584,82.6421078798827,43.864785730847416,45.72270917014612,40
2548.8281,87.260262,86.65761569203934,81.00434865741477,82.68475424241458,43.97286144962476,45.65326703462458,40
2639.6484,86.19097,85.93466741775492,81.11674152868423,81.86801259355039,44.066654824204534,44.81792588907069,40
2731.9336,87.13973900000002,86.1861759035181,79.80701256472565,82.41498125344398,43.77119465007412,46.37916333879245,40
2828.6133,87.34797899999998,86.42002952640544,79.96821862038078,82.60566662927243,43.81436289713301,46.45181090602466,40
2928.2227,86.71156,85.78342088785347,79.55181961708251,82.14688303194127,43.636537855912195,46.23160127077095,40
3030.7617,86.356687,85.6073883088315,79.37305686667489,82.07855148244637,43.52883682638513,46.234331442156616,40
3137.6953,86.700513,85.89304357019081,79.64467312652421,82.45753285780897,43.43551071238184,46.2483704436666,40
3249.0234,86.511513,85.65770579173719,79.472336815674,82.37841290725115,43.27929288448604,46.18536897606319,40
3363.2813,86.822175,85.84598898974363,79.2890210994048,82.42291922682986,43.42306976291377,46.556967890338825,40
3481.9336,87.071799,86.03404194078534,79.26300367139054,82.47710475288181,43.55693718790353,46.77103826939481,40
3604.9805,87.756293,86.52886900117099,79.54067937781187,82.91474285442507,43.61412614674592,46.98818962335912,40
3732.4219,87.868381,86.58519752510165,79.62826410650726,83.06481946166954,43.520378063432105,46.95693341859439,40
3864.2578,88.004975,86.82645096134216,79.80063190267576,83.27127212778993,43.55517883355223,47.0258190586664,40
4000.4883,87.564113,86.74783582602487,79.92192625866102,83.2461282350727,43.501707590952165,46.82590956736385,40
4141.1133,87.259984,86.44182822832104,79.76757239299549,82.98338791822798,43.45844031009307,46.67425583532555,40
4287.5977,86.833345,86.2546458082644,79.73954374851817,82.81402944941722,43.44061635884718,46.515102059746226,40
4438.4766,86.852207,86.14859947488662,79.9125502035563,82.87665927625841,43.271940198628215,46.23604927133033,40
4595.2148,86.32446199999998,85.9896674619379,79.78794018432144,82.78895425755849,43.20071320437941,46.201727277616456,40
4756.3477,87.024677,86.4765339072012,79.83886228461927,83.02799904571081,43.44853486149039,46.637671622581934,40
4924.8047,86.66448,86.14683591418864,79.67310149747965,82.73319546840496,43.413640445783685,46.47373441670899,40
5097.6563,86.652665,86.23003552495835,79.41495795816728,82.44347370510977,43.786561819848586,46.815077566791075,40
5277.832,86.951438,86.29509207983853,79.35852543883871,82.31656024266142,43.9785318371771,46.936566640999814,40
5463.8672,86.994956,86.41830695444595,79.36250153678648,82.3424667440495,44.07584021039645,47.05580541765947,40
5657.2266,87.228572,86.68390342283486,79.26694990686549,82.45162080681908,44.23228261601578,47.41695351596937,40
5856.4453,87.141391,86.67720130406761,79.1674555701825,82.53936388372523,44.13783742034238,47.50974573388511,40
6062.9883,86.578578,86.4908005914089,79.17188399141621,82.53747124863816,43.95332934277074,47.31891659999269,40
6276.8555,86.974603,86.75239016514061,79.15308366651786,82.63483523931791,44.1175549258227,47.59930649862275,40
6498.0469,87.174956,86.58568980193408,78.89674852559394,82.4613008605945,44.124388941339575,47.688941276340145,40
6726.5625,87.467715,86.74452225440805,78.8169418950292,82.46616369861108,44.27835855579697,47.92758035937885,40
6963.8672,86.96518700000001,86.34830706823486,78.30285538513795,82.03756393559928,44.31074313263558,48.045451683096914,40
7209.9609,86.869917,86.13684302406881,78.06099892276214,81.76535453546752,44.37148848860129,48.07584410130667,40
7464.8438,87.11011500000001,86.32031534389985,77.93531585819363,81.69658999768933,44.62372534621052,48.38499948570622,40
7727.0508,87.007777,86.21031434112332,77.63766258320078,81.42192601139085,44.78838832973247,48.57265175792254,40
7999.5117,87.247934,86.21696690724693,77.58109740747992,81.32000334469176,44.89696356255517,48.63586949976701,40
8282.2266,87.815362,86.56855439564421,77.68613339489585,81.56814840596347,45.00040598968074,48.882421000748366,40
8573.7305,87.915097,86.7554481666125,77.61255621830891,81.65240694505607,45.103041221556424,49.142891948303586,40
8876.9531,87.783739,86.78440584326243,77.55472766354504,81.63826480340634,45.14614103985609,49.229678179717396,40
9188.9648,87.724267,86.79477498922964,77.58135824895129,81.66024613063462,45.13452885859502,49.21341674027835,40
9514.1602,87.95308600000001,86.83388742430702,77.53028706288498,81.6565084752389,45.17737894906813,49.30360036142204,40
9849.6094,88.139263,86.85006347009477,77.36693591323453,81.54434437681832,45.30571909327645,49.48312755686024,40
10196.777,88.062199,86.70039410789526,77.07115583089724,81.25819574683949,45.44219836105577,49.629238276998024,40
