Freq "Front Wall Bounce"
22.4 28.65749161883022
23.0 31.17206829087442
23.6 34.41982842471808
24.0 35.236323387610184
25.0 36.13010305782578
25.8 37.137553465672994
26.5 38.523071710253845
27.2 41.27024459729171
28.0 43.84383018044841
29.0 46.18662790293337
30.0 48.02095357307519
30.7 48.93828496390455
31.5 49.86115725446487
32.5 50.84832499388179
33.5 51.760862747804595
34.5 53.040920732813106
35.5 54.254820081242826
36.5 56.524660986069335
37.5 58.49344863439606
38.7 60.30516201605968
40.0 62.30240969642941
41.2 64.0030933602715
42.5 65.35821996048915
43.7 66.4362852259928
45.0 67.81680724428672
46.2 70.00121767864903
47.5 71.87094945416096
48.7 73.14999964875228
50.0 74.0544757894266
51.5 74.43925894986587
53.0 75.27847655953246
54.5 76.3372745584525
56.0 77.23727455845251
58.0 78.01645794709331
60.0 78.74250234986891
61.5 79.41510783807635
63.0 79.94500682531822
65.0 80.30662195678967
67.0 80.72827485839285
69.0 81.06765882340663
71.0 81.23925894986587
73.0 81.46899269661967
75.0 81.62396669362694
77.5 81.67950995681034
80.0 81.80701018743245
82.5 81.76470448879381
85.0 81.73628522599282
87.5 81.70701018743246
90.0 81.69229833231223
92.5 81.69229833231223
95.0 81.64887794379231
97.5 81.67721518987341
100.0 81.66306967897579
103.0 81.66306967897579
106.0 81.62068027685238
109.0 81.54920150346196
112.0 81.52068027685237
115.0 81.4919705051655
118.0 81.43463968123154
122.0 81.43463968123154
125.0 81.3772151898734
128.0 81.32100594407069
132.0 81.29229833231224
136.0 81.1210059440707
140.0 80.99229833231223
145.0 80.79229833231224
150.0 80.57950995681031
155.0 80.55246641629797
160.0 80.65246641629795
165.0 80.82722153004413
170.0 80.99719942388785
175.0 81.14250234986892
180.0 81.24250234986891
185.0 81.31645794709331
190.0 81.34250234986891
195.0 81.27088109084123
200.0 81.14250234986892
206.0 80.91645794709332
212.0 80.67088109084122
218.0 80.40108505083553
224.0 80.16057915327383
230.0 80.10662195678967
236.0 80.10662195678967
240.0 80.11645794709332
250.0 80.0425023498689
258.0 79.98211018360962
265.0 79.83756830810536
272.0 79.79426512316209
280.0 79.75018710725043
290.0 79.80667585842932
300.0 79.90667585842931
307.0 80.0066758584293
315.0 80.09426512316207
325.0 80.19719942388784
335.0 80.2321327937263
345.0 80.22843001298688
355.0 80.15177304931906
365.0 80.02807732375527
375.0 79.92807732375526
387.0 79.76001164148875
400.0 79.43099892461888
412.0 79.32599700916384
425.0 79.43099892461888
437.0 79.68192221001615
450.0 80.11164698193235
462.0 80.48790485289972
475.0 80.8123756698316
487.0 81.0879048528997
500.0 81.3354322780684
515.0 81.56001164148876
530.0 81.68827657001836
545.0 81.71419645831898
560.0 81.53711687383338
580.0 81.50281941270481
600.0 81.8869614947568
615.0 82.26531598575293
630.0 82.38827657001836
650.0 82.3354322780684
670.0 81.9800914728774
690.0 81.49358624360207
710.0 81.0202488945722
730.0 80.33644722787638
750.0 79.81621566041038
775.0 79.41593276709023
800.0 78.88784784124356
825.0 78.98784784124355
850.0 79.97532565853236
875.0 80.86365240513184
900.0 80.96785955612562
925.0 80.4798895090361
950.0 79.92238075758455
975.0 79.34135051046428
1000.0 79.0804176445891
1030.0 78.61593276709021
1060.0 78.36878513436888
1090.0 78.76566018380178
1120.0 79.92051182321775
1150.0 81.04868012455059
1180.0 81.42599700916384
1220.0 81.14095130788738
1250.0 80.70479539732243
1280.0 80.92142941231837
1320.0 81.03892909779262
1360.0 80.7824302125802
1400.0 80.50554742321226
1450.0 79.77685459485191
1500.0 79.298842429636
1550.0 79.17207282683688
1600.0 79.58230090088979
1650.0 80.39562614543074
1700.0 80.05771493387473
1750.0 79.48535376124522
1800.0 79.22611150651822
1850.0 79.36832266871406
1900.0 79.25785589757548
1950.0 78.80186608885343
2000.0 78.26028264512286
2060.0 78.1381785665182
2120.0 78.44831914213705
2180.0 78.50116275120862
2240.0 78.7608478954257
2300.0 79.20738812437304
2360.0 80.01845263240827
2400.0 80.64468997182043
2500.0 80.66829547496654
2580.0 80.7867849602332
2650.0 80.47412875683892
2720.0 80.82578971991899
2800.0 81.05320732983833
2900.0 81.48208476819343
3000.0 81.87780238238939
3070.0 81.62355531750265
3150.0 81.75090372349902
3250.0 81.84440873510171
3350.0 81.90696162525948
3450.0 81.59726872870552
3550.0 81.64898187020577
3650.0 81.27138817922588
3750.0 81.1507663295116
3870.0 81.43572025304124
4000.0 81.00168006014103
4120.0 81.2276522181691
4250.0 80.36969241718079
4370.0 80.00254519102997
4500.0 79.72212278199511
4620.0 79.17883680052014
4750.0 79.47141640679044
4870.0 80.00650395704488
5000.0 80.52344074191902
5150.0 80.26549743938827
5300.0 81.14469142716854
5450.0 81.83688834777902
5600.0 81.7812772774349
5800.0 82.44866544453004
6000.0 82.6254114756416
6150.0 82.8289187901613
6300.0 82.80439150194985
6500.0 82.97778134545686
6700.0 82.87969553594024
6900.0 82.2201415751044
7100.0 81.50779438929658
7300.0 81.19266664539583
7500.0 81.4862115798434
7750.0 81.4555551098876
8000.0 81.17853588056505
8250.0 81.66386255568159
8500.0 81.77165430958861
8750.0 81.03665508040437
9000.0 81.00008692332906
9250.0 81.97867952903883
9500.0 81.50588301668864
9750.0 80.95119362854143
10000.0 81.9825735981381
10300.0 81.47496646688356
10600.0 80.84634056898342
10900.0 82.03109828637031
11200.0 81.60178814433911
11500.0 82.04523813271982
11800.0 82.35216394266583
12200.0 82.79667656723926
12500.0 82.3217269087946
12800.0 82.6123241068117
13200.0 80.53218414681288
13600.0 81.15534057070492
14000.0 80.57715429750061
14500.0 79.56761445843313
15000.0 77.24755191215965
15500.0 78.21203433296674
16000.0 79.22943564946343
16500.0 78.34720577933126
17000.0 79.07843839114521
17500.0 76.38127718073581
18000.0 76.24059937535706
18500.0 74.38298233790854
19000.0 73.79046799943029
19500.0 69.06177415174207
