Freq "Rear Wall Bounce"
22.4 23.824046990777305
23.0 27.075165746665277
23.6 30.724102820967374
24.0 31.960778454428947
25.0 33.09501295194693
25.8 34.30699171801328
26.5 35.678705827521696
27.2 38.266665249029614
28.0 40.82613239100979
29.0 43.4614828028148
30.0 45.68583750526048
30.7 46.30818182489989
31.5 47.5493358789339
32.5 49.29023740266365
33.5 50.439297485409895
34.5 51.52766532523722
35.5 52.64797373495307
36.5 54.6615968241542
37.5 56.44799972434399
38.7 58.14613506919716
40.0 60.303554723727714
41.2 62.00845707125197
42.5 62.970551688376204
43.7 63.27646788959693
45.0 64.28711355541063
46.2 67.39782519935096
47.5 69.86552911180455
48.7 71.29603902039436
50.0 72.00870727163277
51.5 70.97758983674177
53.0 71.07279562173409
54.5 71.8954709033039
56.0 72.79697986817996
58.0 73.78694337451114
60.0 74.76818177641805
61.5 75.88331571147867
63.0 76.0925977683537
65.0 76.12155728714431
67.0 77.39227619654675
69.0 78.30434927555393
71.0 78.91900363973102
73.0 80.09523905720864
75.0 80.75832361097643
77.5 81.00669700304783
80.0 81.27387095539837
82.5 81.49408870733866
85.0 81.54181026444095
87.5 81.57755871765892
90.0 81.58979801635888
92.5 81.45417035200012
95.0 81.07805529675665
97.5 80.98378575609246
100.0 80.66675636514834
103.0 80.3060710101972
106.0 79.97218782348943
109.0 79.69587052086668
112.0 79.44060831252928
115.0 79.0899672551215
118.0 78.87104712693633
122.0 79.04862216225186
125.0 79.10364272614761
128.0 79.14098977897059
132.0 79.16478547204954
136.0 79.0694632321829
140.0 78.86108150166837
145.0 78.60342271220208
150.0 78.38048940302494
155.0 78.24001089075087
160.0 78.16746474579742
165.0 77.74045118604445
170.0 77.6958808271471
175.0 77.52334450156829
180.0 77.6679366088432
185.0 77.83534334110504
190.0 77.96974345669017
195.0 78.00950471974477
200.0 77.77778907498924
206.0 77.126140067465
212.0 76.28060620349771
218.0 75.42088590370207
224.0 74.52140211501955
230.0 73.40776795280337
236.0 71.12955371556163
240.0 70.95594164474139
250.0 71.74647550103872
258.0 72.11105152585144
265.0 71.8152645719917
272.0 71.7852158694352
280.0 72.19144131125095
290.0 72.73586524567487
300.0 73.10100931466361
307.0 73.24028727903662
315.0 73.45644758209446
325.0 73.8350057299984
335.0 74.37809510372996
345.0 74.08796671152383
355.0 73.2447147656679
365.0 72.34322710456321
375.0 71.72137966132465
387.0 71.15943218850856
400.0 70.38476757484418
412.0 69.37610500599092
425.0 68.57989875860612
437.0 68.09418665528075
450.0 67.59280385889585
462.0 67.71680254556745
475.0 68.476252320532
487.0 69.28555977829461
500.0 70.07585089243274
515.0 70.4203928399748
530.0 70.18725839428492
545.0 69.94332813669067
560.0 68.8648350250845
580.0 67.49359251452779
600.0 66.70802900308136
615.0 66.32911862655713
630.0 66.07051301391199
650.0 65.9259014315578
670.0 66.32262411752305
690.0 66.20756918225615
710.0 66.21531941879023
730.0 65.44680346335157
750.0 64.09864820473676
775.0 62.13485856060922
800.0 61.284861095204576
825.0 61.3382054793732
850.0 62.31223712178132
875.0 62.27312996475983
900.0 60.40746817955019
925.0 60.81515053625617
950.0 61.75443967620613
975.0 61.81928088170736
1000.0 61.21441883988186
1030.0 59.10070566651578
1060.0 58.06462639777115
1090.0 57.7861518787399
1120.0 60.450415201663134
1150.0 62.14244160811451
1180.0 61.41157979237914
1220.0 59.79478542009892
1250.0 60.0268702940716
1280.0 59.16089041840992
1320.0 59.21215737406693
1360.0 59.573648601526116
1400.0 60.11946358332557
1450.0 58.08912071075301
1500.0 58.60512178599046
1550.0 56.601785631405704
1600.0 57.53873464493043
1650.0 58.42541947351155
1700.0 57.39589219991146
1750.0 57.75014538771205
1800.0 55.608758785078294
1850.0 57.28890079233838
1900.0 59.51062217289622
1950.0 58.487615009614416
2000.0 57.597414164899305
2060.0 57.38396551434428
2120.0 57.94123986129239
2180.0 57.94886819360724
2240.0 57.73929097906023
2300.0 58.7015166061268
2360.0 58.95097164986244
2400.0 59.58090125386937
2500.0 59.39752906616664
2580.0 58.72897909845727
2650.0 59.21918291072984
2720.0 58.51351748268685
2800.0 56.48866656751133
2900.0 57.677001845111874
3000.0 55.6232435440277
3070.0 55.06144559147742
3150.0 54.92933700991529
3250.0 56.23040163383564
3350.0 55.428962376900444
3450.0 57.04272731036835
3550.0 58.89272293852822
3650.0 60.053769468754254
3750.0 61.11166542060052
3870.0 60.66441506427381
4000.0 58.93227132705805
4120.0 56.65938645699339
4250.0 54.72941503470253
4370.0 52.94643512102593
4500.0 50.0602274317981
4620.0 50.53767838185908
4750.0 52.42168115482826
4870.0 55.33750246838375
5000.0 56.5666570704679
5150.0 56.624080115729186
5300.0 58.33863904290476
5450.0 59.384114317276385
5600.0 57.505574852339976
5800.0 53.58855829670435
6000.0 51.062092135957954
6150.0 52.919689270015965
6300.0 56.740813593242734
6500.0 58.700946653519324
6700.0 59.125321851654405
6900.0 56.98958154585975
7100.0 54.19046245454754
7300.0 50.624863818122634
7500.0 52.16433045097395
7750.0 54.850869444452
8000.0 55.929678034257876
8250.0 56.3861522801823
8500.0 53.67135319556911
8750.0 51.57260190244568
9000.0 52.25262162308877
9250.0 55.1101941121847
9500.0 56.43459401293106
9750.0 53.97943309888507
10000.0 52.685209931300136
10300.0 50.429325217330216
10600.0 53.104963601315575
10900.0 55.23448003152538
11200.0 52.969486342306936
11500.0 51.81625539397814
11800.0 52.961707937446874
12200.0 56.87768495372757
12500.0 55.512258202261904
12800.0 53.187832279671824
13200.0 52.92035681233375
13600.0 54.72834826462261
14000.0 53.54626259050593
14500.0 50.152635201564436
15000.0 48.605252720662406
15500.0 50.63389099999935
16000.0 50.12928180220641
16500.0 50.61043668036913
17000.0 50.79377245853502
17500.0 50.65017388187252
18000.0 47.80535155746938
18500.0 48.704033379615765
19000.0 47.215952300382554
19500.0 44.139352953134505
