Freq "On Axis"
20.5078 52.86540000000001
21.9727 51.981200000000015
23.4375 54.74140000000001
24.9023 56.710300000000004
26.3672 58.00189999999999
27.832 58.9259
29.2969 59.928399999999996
30.7617 61.4242
32.2266 62.81599999999999
33.6914 64.1588
35.1562 65.65240000000001
36.6211 66.8799
38.0859 68.4428
39.5508 69.661
41.0156 70.8493
42.4805 72.10880000000002
43.9453 73.2823
45.4102 74.4053
46.875 75.46679999999999
48.3398 76.4536
51.2695 78.3226
52.7344 79.1537
54.1992 79.9242
55.6641 80.61120000000001
58.5938 81.6719
60.0586 82.1783
62.9883 83.08049999999999
64.4531 83.45969999999998
67.3828 84.0992
68.8477 84.37749999999998
71.7773 84.8786
74.707 85.2908
77.6367 85.6288
79.1016 85.78270000000002
82.0312 86.0622
84.9609 86.26710000000001
87.8906 86.4729
90.8203 86.7153
95.2148 86.92139999999999
98.1445 87.0109
101.074 87.0983
105.469 87.1364
108.398 87.0959
112.793 87.0787
117.188 86.9793
120.117 86.9258
124.512 87.0783
128.906 86.9
133.301 86.7501
139.16 86.5758
143.555 86.5046
147.949 86.7267
153.809 86.8902
159.668 86.5587
165.527 86.3445
171.387 86.32459999999999
177.246 86.0959
183.105 85.9113
188.965 85.9648
196.289 85.8361
203.613 85.699
210.938 85.4358
218.262 85.61
225.586 85.18
232.91 85.1943
241.699 84.9891
250.488 85.7427
259.277 85.7109
268.066 85.6479
276.855 85.5723
287.109 85.511
297.363 85.2751
307.617 85.216
319.336 85.2676
329.59 85.55660000000002
341.309 85.0199
353.027 84.5064
366.211 85.0648
379.395 85.3273
392.578 86.2075
405.762 85.95460000000001
420.41 85.7643
435.059 84.7063
451.172 84.5061
465.82 85.75959999999999
483.398 86.4619
499.512 85.825
517.09 84.7015
536.133 83.9684
555.176 83.4009
574.219 83.9754
594.727 83.782
615.234 85.4321
637.207 86.9637
659.18 88.0347
682.617 88.0279
707.52 87.5397
732.422 86.7093
757.324 86.5464
785.156 85.0533
811.523 85.4306
840.82 87.0911
870.117 87.5313
900.879 86.98700000000001
933.105 87.1962
965.332 87.8039
1000.49 87.59410000000001
1035.64 87.2101
1072.27 87.4438
1108.89 87.27999999999999
1148.44 87.4959
1189.45 87.239
1230.47 87.2367
1274.41 86.7055
1319.82 86.68049999999998
1366.7 86.181
1413.57 85.295
1463.38 85.9469
1516.11 86.0637
1568.85 86.7112
1624.51 86.3
1681.64 86.858
1741.7 87.7103
1803.22 88.2911
1866.21 88.653
1932.13 88.7513
1999.51 89.0446
2069.82 89.49420000000002
2143.07 89.3285
2219.24 89.1128
2296.88 89.768
2378.91 89.80239999999999
2462.4 88.8327
2548.83 89.51
2639.65 89.5554
2731.93 89.278
2828.61 89.3364
2928.22 89.4076
3030.76 89.30139999999999
3137.7 89.35630000000002
3249.02 90.0405
3363.28 90.41870000000002
3481.93 90.40989999999998
3604.98 90.5216
3732.42 90.57469999999999
3864.26 90.9277
4000.49 91.1618
4141.11 91.4494
4287.6 91.0645
4438.48 89.7779
4595.21 88.7788
4756.35 88.61040000000001
4924.8 88.5922
5097.66 89.11559999999999
5277.83 89.4277
5463.87 88.60429999999998
5657.23 88.6362
5856.45 89.342
6062.99 89.7029
6276.86 90.2712
6498.05 90.4429
6726.56 90.2639
6963.87 89.16420000000001
7209.96 88.4923
7464.84 89.1759
7727.05 89.5756
7999.51 89.81399999999998
8282.23 90.222
8573.73 90.3266
8876.95 89.9821
9188.96 90.11920000000002
9514.16 90.57000000000001
9849.61 91.0127
10196.8 91.7605
10555.7 92.168
10927.7 92.1487
11313.0 91.838
11712.9 91.2811
12126.0 91.6998
12553.7 92.0953
12996.1 92.3733
13454.6 92.8724
13929.2 92.9074
14419.9 92.4932
14928.2 91.0443
15455.6 90.5843
16000.5 90.0868
16564.5 89.2447
17148.9 88.683
17752.4 87.65230000000001
18379.4 86.9081
19026.9 85.95479999999999
19697.8 85.35110000000002
19999.5 85.0235
