Freq "Estimated In-Room Response"
22.4 41.711853168677806
23.0 43.97947215520256
23.6 43.65572543651717
24.0 42.3205117575921
25.0 42.381626261982575
25.8 43.12495912438385
26.5 43.345355832164444
27.2 43.58336467641686
28.0 45.574930806730976
29.0 46.92960081970506
30.0 46.55670392817555
30.7 46.195369238645526
31.5 46.59447668479373
32.5 49.62825231575991
33.5 52.128955181633245
34.5 54.23201475575155
35.5 56.828134012104556
36.5 59.11297403671239
37.5 61.262759322633826
38.7 63.54942080595649
40.0 66.07426048386714
41.2 67.93601854822109
42.5 69.43300938529316
43.7 70.98885516412219
45.0 72.5394548458532
46.2 74.01166995081488
47.5 75.42579977542667
48.7 76.33062728058917
50.0 77.19128000808401
51.5 77.99764426389088
53.0 79.03893114991405
54.5 80.17090082990103
56.0 81.25530771538274
58.0 82.22843331984527
60.0 83.16692402988423
61.5 84.06413357923027
63.0 84.87534669232863
65.0 85.54762134787035
67.0 86.13888551336117
69.0 86.78659578204218
71.0 87.51742267983735
73.0 88.31034590294834
75.0 89.2729428060898
77.5 89.83194518001899
80.0 90.55099643025028
82.5 91.21897559501672
85.0 91.81683454522525
87.5 92.25879199304462
90.0 92.42637535834827
92.5 92.33174792057898
95.0 91.97393863388318
97.5 91.47909730235837
100.0 90.97254138543518
103.0 90.54009770875066
106.0 90.38054193203689
109.0 90.46739044750376
112.0 90.68626500225623
115.0 90.85672325391693
118.0 90.92064048605394
122.0 90.80904976146712
125.0 90.61327514736621
128.0 90.41285698649227
132.0 90.211905978473
136.0 89.97678371445316
140.0 89.74809531828373
145.0 89.50565662979072
150.0 89.29551386224786
155.0 89.09943187329432
160.0 88.9761476647609
165.0 88.99386926010327
170.0 89.27353627010257
175.0 89.49309073928342
180.0 89.39846074842747
185.0 89.15430375369729
190.0 88.870271222484
195.0 88.55098247985974
200.0 88.12495232504662
206.0 87.43591339285507
212.0 86.45370538007374
218.0 85.83349930782401
224.0 86.54188551565672
230.0 87.4487850170905
236.0 88.00704603275993
240.0 87.99274393528495
250.0 87.73539867910642
258.0 87.51505804861694
265.0 87.3282672420007
272.0 87.26034583776664
280.0 87.3479206933744
290.0 87.51790354029451
300.0 87.62411798791616
307.0 87.6057988277508
315.0 87.5318058420994
325.0 87.43184686410467
335.0 87.35682342108981
345.0 87.25214262593245
355.0 87.18291589161117
365.0 87.17185147092661
375.0 87.23572818350992
387.0 87.31275691156891
400.0 87.1721811047241
412.0 86.7699170428595
425.0 86.40538980556911
437.0 86.20432673331774
450.0 86.20162699418819
462.0 86.42226020964105
475.0 86.44912513013935
487.0 86.05533845919282
500.0 85.66528568306063
515.0 85.6908461164564
530.0 86.04040500655674
545.0 86.28540443014676
560.0 85.93674507226754
580.0 85.18486936123712
600.0 84.54229459596709
615.0 84.11778838693292
630.0 83.82502589618251
650.0 83.78777071639121
670.0 84.04330622682811
690.0 84.57701684623093
710.0 85.2727954668868
730.0 85.6338671783341
750.0 85.58627793703577
775.0 85.58176386949899
800.0 85.74460636651145
825.0 85.67108665708385
850.0 85.03523693633079
875.0 84.25218715521686
900.0 84.47221067752177
925.0 85.29315868440645
950.0 85.65935129621712
975.0 85.0916853620152
1000.0 84.83985475148054
1030.0 84.75741901343784
1060.0 83.83827486183671
1090.0 82.65946630735917
1120.0 81.4789683765296
1150.0 80.27203090106651
1180.0 79.47978801375142
1220.0 79.0761415160979
1250.0 79.17957319063751
1280.0 79.95123791307637
1320.0 81.0045631007544
1360.0 81.58182115822268
1400.0 81.38569214851103
1450.0 81.38560543967279
1500.0 81.44843119406285
1550.0 80.61741966502804
1600.0 79.98834601483776
1650.0 79.70800521809291
1700.0 79.36015951015617
1750.0 79.24153158103427
1800.0 79.00427604760046
1850.0 79.49050086637993
1900.0 80.48528693606528
1950.0 80.73556332027607
2000.0 80.87433888149614
2060.0 81.77578916970019
2120.0 82.64129990166244
2180.0 82.74412570602752
2240.0 82.27912707079109
2300.0 81.27024192884944
2360.0 80.61687010372796
2400.0 81.08627733592553
2500.0 81.38799576994576
2580.0 81.19697919801912
2650.0 81.16126187504646
2720.0 81.48034081991341
2800.0 81.97907943225516
2900.0 81.80700788021848
3000.0 81.45022703120655
3070.0 81.91515802811517
3150.0 82.71791107242306
3250.0 82.58427484448215
3350.0 81.95378669063365
3450.0 81.71186595552541
3550.0 81.43774477783575
3650.0 81.33004315258404
3750.0 81.67521273236913
3870.0 81.81741740549728
4000.0 81.67085768313096
4120.0 82.00002575798791
4250.0 81.8718693980821
4370.0 82.02740601340642
4500.0 82.87463132412222
4620.0 82.88209849437673
4750.0 82.55176036309771
4870.0 82.11145516155766
5000.0 81.2153438652673
5150.0 80.42260880404693
5300.0 80.85460136941771
5450.0 82.34500483649586
5600.0 82.89101987374887
5800.0 82.41909761629624
6000.0 82.03287641468137
6150.0 81.7768712345404
6300.0 80.89175871368813
6500.0 81.02578814445319
6700.0 82.84053835079523
6900.0 83.07588183161134
7100.0 82.06468103578399
7300.0 81.40798109839773
7500.0 80.86704787586098
7750.0 81.79396035105071
8000.0 83.77218242467202
8250.0 84.48618618997676
8500.0 83.74341464239133
8750.0 81.57901870985417
9000.0 80.40854907551746
9250.0 82.86739344228107
9500.0 83.98774908829597
9750.0 82.44131331009925
10000.0 81.22371208806791
10300.0 82.9915477902411
10600.0 84.07837946190347
10900.0 83.59668569510532
11200.0 82.60592275734214
11500.0 83.98804658619979
11800.0 85.00727899726162
12200.0 83.96868998020648
12500.0 84.00904484881241
12800.0 84.68563355419727
13200.0 85.40626792869438
13600.0 85.37229947482544
14000.0 85.22536119111265
14500.0 84.55179230097752
15000.0 82.09882247070706
15500.0 80.3008627652558
16000.0 80.8949733245818
16500.0 79.47183303748065
17000.0 76.30335252757338
17500.0 78.74356138160019
18000.0 77.40871360298635
18500.0 67.21789352090249
19000.0 52.365177388121396
19500.0 44.23651474410721
