Freq "Sound Power"
20.0 19.22489201679835
20.2909 21.509987564368203
20.586 23.562337164017748
20.8855 25.086906146344063
21.1893 25.944707599228792
21.4975 26.24120536064717
21.8102 26.0014920342081
22.1274 25.288847136626458
22.4492 24.36990035774477
22.7758 23.821308415336944
23.1071 24.369167821394313
23.4432 25.85463518168885
23.7841 27.302311632944765
24.1301 28.263438480221424
24.4811 28.72170734903912
24.8372 28.839361193711966
25.1984 28.943415400058427
25.5649 29.39467246495886
25.9368 30.25627998080256
26.3141 31.263664452044168
26.6968 32.12224775846778
27.0851 32.71945025690303
27.4791 33.13187184641433
27.8788 33.572539434240525
28.2843 34.189704054441336
28.6957 34.94014480055256
29.1131 35.65875458200131
29.5365 36.21700869012491
29.9661 36.606331795599345
30.402 36.93943295438021
30.8442 37.39644437349162
31.2929 38.00801950136659
31.748 38.67744261037862
32.2098 39.28714094035328
32.6783 39.789823396884
33.1536 40.282994921797126
33.6359 40.86232357471752
34.1251 41.545416941798095
34.6215 42.232869914355405
35.125 42.83928213270164
35.6359 43.35698411303048
36.1543 43.880570838929884
36.6802 44.48055682608785
37.2137 45.138565796588466
37.755 45.77972403048966
38.3041 46.368906549135005
38.8613 46.94845393865671
39.4265 47.55688452341454
40.0 48.18893440289378
40.5818 48.81490273275631
41.1721 49.43017949010303
41.771 50.049289635087604
42.3785 50.66861839830105
42.9949 51.27210140366557
43.6203 51.86203142730014
44.2548 52.45899382786031
44.8985 53.06449866982196
45.5515 53.667398218778175
46.2141 54.26607300266295
46.8863 54.87127024717978
47.5683 55.48518349255497
48.2602 56.09458648086246
48.9621 56.69245424342799
49.6743 57.28793071875012
50.3968 57.891213160719886
51.1299 58.499024157957635
51.8736 59.10780709803514
52.6281 59.71171010638459
53.3936 60.309810631094265
54.1702 60.906662224828665
54.9581 61.50594838846901
55.7575 62.104335538508934
56.5685 62.68855495307278
57.3914 63.26895882376947
58.2261 63.84778651497038
59.073 64.4139719806927
59.9323 64.96928737771648
60.804 65.53123906746256
61.6884 66.09527738677463
62.5857 66.65461199154944
63.496 67.2085534052764
64.4196 67.74594691586064
65.3566 68.25134275191593
66.3073 68.72723641357126
67.2717 69.1848055894188
68.2502 69.63338908855081
69.2429 70.06509563784186
70.2501 70.48993030296751
71.2719 70.91653906506737
72.3086 71.32360531372424
73.3603 71.70213577307285
74.4274 72.04777171939811
75.5099 72.36949642685711
76.6083 72.67305166389089
77.7226 72.94361466721826
78.8531 73.2000139741014
80.0 73.4457472915953
81.1636 73.67014003352918
82.3442 73.8761757192638
83.5419 74.04828529244743
84.757 74.19289056546137
85.9899 74.32156493783889
87.2406 74.44400328983895
88.5096 74.55239738376213
89.797 74.64025447709099
91.1031 74.69628195396916
92.4282 74.70660443386303
93.7726 74.67187955668746
95.1366 74.63523710046988
96.5204 74.6522523306339
97.9243 74.70835560661017
99.3486 74.7607398743051
100.794 74.80664950984321
102.26 74.84179691632235
103.747 74.86855570312902
105.256 74.885033155979
106.787 74.89610096979604
108.34 74.88991404101759
109.916 74.86493166054127
111.515 74.82392975658419
113.137 74.81147762851622
114.783 74.80483668880933
116.452 74.79424622648624
118.146 74.78979246876482
119.865 74.78915276102646
121.608 74.79028388107943
123.377 74.79597446961523
125.171 74.80102493459745
126.992 74.79705024208943
128.839 74.7831808260456
130.713 74.76303521646935
132.615 74.69307950128129
134.543 74.63968074582654
136.5 74.6372247373637
138.486 74.62416640663733
140.5 74.5782548236057
142.544 74.50982006120887
144.617 74.46454147528834
146.721 74.44758272081475
148.855 74.45702816491202
151.02 74.42280236031554
153.217 74.37034870194002
155.445 74.29751476040163
157.706 74.17445998211241
160.0 74.04182023517782
162.327 74.0358004819827
164.688 74.00695787114486
167.084 74.03018185437392
169.514 74.0239487320873
171.98 73.70681499413298
174.481 73.5428766951019
177.019 73.50730058034134
179.594 73.51351065513856
182.206 73.49421350327395
184.856 73.54450521228515
187.545 73.58903545782894
190.273 73.65035884374625
193.041 73.68784763423463
195.849 73.65783779402892
198.697 73.63503057545363
201.587 73.59376585746094
204.52 73.52771045524572
207.494 73.53002077731698
210.512 73.56452332027118
213.574 73.40879974549894
216.681 73.18377512022305
219.833 73.11060605932293
223.03 73.13584230331992
226.274 73.09636351518392
229.565 72.95221923656044
232.905 72.89705794839418
236.292 72.93849699520423
239.729 72.99693355063009
243.216 72.97606450536412
246.754 72.95125912385653
250.343 73.01215916064598
253.984 73.03351209498435
257.678 73.01756216521824
261.426 73.03836414132076
265.229 72.99470889938198
269.087 72.78815671539145
273.001 72.77256058301116
276.972 72.80272039762073
281.0 72.81190343662243
285.088 72.85661172390417
289.234 72.89379540090736
293.441 72.86044506966523
297.709 72.59282641176374
302.04 72.65196291846897
306.433 72.4729753130645
310.89 72.71327476776823
315.412 72.82518408194304
320.0 72.76960402791832
324.655 72.34991229461727
329.377 72.33514128778315
334.168 72.52286623277203
339.028 72.52723061490785
343.959 72.55831747581229
348.962 72.58882572273694
354.038 72.52188695064392
359.188 72.47922511997417
364.412 72.27429847643765
369.713 72.30991456391024
375.09 72.33775695216248
380.546 72.3680182888146
386.081 72.39644167267006
391.697 72.32432621356676
397.394 72.24560922467434
403.175 72.17137025504765
409.039 72.01433453720739
414.989 71.9005616808484
421.025 71.8191511349169
427.149 71.7981472776316
433.362 71.64107214006857
439.665 71.57168777447876
446.06 71.37309585629558
452.548 71.20241437342517
459.131 71.00643290619873
465.809 70.76146808518385
472.584 70.61111686998666
479.458 70.45473974613
486.432 70.30522444012173
493.507 70.16207856631725
500.686 70.00136195495135
507.968 69.92712499575485
515.357 69.822302927215
522.853 69.75616672253375
530.458 69.71033069458538
538.174 69.70057800327066
546.002 69.69182239436736
553.943 69.70204154507107
562.001 69.72384423324091
570.175 69.74995078230569
578.469 69.77219992624087
586.883 69.78568592606061
595.419 69.78715784476152
604.08 69.77381382549628
612.866 69.74349860399418
621.78 69.69376134611053
630.824 69.62438401078074
640.0 69.53707023645427
649.309 69.43460841170152
658.753 69.31857083584983
668.335 69.19159607289998
678.056 69.06542237700398
687.919 68.94711462707387
697.925 68.84710991287581
708.077 68.77843637261637
718.376 68.74974038770935
728.825 68.77021030129151
739.426 68.84476999071902
750.181 68.974166259675
761.093 69.15312670825746
772.163 69.36848255293712
783.394 69.61057252699268
794.789 69.86948267251063
806.349 70.12348252400803
818.078 70.36309631861334
829.977 70.57765643016468
842.05 70.75736918467318
854.298 70.89552649270533
866.724 70.98522912993423
879.33 71.02572461796018
892.12 71.01407131274858
905.097 70.95052048832575
918.262 70.83782331610067
931.618 70.68118215983863
945.169 70.48912689298642
958.917 70.27266248597509
972.864 70.04638561563462
987.015 69.82650915346912
1001.37 69.62286275471556
1015.94 69.45822433055403
1030.71 69.34194645947731
1045.71 69.27105804842904
1060.92 69.2375682143792
1076.35 69.22695210862395
1092.0 69.21880697561011
1107.89 69.19235207989195
1124.0 69.1298224763979
1140.35 69.01767883008341
1156.94 68.8471010117802
1173.77 68.62091601869156
1190.84 68.35087391471234
1208.16 68.06066088850197
1225.73 67.78336371740667
1243.56 67.56550316896774
1261.65 67.45547752534686
1280.0 67.48092859035454
1298.62 67.64179802907692
1317.51 67.91131748706069
1336.67 68.24384908373918
1356.11 68.58731683955185
1375.84 68.9038616020047
1395.85 69.16561855081984
1416.15 69.355544346106
1436.75 69.47103679966123
1457.65 69.51799307243195
1478.85 69.50596753684887
1500.36 69.44803462341635
1522.19 69.35606312436208
1544.33 69.23896575431249
1566.79 69.10015918359753
1589.58 68.9376498185997
1612.7 68.74888483918713
1636.16 68.52970568564005
1659.95 68.28513853565582
1684.1 68.03081621267015
1708.6 67.79200674002242
1733.45 67.59820748836009
1758.66 67.46423838931526
1784.24 67.38492996328648
1810.19 67.32889112636447
1836.52 67.24795043890171
1863.24 67.09657029249608
1890.34 66.84510379120701
1917.83 66.49491714067271
1945.73 66.08526706581141
1974.03 65.69161206599188
2002.74 65.41397338028811
2031.87 65.32305271012982
2061.43 65.42083219595852
2091.41 65.64729205145224
2121.83 65.92211073779279
2152.69 66.18051995208295
2184.01 66.39373942121524
2215.77 66.55326174550703
2248.0 66.66236208666731
2280.7 66.74140950866554
2313.87 66.82460468502788
2347.53 66.9558607332489
2381.68 67.16379206064823
2416.32 67.4349751815485
2451.46 67.7062178039681
2487.12 67.89704789607575
2523.3 67.95528161121561
2560.0 67.88889723946596
2597.24 67.7709887411246
2635.01 67.70192846384955
2673.34 67.73898581248153
2712.23 67.84902745607103
2751.68 67.94814943231226
2791.7 67.98113515015294
2832.31 67.96551308598131
2873.5 67.95964837559467
2915.3 67.99572465625435
2957.7 68.0472543807465
3000.72 68.06999219036864
3044.37 68.0626166979323
3088.65 68.0714892655632
3133.58 68.12524522805779
3179.16 68.18846173914427
3225.4 68.19861423692223
3272.31 68.14067497462023
3319.91 68.06361772574226
3368.2 68.01984485245987
3417.19 68.0082877866118
3466.89 68.00109417524828
3517.32 68.00536125031113
3568.48 68.04565118803868
3620.39 68.09640694828806
3673.05 68.09221616346883
3726.47 68.0213281633137
3780.67 67.95949787674199
3835.67 67.96425745566762
3891.46 67.98531630245027
3948.06 67.95006149865036
4005.49 67.88600899575282
4063.75 67.86849172052466
4122.86 67.88113290621483
4182.82 67.84013823655914
4243.66 67.73593167150854
4305.39 67.63379653019224
4368.01 67.5628732473582
4431.55 67.50725686378522
4496.01 67.46554884301732
4561.4 67.41862563760279
4627.75 67.32863209154924
4695.06 67.22043618228203
4763.35 67.15132468027099
4832.64 67.10589504218699
4902.93 67.05878607275079
4974.24 67.04274239272962
5046.6 67.05574923131115
5120.0 67.06450243131044
5194.47 67.07985393075235
5270.03 67.0782822385338
5346.68 67.01182637516536
5424.45 66.94495641781036
5503.35 66.93650206284924
5583.4 66.92129381401794
5664.61 66.88455494587976
5747.01 66.86186859648042
5830.6 66.8289826083558
5915.41 66.80550614604608
6001.45 66.80131901969506
6088.74 66.77529182254479
6177.3 66.74155264930103
6267.15 66.76236303942852
6358.31 66.87176068078773
6450.8 66.98666079174085
6544.62 67.09793604610222
6639.82 67.23833784361912
6736.4 67.34396525723243
6834.38 67.42458615678385
6933.79 67.49352317747096
7034.64 67.5628978007403
7136.96 67.61346598590055
7240.77 67.64141774104792
7346.09 67.61271087944262
7452.94 67.55938031298395
7561.35 67.54005117561017
7671.33 67.60752668523972
7782.91 67.7611349010453
7896.12 67.94269516423904
8010.97 68.1244822541686
8127.49 68.27735634615495
8245.71 68.06260876503691
8365.65 67.70048229134845
8487.33 67.60600886719483
8610.78 67.55053880541871
8736.03 67.40291511971753
8863.09 67.14355775427333
8992.01 66.84478821410684
9122.8 66.63753557376718
9255.5 66.48240186230018
9390.12 66.35869255433303
9526.7 66.25193269431053
9665.27 66.18432103222655
9805.86 66.18364813714066
9948.49 66.36767601735964
10093.2 66.59344555506688
10240.0 66.70504042321522
10388.9 66.78358609470143
10540.1 66.84268730374684
10693.4 66.86083336235845
10848.9 66.90814575425894
11006.7 66.98723256207643
11166.8 67.13489374194668
11329.2 67.29418427823946
11494.0 67.48012805458754
11661.2 67.6199885482212
11830.8 67.72400906362084
12002.9 67.78968226117283
12177.5 67.81214862711226
12354.6 67.80479024209333
12534.3 67.76582779713041
12716.6 67.69674536430819
12901.6 67.67700918008904
13089.2 67.61604913835636
13279.6 67.52678314265029
13472.8 67.41896181925641
13668.8 67.29826088109037
13867.6 67.10943576972386
14069.3 66.84439229223459
14273.9 66.59516326379523
14481.5 66.43686554181454
14692.2 66.33278024283986
14905.9 66.20584090428703
15122.7 66.02179498505328
15342.7 65.79619173579134
15565.8 65.52604238988766
15792.2 65.10606901918152
16021.9 64.6412611761375
16255.0 64.24161099080395
16491.4 63.87846395926965
16731.3 63.44184098784288
16974.7 62.840869815317205
17221.6 62.19685132940273
17472.1 61.584549912397605
17726.2 61.086878223096136
17984.0 60.49470966332083
18245.6 60.08111052392667
18511.0 59.957739386517574
18780.2 59.893838781190155
19053.4 59.772821846670325
19330.5 59.743053133911246
19611.7 59.94140865242288
19897.0 61.06503811956341
