Freq "Front Wall Bounce"
20.5078 34.61921185661397
21.2402 44.436839402965816
21.9727 50.0165519335405
22.7051 51.07040491463512
23.4375 53.00032421994034
24.1699 54.01504478550909
25.6348 55.85771547276967
26.3672 57.184988875380114
27.0996 58.978227146610564
27.832 60.15384196723234
29.2969 61.87639522778649
30.0293 63.35123069790362
31.4941 65.28715143492873
32.2266 66.21055368627297
33.6914 67.9439811141096
34.4238 68.8013952854955
35.8887 70.42308218188155
37.3535 71.96476807229669
38.8184 73.45041363771149
39.5508 74.15030151243904
41.0156 75.46998929772306
42.4805 76.72113418012606
43.9453 77.7926792178974
45.4102 78.74618120753473
47.6074 79.85321177374827
49.0723 80.53849469190838
50.5371 81.04107334958951
52.7344 81.53014600611705
54.1992 81.78320153073383
56.3965 82.10400499839001
58.5938 82.4019863603886
60.0586 82.61466687276972
62.2559 82.82577608772131
64.4531 82.81943180336047
66.6504 83.04016590842652
69.5801 83.20134060944663
71.7773 83.33336810227347
73.9746 83.41866588067465
76.9043 83.62719605064969
79.834 83.79881010458801
82.7637 83.83400587164691
85.6934 84.16561986265135
88.623 84.41467595002484
91.5527 84.55654240954792
94.4824 84.72699266636356
98.1445 84.8657449686454
101.807 85.04689393057899
105.469 85.1437774622734
109.131 85.24626388006696
112.793 85.47316649082335
116.455 85.62125675892479
120.85 85.79870454815006
125.244 85.98061624696523
129.639 86.14314382225182
134.033 86.18431743955509
138.428 86.17130351973856
143.555 86.36090078430293
148.682 86.39204947932667
153.809 86.48534404276273
159.668 86.44061069715477
164.795 86.4456199762367
170.654 86.52216665684374
176.514 86.5357212428285
183.105 86.39424810533863
189.697 86.14052945617875
196.289 86.08552956334286
202.881 85.963809277745
210.205 85.86046373862807
217.529 85.70611002073032
225.586 85.45887016576472
232.91 85.44574650828935
241.699 85.50153000765066
249.756 85.85365135072529
258.545 85.57054433396901
268.066 85.36022453764126
277.588 85.0921721939764
287.109 85.06094522112691
297.363 85.04108706314982
307.617 84.8337647125354
318.604 84.66476780920887
329.59 84.60860744452494
341.309 83.89463739138539
353.76 83.78855402740533
366.211 84.06395936956345
378.662 84.18597017484032
392.578 84.21070248781287
405.762 83.89653010906974
420.41 83.38445855292802
435.059 82.89146328150021
450.439 82.64642054389111
466.553 84.38203813470442
482.666 84.24859193576765
500.244 83.37415429152715
517.822 82.80018689161732
536.133 83.38165085624989
554.443 83.03286861174709
574.219 83.51829236312167
594.727 84.10223700613183
615.234 84.92686325147147
637.207 85.15907252284086
659.912 85.30961384409532
683.35 83.61236198564423
706.787 84.02675265576634
731.689 85.35104419986023
758.057 86.14858462460678
784.424 85.25501936287283
812.256 84.40568266764569
840.82 84.67056194953355
870.85 85.83474202253727
901.611 86.02726813185082
933.105 87.60267847145276
966.064 88.95490166226018
999.756 87.92621617225528
1034.91 87.22339906171489
1071.53 87.1749855424543
1109.62 86.17184333694834
1148.44 86.5832843611268
1189.45 86.47654513950009
1231.2 86.7503266950171
1274.41 85.10147477138851
1319.82 85.67422303542524
1365.97 85.05689229037512
1414.31 85.23737230521036
1464.11 85.15067358766446
1515.38 85.09652081328959
1568.85 84.43987369638377
1624.51 83.68382863476852
1681.64 84.20290513184507
1740.97 84.70711819597018
1802.49 84.78350482115171
1866.21 84.96446417676101
1932.13 85.09942126571656
2000.24 85.96209918996689
2070.56 85.89501001203293
2143.8 85.62811348428245
2219.24 85.77062432010491
2297.61 86.33257766094295
2378.17 86.30275842124588
2462.4 85.77291839041973
2548.83 86.65907340555384
2638.92 86.6604402458027
2731.93 86.96139524601574
2828.61 87.22255970940581
2928.22 87.16448087098675
3031.49 87.35656532219409
3138.43 87.35156240780731
3249.02 88.21364322540099
3363.28 87.96225437033613
3481.93 87.57800836771273
3604.98 87.57605798367588
3732.42 88.24314875238245
3863.53 87.80309950919644
3999.76 87.96136151889586
4141.11 87.89375140045996
4286.87 87.76808783053976
4438.48 88.06061650632661
4594.48 87.22841569470019
4757.08 87.34080058629976
4924.8 86.98401149137834
5098.39 86.92321665931038
5277.83 86.79537096370704
5463.87 87.5183904814449
5656.49 87.77621185223038
5856.45 88.33025529576396
6062.99 88.23190780688957
6276.86 88.45876182678776
6498.05 88.29701302179947
6727.29 87.96137750045474
6964.6 88.078667506591
7209.96 88.1758752009102
7464.11 88.67823611068228
7727.78 89.36380622905816
8000.24 89.67464222000805
8282.23 89.81597154607748
8574.46 89.77174087089693
8876.22 89.78985068710718
9189.7 89.98600339835254
9513.43 90.16739886561517
9848.88 90.12345077994173
10196.8 89.98929129711648
10556.4 89.83146151351873
10928.5 89.54347931296256
11313.7 89.00370809003614
11712.9 88.42893108980262
12126.0 88.13078810895551
12553.7 88.2705744555411
12996.1 88.58373122001436
13454.6 88.48009241936623
13928.5 88.23693587032385
14419.9 88.46545349631106
14928.2 88.52163034325353
15454.8 88.33322960636615
15999.8 87.87237498763666
16564.5 87.18529734597979
17148.2 86.36034892935315
17753.2 85.66206348585396
18379.4 84.95094545931302
19027.6 84.35608554570007
19698.5 83.72702220026298
19999.5 83.39038503694259
