Freq "Side Wall Bounce"
20.5078 34.346470151541766
21.2402 43.879039430848295
21.9727 49.884001310640585
22.7051 51.10111935634639
23.4375 53.20485651773548
24.1699 54.17801876328964
25.6348 56.02345781426585
26.3672 57.36141345034777
27.0996 59.187253069193545
27.832 60.3825656059967
29.2969 62.08361450914647
30.0293 63.58539630425277
31.4941 65.49950921357014
32.2266 66.41718874925526
33.6914 68.14186513462847
34.4238 68.98852480593878
35.8887 70.6110178303493
37.3535 72.13812661957384
38.8184 73.61251368975363
39.5508 74.30678021619788
41.0156 75.61958555804215
42.4805 76.86021488648363
43.9453 77.92473237359387
45.4102 78.87115698860494
47.6074 79.97262694189183
49.0723 80.65631411349304
50.5371 81.14056084989589
52.7344 81.62161514339158
54.1992 81.88539905365873
56.3965 82.20379688995988
58.5938 82.46399152900293
60.0586 82.66306686767054
62.2559 82.88715376836085
64.4531 82.88725152962225
66.6504 83.09238240671999
69.5801 83.25339785733699
71.7773 83.38665411526985
73.9746 83.47599610428642
76.9043 83.65800732116189
79.834 83.84223853614712
82.7637 83.88103055086663
85.6934 84.16576271167295
88.623 84.41211944278277
91.5527 84.56454790329923
94.4824 84.72374928627285
98.1445 84.83950369370781
101.807 84.99489465801562
105.469 85.1012058275027
109.131 85.20340132681302
112.793 85.39010698039223
116.455 85.49413728998285
120.85 85.6257399501951
125.244 85.7874419406472
129.639 85.97281446110232
134.033 86.00025536667842
138.428 85.96469533195004
143.555 86.1316787654171
148.682 86.21527723183043
153.809 86.22391438470503
159.668 86.1303938281781
164.795 86.10769893941979
170.654 86.16506131069569
176.514 86.17986860075841
183.105 86.01735007140076
189.697 85.7436586197263
196.289 85.62024213039759
202.881 85.44522983046322
210.205 85.34462649436263
217.529 85.15272966609838
225.586 84.81858396969908
232.91 84.60319262896046
241.699 84.58853917746755
249.756 85.03431671581109
258.545 84.8863655544363
268.066 84.66823538839246
277.588 84.33822664684048
287.109 84.15167277708375
297.363 84.09049044290084
307.617 83.8746258767922
318.604 83.70943746203277
329.59 83.9265414577446
341.309 83.16581046826106
353.76 82.75368978916
366.211 82.84435546883252
378.662 82.94173447712761
392.578 83.29066239057045
405.762 82.93830679436292
420.41 82.81471975693431
435.059 81.9534491722406
450.439 81.32254446948652
466.553 81.51123280900543
482.666 82.27212381317811
500.244 81.91942026304633
517.822 81.44423890610544
536.133 81.28664127970733
554.443 82.58750385819845
574.219 83.48221119411656
594.727 85.0831635780413
615.234 84.7802401328134
637.207 84.37390118673027
659.912 83.96304660002552
683.35 82.52655898145413
706.787 81.88510119652413
731.689 83.21054818521439
758.057 83.51544465535522
784.424 82.12295097564366
812.256 81.86307554593863
840.82 80.7763490820194
870.85 82.60198626942945
901.611 83.32895582121834
933.105 84.8995652324166
966.064 86.31154324834078
999.756 85.57963107206386
1034.91 84.32878457417401
1071.53 84.32220832102979
1109.62 82.9741088564342
1148.44 83.62051739150812
1189.45 83.10239135411126
1231.2 83.18635901791878
1274.41 81.34560084955399
1319.82 81.85440426078652
1365.97 81.69981114403588
1414.31 80.89908042221654
1464.11 81.52138412760388
1515.38 81.10832853135565
1568.85 80.29618426380544
1624.51 79.72832085246257
1681.64 80.08112776394502
1740.97 80.61119284636591
1802.49 80.59713931456822
1866.21 80.67548287454194
1932.13 81.35506871233363
2000.24 81.9056381821914
2070.56 81.95686662695135
2143.8 82.42717351656036
2219.24 81.86795611620651
2297.61 82.48500400280531
2378.17 82.87136769235038
2462.4 82.50843862579133
2548.83 83.27512440893923
2638.92 83.34955931028193
2731.93 83.29321951538775
2828.61 83.78662838442332
2928.22 84.38305167974643
3031.49 85.05941559032189
3138.43 85.10538103579047
3249.02 85.56334818460894
3363.28 85.38342409516754
3481.93 84.71125147102306
3604.98 84.83718533387061
3732.42 84.65915363763224
3863.53 84.22038136510676
3999.76 84.60020385859232
4141.11 84.48799423875171
4286.87 84.43612021446127
4438.48 84.50413677377354
4594.48 83.50542091486945
4757.08 83.79614334315346
4924.8 83.76559771632446
5098.39 83.60597147620486
5277.83 84.25719010827503
5463.87 84.77867341468836
5656.49 84.49540706026997
5856.45 84.70415937688398
6062.99 84.38125042154992
6276.86 84.34625301682475
6498.05 83.78978081032288
6727.29 83.57468963390214
6964.6 83.81241120821188
7209.96 83.70098850257368
7464.11 83.69409334168427
7727.78 83.53579000510518
8000.24 83.15489120155686
8282.23 82.76277806372774
8574.46 82.275652951019
8876.22 82.01995655321656
9189.7 81.96069616354244
9513.43 81.8639611383727
9848.88 81.4395292860424
10196.8 80.89716300334574
10556.4 80.45524631146148
10928.5 79.4789607804513
11313.7 78.3887510360599
11712.9 77.58696308880755
12126.0 76.99789351284095
12553.7 76.52714031817546
12996.1 75.96550956980388
13454.6 75.17890416408494
13928.5 74.16638998488288
14419.9 73.9597603255102
14928.2 73.41570836363108
15454.8 74.02822504138766
15999.8 75.42826319910479
16564.5 75.79030734389755
17148.2 75.61984795457607
17753.2 74.83529291793702
18379.4 73.13627633017443
19027.6 70.41177212909994
19698.5 65.62325947455822
19999.5 63.29753360392908
