Freq "Floor Bounce"
22.4 18.32323621892469
23.0 20.008135732496683
23.6 21.04428020154127
24.0 19.9859464982719
25.0 19.730138585173634
25.8 19.757509042740153
26.5 20.108833124773653
27.2 22.798606461728056
28.0 25.795748480709946
29.0 28.706671761422072
30.0 31.284561239538064
30.7 32.75028730416419
31.5 33.831895337347405
32.5 34.68801981632423
33.5 35.75930357463109
34.5 37.21575549034789
35.5 39.17184960368736
36.5 42.62703686004086
37.5 45.551768821067654
38.7 48.278285326265134
40.0 51.53445451972392
41.2 54.86655983365945
42.5 58.19743339026945
43.7 61.02135023634648
45.0 63.77972375296493
46.2 66.55527793457775
47.5 69.14301853355343
48.7 72.99717846379768
50.0 76.95400082193173
51.5 73.43548164377732
53.0 73.63127352800402
54.5 75.7267246658846
56.0 77.02992023746671
58.0 77.65969721155223
60.0 78.25969721155222
61.5 78.89479066074091
63.0 79.16049919811567
65.0 79.29346321611213
67.0 79.3607109091953
69.0 79.46071090919533
71.0 79.76290469454857
73.0 80.16071090919532
75.0 80.35295285729015
77.5 80.48422273827236
80.0 80.81908374944672
82.5 80.88498432007742
85.0 80.8175547625529
87.5 80.71908374944672
90.0 80.58726866806425
92.5 80.38576350317223
95.0 80.4537024824349
97.5 80.38576350317223
100.0 80.25295285729014
103.0 80.21832812444534
106.0 80.08576350317222
109.0 79.81832812444533
112.0 79.55291752535258
115.0 79.41908374944671
118.0 79.15370248243492
122.0 79.15370248243492
125.0 79.15370248243492
128.0 79.22214091926176
132.0 79.35370248243491
136.0 79.08498432007742
140.0 79.18576350317221
145.0 79.2537024824349
150.0 79.32451252362056
155.0 79.56049919811569
160.0 79.6910745908473
165.0 79.82672466588461
170.0 79.9267246658846
175.0 80.05753792174697
180.0 80.0267246658846
185.0 80.16290469454857
190.0 79.99640010577708
195.0 80.1267246658846
200.0 80.1267246658846
206.0 80.16290469454857
212.0 80.19640010577707
218.0 80.36979996641993
224.0 80.64046147812711
230.0 81.06979996641992
236.0 81.56290469454856
240.0 81.69640010577707
250.0 81.66655983365945
258.0 81.63283258471544
265.0 81.19640010577707
272.0 80.49640010577708
280.0 79.66049919811569
290.0 78.86049919811568
300.0 78.29107459084732
307.0 77.92672466588459
315.0 77.93283258471543
325.0 78.06979996641992
335.0 77.87822010422832
345.0 77.62146261423537
355.0 77.34569749175068
365.0 77.58609554273922
375.0 78.24569749175068
387.0 79.03283103929294
400.0 79.49378117248673
412.0 79.23283103929295
425.0 78.74569749175069
437.0 78.47932536507034
450.0 78.63283103929294
462.0 79.19378117248674
475.0 79.83283103929294
487.0 79.87932536507034
500.0 79.55097404079066
515.0 79.4024072867398
530.0 79.65097404079067
545.0 79.99357270499428
560.0 79.91941325136028
580.0 79.45097404079067
600.0 79.52170035413157
615.0 79.82647898666384
630.0 79.97589745068088
650.0 79.77589745068086
670.0 79.83602001605138
690.0 79.9884002542478
710.0 79.43161781689919
730.0 78.83406752168791
750.0 78.05984431859643
775.0 77.18701379178383
800.0 77.067278814697
825.0 78.23508053502249
850.0 78.66727881469701
875.0 78.59260313696721
900.0 78.54283338290811
925.0 78.46727881469701
950.0 78.54103512628487
975.0 77.49336588563752
1000.0 77.60162114640458
1030.0 77.73406752168792
1060.0 77.94134069205856
1090.0 77.46273935836537
1120.0 77.15855948758482
1150.0 76.81643739363223
1180.0 75.81887650819903
1220.0 74.76206766216812
1250.0 73.67907012237916
1280.0 73.26041538780974
1320.0 72.66295365129359
1360.0 72.8221292396304
1400.0 71.82454617483619
1450.0 71.41828894332774
1500.0 71.44939425072882
1550.0 70.54084892995134
1600.0 70.14475776089651
1650.0 69.21702914156334
1700.0 69.58119579083997
1750.0 69.99029463235023
1800.0 71.15479853421216
1850.0 71.05978600671187
1900.0 70.84625774863633
1950.0 71.24662300002792
2000.0 70.02550938033444
2060.0 68.73758121162237
2120.0 66.1095135824324
2180.0 65.40243129005738
2240.0 65.06394094990955
2300.0 64.96000691460688
2360.0 64.59321564802254
2400.0 66.17556921717895
2500.0 66.95022820836743
2580.0 66.95316264961996
2650.0 67.19640514618891
2720.0 67.88902201796581
2800.0 67.87894772666428
2900.0 68.14601874744784
3000.0 66.09129792334991
3070.0 61.912613512405215
3150.0 63.300409150149804
3250.0 64.77163474066654
3350.0 67.86657501884949
3450.0 68.42839330495569
3550.0 68.46825209757282
3650.0 70.5446234609293
3750.0 70.70948636654742
3870.0 68.45922653003515
4000.0 65.78469372262023
4120.0 67.12530395267372
4250.0 68.59836872383751
4370.0 66.39640010577709
4500.0 67.19691512563664
4620.0 69.25092109523038
4750.0 67.9173499360738
4870.0 66.31537981954038
5000.0 67.28032920955916
5150.0 64.75051408358355
5300.0 62.10005472613268
5450.0 61.88027786494803
5600.0 63.82908097156931
5800.0 65.39233313124966
6000.0 69.7979296626244
6150.0 66.79196683748836
6300.0 65.79008885707876
6500.0 65.43393793025557
6700.0 69.58090617234798
6900.0 71.47391852568943
7100.0 69.32962991220197
7300.0 68.94311136372106
7500.0 62.76758907471984
7750.0 66.55506224658946
8000.0 68.67821236823326
8250.0 68.31595009776363
8500.0 66.4693878972109
8750.0 68.07890004057647
9000.0 65.84817662574319
9250.0 66.3283834917478
9500.0 70.88176758828122
9750.0 71.64376494693975
10000.0 70.22882929076665
10300.0 72.21290032542551
10600.0 72.60409134579295
10900.0 69.41108706385405
11200.0 70.25095353343836
11500.0 66.8967326704206
11800.0 64.13256203515854
12200.0 67.64799065528096
12500.0 66.40922051263566
12800.0 69.43071946015718
13200.0 68.33471130511789
13600.0 68.62680709752647
14000.0 68.43668621533726
14500.0 69.28914757644553
15000.0 69.19395597755599
15500.0 66.90066208525141
16000.0 67.33260363982262
16500.0 65.61333759732933
17000.0 63.538943804371755
17500.0 63.78177166206879
18000.0 62.44400390463676
18500.0 60.96031322885047
19000.0 49.615069716423264
19500.0 42.56130554904529
