Freq "Rear Wall Bounce"
22.4 13.904886931625057
23.0 14.78112996127929
23.6 15.644039752227414
24.0 17.892260663177197
25.0 20.10974064304692
25.8 22.23743035216002
26.5 24.593105323227874
27.2 27.61654187040638
28.0 30.52440930492152
29.0 33.52928652369961
30.0 35.10870915803004
30.7 34.14974961800358
31.5 34.37768393207746
32.5 35.32742201781183
33.5 39.11498533280469
34.5 43.708412039840724
35.5 47.25328096722329
36.5 45.7218327615805
37.5 46.31653276147874
38.7 47.81808749011249
40.0 50.52659014132742
41.2 53.61229760231039
42.5 56.99053998607373
43.7 59.996198640765755
45.0 62.67078778818184
46.2 64.33038870351876
47.5 65.94517245826194
48.7 67.4050214986395
50.0 68.80892877237068
51.5 69.81088724782461
53.0 70.81954184686778
54.5 72.11227892387396
56.0 73.32767885019544
58.0 74.49219402556517
60.0 75.282360763708
61.5 75.85628456686835
63.0 76.19293733885509
65.0 76.47363460230544
67.0 76.9329278627964
69.0 77.47073827989281
71.0 78.05267159428391
73.0 78.81548760994849
75.0 79.45699926475588
77.5 79.957387948572
80.0 80.49379984267499
82.5 80.87654864501438
85.0 80.8918990579161
87.5 80.7494585855652
90.0 80.76196196437468
92.5 80.63225202326346
95.0 80.5655530751673
97.5 80.24664840316028
100.0 79.8971018312019
103.0 79.26800148865755
106.0 78.72226596535988
109.0 78.19137184058731
112.0 77.61643765201549
115.0 77.1058330595006
118.0 76.95877218806488
122.0 76.8123702340353
125.0 76.86140014039583
128.0 76.99359270567393
132.0 77.16272095578003
136.0 77.20670269291634
140.0 76.91700774625888
145.0 76.65660843978553
150.0 76.46314957000875
155.0 76.03654683026244
160.0 75.66618874881978
165.0 75.6004528583404
170.0 75.71178611526882
175.0 76.00338146658969
180.0 76.54283754438119
185.0 77.06201863546917
190.0 77.12203597121433
195.0 77.10338613540348
200.0 76.88077177443444
206.0 76.50230635057484
212.0 76.02400344641333
218.0 75.34270452196891
224.0 75.07980532677264
230.0 74.84969842921963
236.0 74.4821781277225
240.0 74.35431242748822
250.0 74.50231340205575
258.0 74.64259059030925
265.0 74.78762229554475
272.0 73.8522640379499
280.0 72.84951571404308
290.0 72.59897632179099
300.0 73.21045800689284
307.0 74.30412921211338
315.0 73.24087000773294
325.0 72.46794096962076
335.0 72.50349840383471
345.0 72.91617717115408
355.0 73.23964092053835
365.0 72.2340764869103
375.0 71.76431499575413
387.0 72.60338657918591
400.0 73.00842746969984
412.0 72.98097317223875
425.0 72.24556508953097
437.0 71.27960596476389
450.0 70.85774239072695
462.0 71.4252741444918
475.0 72.52562309153647
487.0 73.1986207917861
500.0 72.59891670987064
515.0 71.63960796051076
530.0 70.8456098731799
545.0 70.95081903679161
560.0 70.88862104479632
580.0 69.63782111665185
600.0 67.89601147190707
615.0 66.66063011183282
630.0 66.02610956449548
650.0 65.75294201134894
670.0 66.13396860819148
690.0 66.45896770007478
710.0 66.04342792120146
730.0 65.07386938966187
750.0 64.3340828271722
775.0 63.37377225994172
800.0 63.627552587288264
825.0 64.65089166534422
850.0 65.24762098453141
875.0 65.78770720618546
900.0 65.32277754876749
925.0 63.770499940402104
950.0 63.806526212947844
975.0 64.62953089912449
1000.0 65.18259749840634
1030.0 64.602119108545
1060.0 63.96832884372547
1090.0 63.41807486612605
1120.0 63.612945372885534
1150.0 64.23474265335194
1180.0 63.167088252551565
1220.0 62.3649048005132
1250.0 62.02742700416239
1280.0 61.63768296942581
1320.0 62.38601265399815
1360.0 62.07138930042487
1400.0 60.623274255531115
1450.0 60.423691111224
1500.0 59.62839841654019
1550.0 60.63601250987729
1600.0 61.17972081164433
1650.0 61.63151283706283
1700.0 61.256637531081665
1750.0 61.254829167688015
1800.0 61.377141484021436
1850.0 62.45394715784795
1900.0 62.76780659033379
1950.0 61.131271364260755
2000.0 58.22019598658606
2060.0 56.368287193721685
2120.0 56.273667734097174
2180.0 56.28258378894522
2240.0 55.12777527509674
2300.0 55.36457880443187
2360.0 54.90728527009169
2400.0 55.13733531927268
2500.0 56.2071917920954
2580.0 56.00977382137985
2650.0 56.06098482618388
2720.0 57.5327679609572
2800.0 57.64862572374601
2900.0 55.661087860025035
3000.0 55.55097243385829
3070.0 57.049557060849295
3150.0 59.37896401593075
3250.0 59.23694592305036
3350.0 57.06706719430484
3450.0 54.34198341884142
3550.0 52.52203585240626
3650.0 51.889709064605555
3750.0 53.349758273202625
3870.0 54.31757986352959
4000.0 57.255779957991976
4120.0 59.40136718907998
4250.0 60.25847504573798
4370.0 57.33570516190518
4500.0 55.87106805582009
4620.0 53.085299235106234
4750.0 52.984465139829595
4870.0 53.676408931109435
5000.0 54.833841055974304
5150.0 53.35723020162304
5300.0 52.819513004639916
5450.0 52.55323214203166
5600.0 54.83748181762034
5800.0 53.79857180353123
6000.0 52.52963413567302
6150.0 50.96594815391403
6300.0 54.16824644763342
6500.0 55.17620940796597
6700.0 54.702374171344744
6900.0 54.74712053173333
7100.0 54.59120724754301
7300.0 53.41858478316887
7500.0 53.60020513062862
7750.0 52.78552184874697
8000.0 53.70792035178245
8250.0 55.8482577734742
8500.0 55.03602073711532
8750.0 54.43999368766298
9000.0 55.108879756959894
9250.0 56.492529187037164
9500.0 55.06494082730974
9750.0 57.20807618764765
10000.0 56.386340143869276
10300.0 54.37568576937123
10600.0 54.968449454529534
10900.0 55.13251982989557
11200.0 54.25583171256939
11500.0 51.87268689522024
11800.0 51.56131651636643
12200.0 53.36821412661833
12500.0 50.643081634097214
12800.0 50.67404456222333
13200.0 51.249362763330154
13600.0 52.62785924526001
14000.0 53.31469676838411
14500.0 50.07157695629404
15000.0 49.368208366620294
15500.0 48.915488623673625
16000.0 43.96509588809052
16500.0 44.31637027824094
17000.0 42.19054928347684
17500.0 40.50680075446921
18000.0 40.40283348573651
18500.0 39.39523249455904
19000.0 32.015865766903104
19500.0 29.78576063362449
