Freq,Floor Bounce,Ceiling Bounce,Front Wall Bounce,Side Wall Bounce,Rear Wall Bounce,Total Early Reflection
20.5078,44.88150049447755,43.87599587127998,44.54517854530941,44.36361645795269,43.936683096271636,44.337050551484325
21.9727,43.704302232485006,43.88640663421482,43.73161363082063,43.70739024916254,43.626750846034994,43.73213281721213
23.4375,45.78132986852431,45.68373593239396,45.83903157038354,45.53972815251815,44.73109489682143,45.53310590790748
24.9023,49.14714395205043,49.195717122272825,49.2009168163177,49.060911189662605,48.71586431673886,49.06782678249748
26.3672,50.71922630982321,50.627541960667216,50.72387934227494,50.56823749232778,50.18990025861605,50.57013583136184
27.832,52.91943497346391,52.65100563448384,52.85457463693281,52.70480679352049,52.32238477738416,52.695369091146674
29.2969,54.108936184959376,53.868797642727046,54.063302776974965,53.88814711080822,53.44323231395971,53.880749465208126
30.7617,55.443067983766994,55.19961486146126,55.383702942656654,55.247635459590256,54.91459946553239,55.24158623518123
32.2266,56.70433392386484,56.451048142364655,56.646660204228695,56.4991701927441,56.13458204080574,56.491673638287
33.6914,58.13696725182139,57.895811351588506,58.08464725860317,57.93507749235313,57.56122154069159,57.9273757530009
35.1562,59.369867290153124,59.148440959312424,59.32245896322188,59.18296850977775,58.84124675659534,59.176908150989775
36.6211,60.638800647779064,60.422359387685376,60.59250009898368,60.4580031532456,60.13068137137661,60.452084301158195
38.0859,61.58933404891191,61.36284173148202,61.54115802875366,61.40305474044952,61.0735744524156,61.3977184328147
39.5508,62.66913516451983,62.44641688294517,62.625674293760895,62.483686749662766,62.142761795272506,62.47744258630159
41.0156,63.62273751076975,63.406230158171354,63.58524741772935,63.43706551889383,63.0799375918068,63.43043490593516
42.4805,64.66010274472661,64.43506052887635,64.61861629701154,64.47621740719902,64.13802408887962,64.4694661225605
43.9453,65.60513578983107,65.36917149123184,65.56101695017507,65.41894445220605,65.08784980374936,65.41221620095375
45.4102,66.52960361475729,66.29001958610596,66.48684772726114,66.3405949767943,66.00124863046959,66.33363256926036
46.875,67.44237981750621,67.24000103594264,67.41712523120107,67.26493785325908,66.91197329007416,67.2593611943346
48.3398,68.30520781674679,68.071694694766,68.26930521026587,68.11958866343085,67.77533925961521,68.11225849278806
51.2695,70.0067439037927,69.77806135473934,69.97514817925568,69.82770005928113,69.49752342149245,69.82078888471881
52.7344,70.78451054264193,70.55210007732049,70.75256270066926,70.60692833035228,70.28678157116208,70.60017339354887
54.1992,71.52471142876864,71.29260233662818,71.49423686727539,71.35035774528312,71.04711422580203,71.34513819962463
55.6641,72.30252432817815,72.06270154234944,72.27914264008031,72.11300048740128,71.75088771709005,72.10612402370629
58.5938,73.70542596223714,73.47012480227242,73.68446884820922,73.5234892368784,73.17326021035448,73.51553886461895
60.0586,74.36616800366183,74.1411591409623,74.35204163791941,74.18890153874348,73.83989935989963,74.1817654019719
62.9883,75.66010320900376,75.41762945447981,75.64411492794805,75.47838648641198,75.13187968230858,75.47060454827185
64.4531,76.25980715399992,76.01537502142291,76.24555866670603,76.07848354888674,75.73321831116202,76.07066508493973
67.3828,77.3762130139356,77.12237344133239,77.36347499792979,77.19365833441155,76.85168487393007,77.18566440053901
68.8477,77.9033839373895,77.64599037421655,77.89207603589566,77.72075676886507,77.38021174484592,77.71266974940396
71.7773,78.879826079089,78.61233062543222,78.87063622853631,78.69514379715535,78.35504999719547,78.68685683157354
74.707,79.76643860792602,79.49416711587887,79.76155333868466,79.58184064285406,79.2425004233634,79.57360165690785
77.6367,80.50827071545584,80.25050114737448,80.5171031672559,80.32698297728585,79.9747934132651,80.3200510165614
79.1016,80.8773141961547,80.618521178771,80.88911936354943,80.69624321154647,80.34255945584958,80.68932292326622
82.0312,81.5476339069312,81.28237049846263,81.56405377708738,81.36525750541064,81.00870724669205,81.3583056863944
84.9609,82.15128720081063,81.878624758318,82.17201525276474,81.96761671199668,81.60751606735332,81.9602569621504
87.8906,82.68211143011263,82.40554137062612,82.70840482185287,82.49929730621143,82.13718722530643,82.49144296959433
90.8203,83.16656288487512,82.89228431471584,83.19820264737189,82.9924397160317,82.6537543314028,82.98514376611799
95.2148,83.73860415911574,83.4450594309652,83.77552673912514,83.55827575952152,83.22078538505356,83.55235922389572
98.1445,84.0783354896036,83.77370846755271,84.11959060072549,83.89404876619155,83.54786058779348,83.8877072487215
101.074,84.37620158913582,84.06321329490417,84.42242465859957,84.19120510630059,83.84625876492852,84.1849508886604
105.469,84.74416270558108,84.41780697137082,84.79874989914364,84.55625363304408,84.20995913220258,84.55071340850945
108.398,84.94050515833347,84.59977734584892,84.99923052178119,84.74767789398177,84.39909363678672,84.74283129299906
112.793,85.20218297504044,84.83300287020624,85.2674211614775,84.99575802541575,84.62314890963347,84.99074184936966
117.188,85.41089186269106,85.00178990722414,85.47924265314158,85.18551786153404,84.77875455986572,85.17891648322512
120.117,85.54930077764666,85.11028928966672,85.61889649910587,85.31330486239871,84.87727406662033,85.30247643348369
124.512,85.72353524318743,85.31165205463962,85.82077878586367,85.50657561948285,85.09010957130265,85.49868521849451
128.906,85.84197474023382,85.4563249300837,85.96889776474099,85.63311399518975,85.19411867025804,85.62756928601796
133.301,85.93646389590789,85.5326655192585,86.07149293846776,85.7228420742409,85.26632096797557,85.71535000885652
139.16,85.99150888733409,85.54796651516851,86.1362204587502,85.76594433586821,85.29095646810424,85.7570375063004
143.555,85.99055617718973,85.52654663113502,86.14573296908625,85.76051360731307,85.25798651599013,85.74784421782728
147.949,86.07390882899584,85.61219025593321,86.24447132816675,85.8658594857615,85.39450439005644,85.84895435521796
153.809,86.1563261910773,85.69815831404506,86.35168906986905,85.96806433632915,85.60080920060535,85.96398933422604
159.668,86.07057563454512,85.56764575467241,86.28179024967683,85.84822265570507,85.41196089606748,85.84768673907699
165.527,85.95281297996324,85.40688443420316,86.18342182863267,85.70274394584912,85.20225284665733,85.7041358871335
171.387,85.97196724322308,85.40550808901408,86.2299008429617,85.70625925344042,85.08511979258279,85.69848905653625
177.246,86.01637694283322,85.40571488974287,86.27865475658241,85.76317431449884,85.1925092556264,85.74918043932506
183.105,85.89825884656682,85.30792949839433,86.19274820049128,85.66137275553416,85.10325353966252,85.65046467449942
188.965,85.76397946201685,85.13058533291252,86.0690893436643,85.5261712409512,85.0062767951862,85.51709511006189
196.289,85.58833803877896,84.8891841878207,85.91504077621563,85.3265012163164,84.82833348235411,85.32919944536012
203.613,85.36252189688747,84.59417540355597,85.71137153485736,85.07399492618599,84.48398050556877,85.06977186488884
210.938,85.16677259576971,84.40464557665702,85.57720738238464,84.86440553807104,84.21736074835589,84.87446651398855
218.262,85.33852803263059,84.49851127523289,85.74924082476879,85.00790613224451,84.2381027012081,85.00106205821112
225.586,84.92980031350547,84.03468811434556,85.35474132397113,84.6149358544281,84.0760761796401,84.63154132014603
232.91,84.80113559088872,83.83310267358775,85.2644713113014,84.38561342409166,83.62976106422859,84.42495555334352
241.699,84.83570602183498,83.66504338826287,85.3203981462756,84.28365046651005,83.20357154276456,84.32877900920681
250.488,85.21636730023587,83.93216255739281,85.7103189267176,84.70876640486125,82.91532336307132,84.60442834832675
259.277,84.88243026129334,83.76308682300575,85.46070645181616,84.61450288049738,83.64553541920662,84.52743509905862
268.066,84.58216414494653,83.50421422209682,85.23090466332613,84.30562298301106,83.39773777245735,84.25850664551112
276.855,84.44678930923706,83.3296066430099,85.16140789484642,84.1161676970777,83.13923915888496,84.10234394208318
287.109,84.54026613103188,83.3005816036745,85.32272162763505,84.07436088743864,82.77393935620965,84.09541791161772
297.363,84.42495183925715,83.17480222635238,85.25169250181386,84.07769545984583,82.4416660027576,83.98289023699404
307.617,84.5202602052289,83.03380076296412,85.29872481889477,84.05586708344312,82.70592171734089,84.02739132508691
319.336,84.37451789033118,82.70197903868818,85.22551183845252,83.74709014487591,81.46886782695583,83.69368208700543
329.59,84.44994587125733,82.78627303018727,85.33442538988457,84.1044847099128,81.85684023541928,83.87656510993897
341.309,83.92014308556361,82.26735346934167,84.86965715463579,83.63952033138816,81.80737627736833,83.44328184633348
353.027,83.9786688214121,82.3561351559163,85.00171895330585,83.72162624694546,81.90985026257523,83.53789726045842
366.211,84.11202761930264,82.30061032942355,85.24007762454383,83.80775408858456,81.8377423040228,83.63533333797464
379.395,84.00846416073415,81.84129295420023,85.1940705902402,83.6747283991035,81.23500143100557,83.42862767829749
392.578,84.70704252895467,82.66267543188293,85.96139731439997,84.4355046147252,81.71255193309786,84.15247885123041
405.762,84.81421314248446,82.52900002921072,86.13592952285359,84.45332663607367,81.84588311340015,84.23101082238138
420.41,84.92928397470395,82.32808536132126,86.20982535066503,84.63750058801017,81.20096447997325,84.22464837290839
435.059,84.1823567430849,81.83986046420799,85.69600287353347,84.32955556678756,81.75624702953621,83.8264223773076
451.172,83.39002780764248,80.85537011294952,84.9859148614692,83.57647780410153,80.90153019097288,83.03700008892976
465.82,83.92570366930642,80.6588636717705,85.53893096645574,83.7889781893846,80.88144994578813,83.35697047423123
483.398,84.7042501525451,80.93472159700832,86.21923685161987,84.25369230499929,81.1822108576154,83.92953547985238
499.512,85.18901291998729,81.38672765508376,86.73326675296876,84.7350328961467,81.0300552403624,84.35691948808808
517.09,84.7025091343567,80.34637278756692,86.35879400646382,84.63551661625141,80.78689231433164,83.96765107174882
536.133,83.98997594127162,79.52527240680335,85.82034545971747,84.26299250280958,80.62251641741862,83.44200159412848
555.176,84.11672387745104,79.3420896098946,86.01551181707903,84.25563783730708,79.7375814786225,83.44022786313626
574.219,84.18616610946627,79.3780872597622,86.33678347987589,84.62131241810397,80.08163702066601,83.69503674476194
594.727,83.46254800124392,78.85323578774698,85.90552592503171,84.43376069254668,79.55102401913103,83.24708012739937
615.234,83.48944281915998,77.329028766405,85.88024813547662,84.41323225276966,79.79995733632778,83.16571362245976
637.207,83.57823983137773,76.90407967752087,85.87248302994433,84.44962893951735,79.43512128563329,83.13844253918693
659.18,82.80100295914073,76.47582795849549,85.65346138922659,84.38223176501367,79.26238056604505,82.83872545124221
682.617,82.28109887859283,74.34196273190092,84.93309444774756,83.55771023640413,78.81026454860755,82.09815738724411
707.52,82.80577705017363,73.98637527046431,85.45286941360706,83.99556608056608,78.9708013975754,82.53656087284837
732.422,81.92419924434923,74.86362472373008,85.61682370888887,84.40492811131733,79.65879239605896,82.6437350593288
757.324,82.19773911168811,73.71139688043827,85.77573042916792,84.17916797059567,79.0444092784758,82.59815655735603
785.156,81.56666738814614,72.54227984038437,85.40470843539504,84.00803976098787,78.76491006272106,82.22929643487737
811.523,80.50624018295615,71.30026528836216,85.23648693729247,83.60376353901877,79.15239837722238,81.88272193493604
840.82,81.81736346810773,70.36619977238227,86.15866453713512,83.96834568784577,78.74504996128144,82.55287570352816
870.117,80.92885133737886,69.1423379070253,85.56263670497509,83.53906998638209,78.47781042605924,81.97749965611895
900.879,80.34216194496545,68.37447541403193,85.29383462000068,83.27333026492273,78.60265198713013,81.69329709175302
933.105,81.05926560831544,69.614499076169,86.0408514218084,83.17781431063231,78.48873291758741,82.13315131562658
965.332,80.78022819375987,69.93506188482058,85.92177599709241,82.95127372828775,78.11317900512954,81.94566768466038
1000.49,80.8462994822144,70.36978505341415,85.90567000948289,82.9898420116264,77.94594403145602,81.949761581983
1035.64,81.03992261683113,72.58908179093575,86.25281295590474,82.62164961664116,78.00336990442176,82.11227567747538
1072.27,80.17784143707999,73.31054050605539,86.0836758865085,82.50985533140097,76.4208930536192,81.78146366734158
1108.89,80.0221524255594,73.80688232142566,86.40423471533354,82.76896981820217,77.50688326712482,82.07899355603921
1148.44,79.20743764429436,74.82907787854437,86.43966903894052,82.25055209846141,76.42842438526394,81.85305590784385
1189.45,79.30182480282743,75.4469409359911,86.49166977536522,83.1854864678508,76.83272815210974,82.16158150766452
1230.47,79.90082711788601,75.38314896302074,86.75270968941497,82.5585497894599,75.94578154881619,82.17634833633967
1274.41,78.59478150953508,75.13917546852299,85.64311721598537,81.8596132909657,75.66371120282683,81.21889475313937
1319.82,79.01270710336333,76.13851840650877,85.44652596985273,81.20466570799387,74.83528095406488,81.02880229310587
1366.7,78.59161522236472,75.63095881753553,84.08760399385686,80.32820992693857,73.33617388086864,79.95272719054674
1413.57,78.94711448387952,74.82787495487563,84.37002270980665,80.12133680083173,73.6540612196206,80.07254835545025
1463.38,79.85173544433972,75.45088404732178,84.21282806691279,80.63763313915237,72.12556556279344,80.2338363379098
1516.11,80.35018634649873,74.57091969027992,84.7059256985934,80.81022842844249,73.30304724928433,80.60300086845943
1568.85,81.22379679657249,75.5873367154798,84.5090064990775,80.53269452301895,73.90966617007834,80.7101767723374
1624.51,80.91021068222337,76.49577700568672,84.26326021333027,80.14873141445966,72.09122082014876,80.4492910677841
1681.64,79.98605640072547,76.11536381127961,84.23081992217301,80.27813821805495,72.65525781640797,80.25720123012825
1741.7,79.51921433302152,76.49857372429645,84.46016576203698,80.1000217795447,71.97353802084918,80.26550819058768
1803.22,79.4381914645596,76.23509454441488,85.08137857220399,80.42113274545589,72.55187644230101,80.64666933075286
1866.21,78.8617009963483,74.80724416192324,84.30564161530035,79.94746589203633,72.39041041721144,79.93730459969849
1932.13,78.17605827701219,74.87170462493788,83.92865873492279,79.76454132339568,72.1520772632826,79.58698536388069
1999.51,76.8173861256901,76.01911820253014,84.73471076272018,79.92487143397055,71.73402743643558,79.9888928665189
2069.82,77.24321004086171,76.87682223183116,85.29152910211086,80.39487354894793,72.21935028807813,80.5391933643197
2143.07,78.44276690457122,76.88235111392966,85.05885272230434,79.91565303661437,71.08556456555387,80.41476027279809
2219.24,78.10049614908964,78.09606198309093,84.9967355439268,79.6680367974252,70.49329151320549,80.40534161978593
2296.88,79.34053610999054,79.81674540490133,85.72561062025649,80.40315074174933,71.23860199310903,81.32605755224498
2378.91,80.56415479240117,80.86686984310782,85.72516680570321,80.51477779307542,70.86218932568408,81.66985347205744
2462.4,80.34333897206858,80.56966936659013,85.4941433934986,79.85795104494012,69.66636964242218,81.35209494550556
2548.83,81.10673053906253,80.96958858712559,86.11728225357892,80.59021997988359,70.18043049227454,81.97569855196382
2639.65,82.13558646576197,81.76866612677425,85.86721463243875,80.70019613350487,70.11906728510496,82.18890203952185
2731.93,82.82577383490802,82.14708509706652,85.04857427533494,79.70111591119056,69.2086159684974,81.91505362029474
2828.61,83.32440942202216,82.18039639089757,85.41735090097005,80.1289105164208,69.2528341087057,82.25190144506408
2928.22,83.94247886558308,82.42307273291509,85.504437467008,80.18501846025421,68.8685625283739,82.50334248933608
3030.76,84.43063499470233,82.64117896153631,85.46919421603816,80.09518699646557,69.04414120141206,82.66524332464178
3137.7,84.74917192695106,82.18682602265957,85.33997808145367,79.80164374522019,68.909964647704,82.59704137067381
3249.02,84.79389735108192,82.06170545371633,85.95763739438489,80.16097645251358,68.30424609033521,82.86507997409119
3363.28,84.36907131485073,82.06010479055344,85.86994057507353,79.98670912125958,68.20043106666944,82.68030128077905
3481.93,84.25969316107384,81.90455249039387,85.94636285793754,79.75883344745465,67.72243052663005,82.6266414055835
3604.98,84.03697076845361,81.36278699182581,85.88344179029652,79.56039588117362,67.54328448161331,82.42449179804579
3732.42,83.7967871492262,81.02499543142534,85.97422077845351,79.47126321898513,67.24851384995978,82.33463412954379
3864.26,83.70065358586818,79.9899999089629,85.55442704741485,79.291694890249,66.82267970970234,81.94946321883961
4000.49,83.25931492535257,79.6354556053899,85.6315283137093,79.1694851672588,66.80397952054156,81.80045293718076
4141.11,83.298934602612,79.16469266115371,85.81058092065044,79.27753699002602,66.1587748768929,81.85353717211314
4287.6,83.13650939996312,79.17502960131125,85.57377351153376,78.68100974808512,65.77808351676686,81.62611817207211
4438.48,82.92142673369067,78.94674068795646,86.03924757776545,78.66137057437162,64.82322499636275,81.77620410742192
4595.21,82.90039433514822,78.54821886585646,85.81223646435508,77.82828927469873,64.43276884074288,81.53066976836014
4756.35,82.87667052584355,78.08746639517545,85.82176248040828,77.32930405529736,64.44143163646093,81.44428427693789
4924.8,82.68283432523107,77.72795595944093,85.10873581853153,76.4184851283141,64.70657826500002,80.9045379712706
5097.66,82.45272502132423,77.80811901703393,84.62492863654909,76.86236204820118,64.95274359741423,80.62971410387837
5277.83,82.40482503885224,77.89630744363939,84.41317607735655,77.37534640388854,65.07978113763527,80.5667928217864
5463.87,82.22924738764978,77.63096736399409,84.20587139031609,77.61436631920343,64.32198423601344,80.40490290584832
5657.23,82.10789403337628,77.66996822533022,84.57204049251347,77.98475351214904,63.992489055240824,80.59100639709769
5856.45,82.3586775557969,77.54990996627352,84.88418209128,78.10791515695364,63.37799849101113,80.81911953702004
6062.99,82.36480308396894,77.47961562938936,84.85483633121818,77.99332692174501,63.50790876699081,80.78762934893366
6276.86,82.65740087944957,77.66699613623652,85.21404766019221,78.42266008651535,63.73819063033997,81.11896423778882
6498.05,83.11249363174191,77.4448507245436,85.11739784375749,78.4651932079219,64.12736603405843,81.19252740488444
6726.56,83.51103567148432,77.4512189118277,85.4928794196678,78.94463261536377,65.04440470576925,81.55883095722373
6963.87,83.6481446807043,77.24556931667252,85.68305025776472,79.21699495969067,65.04466260518987,81.71117890034756
7209.96,83.68416194261721,77.22360492878953,85.63170896379567,79.19633226066273,64.66092732310662,81.69148686257331
7464.84,83.83936588207139,77.55112051574642,85.81153245322832,79.40262040785134,63.835208570314364,81.87371300840975
7727.05,83.78207999928208,77.46133875093876,85.86256417400662,79.37239543255801,63.401507092685904,81.86996049985565
7999.51,83.76448602741141,77.47600289780404,86.02433252226741,78.99237931568302,62.50328959110864,81.90483567810877
8282.23,83.96018329041027,77.9034202208057,86.21436395196147,78.52437610764406,60.98168826503617,82.04825910098437
8573.73,84.11123297920697,78.28858226548756,86.33761128029468,78.10499347628132,60.55065042189729,82.15479367233867
8876.95,83.86182762791435,78.101099971487,86.1768478761589,77.73604750189926,61.14554670353728,81.94921813773858
9188.96,83.5718582848986,78.42124136114799,85.65420256425553,77.49556379975539,60.45225271756222,81.59599533272869
9514.16,83.49128742298824,78.58870055786474,85.18318347870131,77.59091935339845,60.25883480946224,81.36095891659086
