Freq "Front Wall Bounce"
20.5078 44.454067939248816
21.9727 43.64050302476004
23.4375 45.747920964322944
24.9023 49.10980621025713
26.3672 50.63276873621437
27.832 52.763464030872214
29.2969 53.97219217091437
30.7617 55.29259233659606
32.2266 56.55554959816813
33.6914 57.9935366525426
35.1562 59.23134835716131
36.6211 60.50138949292311
38.0859 61.45004742269309
39.5508 62.5345636877003
41.0156 63.49413681166878
42.4805 64.52750569095096
43.9453 65.46990634411449
45.4102 66.39573712120054
46.875 67.32601462514049
48.3398 68.17819460420529
51.2695 69.88403757319509
52.7344 70.66145209460866
54.1992 71.40312626121481
55.6641 72.18803203401974
58.5938 73.59335824214862
60.0586 74.26093103185883
62.9883 75.55300432188749
64.4531 76.15444806064545
67.3828 77.2723643918692
68.8477 77.80096542983506
71.7773 78.77952562247573
74.707 79.67044273262408
77.6367 80.42599256119532
79.1016 80.79800875748883
82.0312 81.47294317102681
84.9609 82.08090464670416
87.8906 82.61729421579227
90.8203 83.10709204131129
95.2148 83.68441613306454
98.1445 84.02847999466492
101.074 84.33131405253899
105.469 84.70763929308306
108.398 84.9081199157206
112.793 85.1763105554169
117.188 85.388132047081
120.117 85.52778589304529
124.512 85.72966817980308
128.906 85.8777871586804
133.301 85.98038233240716
139.16 86.04510985268963
143.555 86.05462236302567
147.949 86.15336072210617
153.809 86.26057846380847
159.668 86.19067964361625
165.527 86.09231122257209
171.387 86.13879023690112
177.246 86.18754415052184
183.105 86.1016375944307
188.965 85.97797873760372
196.289 85.82393017015504
203.613 85.62026092879678
210.938 85.48609677632406
218.262 85.65813021870822
225.586 85.26363071791054
232.91 85.17336070524082
241.699 85.22928754021501
250.488 85.61920832065702
259.277 85.3695958457556
268.066 85.13979405726555
276.855 85.07029728878584
287.109 85.23161102157447
297.363 85.16058189575328
307.617 85.20761421283419
319.336 85.13440123239192
329.59 85.24331478382398
341.309 84.77854654857522
353.027 84.91060834724527
366.211 85.14896701848323
379.395 85.10295998417963
392.578 85.87028670833939
405.762 86.04481891679299
420.41 86.11871474460445
435.059 85.60489226747288
451.172 84.8948042554086
465.82 85.44782036039516
483.398 86.12812624555929
499.512 86.64215614690816
517.09 86.26768340040324
536.133 85.7292348536569
555.176 85.92440121101845
574.219 86.2456728738153
594.727 85.81441531897113
615.234 85.78913752941602
637.207 85.78137242388374
659.18 85.56235078316602
682.617 84.84198384168697
707.52 85.36175880754648
732.422 85.52571310282829
757.324 85.68461982310733
785.156 85.31359782933446
811.523 85.14537633123189
840.82 86.06755393107454
870.117 85.47152609891451
900.879 85.20272401394008
933.105 85.94974081574782
965.332 85.83066539103184
1000.49 85.81455940342231
1035.64 86.16170234984416
1072.27 85.99256528044792
1108.89 86.31312410927298
1148.44 86.34855843287994
1189.45 86.40055916930463
1230.47 86.66159908335439
1274.41 85.55200660992479
1319.82 85.35541536379215
1366.7 83.99649338779629
1413.57 84.27891210374605
1463.38 84.12171746085221
1516.11 84.61481509253282
1568.85 84.41789589301692
1624.51 84.1721496072697
1681.64 84.13970931611244
1741.7 84.3690551559764
1803.22 84.9902679661434
1866.21 84.21453100923975
1932.13 83.83754812886222
1999.51 84.6436001566596
2069.82 85.20041849605028
2143.07 84.96774211624376
2219.24 84.90562493786622
2296.88 85.63450001419591
2378.91 85.63405619964263
2462.4 85.40303278743802
2548.83 86.02617164751834
2639.65 85.77610402637815
2731.93 84.95746366927436
2828.61 85.32624029490947
2928.22 85.41332686094742
3030.76 85.37808360997757
3137.7 85.24886747539308
3249.02 85.86652678832431
3363.28 85.77882996901293
3481.93 85.85525225187696
3604.98 85.79233118423593
3732.42 85.88311017239292
3864.26 85.46331644135427
4000.49 85.54041770764873
4141.11 85.71947031458986
4287.6 85.48266290547318
4438.48 85.94813697170487
4595.21 85.7211258582945
4756.35 85.7306518743477
4924.8 85.01762521247095
5097.66 84.5338180304885
5277.83 84.32206547129596
5463.87 84.11476078425551
5657.23 84.4809298864529
5856.45 84.79307148521941
6062.99 84.76372572515761
6276.86 85.12293705413161
6498.05 85.0262872376969
6726.56 85.4017688136072
6963.87 85.59193965170414
7209.96 85.54059835773508
7464.84 85.72042184716774
7727.05 85.77145356794603
7999.51 85.93322191620682
8282.23 86.12325334590088
8573.73 86.2465006742341
8876.95 86.0857372700983
9188.96 85.56309195819495
9514.16 85.09207287264074
9849.61 84.5985824278059
10196.8 83.9802249407652
10555.7 83.9128977838908
10927.7 84.08039827054888
11313.0 84.23968672063803
11712.9 84.40816739324036
12126.0 84.30998601286056
12553.7 84.01640079867897
12996.1 83.78808476506683
13454.6 83.50875971965542
13929.2 83.59916207052783
14419.9 83.90532158441722
14928.2 84.05020830246936
15455.6 83.77085394314628
16000.5 83.35372796979134
16564.5 82.43975620957748
17148.9 81.51393900552618
17752.4 80.59056519713485
18379.4 79.93193826132061
19026.9 79.25359875141757
19697.8 78.39913578664655
19999.5 78.07084836080655
