Freq "Rear Wall Bounce"
20.5078 43.936683096271636
21.9727 43.626750846034994
23.4375 44.73109489682143
24.9023 48.71586431673886
26.3672 50.18990025861605
27.832 52.32238477738416
29.2969 53.44323231395971
30.7617 54.91459946553239
32.2266 56.13458204080574
33.6914 57.56122154069159
35.1562 58.84124675659534
36.6211 60.13068137137661
38.0859 61.0735744524156
39.5508 62.142761795272506
41.0156 63.0799375918068
42.4805 64.13802408887962
43.9453 65.08784980374936
45.4102 66.00124863046959
46.875 66.91197329007416
48.3398 67.77533925961521
51.2695 69.49752342149245
52.7344 70.28678157116208
54.1992 71.04711422580203
55.6641 71.75088771709005
58.5938 73.17326021035448
60.0586 73.83989935989963
62.9883 75.13187968230858
64.4531 75.73321831116202
67.3828 76.85168487393007
68.8477 77.38021174484592
71.7773 78.35504999719547
74.707 79.2425004233634
77.6367 79.9747934132651
79.1016 80.34255945584958
82.0312 81.00870724669205
84.9609 81.60751606735332
87.8906 82.13718722530643
90.8203 82.6537543314028
95.2148 83.22078538505356
98.1445 83.54786058779348
101.074 83.84625876492852
105.469 84.20995913220258
108.398 84.39909363678672
112.793 84.62314890963347
117.188 84.77875455986572
120.117 84.87727406662033
124.512 85.09010957130265
128.906 85.19411867025804
133.301 85.26632096797557
139.16 85.29095646810424
143.555 85.25798651599013
147.949 85.39450439005644
153.809 85.60080920060535
159.668 85.41196089606748
165.527 85.20225284665733
171.387 85.08511979258279
177.246 85.1925092556264
183.105 85.10325353966252
188.965 85.0062767951862
196.289 84.82833348235411
203.613 84.48398050556877
210.938 84.21736074835589
218.262 84.2381027012081
225.586 84.0760761796401
232.91 83.62976106422859
241.699 83.20357154276456
250.488 82.91532336307132
259.277 83.64553541920662
268.066 83.39773777245735
276.855 83.13923915888496
287.109 82.77393935620965
297.363 82.4416660027576
307.617 82.70592171734089
319.336 81.46886782695583
329.59 81.85684023541928
341.309 81.80737627736833
353.027 81.90985026257523
366.211 81.8377423040228
379.395 81.23500143100557
392.578 81.71255193309786
405.762 81.84588311340015
420.41 81.20096447997325
435.059 81.75624702953621
451.172 80.90153019097288
465.82 80.88144994578813
483.398 81.1822108576154
499.512 81.0300552403624
517.09 80.78689231433164
536.133 80.62251641741862
555.176 79.7375814786225
574.219 80.08163702066601
594.727 79.55102401913103
615.234 79.79995733632778
637.207 79.43512128563329
659.18 79.26238056604505
682.617 78.81026454860755
707.52 78.9708013975754
732.422 79.65879239605896
757.324 79.0444092784758
785.156 78.76491006272106
811.523 79.15239837722238
840.82 78.74504996128144
870.117 78.47781042605924
900.879 78.60265198713013
933.105 78.48873291758741
965.332 78.11317900512954
1000.49 77.94594403145602
1035.64 78.00336990442176
1072.27 76.4208930536192
1108.89 77.50688326712482
1148.44 76.42842438526394
1189.45 76.83272815210974
1230.47 75.94578154881619
1274.41 75.66371120282683
1319.82 74.83528095406488
1366.7 73.33617388086864
1413.57 73.6540612196206
1463.38 72.12556556279344
1516.11 73.30304724928433
1568.85 73.90966617007834
1624.51 72.09122082014876
1681.64 72.65525781640797
1741.7 71.97353802084918
1803.22 72.55187644230101
1866.21 72.39041041721144
1932.13 72.1520772632826
1999.51 71.73402743643558
2069.82 72.21935028807813
2143.07 71.08556456555387
2219.24 70.49329151320549
2296.88 71.23860199310903
2378.91 70.86218932568408
2462.4 69.66636964242218
2548.83 70.18043049227454
2639.65 70.11906728510496
2731.93 69.2086159684974
2828.61 69.2528341087057
2928.22 68.8685625283739
3030.76 69.04414120141206
3137.7 68.909964647704
3249.02 68.30424609033521
3363.28 68.20043106666944
3481.93 67.72243052663005
3604.98 67.54328448161331
3732.42 67.24851384995978
3864.26 66.82267970970234
4000.49 66.80397952054156
4141.11 66.1587748768929
4287.6 65.77808351676686
4438.48 64.82322499636275
4595.21 64.43276884074288
4756.35 64.44143163646093
4924.8 64.70657826500002
5097.66 64.95274359741423
5277.83 65.07978113763527
5463.87 64.32198423601344
5657.23 63.992489055240824
5856.45 63.37799849101113
6062.99 63.50790876699081
6276.86 63.73819063033997
6498.05 64.12736603405843
6726.56 65.04440470576925
6963.87 65.04466260518987
7209.96 64.66092732310662
7464.84 63.835208570314364
7727.05 63.401507092685904
7999.51 62.50328959110864
8282.23 60.98168826503617
8573.73 60.55065042189729
8876.95 61.14554670353728
9188.96 60.45225271756222
9514.16 60.25883480946224
9849.61 60.6070849071245
10196.8 59.99485024615153
10555.7 60.55675295106316
10927.7 60.38020191734584
11313.0 59.43335046371574
11712.9 58.948090564391734
12126.0 56.93575308509686
12553.7 53.5094475259467
12996.1 53.3814566261121
13454.6 54.660100266898425
13929.2 54.88325752536939
14419.9 54.6562934302881
14928.2 53.089063660494176
15455.6 50.183675688830604
16000.5 46.8441203254567
16564.5 47.98406904128019
17148.9 49.08185511779949
17752.4 49.98563870731313
18379.4 49.719334550195626
19026.9 48.85364769282002
19697.8 47.35168379799224
19999.5 47.73177620339443
