Freq,Floor Bounce,Ceiling Bounce,Front Wall Bounce,Side Wall Bounce,Rear Wall Bounce,Total Early Reflection
22.4,-24.86683127825708,-19.231968933437628,-19.533396382418488,-16.313503098592747,-17.10781837378383,-18.591003325062246
23.0,-23.38277871042351,-19.036597436485664,-17.1505681120224,-14.15686543695702,-14.127833345551863,-16.443577551726406
23.6,-21.927034224143057,-18.605689675004413,-14.273628967775693,-11.709320515320002,-10.800919176993887,-13.804805406821202
24.0,-19.060738865854063,-16.898000968378426,-10.658391206877383,-9.397601272447503,-7.953979018279284,-11.036602368006442
25.0,-16.280171315200704,-15.34120322584414,-8.151607910816637,-7.628937850031463,-5.831252887550221,-8.930602935462133
25.8,-13.641450438518547,-14.203591384339262,-6.1954182302644085,-6.12516074922371,-4.103989910439708,-7.193753272533883
26.5,-10.311089253179944,-12.878901458773385,-4.181591350838687,-4.529870696958625,-2.8776366901413724,-5.546081279841445
27.2,-7.038428832178369,-8.862741353695867,-1.864190670842163,-2.4523310448068685,-1.519290664325439,-3.46390203423519
28.0,-5.179776896757488,-5.420934357774655,-0.5777924572670656,-1.576784246406362,-0.8183313517821773,-2.233497821150735
29.0,-3.8761077557548163,-2.487486296569557,0.029137278256882837,-1.5859178091321553,-1.0910530620063525,-1.6086788143534534
30.0,-1.7066907031836251,0.3173305337927843,1.2162754096107449,-0.6127969492108036,-1.4232628088331296,-0.30302809670953934
30.7,3.051475430728061,2.983625121262776,4.504624318325995,4.4941787791038905,1.5444579018867444,3.4517253817630262
31.5,8.20034112939831,5.280210437025829,7.8356390484378835,9.342355098870001,4.765273825900721,7.426690813650538
32.5,15.036474123904128,7.390707780666162,11.545929459597033,14.54026616485848,8.76649345577286,12.436457566998484
33.5,16.50531806766469,10.73940447640166,14.105770409819911,17.0750461814591,11.959422832934763,14.742486988511843
34.5,15.985094858023785,13.943146838921592,15.864017311924414,18.2581207122183,14.538813001715681,15.986730562791791
35.5,15.593896425181896,16.85768127821953,18.373153330862323,19.31621635755866,18.110144710673154,17.8342493054069
36.5,17.640662562913292,19.96948695166583,18.32707790005219,22.545278162192346,20.57094768076027,20.163293810488113
37.5,19.739941111659988,22.22776035838561,19.043853628260337,25.870241282655314,23.201753085489827,22.727009710721205
38.7,21.8517367334629,24.76130209547196,20.708150541610564,28.928148007876956,26.30331185889574,25.510585033054127
40.0,24.893704483634025,29.810937035155717,25.870458222573433,33.05537473333882,31.541423310280237,30.08543193865225
41.2,28.041918147790994,34.835560580006955,31.55011546023158,38.54262251166321,38.12068791340229,35.739719840753224
42.5,31.337258646304093,38.14226307165248,35.138917766342985,36.21196881684472,36.4742416132257,35.969476878339975
43.7,33.405749230048485,38.71699727684239,36.4865738894365,33.86532512642822,33.94989334588661,35.79878228111542
45.0,35.27527887886524,38.085016544610056,37.683499573131115,33.86333511039717,33.169577384056225,36.059168188359905
46.2,38.32812100489949,42.688545088425826,40.14259020108702,38.319607729015786,38.02536493810521,39.89879461313026
47.5,41.795629775487924,46.51483523633479,42.614801968320734,41.66546022167461,42.68547439990019,43.4804514308785
48.7,46.00564592605983,43.35858760124327,44.33953542957815,39.93212675069202,44.60400276859073,44.062192786322214
50.0,48.04674371535842,44.97960121433462,44.98179483542131,39.72283625883438,46.27984457180921,45.52876870106593
51.5,47.2367363616965,51.439999279587425,46.71712786110504,45.95308948785859,50.20463685783747,48.84691490692484
53.0,47.68057541006698,55.31457895753309,50.112361198977055,52.125725600098406,55.17689873460208,52.983049817522556
54.5,52.52179599023938,56.06668408046667,52.74473869531579,54.672297030542296,57.38533603206395,55.08411054951023
56.0,55.90473530118575,57.7159253887998,55.13268603708144,56.84929543872747,59.37434260426244,57.25330303916081
58.0,58.246809835208154,60.129266768794196,58.1148199340885,59.5590603617447,61.44193929151383,59.67843606183723
60.0,60.07150800786938,61.9501707521257,60.401522934727424,61.716769514987675,63.22388624526798,61.62321010973142
61.5,61.71627940083641,63.35953166004181,62.30588957311356,63.49886586870622,64.82923418009393,63.27610945248351
63.0,64.42758719283592,64.97783080594571,64.2557182624398,65.32924177782343,66.23511441573609,65.10439276466022
65.0,67.29485705883171,66.63358982687997,66.19892917879717,67.14813545530846,67.56191600451642,66.99454965993196
67.0,68.57783080594571,68.73746771551313,68.54417906358343,69.28156054014522,69.20073497033516,68.87966105322565
69.0,70.01007799780291,70.66769521305292,70.47659259120644,71.12064343308079,70.79715796775858,70.62985381758116
71.0,71.8778308059457,72.36845083805433,71.85919859876347,72.59398423028146,72.29438296783036,72.20825254321247
73.0,73.37783080594569,73.79999999999998,73.29179303928228,73.6215496120876,73.37948377255839,73.49824959855161
75.0,74.83513059177983,74.80231994589775,74.78849426429228,74.94027672897047,74.57891517374664,74.79061349061105
77.5,76.26769521305295,75.77001488257477,76.17264843113159,76.18203378418833,75.66177156929024,76.01771411834731
80.0,77.73435140868501,76.74415774934852,77.4288071567453,77.28291647562298,76.47759694222361,77.15759705033014
82.5,79.0669218511605,77.77150800786939,78.65742449135816,78.36395064819496,77.66079511022524,78.33660172145613
85.0,80.30076749445563,78.6022846139602,79.84346508697898,79.50733290240271,78.63066786298481,79.42846143968939
87.5,81.50228461396019,79.37449351030438,80.88585448910237,80.56758101866491,79.31458628531522,80.4131597743924
90.0,82.47071732495408,80.2840783937255,81.75742449135814,81.42614189391601,79.96449270045913,81.27966009810784
92.5,83.13663575667186,81.31227178315618,82.54313939533782,82.2676451375008,80.71047207301058,82.0796910067334
95.0,83.63358982687998,82.0404416794549,83.2716627539189,82.84849756031407,81.374939790838,82.70992303887348
97.5,84.00076749445562,82.93821129888742,83.77232492078934,83.34530504353962,82.12467667565939,83.2856040867213
100.0,84.33358982687999,83.73821129888742,84.17166275391891,83.7463016485018,82.66985970771033,83.76909080596724
103.0,84.36692185116051,83.96845083805432,84.40065786069425,84.08432484393325,83.04321286551249,83.99951557966043
106.0,84.23358982687998,83.93513059177982,84.44313939533782,84.04438281351729,83.0341389843786,83.96400098038477
109.0,84.23358982687998,84.03821129888742,84.34313939533781,83.98526041028545,82.94534132662253,83.93640558476532
112.0,83.90076749445562,84.00542400732661,84.11508314243883,83.62566251972146,82.57063948138938,83.67780367214188
115.0,83.6022846139602,83.90231994589774,83.84313939533781,83.42385120851108,82.45581584913396,83.47562713460191
118.0,83.13663575667186,83.56845083805433,83.6,83.24530504353962,82.18207556740474,83.17567995452949
122.0,82.63663575667186,83.23663575667186,83.25742449135815,82.94396845048442,81.9052701905824,82.823773431032
125.0,82.46845083805432,82.93821129888742,82.91442746339747,82.6829480543728,81.68931383773425,82.56192255397966
128.0,82.26845083805432,82.83821129888743,82.7716627539189,82.54165599637156,81.49698589696735,82.40963142616087
132.0,82.20306957104253,82.73821129888744,82.78585448910236,82.64210173162692,81.51969084535645,82.40297164542356
136.0,82.33435140868502,82.80306957104251,82.9,82.78156054014522,81.61544862652005,82.51217604223307
140.0,82.56845083805432,83.03821129888743,83.0716627539189,82.88109801862507,81.73389235029119,82.68575959683776
145.0,82.93513059177982,83.3069050103546,83.5,83.32201851881729,82.03103535539263,83.04957955783165
150.0,83.20306957104252,83.64576719438469,83.84313939533781,83.60368322499001,82.25295452323996,83.34511979258656
155.0,83.63663575667186,84.1053180676647,84.31442746339746,84.16255705027366,82.77484872010146,83.83328997925547
160.0,84.16845083805433,84.5404416794549,84.85742449135815,84.74390544864322,83.36208065307552,84.36673549285692
165.0,84.40306957104252,84.93821129888744,85.1,84.98156054014522,83.66826751412559,84.64959065999936
170.0,84.60306957104252,85.07150800786938,85.3,85.2013709125901,83.90639123793561,84.84583660652851
175.0,84.57150800786937,85.17150800786938,85.35742449135816,85.28156054014522,84.05469725591358,84.91534857852446
180.0,84.47150800786937,85.07150800786938,85.22880715674529,85.24073299106128,84.0840585762912,84.84344576757618
185.0,84.03821129888742,84.77150800786937,84.9288071567453,84.96073004666428,83.87205030734178,84.53866216474538
190.0,83.50690501035459,84.2404416794549,84.4,84.48018335884987,83.4735685767896,84.04220390267993
195.0,82.60690501035458,83.60690501035458,83.70000000000002,83.82018505541588,83.06693203708748,83.38360739459746
200.0,81.5122717831562,83.10306957104252,82.9288071567453,83.14073299106127,82.69316204686416,82.71501122312748
206.0,80.31627940083641,82.53513059177983,82.0716627539189,82.4215496120876,82.34002762625693,82.00847307794382
212.0,79.3096325668162,82.13358982687998,81.31442746339745,81.66395064819497,81.9534029381575,81.38349615873273
218.0,78.88219812790055,81.5669218511605,80.91442746339746,81.02157071745496,81.43390411809906,80.86239012660852
224.0,79.34898359150843,81.03513059177983,80.92979499755904,80.48158184074408,80.53417333806243,80.50521501119687
230.0,80.1096325668162,80.83821129888742,81.30229476693692,80.46670626616768,79.99327139330624,80.56907277951252
236.0,80.69897445130925,80.81227178315618,81.76035311823196,80.81564374029256,79.90552966093804,80.83873588748904
240.0,81.13257218046557,80.94898514879551,82.10229476693692,81.1344168501713,79.93694177167173,81.10517206038301
250.0,81.39897445130926,80.8898285667347,82.30229476693692,81.26374273892972,79.84832339538113,81.21232521748831
258.0,81.49897445130925,80.76096514237182,82.37397253892371,81.22988465408721,79.50001930092368,81.1725419901914
265.0,81.39897445130926,80.49897445130925,82.27525122642456,81.14817140149627,79.29212065792159,81.03298608252933
272.0,81.26096514237182,80.23752777300027,82.18748929892043,81.17336710275492,79.28584075447384,80.9387581953464
280.0,81.1234968506598,80.07662798253905,81.98618450501951,80.99147205224287,79.16283072139694,80.77297381829933
290.0,80.86096514237182,79.64898359150843,81.6861845050195,80.7499316079587,78.92842085023466,80.4811956359909
300.0,80.39897445130926,79.03546263134683,81.4288071567453,80.4899182585337,78.56076559336309,80.10636472707824
307.0,79.82758719283594,78.43546263134682,80.92880715674528,80.03326375905615,77.95859679265119,79.57099173168316
315.0,79.19897445130925,77.8179278976485,80.37166275391891,79.43895501157908,77.2514526833506,78.96067394828789
325.0,78.70963256681621,76.94258273663016,79.9716627539189,78.92870305374572,76.47544578320363,78.39681261742456
335.0,78.28219812790054,76.20330383828929,79.75840584504061,78.63101387317377,75.75836673233934,77.98316872264903
345.0,78.15062128010365,75.77695775614916,79.90229476693692,78.62967066020258,75.26652446276081,77.88846848484205
355.0,78.48382334167596,76.18888863538652,80.20229476693693,78.70215233668895,75.2439372548556,78.12241454905374
365.0,78.74293979360189,76.92990957385143,80.5861845050195,79.32072756110057,75.2845113735583,78.54815292145562
375.0,78.78382334167596,77.39179815677409,80.74313939533782,79.81147928968598,75.1859733506401,78.78346094654026
387.0,78.66726558859611,77.3260245235669,80.81508314243884,79.85353131734412,75.22486345567847,78.78788201357477
400.0,78.77584607527146,77.5033038382893,81.08748929892042,80.08514494253302,75.55728976696919,79.01022954404267
412.0,79.08538710465898,77.70330383828929,81.32979499755905,80.32796736189015,75.82033303150943,79.26142406622975
425.0,79.21832544184971,77.92602452356691,81.63175513861907,80.67331519860934,76.34467462296995,79.5523736648585
437.0,79.22875610128315,77.95865724017871,81.68748929892041,80.82895607929154,76.80261670898084,79.66268317971051
450.0,78.92602452356691,77.62602452356691,81.53175513861908,80.68088975309382,76.79035997300589,79.47435953658072
462.0,78.40473949550548,76.69430744544664,81.31998423401443,80.33908900152569,76.53026134165816,79.08045932405787
475.0,78.28888863538651,75.76226370149554,81.29366590096781,80.03515746518616,76.33194444078363,78.84920987105428
487.0,78.54577223479652,75.1719180290656,81.59366590096782,80.01840832391775,76.40833963920086,78.95353937009267
500.0,79.00851320750932,74.75294610827886,82.0677916354448,80.09024165946713,76.47045869976488,79.21072965923805
515.0,79.57625435142637,74.5292687324425,82.5136394060688,80.02093600047834,76.15266146142602,79.43676261132595
530.0,79.30722706905571,75.10922325566852,82.81998423401444,80.32702608319532,75.62918583210973,79.5759010515028
545.0,78.72672208916904,76.36049414662607,82.94675150375355,80.66688817178077,75.34725930753632,79.69222203931281
560.0,79.05872457742296,77.30095746985177,83.20229476693692,81.15291469527087,75.36201458635705,80.0693231142514
580.0,79.8844476236301,78.00669030042278,83.5861845050195,81.74654061173118,75.73397962933993,80.61359242033828
600.0,80.10921140720404,78.1735575855346,83.68585448910238,82.29309754365752,76.29510571117449,80.89226674486972
615.0,79.46493035341094,77.61861981293832,83.38651449586095,82.54194280875673,76.69843987848222,80.72329173978514
630.0,78.47569581518242,76.64972392340529,83.01608174351878,82.64153955886721,76.82310755564068,80.40395353187371
650.0,77.15684436552907,75.29168843870094,82.20230990919568,82.17429381985328,76.27401976926045,79.6304250640338
670.0,75.74264771893206,72.45934253122257,81.04413156679159,81.10064203016394,74.88870874062535,78.35033646551459
690.0,76.67951478283851,72.70062351149433,80.78618450501949,80.88529588162535,74.53616517649387,78.27436604534098
710.0,78.3412772730039,74.26580448223986,81.1861845050195,81.54045826023432,75.37080068015985,79.06746859434647
730.0,79.063480322381,73.66227233162624,80.81508314243884,81.25741408792433,75.16612265227339,78.93120619648016
750.0,78.24010271092207,71.4291163527005,80.31998423401444,80.58409661961431,74.74150323860633,78.22712239844394
775.0,77.71145938100321,69.90969604679375,81.00126136965906,80.79328383408013,75.65116635096612,78.47007248228084
800.0,77.75299799878154,68.73000009243013,82.15121482311348,81.19419323982527,76.59455677335703,79.12198464361009
825.0,77.21399508116124,67.40967606994312,82.37455785944567,80.98423907884771,76.5222749847174,79.04453005268977
850.0,76.41572115435795,65.4151572618204,82.39320444173501,80.06692173575642,75.94616683292429,78.59343565954791
875.0,75.93221190388773,63.68239860760774,82.59888657798578,79.51975873243208,75.41436986362038,78.42325153586849
900.0,75.12537966779782,62.43322893798043,82.65990168395999,79.2067588508242,75.04022371710457,78.24803096122471
925.0,74.65458395251906,63.765977376566866,82.42704732000148,78.24524492570491,74.04923683109409,77.76145180670683
950.0,74.43581316523806,65.83384639791802,82.1822374978443,77.7806665508451,73.28420253540452,77.45345916150059
975.0,74.5568645104624,65.5912022555899,81.8866419148176,77.51175261125915,73.06078509703721,77.2132427395569
1000.0,73.84740889745356,64.13409793535132,81.74235653127141,77.6571270119792,72.88134940740208,77.05733001284074
1030.0,72.91990364870952,64.27781082553521,81.65251964068126,77.66915144577167,72.67865349657038,76.91197448633383
1060.0,72.55997771661912,63.28852161212673,81.64865957364795,77.53076941887502,72.19499932978849,76.80418431845337
1090.0,71.47181897688273,64.30814994938132,81.70489499373622,77.98999864724564,72.35252399510708,76.90103749550843
1120.0,69.79388161721475,65.46994067853264,81.87525122642457,78.18222168545292,72.45558550852677,76.99773570220415
1150.0,69.41838321678615,64.84993472601855,81.96035311823195,78.69757505415778,72.09270884983661,77.14549442330757
1180.0,68.59857570373187,63.789104805610066,81.54865957364794,78.37324114600983,71.72128734399439,76.74129676585159
1220.0,65.66578846956871,64.71664590330461,81.1861845050195,78.61188092425381,72.11109054070982,76.56974241836411
1250.0,66.02149085387151,64.95522280896297,80.83410976023337,78.24432457931302,71.12090040336015,76.19086731904335
1280.0,65.64520516099381,63.9812384704215,81.04635577779922,78.56818017777121,71.08295852000516,76.39805363001882
1320.0,65.38120401425273,63.86630176858168,81.07118930448192,78.10543667866423,70.5378633703431,76.228893675303
1360.0,65.30259668918202,65.19618707170915,81.3074800989159,77.81514603049892,70.20044741063741,76.289333144817
1400.0,66.95040795355233,65.78701308799668,81.40748009891588,77.41239869876213,69.86946265373278,76.27031795091756
1450.0,69.69919162048433,67.08432301815655,81.43871757721682,76.80495775591734,69.22754152256192,76.2325698445136
1500.0,71.57569731587247,67.80227716961086,81.66554496792102,76.83602266918507,68.86146136595963,76.49529701732028
1550.0,73.19148392197819,67.99426101777703,81.56301220938268,76.74148679661165,68.04951772048476,76.51425002937256
1600.0,73.73508614678238,67.64950250354875,81.13516047995819,76.7396230546787,68.32735429587052,76.3008339101261
1650.0,74.60851320750932,66.85538847472371,80.69867242696347,76.24403548495252,68.00286201875838,76.01242734484286
1700.0,75.12680426515608,66.29901984592836,80.76761108534184,76.10573265888584,67.29917273126406,76.07066275387734
1750.0,75.54695079289986,65.59358366340625,80.74855905798715,76.12256234575545,66.78098506905732,76.1070024572996
1800.0,76.01210644697298,65.24807628641102,81.00343598990847,76.35027458538742,67.84569000945547,76.40493682757695
1850.0,77.09417633457007,65.08114494036052,81.34636972502742,75.8989741192216,67.38931922310388,76.72395039112445
1900.0,77.45327412490555,64.9719640941867,81.55923203800299,76.04641368407457,67.00890635834325,76.94128300595253
1950.0,77.63916927982258,62.42911870603194,81.66690313153269,76.1482559292481,66.91532449042472,77.03654230258556
2000.0,77.15950118286443,61.56588846059688,81.41524306835863,75.3460615969397,66.285862182785,76.63605143621226
2060.0,76.58151438581939,63.04197022557483,80.81116232390065,75.01617070507949,65.89992932131585,76.1001311767747
2120.0,76.24092974403834,62.6995881501762,80.57118930448192,74.697843237361,65.7179436722471,75.82581397590252
2180.0,75.96613617392299,64.60524403427999,80.75035970894164,74.29440390908508,65.08987828572783,75.82877023123827
2240.0,75.5353698124408,63.03517618282703,80.41018325240991,74.44223916539,65.07492041581527,75.53195783248727
2300.0,75.35150759847329,63.532994897033404,80.09064436625222,73.87464647332592,64.94209870524506,75.21603973427685
2360.0,75.04087012037897,63.023892244245175,80.18269697594226,73.94081149041278,64.86825863437838,75.21324256020398
2400.0,74.58511751852407,60.66194867563766,80.1876285233883,73.91433611879948,64.74278643140406,75.10357241255085
2500.0,73.9351985766087,62.66194697319561,80.06218600819972,73.90046518187383,64.98709799457933,74.93423169121128
2580.0,73.28717077351371,61.14588560685647,79.53763373458919,72.99508681079557,64.48722946013459,74.32197528625028
2650.0,72.76649711829727,59.95949644905792,79.12914789453237,72.61208370614007,64.06927983608665,73.8926996990083
2720.0,72.23812918061951,59.66526111339766,78.49838407543666,72.22501673601998,63.64307594902928,73.32202954151055
2800.0,71.7491838433631,61.51173806284328,78.08093929731282,71.73371437321765,63.23114819753302,72.90787927588727
2900.0,71.28178494023457,60.5595316600418,78.04883108815645,71.80110723228591,63.20972577186285,72.81548294573845
3000.0,70.71689875606222,61.4778308059457,78.00125067607755,71.69626907309096,62.970000071776084,72.69858109697252
3070.0,69.15382309185787,64.28204905670954,77.58844499392838,71.72877584466177,63.130953444313946,72.31708841707025
3150.0,68.49579688779124,66.00324612052704,77.9727726297096,72.4871130818778,63.972553015221706,72.7408497574857
3250.0,69.69346852360752,65.98573781157954,78.12295739867847,73.21027075277449,64.6667270553599,73.09908031521442
