Freq "Estimated In-Room Response"
22.4 35.24170523707579
23.0 36.76175313075305
23.6 38.22792851686904
24.0 40.14709308193147
25.0 41.907438746058176
25.8 43.758355852697065
26.5 45.45396003992158
27.2 47.12884712087501
28.0 48.69405879216916
29.0 50.53233364259336
30.0 52.215005344702746
30.7 53.83375147987982
31.5 55.257951819418
32.5 56.55504587043987
33.5 57.80218702519099
34.5 59.060806998764264
35.5 60.279770965303726
36.5 61.12965272423668
37.5 61.89583399901798
38.7 62.665312515145956
40.0 63.37588655144674
41.2 64.1014695515064
42.5 64.73586231769136
43.7 65.28710019830774
45.0 65.91084374139187
46.2 66.60088441003701
47.5 67.03513992244544
48.7 67.5043424421844
50.0 67.99762593768835
51.5 68.25826113124754
53.0 68.43770730064863
54.5 68.67899270980759
56.0 68.74747616819474
58.0 68.77077085732687
60.0 68.76566257398136
61.5 68.6840506615088
63.0 68.48485945969145
65.0 68.22169099710612
67.0 67.93145709178546
69.0 67.60973479243336
71.0 67.08687379987646
73.0 66.67956803866383
75.0 66.46054282263623
77.5 66.47950612373698
80.0 66.92762455280061
82.5 67.73015737135596
85.0 68.82419507697554
87.5 70.13629084315104
90.0 71.52478068199991
92.5 73.04147722401952
95.0 74.47329042815056
97.5 75.89165120098345
100.0 77.34396305291952
103.0 78.73320361036215
106.0 80.04513469621536
109.0 81.19585180730658
112.0 82.20147017168762
115.0 82.96913411067601
118.0 83.60498815406447
122.0 83.98072012126728
125.0 84.27786944932943
128.0 84.42805160574751
132.0 84.76175968872177
136.0 84.86387215469345
140.0 84.99719417263753
145.0 85.18653324575767
150.0 85.25858794359357
155.0 85.35260296823638
160.0 85.4539248263945
165.0 85.4524661978077
170.0 85.47642872373184
175.0 85.51442746230602
180.0 85.59406282134609
185.0 85.60903520962762
190.0 85.79662663138004
195.0 85.71269658081414
200.0 85.5927457580145
206.0 85.38689381843642
212.0 85.05487357123707
218.0 84.72783807685056
224.0 84.3941097005289
230.0 84.22657684342659
236.0 84.2900561481718
240.0 84.5779878570501
250.0 84.52267126051649
258.0 84.25214950083763
265.0 83.82665078681136
272.0 83.80523452124444
280.0 84.0147203118407
290.0 84.39526781454936
300.0 84.7735948611043
307.0 85.28014206612933
315.0 85.80092627747581
325.0 86.2613740960233
335.0 87.3642167314874
345.0 87.68217500037713
355.0 87.77552396008485
365.0 88.12802484562265
375.0 88.59220516453145
387.0 88.48610182012567
400.0 88.61491605074015
412.0 87.9567487895392
425.0 89.34875026660286
437.0 89.12952719799323
450.0 88.38080202513001
462.0 88.73704841696588
475.0 88.20633170689533
487.0 87.64664000625368
500.0 87.15492399495167
515.0 88.3543009984725
530.0 86.19123652257679
545.0 84.69547741682855
560.0 85.39391351482755
580.0 84.98811448830017
600.0 84.29793273823336
615.0 83.10592924940238
630.0 82.01721314477773
650.0 81.4881494562024
670.0 79.88877979487049
690.0 79.59395323296394
710.0 80.41294691481549
730.0 80.32744354430767
750.0 80.11907866993388
775.0 79.05815374515271
800.0 78.80842390511057
825.0 78.67929402204635
850.0 78.39472483899549
875.0 79.76341365275448
900.0 79.34190135859018
925.0 80.32534362196594
950.0 79.61268401193801
975.0 79.82733632360583
1000.0 79.70098206055556
1030.0 80.81842713774827
1060.0 81.96338845527403
1090.0 80.46397282087648
1120.0 78.97165623884285
1150.0 80.02257148133758
1180.0 80.84527070617436
1220.0 80.61140042771947
1250.0 78.15144397015189
1280.0 78.85128600742739
1320.0 81.05308557135982
1360.0 79.71620587061423
1400.0 78.42779768995717
1450.0 78.5683005678384
1500.0 77.10679824824632
1550.0 75.74077221158069
1600.0 76.6988141846995
1650.0 74.73999977999783
1700.0 73.33437237680138
1750.0 74.78366466707246
1800.0 73.12569751843458
1850.0 74.60550404981802
1900.0 76.49510629641249
1950.0 76.86269191225485
2000.0 78.57988785136305
2060.0 77.03358602688698
2120.0 79.33462250065966
2180.0 76.20213452608564
2240.0 76.5159150264426
2300.0 73.66948924062287
2360.0 75.50152371627088
2400.0 72.72156980046259
2500.0 73.97995611065888
2580.0 73.505369106419
2650.0 74.3128670847467
2720.0 74.15158234157482
2800.0 71.55546818921547
2900.0 73.92131521214993
3000.0 75.2325380997697
3070.0 73.15082762932853
3150.0 73.40657801391582
3250.0 74.27170285092492
3350.0 74.44577041252188
3450.0 73.51330919355856
3550.0 73.50841947018631
3650.0 76.00199649331081
3750.0 76.85703264721053
3870.0 76.95620393676788
4000.0 76.31551229529552
4120.0 74.62498814886712
4250.0 73.63317300665503
4370.0 74.62151904399677
4500.0 74.17260349481498
4620.0 73.898320106181
4750.0 74.06943423314385
4870.0 73.43024619721601
5000.0 72.72743773513575
5150.0 71.83850772832415
5300.0 73.07943306301954
5450.0 71.56304503775304
5600.0 71.83258650749859
5800.0 73.81044096403551
6000.0 75.41986855352224
6150.0 76.14394575365591
6300.0 73.79924668319596
6500.0 75.19918285535321
6700.0 76.61160475366626
6900.0 78.03579659718552
7100.0 78.94657169121231
7300.0 77.25626401218852
7500.0 77.74746696644846
7750.0 77.65612444472119
8000.0 77.34081300188906
8250.0 76.90446485008854
8500.0 75.18588690551464
8750.0 74.5695207589816
9000.0 75.91335921624591
9250.0 78.63762012980551
9500.0 79.32507209578384
9750.0 79.18678693864842
10000.0 78.70493914455952
10300.0 79.088207507383
10600.0 80.43445535363503
10900.0 79.89792807140188
11200.0 80.92143994500641
11500.0 75.26786030310201
11800.0 76.82805085542257
12200.0 77.19886217726669
12500.0 76.01112113996743
12800.0 70.8588683933771
13200.0 73.91136169817807
13600.0 75.28760580553592
14000.0 74.4317953433578
14500.0 75.3481722392534
15000.0 77.07315565040614
15500.0 79.78348451422066
16000.0 77.87706341896344
16500.0 74.7943691880563
17000.0 74.39574587961745
17500.0 74.04255899793868
18000.0 69.95169130586729
18500.0 70.56900348319554
19000.0 68.44485553143174
19500.0 65.88703820493302
