Freq "Estimated In-Room Response"
20.0 27.70765037943967
20.2909 28.172713543373263
20.586 28.62391526626284
20.8855 29.06194432878904
21.1893 29.48909764070531
21.4975 29.914450305434187
21.8102 30.35042699892098
22.1274 30.80346683403782
22.4492 31.27812414441449
22.7758 31.773503292754825
23.1071 32.283467716679766
23.4432 32.80135010942483
23.7841 33.31925465837266
24.1301 33.83059009900781
24.4811 34.3319543807189
24.8372 34.8207466025582
25.1984 35.30006330775136
25.5649 35.7739837427349
25.9368 36.24670713289758
26.3141 36.72183159383495
26.6968 37.19992099459465
27.0851 37.68034052444473
27.4791 38.161475021693676
27.8788 38.64170372624589
28.2843 39.12060880096
28.6957 39.59873648501126
29.1131 40.077333121662875
29.5365 40.55696114618313
29.9661 41.03730515597253
30.402 41.5164840917394
30.8442 41.99264508184079
31.2929 42.46510245912624
31.748 42.93267426108456
32.2098 43.396401393290844
32.6783 43.85881395092362
33.1536 44.32188990085858
33.6359 44.79061417521301
34.1251 45.26953629816863
34.6215 45.76623009043432
35.125 46.28085903407445
35.6359 46.80730107891087
36.1543 47.33751998381199
36.6802 47.86628674559388
37.2137 48.389223266762784
37.755 48.90635361562208
38.3041 49.41947446749262
38.8613 49.931099430431445
39.4265 50.44056844452861
40.0 50.94844198984407
40.5818 51.45577289014928
41.1721 51.96469936855151
41.771 52.475291076036925
42.3785 52.985551123456645
42.9949 53.491469988347205
43.6203 53.9887033808549
44.2548 54.47493256742594
44.8985 54.94959620661862
45.5515 55.41494310040379
46.2141 55.876201789945384
46.8863 56.33823160393554
47.5683 56.80437479433648
48.2602 57.27587945172908
48.9621 57.75197425079364
49.6743 58.230787493114335
50.3968 58.71020864728125
51.1299 59.18813953631003
51.8736 59.662686589744965
52.6281 60.1323584754992
53.3936 60.59654851623982
54.1702 61.054895940206606
54.9581 61.50694116722666
55.7575 61.95228974543157
56.5685 62.391470714555865
57.3914 62.82405513922545
58.2261 63.24904899505307
59.073 63.66618077239198
59.9323 64.07380696355875
60.804 64.47095548427679
61.6884 64.85789667963688
62.5857 65.23598750515465
63.496 65.60458654848982
64.4196 65.95988965994889
65.3566 66.29992817871808
66.3073 66.62668443436657
67.2717 66.94214206532857
68.2502 67.249808996804
69.2429 67.55168491801045
70.2501 67.84550539900754
71.2719 68.12384585305485
72.3086 68.38155106908553
73.3603 68.61903812233503
74.4274 68.83891065719864
75.5099 69.04507417019947
76.6083 69.24107677615953
77.7226 69.42681129232481
78.8531 69.6010070995407
80.0 69.76209583824195
81.1636 69.9103216022574
82.3442 70.04754241093595
83.5419 70.17425295063846
84.757 70.29008038059719
85.9899 70.39578119362349
87.2406 70.49119358358051
88.5096 70.57717781376313
89.797 70.65603990199979
91.1031 70.72977195277156
92.4282 70.8008884125207
93.7726 70.86719280252919
95.1366 70.92696574107643
96.5204 70.98102243857187
97.9243 71.02841488482419
99.3486 71.06882327044855
100.794 71.10308612244084
102.26 71.13208636559533
103.747 71.15707229734461
105.256 71.180132437934
106.787 71.2033619674128
108.34 71.2247409930823
109.916 71.2406117699103
111.515 71.24909270043368
113.137 71.2496420506015
114.783 71.24584499804536
116.452 71.24228899988874
118.146 71.23981989210941
119.865 71.23592133435726
121.608 71.22653723660237
123.377 71.20945643231745
125.171 71.18635165579273
126.992 71.16108305673205
128.839 71.13770267067237
130.713 71.1181463160191
132.615 71.10098357782309
134.543 71.08316620188536
136.5 71.06198745308104
138.486 71.03777995264655
140.5 71.0128348754928
142.544 70.98810155342257
144.617 70.96574468252521
146.721 70.94723354763107
148.855 70.93077399563421
151.02 70.91477251727714
153.217 70.89655440937068
155.445 70.8751533630231
157.706 70.84981522918831
160.0 70.8184014595344
162.327 70.7833303423722
164.688 70.74854940123494
167.084 70.71757788866708
169.514 70.69402531659107
171.98 70.6769834800126
174.481 70.66218598750689
177.019 70.64621024589734
179.594 70.62639183467093
182.206 70.60287819199179
184.856 70.57858547820244
187.545 70.55595796763679
190.273 70.53438802259909
193.041 70.51330962153081
195.849 70.49370988098553
198.697 70.47606071514393
201.587 70.45988085895112
204.52 70.44062185501627
207.494 70.41460285069469
210.512 70.38401452376777
213.574 70.35542908153184
216.681 70.33791976069595
219.833 70.33665812946917
223.03 70.34790877511652
226.274 70.36099443057297
229.565 70.36381456787933
232.905 70.35293794694299
236.292 70.33548459476394
239.729 70.3180904697167
243.216 70.30468117198113
246.754 70.29560725003401
250.343 70.28647236058089
253.984 70.275187626294
257.678 70.26719423673144
261.426 70.27142899921678
265.229 70.28621003965813
269.087 70.30076322295383
273.001 70.30472310066536
276.972 70.2895442955625
281.0 70.26138027412995
285.088 70.23922270199814
289.234 70.2345105052834
293.441 70.2483275245164
297.709 70.26772589841137
302.04 70.27506825498915
306.433 70.26608519056441
310.89 70.24568422516198
315.412 70.22267895315233
320.0 70.20933229697535
324.655 70.20573822969669
329.377 70.20241318472071
334.168 70.19543356666122
339.028 70.17708497906078
343.959 70.14388169696191
348.962 70.10625034327155
354.038 70.06993858976752
359.188 70.0308230525437
364.412 69.99595250854236
369.713 69.97093161166615
375.09 69.94624048008781
380.546 69.9199203765931
386.081 69.8954809394027
391.697 69.86823809519112
397.394 69.83073176448293
403.175 69.77389053510565
409.039 69.70564951677136
414.989 69.64576869026904
421.025 69.6030677107129
427.149 69.58881589962121
433.362 69.60661113336631
439.665 69.63817726185931
446.06 69.66363527373386
452.548 69.67073604156342
459.131 69.65290058612091
465.809 69.61698956960622
472.584 69.57843303784183
479.458 69.54633567463982
486.432 69.52105748841036
493.507 69.49917472668895
500.686 69.4882653513052
507.968 69.49223024332836
515.357 69.49793306110894
522.853 69.50686309835301
530.458 69.52992455232679
538.174 69.56571513269489
546.002 69.61821716467429
553.943 69.6801668934888
562.001 69.73507724353986
570.175 69.7689228271261
578.469 69.76054693750238
586.883 69.71653619644346
595.419 69.66429268271848
604.08 69.61441019803571
612.866 69.57611732710522
621.78 69.55334102683027
630.824 69.53988179813918
640.0 69.53670115475576
649.309 69.54930958551083
658.753 69.56780691145507
668.335 69.57346795263373
678.056 69.56217911147871
687.919 69.53581411365774
697.925 69.52085049834922
708.077 69.55910008130904
718.376 69.59373239003396
728.825 69.50819089537535
739.426 69.38229499238463
750.181 69.32006040072648
761.093 69.30439578468379
772.163 69.30253356915087
783.394 69.3066146105715
794.789 69.3002599324478
806.349 69.27851375659603
818.078 69.25107388816465
829.977 69.21784209117133
842.05 69.19338076632225
854.298 69.19653410127015
866.724 69.21619113869595
879.33 69.24286143515654
892.12 69.27616185901111
905.097 69.29641080309094
918.262 69.285869663013
931.618 69.26098642407884
945.169 69.24529221768682
958.917 69.24623590519555
972.864 69.27166074420263
987.015 69.30722059192885
1001.37 69.33151688999794
1015.94 69.3427263894829
1030.71 69.33154449973183
1045.71 69.29381453832382
1060.92 69.24198140727813
1076.35 69.16731160067637
1092.0 69.04575858141327
1107.89 68.90162114208596
1124.0 68.7882716704898
1140.35 68.72845973874664
1156.94 68.73043493263667
1173.77 68.78438643999489
1190.84 68.826806404218
1208.16 68.82679870084088
1225.73 68.81622794827658
1243.56 68.80194305577946
1261.65 68.78987399426087
1280.0 68.80728342290813
1298.62 68.83067416667126
1317.51 68.85858481153925
1336.67 68.88597142278981
1356.11 68.87945501048519
1375.84 68.85645278682965
1395.85 68.81713588017395
1416.15 68.75726789528163
1436.75 68.71195110137982
1457.65 68.67661080814707
1478.85 68.6610194882616
1500.36 68.67118093393388
1522.19 68.7011388912881
1544.33 68.7651906513146
1566.79 68.83679033698478
1589.58 68.89946787450606
1612.7 68.94319813193319
1636.16 68.94858050637933
1659.95 68.93722220313238
1684.1 68.89196883591919
1708.6 68.82482622920703
1733.45 68.74462599525232
1758.66 68.63655113287176
1784.24 68.51568615526183
1810.19 68.4095693158102
1836.52 68.33298984765567
1863.24 68.30199296625777
1890.34 68.32183235965002
1917.83 68.41034091967059
1945.73 68.53454920904693
1974.03 68.66159441890426
2002.74 68.7566307587578
2031.87 68.78631235780604
2061.43 68.76044992023303
2091.41 68.70094739501714
2121.83 68.61999397369247
2152.69 68.54631257052255
2184.01 68.49588125511994
2215.77 68.46398664035767
2248.0 68.43111871999226
2280.7 68.41939064375366
2313.87 68.44287558379988
2347.53 68.46135306692413
2381.68 68.47626293141188
2416.32 68.48213941988222
2451.46 68.45896911761089
2487.12 68.42174952258382
2523.3 68.39561482290956
2560.0 68.38934791482832
2597.24 68.40517603980801
2635.01 68.42366661370954
2673.34 68.4287734369067
2712.23 68.40629999839132
2751.68 68.35636220851543
2791.7 68.3064562013264
2832.31 68.26584495123429
2873.5 68.24801881442309
2915.3 68.27751491370363
2957.7 68.33598513826787
3000.72 68.39885185418817
3044.37 68.43031237662541
3088.65 68.36667507383585
3133.58 68.22209121382237
3179.16 68.29610778219377
3225.4 68.3070690033545
3272.31 68.2315224922318
3319.91 68.1630883749754
3368.2 68.14401762023076
3417.19 68.18528038623415
3466.89 68.25835798052441
3517.32 68.3207766942618
3568.48 68.33889410846366
3620.39 68.30908413344997
3673.05 68.26110318757895
3726.47 68.22799170319189
3780.67 68.22898160921007
3835.67 68.25005438511012
3891.46 68.26480976134884
3948.06 68.24936555904914
4005.49 68.20948377614677
4063.75 68.16729011352695
4122.86 68.13333137750315
4182.82 68.10870979316432
4243.66 68.07855838321471
4305.39 68.02752129832052
4368.01 67.98042940131833
4431.55 67.94678122682907
4496.01 67.9198209842335
4561.4 67.90436844953663
4627.75 67.87682283560814
4695.06 67.82918331928646
4763.35 67.77617733390737
4832.64 67.7364582128599
4902.93 67.7262809089527
4974.24 67.74901880474314
5046.6 67.801016825129
5120.0 67.87032464291711
5194.47 67.9381960589822
5270.03 67.98087202461487
5346.68 67.97509127974634
5424.45 67.92060940298856
5503.35 67.83635961158606
5583.4 67.74193191490392
5664.61 67.65311553817395
5747.01 67.55755160212645
5830.6 67.4500802337658
5915.41 67.35362137354475
6001.45 67.27811386468974
6088.74 67.22076675417037
6177.3 67.17919323120691
6267.15 67.15455087299829
6358.31 67.14800901204225
6450.8 67.1678657727842
6544.62 67.20711510812912
6639.82 67.24589753837505
6736.4 67.2818107093674
6834.38 67.30709268659076
6933.79 67.32365850627976
7034.64 67.35680783418027
7136.96 67.39552908327093
7240.77 67.43304415442437
7346.09 67.48455060121609
7452.94 67.51830310229192
7561.35 67.523401287178
7671.33 67.52356269646536
7782.91 67.50078937894014
7896.12 67.45627547871926
8010.97 67.4019866405478
8127.49 67.33193654968456
8245.71 67.26851212832887
8365.65 67.20011757351133
8487.33 67.10804627117763
8610.78 67.0145406509992
8736.03 66.93753627816922
8863.09 66.8862732580112
8992.01 66.85833328376937
9122.8 66.86109671053467
9255.5 66.9093722153055
9390.12 66.95868069976565
9526.7 66.9818115964781
9665.27 66.98170075024814
9805.86 66.9455477389068
9948.49 66.87209929422858
10093.2 66.79654100647515
10240.0 66.76653990860609
10388.9 66.80420759357499
10540.1 66.87487079198452
10693.4 66.975380852377
10848.9 67.07278411344329
11006.7 67.14303292693585
11166.8 67.1842977189122
11329.2 67.21102596967332
11494.0 67.20918192989605
11661.2 67.17821500945232
11830.8 67.14005427084491
12002.9 67.08934043974169
12177.5 67.02799365901224
12354.6 67.0215198964333
12534.3 67.07513367060561
12716.6 67.17692224818991
12901.6 67.22618172201244
13089.2 67.09967882815374
13279.6 66.9535309272315
13472.8 66.86790535703233
13668.8 66.80695881628219
13867.6 66.79161251390934
14069.3 66.76816297274132
14273.9 66.7499688587127
14481.5 66.73539078708455
14692.2 66.70272420722323
14905.9 66.68007943009174
15122.7 66.65044532624184
15342.7 66.63956380498838
15565.8 66.65507994734841
15792.2 66.69179007455661
16021.9 66.7642224164925
16255.0 66.84580389943572
16491.4 66.93659078289637
16731.3 67.02593720075085
16974.7 67.10256803481845
17221.6 67.1735592905321
17472.1 67.22376233995034
17726.2 67.25984663895059
17984.0 67.2797243491915
18245.6 67.2861887572478
18511.0 67.29486540526834
18780.2 67.31018521313949
19053.4 67.34394513185609
19330.5 67.41600734815756
19611.7 67.53005036822324
19897.0 67.70359331109967
