Freq "Floor Bounce"
22.4 -60.23601954167043
23.0 -56.41189037748492
23.6 -53.32633810569888
24.0 -51.240503550942066
25.0 -50.37397225487018
25.8 -49.119424589933004
26.5 -49.722405872502065
27.2 -50.7523655760707
28.0 -46.95774340451274
29.0 -43.77035504644434
30.0 -42.00527782349528
30.7 -42.092085627673896
31.5 -41.31385596876592
32.5 -39.815421459661366
33.5 -40.13606101284171
34.5 -38.51126648611631
35.5 -36.97433771463648
36.5 -36.51471253242926
37.5 -34.540937363424916
38.7 -30.92117317769123
40.0 -28.09445049661042
41.2 -23.44196477849738
42.5 -18.898097645001513
43.7 -13.865475846065237
45.0 -8.04352005338393
46.2 -2.517801872099426
47.5 3.9389775745580096
48.7 9.708369338517741
50.0 15.338977574558015
51.5 20.904735301185724
53.0 26.418448167150984
54.5 30.476436178252072
56.0 32.92812233674837
58.0 35.13469773360896
60.0 37.417927897648525
61.5 39.68888547155001
63.0 42.10473530118574
65.0 45.1240248702602
67.0 48.753809743594445
69.0 52.34680983520815
71.0 56.00934661896389
73.0 60.309346618963886
75.0 64.14136150423587
77.5 67.87314211136085
80.0 71.73746771551315
82.5 75.00542400732661
85.0 77.77150800786937
87.5 79.97150800786937
90.0 81.47150800786939
92.5 82.5053180676647
95.0 83.13663575667186
97.5 83.43663575667186
100.0 83.33663575667185
103.0 82.73663575667186
106.0 81.66845083805433
109.0 80.50306957104252
112.0 79.60306957104252
115.0 79.30306957104251
118.0 79.57150800786937
122.0 80.17150800786938
125.0 80.6053180676647
128.0 80.8053180676647
132.0 80.7404416794549
136.0 80.47150800786939
140.0 80.24044167945492
145.0 80.2069050103546
150.0 80.37609175449221
155.0 80.70690501035459
160.0 80.9069050103546
165.0 80.8404416794549
170.0 80.57609175449223
175.0 80.24044167945492
180.0 79.9760917544922
185.0 79.9760917544922
190.0 80.14576719438469
195.0 80.28219967332305
200.0 80.28219967332305
206.0 80.21592692226706
212.0 80.18219967332305
218.0 80.35260953202219
224.0 80.75260953202218
230.0 81.06096514237183
236.0 81.16096514237182
240.0 80.92758719283592
250.0 80.39897445130926
258.0 79.79897445130925
265.0 79.30963256681619
272.0 79.1096325668162
280.0 79.38219812790055
290.0 79.88219812790057
300.0 80.55521969308379
307.0 81.15521969308381
315.0 81.39506458035831
325.0 81.1950645803583
335.0 80.90942248426019
345.0 80.67641629732152
355.0 80.48382334167594
365.0 79.98382334167596
375.0 79.25866027600834
387.0 78.13392832814567
400.0 77.03392832814568
412.0 76.7517743753474
425.0 76.8944886893229
437.0 77.38161208533421
450.0 77.87100612011481
462.0 78.39430744544666
475.0 79.01904449785343
487.0 79.65648313414827
500.0 80.31664590330462
515.0 80.44127727300389
530.0 80.28838259233902
545.0 79.99099930883406
560.0 79.81923785438674
580.0 80.20032062204595
600.0 80.54264771893205
615.0 80.56882143514852
630.0 80.0133573915258
650.0 78.85904530613341
670.0 78.00586825843149
690.0 78.34321526348383
710.0 79.45592043373775
730.0 80.65592043373775
750.0 81.25904530613342
775.0 81.05380919627271
800.0 80.2538091962727
825.0 79.5261192625266
850.0 79.10252973822757
875.0 80.0225333388266
900.0 81.263480322381
925.0 81.68382992528652
950.0 82.85522334988609
975.0 84.67215664893682
1000.0 86.21627940083641
1030.0 86.49238414975147
1060.0 85.1295216542878
1090.0 82.72361409713277
1120.0 81.09409265572766
1150.0 80.42006756246181
1180.0 79.54295639276901
1220.0 79.44331750677854
1250.0 80.6552233498861
1280.0 82.28219671845801
1320.0 82.32022160616296
1360.0 81.55017075212571
1400.0 81.20076749445562
1450.0 80.77071732495409
1500.0 80.90906430015984
1550.0 79.48982856673473
1600.0 77.87662798253902
1650.0 77.88219812790055
1700.0 78.47872996753789
1750.0 79.01655999317606
1800.0 78.36726558859611
1850.0 77.02457672584498
1900.0 76.02909084157254
1950.0 75.60123407755883
2000.0 74.48760046288922
2060.0 75.46423314951329
2120.0 76.0978137962719
2180.0 76.53669399809314
2240.0 76.82240726008675
2300.0 77.18493054864311
2360.0 76.40146480937386
2400.0 76.05218761292407
2500.0 76.86382205324668
2580.0 75.71771402261227
2650.0 75.78669081105178
2720.0 75.88836336106192
2800.0 75.12612268388516
2900.0 76.15299525824491
3000.0 77.02199936702111
3070.0 78.32680426515608
3150.0 77.72057765478033
3250.0 78.05002917385903
3350.0 77.6370245814502
3450.0 79.2261903437016
3550.0 80.23115197647016
3650.0 80.37871447131494
3750.0 79.98838259233902
3870.0 79.18866490030832
4000.0 79.24225659548726
4120.0 80.43343138328552
4250.0 79.7029747184299
4370.0 77.41880029772832
4500.0 78.02347613728205
4620.0 78.75050718524295
4750.0 77.47295409049298
4870.0 78.13674241995145
5000.0 79.0434804550554
5150.0 77.20704003632972
5300.0 76.78838259233902
5450.0 79.44171952330976
5600.0 79.28512284029163
5800.0 80.28214278682026
6000.0 79.75681158542004
6150.0 77.9050487758408
6300.0 78.37067180400547
6500.0 76.6524019814282
6700.0 76.6170985467846
6900.0 77.07397056210249
7100.0 77.18765756009932
7300.0 76.86935998563676
7500.0 75.47149632823799
7750.0 75.93433045150041
8000.0 76.38196634907521
8250.0 74.7479020678152
8500.0 76.3240678629725
8750.0 76.32638463906275
9000.0 76.25345843440056
9250.0 77.34551019208581
9500.0 76.75648313414827
9750.0 77.04053501177822
10000.0 79.37380242936541
10300.0 81.51657454846323
10600.0 81.66838749126697
10900.0 83.27877114785885
11200.0 84.02269060187876
11500.0 83.75235232565421
11800.0 82.4913198909388
12200.0 81.04281972990213
12500.0 79.73969464565387
12800.0 81.32104166298748
13200.0 82.80306957104251
13600.0 82.80306957104251
14000.0 81.35107010056068
14500.0 83.31410926051761
15000.0 84.6526561043506
15500.0 79.7721853534241
16000.0 78.8382737291891
16500.0 81.63827372918911
17000.0 79.77473898324592
17500.0 74.09346946715667
18000.0 73.19641839113625
18500.0 75.60363821546392
19000.0 59.856384993969
19500.0 60.81043669716277
