Freq "Front Wall Bounce"
22.4 -63.94708888258825
23.0 -60.19922850388866
23.6 -57.178637493573575
24.0 -55.101476537244395
25.0 -54.15686664104885
25.8 -52.69870332971311
26.5 -52.93955498107749
27.2 -53.44153145050012
28.0 -48.85566492437155
29.0 -44.63227562983016
30.0 -41.82503314407049
30.7 -40.82425885990659
31.5 -39.323966591795795
32.5 -37.40903726177862
33.5 -37.798296431983374
34.5 -36.12375113127132
35.5 -34.73342446570874
36.5 -34.5243945217309
37.5 -32.75459593847947
38.7 -29.446721606253476
40.0 -26.88324720309768
41.2 -22.554608886141125
42.5 -18.325497694068076
43.7 -13.641805306182448
45.0 -8.141805306182448
46.2 -3.0254976940681217
47.5 2.9505594713438654
48.7 8.267275513617278
50.0 13.457214011426771
51.5 18.604365519980263
53.0 24.10168159910438
54.5 28.5854136996972
56.0 31.70366126373827
58.0 34.677665538553185
60.0 37.60047149142207
61.5 40.21711721795518
63.0 42.82708673544667
65.0 45.93043112138977
67.0 49.491354585715015
69.0 52.968128377232176
71.0 56.50622238294517
73.0 60.63492999470364
75.0 64.31011033488319
77.5 67.87381140456456
80.0 71.69409301975207
82.5 74.9191767073783
85.0 77.7191767073783
87.5 80.01146633803337
90.0 81.55020927662574
92.5 82.64889591515166
95.0 83.37732374552583
97.5 83.67798370213688
100.0 83.56346416129568
103.0 82.93427863584415
106.0 81.83427863584416
109.0 80.73427863584416
112.0 79.86280199442524
115.0 79.57732374552585
118.0 79.87732374552584
122.0 80.43492999470365
125.0 80.90622238294517
128.0 81.07732374552585
132.0 80.96280199442525
136.0 80.76280199442525
140.0 80.53427863584415
145.0 80.56280199442523
150.0 80.76280199442525
155.0 81.06280199442524
160.0 81.30622238294518
165.0 81.26280199442525
170.0 81.00622238294517
175.0 80.70622238294519
180.0 80.46280199442526
185.0 80.46280199442526
190.0 80.63492999470364
195.0 80.73492999470363
200.0 80.80622238294518
206.0 80.74954508554694
212.0 80.80622238294518
218.0 80.97862853942675
224.0 81.37862853942676
230.0 81.74954508554697
236.0 81.90751852465631
240.0 81.70751852465631
250.0 81.24954508554696
258.0 80.72222599713808
265.0 80.3075185246563
272.0 80.22222599713808
280.0 80.60751852465631
290.0 81.1222259971381
300.0 81.90751852465631
307.0 82.60751852465631
315.0 82.86411115788336
325.0 82.73492999470363
335.0 82.46411115788337
345.0 82.22059990906226
355.0 82.03492999470363
365.0 81.60751852465631
375.0 80.84954508554696
387.0 79.69343400744327
400.0 78.66511177943005
412.0 78.50985789201184
425.0 78.83789074425988
437.0 79.43789074425987
450.0 80.13789074425988
462.0 80.76639046693091
475.0 81.51112347452079
487.0 82.31112347452078
500.0 82.98682768145626
515.0 83.30230047890775
530.0 83.2924006101654
545.0 83.19576628873236
560.0 83.29576628873235
580.0 83.89576628873236
600.0 84.49055843550086
615.0 84.65910993896699
630.0 84.41313379776044
650.0 83.4829167472526
670.0 82.71500910146848
690.0 82.6765305461476
710.0 83.1735615477846
730.0 84.24935632870134
750.0 85.27778115532392
775.0 85.55977588131424
800.0 85.01344799753734
825.0 84.15245097720108
850.0 83.12812748191557
875.0 83.02250719156278
900.0 83.0378536162265
925.0 82.22424878813428
950.0 82.13924446590781
975.0 82.38708495207273
1000.0 83.41163875185339
1030.0 84.16211302381242
1060.0 83.3787796841587
1090.0 81.67414966654043
1120.0 79.97945476343241
1150.0 78.50230156440698
1180.0 78.03876548870304
1220.0 78.73876548870305
1250.0 80.00581777610171
1280.0 81.10581777610172
1320.0 81.2181865605078
1360.0 81.05104092446632
1400.0 81.07945476343241
1450.0 81.3058177761017
1500.0 81.67924003638586
1550.0 80.92812050895192
1600.0 79.47261202881366
1650.0 78.87261202881365
1700.0 79.26869744887209
1750.0 80.29861933942223
1800.0 81.19622495152272
1850.0 81.33301467895427
1900.0 81.07040668314853
1950.0 80.68862919246187
2000.0 79.82027318089843
2060.0 79.64855127172883
2120.0 79.99029969649544
2180.0 80.006382308865
2240.0 80.35620166636913
2300.0 80.80366470173568
2360.0 80.1616785045287
2400.0 80.12611796528535
2500.0 80.98339521253263
2580.0 80.50512642334962
2650.0 79.92970308741045
2720.0 79.29031288635298
2800.0 78.08592535934946
2900.0 78.11293952972355
3000.0 78.90248127028795
3070.0 79.94428895816121
3150.0 79.73443284824234
3250.0 79.80028513356461
3350.0 79.3790043633097
3450.0 81.11407052151365
3550.0 82.24219749732008
3650.0 82.09805435110616
3750.0 81.74258031883959
3870.0 80.98478669436528
4000.0 80.91429252272559
4120.0 82.2024955219184
4250.0 82.34611046350523
4370.0 80.56987474466051
4500.0 81.1117884835929
4620.0 81.61232355421456
4750.0 80.66935848532313
4870.0 81.28816223359163
5000.0 81.63830735007883
5150.0 79.64218538144698
5300.0 80.12469221141137
5450.0 83.6389431788073
5600.0 82.63403246697963
5800.0 83.78836221759964
6000.0 83.83777113012779
6150.0 82.3641729784641
6300.0 83.25031179740664
6500.0 81.22025564287102
6700.0 81.14290402755735
6900.0 81.94574882179882
7100.0 82.72175203045296
7300.0 83.36280486984279
7500.0 82.33039660570475
7750.0 82.8430028521799
8000.0 83.11763182860878
8250.0 81.4663904669309
8500.0 83.16788196852274
8750.0 83.31664777295609
9000.0 82.77752578305578
9250.0 83.00907106137865
9500.0 82.12450452982331
9750.0 82.05375481870227
10000.0 83.56485015244263
10300.0 84.80349355970598
10600.0 85.03235345650089
10900.0 86.66474462056809
11200.0 87.50394226329993
11500.0 87.47667852670638
11800.0 87.1109581320533
12200.0 86.60422877827398
12500.0 85.87807713494746
12800.0 85.24556754894019
13200.0 85.29399948657951
13600.0 85.94157669915613
14000.0 86.79719413465082
14500.0 89.45455528420335
15000.0 88.70329366391154
15500.0 86.91674346333775
16000.0 87.37808092135117
16500.0 87.50142550786626
17000.0 85.76918059329716
17500.0 83.19406522923671
18000.0 80.82725820298494
18500.0 78.23750791209541
19000.0 64.57373607239379
19500.0 66.49730921021958
