Freq "Total Early Reflection"
22.4 -62.076489352272716
23.0 -58.29475053317873
23.6 -55.23601598516484
24.0 -53.18365640663586
25.0 -52.29147771342235
25.8 -50.939737583455496
26.5 -51.40094971796282
27.2 -52.14195156704042
28.0 -47.91942891979079
29.0 -44.04969191209679
30.0 -41.53465583744503
30.7 -40.65972618489684
31.5 -39.01760930748543
32.5 -36.62346502214726
33.5 -36.486223917938446
34.5 -35.33410693837226
35.5 -34.594838946310745
36.5 -34.76518599130941
37.5 -33.209789332621995
38.7 -29.967522716633994
40.0 -27.40128653959931
41.2 -23.059005227972705
42.5 -18.758999903942822
43.7 -13.98423423989425
45.0 -8.384512225614742
46.2 -3.1120403819567457
47.5 3.0662517859981904
48.7 8.593018476030352
50.0 13.988872181604677
51.5 19.372475938419996
53.0 24.877246427403918
54.5 29.106027666868897
56.0 31.868445173732994
58.0 34.48813679553504
60.0 37.18272696272254
61.5 39.67416635807345
63.0 42.22556446551661
65.0 45.3176527701288
67.0 48.90466072466137
69.0 52.426767411657124
71.0 56.01844162680581
73.0 60.202348605091714
75.0 63.927092124200385
77.5 67.57596284173007
80.0 71.40598902915556
82.5 74.64228206507471
85.0 77.42740184978992
87.5 79.69869971011288
90.0 81.21043408631729
92.5 82.29666001621729
95.0 83.00193758824726
97.5 83.30664266711574
100.0 83.20713118583016
103.0 82.59738407500222
106.0 81.51815357338087
109.0 80.36224692593154
112.0 79.49239932829548
115.0 79.20011285238412
118.0 79.45927914719698
122.0 80.00692038795805
125.0 80.46421643812744
128.0 80.65167542313245
132.0 80.57529148115734
136.0 80.35411507744975
140.0 80.13417945507953
145.0 80.13133735602673
150.0 80.29172564370116
155.0 80.59869595648638
160.0 80.79958516902708
165.0 80.74793839257715
170.0 80.51134786177259
175.0 80.18506722166214
180.0 79.92513787883698
185.0 79.90169971799122
190.0 80.01352807320129
195.0 80.1200174436878
200.0 80.12855892999931
206.0 80.08593149547943
212.0 80.08202817251986
218.0 80.20633108634723
224.0 80.56367466827103
230.0 80.87007155890932
236.0 80.97258567839134
240.0 80.72125355718863
250.0 80.18272373221623
258.0 79.57752320650937
265.0 79.06565633963403
272.0 78.89251071212381
280.0 79.16564493975984
290.0 79.64631545645476
300.0 80.31985245069524
307.0 80.93557853031466
315.0 81.17590896530285
325.0 81.0108714454949
335.0 80.71164967003071
345.0 80.48149051758374
355.0 80.27675848661647
365.0 79.8252295236457
375.0 79.05363133747335
387.0 77.88628719204611
400.0 76.8378628734118
412.0 76.60255931916747
425.0 76.86226851270331
437.0 77.41956113617663
450.0 77.99033702835992
462.0 78.54770974201415
475.0 79.23346032219354
487.0 79.91812262044962
500.0 80.54358819494962
515.0 80.7278383190512
530.0 80.58556014836238
545.0 80.36170469548381
560.0 80.31776515186324
580.0 80.8051014862067
600.0 81.3064883835339
615.0 81.44458254077075
630.0 81.18556865818042
650.0 80.21896866799703
670.0 79.43013554504311
690.0 79.45526751047001
710.0 79.96595823236619
730.0 80.92204772931596
750.0 81.70311989380954
775.0 81.76043148507716
800.0 81.07765782962514
825.0 80.17013966623114
850.0 79.22632341028799
875.0 79.43297558326753
900.0 79.93524880928187
925.0 79.63977950107783
950.0 80.19729075345356
975.0 81.6055699237594
1000.0 83.33209305105837
1030.0 84.08763099485239
1060.0 83.13595171129433
1090.0 81.01388070001593
1120.0 79.2761327883624
1150.0 78.40967303331601
1180.0 77.73499073771485
1220.0 77.8138198653721
1250.0 78.83689624805311
1280.0 80.14402472583124
1320.0 80.1387660069711
1360.0 79.51473406641304
1400.0 79.23835532284308
1450.0 79.0051673950087
1500.0 79.31207604841498
1550.0 78.13271389965048
1600.0 76.53001412948979
1650.0 76.17243306030093
1700.0 76.38145898265958
1750.0 77.19589316139096
1800.0 77.62685218816631
1850.0 77.1337899905757
1900.0 76.81029242220606
1950.0 76.26065698209588
2000.0 75.27238895076503
2060.0 75.41883066603603
2120.0 75.59646739564083
2180.0 75.87461475639611
2240.0 75.97119755849981
2300.0 76.5826305909847
2360.0 75.7196887845034
2400.0 75.6405619308348
2500.0 76.31246556623786
2580.0 76.03054714923114
2650.0 75.43123712659039
2720.0 75.50332961026733
2800.0 74.2936707711767
2900.0 75.01394085777281
3000.0 75.86302227594061
3070.0 76.9331972041594
3150.0 76.67153978028398
3250.0 76.83256594842064
3350.0 76.3910680081575
3450.0 78.18981191498392
3550.0 79.16653573504577
3650.0 78.94815685880992
3750.0 78.58386258680986
3870.0 77.83593379011339
4000.0 77.72225795119485
4120.0 78.83310097387111
4250.0 78.63534872243883
4370.0 76.56051526176739
4500.0 77.16324649471997
4620.0 77.85533871979834
4750.0 76.91733231952067
4870.0 77.55708058520976
5000.0 78.12761196650466
5150.0 76.0847130343448
5300.0 75.8580799999946
5450.0 79.13352720276616
5600.0 78.41559725372002
5800.0 79.51510472686223
6000.0 79.42031302077028
6150.0 77.90176329294212
6300.0 78.70304979524067
6500.0 76.96319582566181
6700.0 76.97463988389346
6900.0 77.62366688451925
7100.0 78.13871993626853
7300.0 78.45046334737629
7500.0 77.32687906860815
7750.0 77.81906424853717
8000.0 78.17337363299191
8250.0 76.28396844359983
8500.0 77.97356815834175
8750.0 78.07943783970458
9000.0 77.59716306249005
9250.0 78.16723399722413
9500.0 77.55627918387596
9750.0 77.69811500567477
10000.0 79.4134066368864
10300.0 80.87254702477689
10600.0 81.01166784008343
10900.0 82.61171337713336
11200.0 83.34637262271677
11500.0 83.11363100685435
11800.0 82.51481585865176
12200.0 81.77310538257663
12500.0 81.11512475626034
12800.0 81.31539179410166
13200.0 81.9425768259097
13600.0 82.21092149064557
14000.0 82.14254911992589
14500.0 84.45752216925996
15000.0 84.18137495971013
15500.0 81.86979664433908
16000.0 82.08559908369544
16500.0 82.60034757274653
17000.0 80.74952172791444
17500.0 77.69507528320051
18000.0 75.96659447715733
18500.0 75.2184826639767
19000.0 60.28741330148294
19500.0 61.922521237256376
