Freq "Total Early Reflection"
20.5078 67.14125679693034
21.9727 70.7595477334901
23.4375 73.34509621023913
24.9023 75.6058592015373
26.3672 77.53097199986838
27.832 79.20094741280796
29.2969 81.09982695267
30.7617 82.33735614131434
32.2266 83.4337559249452
33.6914 84.47379753519174
35.1562 85.31685756751389
36.6211 86.16895212694398
38.0859 86.84277441766174
39.5508 87.48315082621771
41.0156 88.07103408720785
42.4805 88.57579369581036
43.9453 89.14330796331942
45.4102 89.34605372128685
46.875 89.61987362415945
48.3398 90.04894101135481
51.2695 90.62842111854897
52.7344 90.97385178848883
54.1992 91.19028871702969
55.6641 91.41404878333084
58.5938 91.79757503173171
60.0586 91.93113374653596
62.9883 92.15458911865842
64.4531 92.30913881460928
67.3828 92.59151434782953
68.8477 92.63888744827095
71.7773 92.633949047092
74.707 92.58935393581493
77.6367 92.45167200341906
79.1016 92.40205269493264
82.0312 92.29511482270583
84.9609 92.32356900864168
87.8906 92.69522563085967
90.8203 92.74002933423381
95.2148 92.37352814088153
98.1445 92.11072368932531
101.074 91.96941621408912
105.469 91.93820438160682
108.398 91.6869488118064
112.793 90.81847260598543
117.188 90.86501905609983
120.117 91.42002464393042
124.512 91.47378560231192
128.906 91.52194117206383
133.301 91.37478645535394
139.16 90.29070565686469
143.555 90.37432599235363
147.949 91.2353657655599
153.809 91.03762411804759
159.668 89.44457893349542
165.527 89.15162081306516
171.387 90.25209053253614
177.246 90.16015870405978
183.105 89.64660442660603
188.965 90.42381599545301
196.289 90.554450502179
203.613 90.13700373016788
210.938 90.57070259812701
218.262 90.2175093860534
225.586 89.2157706505933
232.91 90.03422676787014
241.699 90.29039570310309
250.488 89.47425602066902
259.277 90.62615638379182
268.066 90.06484616135074
276.855 88.7800443810198
287.109 90.17815945788396
297.363 90.6854136951559
307.617 90.946660577115
319.336 89.44447350212339
329.59 90.08883731679465
341.309 89.53967307629175
353.027 90.42875052442034
366.211 90.86619088572942
379.395 90.96841573695865
392.578 90.20577836763196
405.762 90.8223674787822
420.41 90.08831054318874
435.059 90.50878868083106
451.172 89.87724834913313
465.82 89.13107127002075
483.398 90.83616480575853
499.512 90.77978154675968
517.09 91.27286428521555
536.133 90.4979435844917
555.176 89.5223390504045
574.219 89.38543051361597
594.727 88.82465448852398
615.234 87.8819770334417
637.207 87.52653338195505
659.18 87.24941821593738
682.617 86.33122530624856
707.52 87.17399819133728
732.422 87.20119852964051
757.324 87.44334745567559
785.156 88.51290558126506
811.523 89.02365685191377
840.82 89.82176062730277
870.117 90.02021015359074
900.879 89.85238973815828
933.105 89.62026274251086
965.332 89.34331894671045
1000.49 88.78164866742557
1035.64 88.55770932704739
1072.27 88.61849916429651
1108.89 89.17278951269313
1148.44 89.3598333415689
1189.45 89.26986122308257
1230.47 89.20644386939755
1274.41 88.65180160351385
1319.82 88.50901048439555
1366.7 88.83758817400745
1413.57 88.70264629358238
1463.38 88.36853934042043
1516.11 87.90975639020058
1568.85 88.14819056770328
1624.51 88.52905698675254
1681.64 88.38051687458453
1741.7 88.23836873487222
1803.22 88.08562997570331
1866.21 88.74736186029995
1932.13 88.89071176575347
1999.51 88.52608170995245
2069.82 88.62690191889064
2143.07 89.03730472626475
2219.24 88.69837057281337
2296.88 88.32842079304474
2378.91 88.33307741886952
2462.4 88.3921659118774
2548.83 88.20038916253826
2639.65 88.2097959728853
2731.93 87.9755135798235
2828.61 87.9515964937706
2928.22 88.08567376361218
3030.76 88.05315504238949
3137.7 87.850730157262
3249.02 88.48638541880457
3363.28 87.9599744633377
3481.93 88.3920661008434
3604.98 87.9610292503725
3732.42 88.13027253303311
3864.26 87.77950805144418
4000.49 87.86085596168023
4141.11 87.5433101203074
4287.6 87.82884962763147
4438.48 87.63737241838638
4595.21 87.84740184237978
4756.35 87.77905600557087
4924.8 87.8248118249888
5097.66 87.94178784009786
5277.83 87.97556000724248
5463.87 87.9530820713934
5657.23 87.95194513264161
5856.45 87.69337635566713
6062.99 87.11982959494635
6276.86 86.79884927930904
6498.05 86.40723935298686
6726.56 86.08363878237448
6963.87 85.55889987016927
7209.96 85.24418347271808
7464.84 85.5963155114727
7727.05 86.6750687088867
7999.51 87.10371833947679
8282.23 86.97023749969945
8573.73 86.63273814967229
8876.95 86.3307674971829
9188.96 86.10618266765557
9514.16 85.48149669804877
9849.61 83.7745364469522
10196.8 83.45649045328341
10555.7 85.32704775140306
10927.7 86.13313215959441
11313.0 84.93814893848942
11712.9 84.11866114926103
12126.0 83.4001865253306
12553.7 83.34595207939869
12996.1 84.02631315754384
13454.6 85.40430948561796
13929.2 85.93546448187415
14419.9 84.86047587477223
14928.2 82.91176817491267
15455.6 82.6533761623087
16000.5 82.50242290161218
16564.5 82.03246263109459
17148.9 81.99960370193098
17752.4 82.22240131058992
18379.4 81.28114288362404
19026.9 79.85412050556725
19697.8 77.75767660135587
19999.5 76.9758942957307
