Freq,On Axis,Listening Window,Sound Power,Early Reflections,Early Reflections DI,Sound Power DI,DI offset
20.5078,53.182799999999986,53.282133934446335,58.08792548748252,56.232603081331604,37.04953085311473,35.19420844696381,40
21.9727,55.202200000000005,55.25085337925486,58.922518337241456,57.38364136530467,37.867212013950194,36.32833504201341,40
23.4375,55.90299999999999,56.00974812729021,60.77349101308562,58.93874597772617,37.07100214956404,35.23625711420459,40
24.9023,58.62389999999999,58.7103914583879,62.653954249982746,61.03303682054715,37.67735463784075,36.05643720840516,40
26.3672,60.50059999999999,60.588878765829634,64.20884722283134,62.68821907983249,37.90065968599714,36.380031542998296,40
27.832,62.6207,62.70321589713848,65.97970140946374,64.57095519542605,38.132260701712426,36.723514487674734,40
29.2969,64.4354,64.51331937344426,67.52007651572067,66.20009383539241,38.31322553805185,36.99324285772359,40
30.7617,66.33870000000002,66.41248248167169,69.17079137672525,67.93387582802804,38.47860665364365,37.24169110494644,40
32.2266,68.1287,68.20214951059336,70.83538821099074,69.64607181999989,38.55607769059347,37.366761299602615,40
33.6914,69.81470000000002,69.88629986065236,72.35564992025824,71.22705616566785,38.65924369498451,37.53064994039411,40
35.1562,71.354,71.4239801773756,73.78204822265592,72.69204713232699,38.731933045048606,37.64193195471968,40
36.6211,72.8124,72.88107096436318,75.12622907952166,74.07747972917872,38.803591235184456,37.75484188484151,40
38.0859,74.2044,74.27235006439966,76.43279085010946,75.41870982604554,38.85364023835412,37.839559214290205,40
39.5508,75.50969999999998,75.57652702579239,77.64329832449457,76.66618655490599,38.910340470886396,37.93322870129782,40
41.0156,76.5378,76.6038011823575,78.61230279610902,77.65523613047256,38.94856505188494,37.99149838624848,40
42.4805,77.42009999999999,77.48428546343274,79.38531314484192,78.47386393184574,39.010421531587,38.098972318590825,40
43.9453,78.11070000000001,78.17384738308576,80.00989651141498,79.12450954425105,39.0493378388347,38.16395087167078,40
45.4102,78.7502,78.81284412365349,80.59732090534429,79.73527906112062,39.07756506253287,38.2155232183092,40
46.875,79.1162,79.17784003771206,80.91252259642617,80.07070658761522,39.10713345009684,38.26531744128589,40
48.3398,79.44400000000002,79.50506183008014,81.19643942030146,80.37158621366578,39.13347561641436,38.30862240977868,40
51.2695,79.9594,80.01901727574935,81.62595990791888,80.83629518674007,39.182722089009275,38.393057367830465,40
52.7344,80.1731,80.23198240142528,81.80455700212453,81.0297484605846,39.202233940840685,38.42742539930076,40
54.1992,80.3794,80.43774761173937,81.98374123813498,81.22098243589255,39.21676517584682,38.454006373604386,40
55.6641,80.57310000000001,80.63087241591953,82.14602194246015,81.39683132769764,39.234041088221886,38.484850473459375,40
58.5938,80.951,81.00667254307209,82.45000874959919,81.72998891111996,39.276683631952125,38.55666379347289,40
60.0586,81.0852,81.13991597305078,82.55156907772474,81.84328034606996,39.296635626980816,38.58834689532604,40
62.9883,81.31289999999998,81.36771491139892,82.76769991834922,82.06346050402016,39.304254407378764,38.6000149930497,40
64.4531,81.4616,81.51627646170107,82.91414101343031,82.21068797379881,39.305588487902256,38.60213544827076,40
67.3828,81.7947,81.84638144643093,83.14779535946566,82.48481762873597,39.36156381769496,38.698586086965264,40
68.8477,81.96280000000002,82.01391668957429,83.29504769984472,82.64163801525979,39.3722786743145,38.71886898972957,40
71.7773,82.2553,82.30590514810154,83.57555780180553,82.92886961867828,39.37703552942327,38.730347346296014,40
74.707,82.52529999999999,82.57486354516531,83.8222190102474,83.18550988675045,39.38935365841486,38.75264453491792,40
77.6367,82.8357,82.88329505474994,84.07977268126447,83.46512040503163,39.41817464971831,38.803522373485464,40
79.1016,82.9875,83.03387872725305,84.19379802781155,83.59492957085213,39.43894915640092,38.8400806994415,40
82.0312,83.2235,83.26918169459964,84.41332687605974,83.82015173406614,39.449029960533494,38.855854818539896,40
84.9609,83.5921,83.6352523624791,84.71710048033908,84.1498980200017,39.48535434247739,38.91815188214001,40
87.8906,83.7557,83.80050134451233,84.92935421971754,84.34071986025026,39.459781484262066,38.87114712479479,40
90.8203,83.97750000000002,84.01896731091962,85.11214920481811,84.54094851406091,39.478018796858706,38.90681810610151,40
95.2148,84.53999999999999,84.57882669675433,85.53567447428635,85.02539157618207,39.55343512057226,39.04315222246798,40
98.1445,84.70339999999999,84.74635800645456,85.83494416241277,85.26643997819636,39.4799180282582,38.91141384404179,40
101.074,84.6878,84.7296202453208,85.88660543700816,85.28871439200176,39.44090585331904,38.843014808312645,40
105.469,85.2027,85.2354946004209,86.1546104683652,85.66977251500941,39.565722085411494,39.0808841320557,40
108.398,85.4953,85.52667796539974,86.3913843963215,85.92981996358064,39.5968580018191,39.13529356907824,40
112.793,85.8767,85.90549939892571,86.72864748598153,86.28157998859194,39.62391941033377,39.17685191294419,40
117.188,86.0621,86.08864697943092,86.86555350571273,86.44186681087564,39.64678016855528,39.223093473718194,40
120.117,86.2319,86.25827037263757,87.03148581117989,86.60806639575563,39.65020397688194,39.22678456145768,40
124.512,86.477,86.50124560673599,87.24688453696356,86.83058714137478,39.670658465361214,39.25436106977243,40
128.906,86.7421,86.76371033803449,87.45906154705318,87.06207402183767,39.70163631619681,39.304648790981304,40
133.301,86.8322,86.85132793689002,87.49854326765669,87.12077830598224,39.730549630907774,39.35278466923333,40
139.16,86.9863,87.00419323830121,87.65282555406917,87.27625377863842,39.72793945966279,39.351367684232045,40
143.555,87.1073,87.12390402337948,87.74495695946082,87.37398130973465,39.749922713644835,39.37894706391866,40
147.949,87.10759999999999,87.12268484846467,87.77134967522318,87.38207575290215,39.74060909556252,39.351335173241495,40
153.809,87.0812,87.09639672658562,87.7357908861909,87.34968659681101,39.74671012977461,39.360605840394726,40
159.668,87.2129,87.22275133661228,87.88186978607237,87.48416468308562,39.73858665352665,39.340881550539905,40
165.527,87.4565,87.45882261772442,87.98662932579461,87.66161028365255,39.79721233407187,39.47219329192981,40
171.387,87.3719,87.37046756566319,87.78680411554902,87.50628392835831,39.864183637304876,39.58366345011417,40
177.246,87.2912,87.28742022813182,87.66566747752094,87.39124110351784,39.89617912461398,39.62175275061088,40
183.105,87.0486,87.04320415071658,87.53584093081817,87.19833659373,39.84486755698657,39.50736321989841,40
188.965,87.1948,87.18059011651894,87.47705613963855,87.23347952888997,39.94711058762897,39.703533976880394,40
196.289,87.1875,87.16965547186216,87.37731849205323,87.17592275438686,39.9937327174753,39.79233697980892,40
203.613,87.1127,87.0876876261641,87.03422806115925,86.97973619402885,40.10795143213525,40.05345956500484,40
210.938,87.0761,87.05393418492613,87.00619233446058,86.95497577748293,40.098958407443206,40.047741850465556,40
218.262,86.6814,86.6609005196263,86.81114927389801,86.65779330665137,40.003107212974925,39.849751245728285,40
225.586,86.68610000000001,86.65264621614536,86.57239163930552,86.5286965781563,40.12394963798906,40.080254576839835,40
232.91,86.5234,86.49385283561998,86.33089706100142,86.33182859247032,40.16202424314966,40.16295577461855,40
241.699,86.1429,86.11811472374428,86.11820120785391,86.03236787854885,40.08574684519543,39.99991351589037,40
250.488,85.9952,85.96270382938982,85.96327445906876,85.8528370880182,40.10986674137162,39.99942937032107,40
259.277,84.96259999999998,84.9438192923904,85.832258588824,85.28815571375793,39.65566357863247,39.1115607035664,40
268.066,85.2574,85.14247496436298,85.57405392391335,85.22434297770391,39.91813198665906,39.56842104044962,40
276.855,86.8274,86.71725562875301,85.63932957470581,86.09507443812457,40.62218119062844,41.0779260540472,40
287.109,86.82670000000002,86.7117666672348,85.52864069016044,86.04724532991057,40.66452133732423,41.183125977074354,40
297.363,87.2895,87.16751332607237,85.4645743836513,86.2819293544637,40.88558397160867,41.70293894242107,40
307.617,86.75550000000001,86.65427884673247,85.2025419745208,85.89287034992259,40.76140849680988,41.45173687221167,40
319.336,86.7997,86.68288837479172,84.90029010813745,85.76179345275881,40.92109492203291,41.78259826665426,40
329.59,86.7355,86.63183556724002,84.80775483323892,85.70756624614192,40.924269321098095,41.8240807340011,40
341.309,86.4218,86.30418680641493,84.3797468826823,85.30657417355755,40.99761263285738,41.924439923732635,40
353.027,86.1243,86.03762060426274,84.14729232162459,85.0343115299127,41.00330907435004,41.89032828263815,40
366.211,86.6341,86.50458091345703,84.1873354282068,85.316947484524,41.18763342893304,42.31724548525024,40
379.395,86.3269,86.21020084649166,84.08358156209175,85.17147140377858,41.03872944271308,42.12661928439991,40
392.578,86.15380000000002,86.0418705361238,83.6683085852375,84.90025084731437,41.14161968880943,42.3735619508863,40
405.762,85.8447,85.7159036504962,83.15704768517213,84.44974683460774,41.266156815888465,42.55885596532407,40
420.41,86.2631,86.16988240924906,83.57877770969093,84.89277313736441,41.27710927188464,42.59110469955813,40
435.059,86.79999999999998,86.7049473950146,84.23257251455429,85.42756042197966,41.277386973034936,42.47237488046031,40
451.172,87.8858,87.77173204863375,84.80994956181956,86.40987281865577,41.36185922997798,42.96178248681419,40
465.82,87.434,87.3286560031978,84.41891853887037,86.02047328987544,41.30818271332237,42.909737464327435,40
483.398,86.74030000000002,86.64629940999878,83.98620841856807,85.35398735681687,41.2923120531819,42.66009099143071,40
499.512,87.43780000000001,87.30917413064569,84.47699745976142,85.93605816732241,41.37311596332327,42.832176670884266,40
517.09,87.2454,87.15727112177103,84.5703798222949,85.64821324560756,41.50905787616347,42.586891299476136,40
536.133,87.2815,87.19701798960446,84.35177811428498,85.61967082932927,41.577347160275195,42.84523987531948,40
555.176,87.1082,87.00944415418182,84.23753049603908,85.69113574891833,41.318308405263494,42.771913658142736,40
574.219,87.521,87.41641798306136,84.24004231890919,85.95963336533933,41.456784617722036,43.176375664152175,40
594.727,86.86700000000002,86.7968781459425,83.731531408851,85.32736012843574,41.46951801750676,43.0653467370915,40
615.234,85.8745,85.80124830702513,83.15952578608344,84.55354032318824,41.24770798383689,42.6417225209417,40
637.207,86.4122,86.33291431221275,83.38657688608367,84.91457617936291,41.41833813284984,42.94633742612908,40
659.18,86.2165,86.15257882954243,83.02581363792365,84.5072379528626,41.64534087667984,43.12676519161879,40
682.617,85.4974,85.39182377601398,82.97563684167699,84.15708963877995,41.23473413723403,42.41618693433699,40
707.52,85.4615,85.385639328609,82.7373883702731,84.13487705363355,41.25076227497546,42.64825095833591,40
732.422,85.4373,85.3274948220626,83.17141157647461,84.18167145202996,41.145823370032645,42.15608324558799,40
757.324,85.7798,85.52762925424925,83.78551063086402,84.49375708087061,41.03387217337864,41.742118623385224,40
785.156,85.8727,85.61774661964233,83.16669672300203,84.74038454289622,40.87736207674611,42.4510498966403,40
811.523,85.8412,85.57382847269007,83.16575908666309,84.446661217991,41.127167254699074,42.40806938602698,40
840.82,85.6898,85.38995259431695,82.72161595235352,84.09835024425367,41.291602350063286,42.668336641963435,40
870.117,85.5474,85.25119028362563,82.47890198709152,84.34871249505551,40.902477788570124,42.772288296534114,40
900.879,86.76490000000001,86.405146118636,82.97369335502665,84.70600079911713,41.69914531951886,43.43145276360934,40
933.105,86.4846,86.11598816555306,82.44899809562841,84.36892763260308,41.74706053294999,43.66699006992465,40
965.332,85.6887,85.44424435517182,82.02211331379607,84.14630268531968,41.297941669852136,43.42213104137575,40
1000.49,84.99889999999999,84.87919632951314,81.58662001825726,83.88376755650884,40.99542877300429,43.29257631125587,40
1035.64,84.96380000000002,84.81295887717556,81.78091750773514,84.20079067510802,40.61216820206754,43.03204136944042,40
1072.27,84.45579999999998,84.13144680740089,81.4173197771016,83.8350886311836,40.296358176217296,42.714127030299295,40
1108.89,83.5778,83.67277941286163,81.31365681711117,83.49165503593643,40.1811243769252,42.35912259575046,40
1148.44,84.6445,84.48409325656976,81.03894930276853,83.62234756502761,40.861745691542154,43.445143953801235,40
1189.45,85.3456,85.12631702348199,81.62611424946076,83.89755715295433,41.228759870527654,43.50020277402123,40
1230.47,86.013,85.64938935868219,81.11768613713551,84.13091005862415,41.51847930005803,44.53170322154668,40
1274.41,86.6857,86.19292494099109,81.45471420659692,84.51870346731641,41.67422147367468,44.73821073439417,40
1319.82,86.0036,85.56551834429594,81.18396537641517,83.6676235036995,41.897894840596436,44.381552967880765,40
1366.7,85.7936,85.4260085424283,80.75450027960589,83.19314371632373,42.232864826104574,44.671508262822414,40
1413.57,85.67579999999998,85.4063225415598,80.7951568098388,83.16603766859185,42.24028487296795,44.611165731721,40
1463.38,86.8071,86.35986522026866,80.68925279833186,83.21610815554247,43.14375706472619,45.670612421936795,40
1516.11,86.9409,86.36996008302648,80.36716379609582,83.03083623224968,43.3391238507768,46.00279628693066,40
1568.85,86.5478,85.76951870288947,79.78295619720845,82.32613681061916,43.44338189227031,45.98656250568102,40
1624.51,85.5126,84.52432107104116,78.81746995879817,81.13993452527457,43.38438654576659,45.70685111224299,40
1681.64,84.368,83.85511778255194,78.4415357868475,80.84871378965764,43.006403992894306,45.41358199570445,40
1741.7,84.9904,84.40254322935104,79.07094815352585,81.37739411903394,43.0251491103171,45.33159507582519,40
1803.22,85.67920000000001,85.1527535270866,79.61348696596889,82.06399849579145,43.08875503129515,45.539266561117714,40
1866.21,85.9669,85.34921852770968,79.71761343918475,82.23922968347357,43.10998884423611,45.631605088524935,40
1932.13,84.6235,84.42183808409644,78.91984552959985,81.42753357388348,42.994304510212956,45.50199255449658,40
1999.51,84.8231,84.47849395988622,79.17647125762181,81.64523210524564,42.83326185464058,45.30202270226441,40
2069.82,85.2047,84.8714900234783,79.25522080072753,81.85139900905074,43.020091014427564,45.61626922275077,40
2143.07,84.5632,84.38029739372071,78.96244273249101,81.79207365175833,42.58822374196238,45.4178546612297,40
2219.24,84.3541,84.17573797945036,78.7614803240014,81.80882689007548,42.36691108937488,45.414257655448964,40
2296.88,85.6173,85.24802834946873,78.80907783203295,82.30668719831206,42.941341151156664,46.43895051743577,40
2378.91,85.6799,85.09309019136299,78.05669181814015,82.0698868452534,43.0232033461096,47.03639837322284,40
2462.4,83.01000000000002,82.58639664946165,76.68860855982567,80.73705556901619,41.849341080445456,45.89778808963598,40
2548.83,82.5908,82.25034358000849,76.5947609184119,80.23703676453702,42.013306815471466,45.6555826615966,40
2639.65,82.1064,82.31440132775751,77.02712392840786,80.562079428322,41.752321899435515,45.28727739934965,40
2731.93,80.8282,81.3763359041996,77.63837561569056,81.26032880063593,40.116007103563675,43.73796028850904,40
2828.61,80.4369,81.63157230841908,78.35031921824334,81.83448680421486,39.79708550420422,43.28125309017574,40
2928.22,82.8058,83.6701859975139,79.91152885395128,83.31457146932095,40.355614528192945,43.758657143562615,40
3030.76,84.03139999999999,84.70771251748697,80.7804646780698,84.03452182342352,40.67319069406345,43.92724783941716,40
3137.7,83.321,83.72507907167476,79.98935639124093,83.35152784179598,40.37355122987877,43.735722680433824,40
3249.02,82.4328,83.26003956314129,78.7466243167778,82.18995162275152,41.07008794038977,44.51341524636349,40
3363.28,81.9257,82.98224213748384,77.92731166386717,81.35294884064517,41.62929329683867,45.054930473616665,40
3481.93,82.3638,83.2260542444369,77.98281210690564,81.23461587997383,41.991438364463065,45.243242137531254,40
3604.98,82.1836,83.91379847680862,78.30843999815804,81.35519886036909,42.55859961643954,45.60535847865059,40
3732.42,83.6987,85.37885336250132,79.52285533040889,82.60391030153751,42.77494306096381,45.85599803209243,40
3864.26,85.48689999999999,86.13218359974627,79.82636402194099,83.28423989681997,42.8479437029263,46.30581957780528,40
4000.49,88.037,87.7610745920343,80.70311251275683,84.2969035909748,43.46417100105951,47.05796207927747,40
4141.11,89.35329999999999,88.51508295330484,81.12106467992677,84.75885081724694,43.7562321360579,47.394018273378066,40
4287.6,90.4262,89.25667666197414,81.48096111575082,85.34633096964954,43.9103456923246,47.775715546223324,40
4438.48,90.9423,89.60700599122322,81.6303818756586,85.6162261422695,43.99077984895372,47.97662411556462,40
4595.21,91.5078,89.74072826754787,81.5195536822227,85.68167448332562,44.05905378422224,48.22117458532516,40
4756.35,91.7902,89.6685256872982,81.42033447182723,85.65886749220226,44.00965819509594,48.24819121547097,40
4924.8,91.1823,89.25073339448711,80.98881024230084,85.12223448102753,44.12849891345958,48.26192315218627,40
5097.66,90.87549999999999,88.93422460445753,80.78453309038488,84.98008342214746,43.95414118231007,48.14969151407264,40
5277.83,90.1619,88.53388936667241,80.54960347925719,84.72710943667977,43.80677992999264,47.984285887415226,40
5463.87,90.7373,89.15480855424165,80.7693758230855,85.146535345324,44.00827320891766,48.38543273115616,40
5657.23,90.63040000000001,89.01260455117527,80.59391729513675,85.01433877687234,43.998265774302936,48.418687256038524,40
5856.45,90.4613,88.92788004249508,80.36227965632217,84.80328004622767,44.124599996267406,48.5656003861729,40
6062.99,90.3171,88.81446666161008,80.11964615814054,84.63214812395084,44.18231853765924,48.69482050346954,40
6276.86,90.1951,88.69185073143521,79.87972511545361,84.47362453657875,44.218226194856456,48.8121256159816,40
6498.05,89.36849999999998,87.93417850795801,79.26234249529716,83.94758917330027,43.98658933465774,48.67183601266085,40
6726.56,89.2063,87.82556612849558,79.17208461440838,83.86799162987563,43.95757449861995,48.653481514087204,40
6963.87,89.2386,87.89073768537999,79.12683456861882,83.82906542563836,44.06167225974163,48.76390311676117,40
7209.96,88.70260000000002,87.61337727021848,78.98975275811358,83.60248012850055,44.01089714171793,48.6236245121049,40
7464.84,88.8889,87.78444985433069,79.01141035632267,83.55290903404307,44.23154082028762,48.77303949800802,40
7727.05,88.7734,87.80759933920885,78.89884733865344,83.45658406291517,44.35101527629368,48.90875200055541,40
7999.51,88.785,87.79336256260476,78.73504509540615,83.26785876696408,44.525503795640674,49.058317467198606,40
8282.23,88.8385,87.92856069514077,78.70385168139751,83.21972672503851,44.70883397010226,49.224709013743265,40
8573.73,89.12719999999999,88.16416415374434,78.77398034607131,83.29213401756309,44.87203013618125,49.390183807673026,40
8876.95,89.4255,88.32277929408303,78.84788203588346,83.44730556046792,44.87547373361511,49.474897258199576,40
9188.96,89.3885,88.32404569535746,78.8062240010523,83.44493317334941,44.87911252200804,49.517821694305155,40
9514.16,89.1969,88.29405613656743,78.75985004023094,83.43099916856772,44.86305696799971,49.53420609633649,40
9849.61,89.2202,88.37274641896903,78.71048093471632,83.5010638140584,44.87168260491063,49.662265484252714,40
10196.8,89.3893,88.4498569283773,78.51199007409112,83.45490805031463,44.99494887806267,49.937866854286185,40
10555.7,89.2527,88.18700312841402,78.09563410749286,83.17892048269124,45.00808264572278,50.091369020921164,40
10927.7,88.9619,87.66600836263984,77.4840587229559,82.63611470218893,45.02989366045091,50.18194963968395,40
11313.0,88.4025,87.04282649195133,76.88010829376498,82.06167869767825,44.981147794273085,50.162718198186354,40
11712.9,87.9884,86.63669704791336,76.53059395235573,81.79128634465613,44.84541070325723,50.10610309555763,40
