Freq "On Axis"
20.5078 53.1828
21.9727 55.20219999999999
23.4375 55.903000000000006
24.9023 58.623900000000006
26.3672 60.500600000000006
27.832 62.620700000000014
29.2969 64.4354
30.7617 66.3387
32.2266 68.1287
33.6914 69.8147
35.1562 71.354
36.6211 72.81239999999998
38.0859 74.2044
39.5508 75.5097
41.0156 76.53779999999999
42.4805 77.4201
43.9453 78.1107
45.4102 78.75020000000002
46.875 79.1162
48.3398 79.444
51.2695 79.9594
52.7344 80.1731
54.1992 80.37940000000002
55.6641 80.5731
58.5938 80.951
60.0586 81.0852
62.9883 81.3129
64.4531 81.4616
67.3828 81.7947
68.8477 81.9628
71.7773 82.25530000000002
74.707 82.5253
77.6367 82.83569999999999
79.1016 82.9875
82.0312 83.2235
84.9609 83.5921
87.8906 83.7557
90.8203 83.9775
95.2148 84.54
98.1445 84.7034
101.074 84.6878
105.469 85.20269999999998
108.398 85.4953
112.793 85.8767
117.188 86.0621
120.117 86.2319
124.512 86.477
128.906 86.7421
133.301 86.83220000000001
139.16 86.9863
143.555 87.1073
147.949 87.1076
153.809 87.0812
159.668 87.2129
165.527 87.45649999999999
171.387 87.3719
177.246 87.2912
183.105 87.04859999999998
188.965 87.1948
196.289 87.1875
203.613 87.1127
210.938 87.0761
218.262 86.6814
225.586 86.6861
232.91 86.5234
241.699 86.14289999999998
250.488 85.9952
259.277 84.9626
268.066 85.2574
276.855 86.8274
287.109 86.8267
297.363 87.28949999999999
307.617 86.7555
319.336 86.79969999999999
329.59 86.73550000000002
341.309 86.4218
353.027 86.1243
366.211 86.6341
379.395 86.32689999999998
392.578 86.1538
405.762 85.8447
420.41 86.2631
435.059 86.8
451.172 87.8858
465.82 87.434
483.398 86.7403
499.512 87.4378
517.09 87.2454
536.133 87.2815
555.176 87.1082
574.219 87.521
594.727 86.867
615.234 85.8745
637.207 86.4122
659.18 86.2165
682.617 85.4974
707.52 85.46149999999999
732.422 85.43729999999998
757.324 85.77979999999998
785.156 85.8727
811.523 85.8412
840.82 85.6898
870.117 85.5474
900.879 86.7649
933.105 86.4846
965.332 85.6887
1000.49 84.9989
1035.64 84.9638
1072.27 84.4558
1108.89 83.57780000000001
1148.44 84.6445
1189.45 85.3456
1230.47 86.013
1274.41 86.6857
1319.82 86.0036
1366.7 85.7936
1413.57 85.6758
1463.38 86.8071
1516.11 86.9409
1568.85 86.5478
1624.51 85.5126
1681.64 84.36800000000001
1741.7 84.9904
1803.22 85.6792
1866.21 85.9669
1932.13 84.6235
1999.51 84.8231
2069.82 85.2047
2143.07 84.56320000000001
2219.24 84.3541
2296.88 85.61729999999999
2378.91 85.6799
2462.4 83.01
2548.83 82.59079999999999
2639.65 82.1064
2731.93 80.8282
2828.61 80.4369
2928.22 82.8058
3030.76 84.0314
3137.7 83.32099999999998
3249.02 82.4328
3363.28 81.9257
3481.93 82.36379999999998
3604.98 82.1836
3732.42 83.69870000000002
3864.26 85.4869
4000.49 88.03700000000002
4141.11 89.3533
4287.6 90.4262
4438.48 90.9423
4595.21 91.50779999999999
4756.35 91.7902
4924.8 91.18229999999998
5097.66 90.8755
5277.83 90.1619
5463.87 90.73729999999999
5657.23 90.6304
5856.45 90.46130000000001
6062.99 90.3171
6276.86 90.19509999999998
6498.05 89.3685
6726.56 89.2063
6963.87 89.2386
7209.96 88.7026
7464.84 88.8889
7727.05 88.7734
7999.51 88.785
8282.23 88.8385
8573.73 89.1272
8876.95 89.42549999999999
9188.96 89.3885
9514.16 89.1969
9849.61 89.2202
10196.8 89.3893
10555.7 89.25269999999999
10927.7 88.9619
11313.0 88.40249999999999
11712.9 87.9884
12126.0 87.5677
12553.7 87.1004
12996.1 87.6316
13454.6 88.82689999999998
13929.2 88.2132
14419.9 87.47349999999999
14928.2 86.8688
15455.6 86.7462
16000.5 86.83549999999998
16564.5 86.64029999999998
17148.9 86.1914
17752.4 85.5742
18379.4 84.6432
19026.9 83.7574
19697.8 82.74910000000001
19999.5 81.8936
