Freq,On Axis,Listening Window,Sound Power,Early Reflections,Early Reflections DI,Sound Power DI,DI offset
20.0,26.890554000000037,26.890554000000037,26.890554000000037,26.890554000000037,40.0,40.0,40
20.290899,27.137553999999994,27.137553999999994,27.137553999999994,27.137553999999994,40.0,40.0,40
20.586,27.445554999999985,27.445554999999985,27.445554999999985,27.445554999999985,40.0,40.0,40
20.8855,27.80155399999998,27.80155399999998,27.80155399999998,27.80155399999998,40.0,40.0,40
21.189301,28.17855499999999,28.17855499999999,28.17855499999999,28.17855499999999,40.0,40.0,40
21.497499,28.531554999999997,28.531554999999997,28.531554999999997,28.531554999999997,40.0,40.0,40
21.8102,28.83755499999998,28.83755499999998,28.83755499999998,28.83755499999998,40.0,40.0,40
22.127399,29.080555000000004,29.080555000000004,29.080555000000004,29.080555000000004,40.0,40.0,40
22.4492,29.24455499999999,29.24455499999999,29.24455499999999,29.24455499999999,40.0,40.0,40
22.775801,29.31955500000001,29.31955500000001,29.31955500000001,29.31955500000001,40.0,40.0,40
23.1071,29.300554000000005,29.300554000000005,29.300554000000005,29.300554000000005,40.0,40.0,40
23.443199,29.183553999999987,29.183553999999987,29.183553999999987,29.183553999999987,40.0,40.0,40
23.7841,28.974553999999983,28.974553999999983,28.974553999999983,28.974553999999983,40.0,40.0,40
24.1301,28.687555000000003,28.687555000000003,28.687555000000003,28.687555000000003,40.0,40.0,40
24.4811,28.336555000000004,28.336555000000004,28.336555000000004,28.336555000000004,40.0,40.0,40
24.8372,27.941554999999994,27.941554999999994,27.941554999999994,27.941554999999994,40.0,40.0,40
25.1984,27.518554999999992,27.518554999999992,27.518554999999992,27.518554999999992,40.0,40.0,40
25.564899,27.078554000000025,27.078554000000025,27.078554000000025,27.078554000000025,40.0,40.0,40
25.9368,26.60755500000002,26.60755500000002,26.60755500000002,26.60755500000002,40.0,40.0,40
26.3141,26.079555999999997,26.079555999999997,26.079555999999997,26.079555999999997,40.0,40.0,40
26.6968,25.438555000000008,25.438555000000008,25.438555000000008,25.438555000000008,40.0,40.0,40
27.0851,24.650554999999997,24.650554999999997,24.650554999999997,24.650554999999997,40.0,40.0,40
27.479099,23.741554000000008,23.741554000000008,23.741554000000008,23.741554000000008,40.0,40.0,40
27.878799,22.99655500000003,22.99655500000003,22.99655500000003,22.99655500000003,40.0,40.0,40
28.2843,23.038555000000002,23.038555000000002,23.038555000000002,23.038555000000002,40.0,40.0,40
28.6957,24.367554000000013,24.367554000000013,24.367554000000013,24.367554000000013,40.0,40.0,40
29.1131,26.552555000000012,26.552555000000012,26.552555000000012,26.552555000000012,40.0,40.0,40
29.536501,28.933553999999987,28.933553999999987,28.933553999999987,28.933553999999987,40.0,40.0,40
29.966101,31.207553999999988,31.207553999999988,31.207553999999988,31.207553999999988,40.0,40.0,40
30.402,33.323555,33.323555,33.323555,33.323555,40.0,40.0,40
30.8442,35.321552,35.321552,35.321552,35.321552,40.0,40.0,40
31.2929,37.58655200000001,37.58655200000001,37.58655200000001,37.58655200000001,40.0,40.0,40
31.748,39.86555100000001,39.86555100000001,39.86555100000001,39.86555100000001,40.0,40.0,40
32.209801,41.007553,41.007553,41.007553,41.007553,40.0,40.0,40
32.678299,42.810554999999994,42.810554999999994,42.810554999999994,42.810554999999994,40.0,40.0,40
33.153599,44.60655199999999,44.60655199999999,44.60655199999999,44.60655199999999,40.0,40.0,40
33.635899,46.347553000000005,46.347553000000005,46.347553000000005,46.347553000000005,40.0,40.0,40
34.125099,48.02255199999999,48.02255199999999,48.02255199999999,48.02255199999999,40.0,40.0,40
34.621498,49.62455400000002,49.62455400000002,49.62455400000002,49.62455400000002,40.0,40.0,40
35.125,51.15855400000001,51.15855400000001,51.15855400000001,51.15855400000001,40.0,40.0,40
35.635899,52.62455400000002,52.62455400000002,52.62455400000002,52.62455400000002,40.0,40.0,40
36.154301,54.03355400000001,54.03355400000001,54.03355400000001,54.03355400000001,40.0,40.0,40
36.680199,55.39055299999998,55.39055299999998,55.39055299999998,55.39055299999998,40.0,40.0,40
37.213699,56.70155299999999,56.70155299999999,56.70155299999999,56.70155299999999,40.0,40.0,40
37.755,57.971554,57.971554,57.971554,57.971554,40.0,40.0,40
38.3041,59.19855100000001,59.19855100000001,59.19855100000001,59.19855100000001,40.0,40.0,40
38.861301,60.38455200000001,60.38455200000001,60.38455200000001,60.38455200000001,40.0,40.0,40
39.426498,61.524551,61.524551,61.524551,61.524551,40.0,40.0,40
40.0,62.619552999999996,62.619552999999996,62.619552999999996,62.619552999999996,40.0,40.0,40
40.581799,63.66655299999999,63.66655299999999,63.66655299999999,63.66655299999999,40.0,40.0,40
41.1721,64.666557,64.666557,64.666557,64.666557,40.0,40.0,40
41.771,65.62455699999998,65.62455699999998,65.62455699999998,65.62455699999998,40.0,40.0,40
42.378502,66.540558,66.540558,66.540558,66.540558,40.0,40.0,40
42.9949,67.42155500000001,67.42155500000001,67.42155500000001,67.42155500000001,40.0,40.0,40
43.6203,68.298553,68.298553,68.298553,68.298553,40.0,40.0,40
44.254799,69.31455199999999,69.31455199999999,69.31455199999999,69.31455199999999,40.0,40.0,40
44.898499,69.963554,69.963554,69.963554,69.963554,40.0,40.0,40
45.551498,70.641556,70.641556,70.641556,70.641556,40.0,40.0,40
46.2141,71.38355999999999,71.38355999999999,71.38355999999999,71.38355999999999,40.0,40.0,40
46.886299,72.094559,72.094559,72.094559,72.094559,40.0,40.0,40
47.568298,72.77256,72.77256,72.77256,72.77256,40.0,40.0,40
48.260201,73.417557,73.417557,73.417557,73.417557,40.0,40.0,40
48.962101,74.031555,74.031555,74.031555,74.031555,40.0,40.0,40
49.674301,74.614555,74.614555,74.614555,74.614555,40.0,40.0,40
50.396801,75.169556,75.16942180192709,75.16414859160932,75.16662651845083,40.00279528347626,40.00527321031777,40
51.129902,75.698555,75.69828465608211,75.68766429040812,75.69265575818804,40.00562889789407,40.01062036567399,40
51.8736,76.20355999999998,76.20315156413777,76.18711027688042,76.19465085233509,40.00850071180268,40.01604128725735,40
52.628101,76.684555,76.68400648879589,76.66246916541479,76.67259508683642,40.011411401959464,40.0215373233811,40
53.3936,77.14355500000002,77.14286439483848,77.11575465872824,77.12850279683558,40.01436159800291,40.02710973611025,40
54.1702,77.584557,77.58372226415881,77.55096315179833,77.56637069329534,40.01735157086347,40.03275911236048,40
54.958099,78.010559,78.00957806105085,77.97109133604386,77.98919610770781,40.02038195334303,40.03848672500699,40
55.7575,78.424553,78.42342374892101,78.37912987211057,78.39997035637612,40.023453392544894,40.04429387681044,40
56.568501,78.91256,78.91128031069275,78.8610992087758,78.88471418299687,40.02656612769587,40.05018110191695,40
57.391399,79.304558,79.30312569241417,79.2469753195304,79.27340453528859,40.02972115712558,40.056150372883764,40
58.226101,79.601555,79.59996791250074,79.53776708509719,79.56704993302085,40.03291797947989,40.06220082740356,40
59.073,79.974556,79.97281189927733,79.90447677789768,79.93665394801158,40.03615795126575,40.06833512137965,40
59.932301,80.335556,80.33365261598443,80.25909807678171,80.29421091370246,40.03944170228198,40.07455453920272,40
60.804,80.680557,80.67849206463924,80.59763321775293,80.63572300526396,40.04276905937529,40.080858846886315,40
61.6884,81.010559,81.00833019039685,80.9210801651139,80.9621891732396,40.046141017157254,40.08725002528294,40
62.585701,81.324554,81.32215895755401,81.22842965567266,81.27260078688249,40.04955817067152,40.09372930188135,40
63.496,81.62455700000001,81.62199334953195,81.5216961959626,81.5689726319782,40.05302071755375,40.10029715356934,40
64.419601,81.909554,81.9068193114565,81.79986376801256,81.85028967414006,40.056529637316444,40.106955543443945,40
65.356598,82.181557,82.17864882739659,82.06494391536505,82.11856372228092,40.06008510511566,40.11370491203154,40
66.307297,82.44155900000001,82.43847484221709,82.31792762287822,82.37478674737062,40.06368809484647,40.120547219338874,40
67.271698,82.68956,82.686297357478,82.55881514259274,82.61895894289523,40.067338414582764,40.12748221488526,40
68.250198,82.926559,82.92311530131094,82.78860280559402,82.85207793168782,40.07103736962313,40.13451249571692,40
69.242897,83.191559,83.18793165687076,83.0462931427221,83.1131465225304,40.07478513434036,40.14163851414865,40
70.250099,83.407555,83.40374136962541,83.25487919106345,83.32515872257532,40.078582647050084,40.148862178561956,40
71.271896,83.581558,83.57755542431426,83.42137155716905,83.4951253848531,40.08243003946116,40.1561838671452,40
72.308601,83.78756000000001,83.78336576486468,83.6197602318385,83.69703749587849,40.08632826898619,40.163605533026185,40
73.360298,83.990555,83.98616637760395,83.81503889784072,83.89588895326781,40.090277424336136,40.17112747976323,40
74.427399,84.18755299999998,84.1829671882963,84.00421484132708,84.08868836977734,40.09427881851896,40.17875234696922,40
75.509903,84.37955499999998,84.37476919909572,84.18828938730996,84.27643699174982,40.098332207345905,40.18647981178576,40
76.608299,84.56456,84.55957132169067,84.36525828208696,84.4571321474083,40.10243917428237,40.19431303960371,40
77.722603,84.743553,84.73835855521834,84.53610674603007,84.63175903104374,40.1065995241746,40.20225180918827,40
78.853104,84.91655700000001,84.91115384845571,84.70085601238173,84.80033977331476,40.11081407514095,40.21029783607398,40
80.0,85.082558,85.07694316705675,84.85849099121192,84.96185987013848,40.11508329691827,40.21845217584483,40
81.163597,85.256554,85.25072445681784,85.02400781692657,85.13131640449441,40.11940805232342,40.226716639891265,40
82.3442,85.415558,85.40951066380985,85.17441764563094,85.2857214740101,40.12378918979975,40.235093018178915,40
83.541901,85.555557,85.54928877347368,85.30570719621909,85.42106201510043,40.128226758373245,40.24358157725459,40
84.757,85.673553,85.66706073295686,85.4148766858513,85.53433916308433,40.13272156987253,40.25218404710556,40
85.989899,85.80056,85.79384047070187,85.53293760704251,85.65656566928035,40.13727480142151,40.260902863659354,40
87.240601,85.918556,85.91160598878638,85.64186836139584,85.76971984235664,40.14188614642974,40.26973762739054,40
88.509598,86.025558,86.01837419925005,85.7396828182445,85.87181710674147,40.14655709250857,40.278691381005544,40
89.797,86.121559,86.1141380846189,85.82637363018503,85.96285037634527,40.15128770827363,40.28776445443387,40
91.103104,86.206558,86.19889659305508,85.90193810984664,86.04281785250224,40.15607874055284,40.29695848320844,40
92.4282,86.279556,86.27165067411278,85.96537563686208,86.1107197756109,40.160930898501874,40.3062750372507,40
93.772598,86.347557,86.33940427377053,86.02368846345799,86.17355932156718,40.165844952203344,40.31571581031254,40
95.136597,86.39655299999998,86.38814934014138,86.06286693866653,86.2173277213725,40.17082161876888,40.32528240147485,40
96.520401,86.431557,86.42289883891846,86.08792311168956,86.24703758209039,40.17586125682807,40.334975727228894,40
97.924301,86.456558,86.4476417198938,86.1028444220716,86.26667718939355,40.18096453050025,40.3447972978222,40
99.348602,86.472557,86.46337893039998,86.10863022705915,86.27724678878396,40.18613214161603,40.35474870334083,40
100.794,86.476555,86.46711134605592,86.10227710450621,86.2757451532078,40.19136619284812,40.3648342415497,40
102.26,86.471558,86.46184506142951,86.08679517880901,86.26518059977771,40.19666446165181,40.3750498826205,40
103.747,86.458557,86.44857100707182,86.06317318970301,86.24654305510528,40.20202795196654,40.38539781736881,40
105.256,86.43956,86.42929700319135,86.03341260918171,86.22183718759304,40.20745981559831,40.39588439400964,40
106.787,86.410553,86.40000905377079,85.99350007504698,86.18704947311174,40.212959580659046,40.40650897872381,40
108.34,86.381554,86.37072516285137,85.95345423411206,86.15219839358176,40.218526769269616,40.41727092873931,40
109.916,86.349556,86.33843815118115,85.91026164407923,86.11427368016828,40.22416447101287,40.428176507101924,40
111.515,86.302559,86.29114802310971,85.851923000543,86.06127585012952,40.229872172980194,40.43922502256672,40
113.137,86.23755600000001,86.2258477830505,85.77543200890256,85.9901984272527,40.235649355797804,40.45041577414794,40
114.783,86.152557,86.14054725232384,85.67879231751411,85.89904820873423,40.24149904358961,40.46175493480973,40
116.452,86.048553,86.03623761876145,85.5630027395759,85.7888204805555,40.24741713820595,40.473234879185554,40
118.146,85.934555,85.92192952092583,85.4370609197372,85.66851935260615,40.253410168319675,40.48486860118862,40
119.865,85.811554,85.79861396390064,85.30195866895005,85.53913642452576,40.25947753937487,40.496655294950585,40
121.608,85.71355399999999,85.7002951357294,85.19170783265331,85.43468000348923,40.26561513224017,40.5085873030761,40
123.377,85.639557,85.6259746758075,85.10529718740739,85.35414529567052,40.27182938013698,40.52067748840011,40
125.171,85.56655900000001,85.5526487723993,85.01973061273108,85.27453263160875,40.278116140790544,40.53291815966821,40
126.992,85.502556,85.48831306555226,84.94299098840571,85.20383129278778,40.28448177276448,40.54532207714655,40
128.839,85.444557,85.42997674376609,84.87209523013286,85.13905463442384,40.29092210934225,40.557881513633234,40
130.713,85.387558,85.37263563028807,84.8020332896207,85.0751956721003,40.297439958187766,40.57060234066738,40
132.615,85.317558,85.30228854875122,84.71879817951205,84.99825046572914,40.30403808302208,40.58349036923917,40
134.543,85.24556,85.22993887028719,84.63340779528491,84.91923003380602,40.31070883648117,40.596531075002275,40
136.5,85.164558,85.14858005405131,84.5388363086038,84.8311181872127,40.31746186683861,40.6097437454475,40
138.486,85.082558,85.0662181068619,84.44309080013724,84.74192171482572,40.324296392036175,40.623127306724655,40
140.5,84.990555,84.97384821776807,84.33717426764937,84.6426400243967,40.33120819337137,40.63667395011869,40
142.544,84.892555,84.87547602945193,84.2250800050196,84.5372726957588,40.33820333369313,40.650396024432325,40
144.617,84.80056,84.78310373124702,84.11881805299053,84.43782616526515,40.345277565981874,40.66428567825649,40
146.721,84.72155800000002,84.70371896661851,84.02536382797621,84.35128210047576,40.35243686614275,40.6783551386423,40
148.855,84.64856,84.63033292520102,83.93773641600782,84.2706559676937,40.35967695750732,40.692596509193194,40
151.02,84.575554,84.55693343298256,83.84991819536098,84.18993308433932,40.367000348643245,40.707015237621576,40
153.217,84.511559,84.49253931641177,83.77092261617469,84.11812981912465,40.37440949728712,40.72161670023708,40
155.445,84.456558,84.43713376547288,83.70074081538687,84.05523366993498,40.3819000955379,40.736392950086014,40
157.706,84.406555,84.3867204255902,83.63536451387705,83.99724252003472,40.38947790555548,40.75135591171315,40
160.0,84.36255600000001,84.34230530573664,83.57580112111833,83.94516338293198,40.397141922804664,40.76650418461831,40
162.327,84.324554,84.30388141501732,83.52204506556507,83.89899028373473,40.40489113128258,40.78183634945225,40
164.688,84.28656,84.26545958150813,83.46810204686241,83.85273176410125,40.412727817406875,40.79735753464571,40
167.084,84.24556000000001,84.22402563380072,83.41095284433499,83.80337142181212,40.420654211988605,40.813072789465735,40
169.514,84.19255799999999,84.17058376295256,83.34160975298356,83.7419178566843,40.428665906268265,40.828974009969,40
171.98,84.130554,84.10813361716671,83.26306092216065,83.67136525266699,40.43676836449973,40.84507269500607,40
174.481,84.067558,84.04468538789568,83.1833247042473,83.59972824602117,40.44495714187451,40.861360683648385,40
177.019,83.98755599999998,83.96422472433997,83.08637540117465,83.51098712674687,40.4532375975931,40.87784932316532,40
179.594,83.893555,83.86975863780273,82.97522177212237,83.40815014332665,40.46160849447608,40.894536865680365,40
182.206,83.79555500000001,83.77128713975364,82.8598655993598,83.30121855785256,40.470068581901074,40.911421540393846,40
184.856,83.720558,83.69581206147511,82.76730406834315,83.21719224463749,40.47861981683762,40.92850799313196,40
187.545,83.67556,83.65032923484672,82.70452845527944,83.16306514068454,40.487264094162185,40.94580077956728,40
190.273,83.632553,83.60683067249774,82.64353271474742,83.1108306232224,40.49600004927534,40.963297957750314,40
193.041,83.591553,83.56533220721667,82.58432825843286,83.06050272041016,40.504829486806514,40.98100394878381,40
195.849,83.540558,83.51383185234067,82.51491514409729,83.00008087674343,40.51375097559725,40.998916708243385,40
198.697,83.473557,83.44631862140182,82.42928445562677,82.9235555516139,40.52276306978791,41.017034165775044,40
201.587,83.39856,83.37080216876012,82.33543527450408,82.83893156991233,40.53187059884779,41.03536689425604,40
204.52,83.32255600000002,83.29427132947646,82.24035235111559,82.75319618862878,40.54107514084768,41.05391897836087,40
207.494,83.256554,83.22773547764385,82.15505996994817,82.67736662784867,40.55036884979518,41.07267550769568,40
210.512,83.21355399999999,83.18419408998435,82.09254100321928,82.62443459450887,40.559759495475475,41.091653086765064,40
213.574,83.192558,83.16264918250647,82.05179989635847,82.59340378640185,40.56924539610462,41.110849286147996,40
216.681,83.181557,83.15109159237647,82.02082370592971,82.57226366183214,40.578827930544335,41.13026788644676,40
219.833,83.169556,83.13852633645469,81.98861999722105,82.5500209943292,40.58850534212549,41.14990633923364,40
223.03,83.15555600000002,83.12395443184857,81.95419236691409,82.52567857451015,40.59827585733842,41.16976206493449,40
226.274,83.13456,83.10237853852571,81.91253372399255,82.49423478284679,40.608143755678924,41.18984481453316,40
229.565,83.097557,83.06478767488028,81.85463584999776,82.44668053075912,40.618107144121154,41.210151824882516,40
232.905,83.03656,83.00319450272114,81.77250192388257,82.37502437959934,40.628170123121805,41.23069257883857,40
236.292,82.971558,82.93758839838158,81.68613651403179,82.29926370389315,40.63832469448843,41.25145188434979,40
239.729,82.915558,82.8809758466161,81.60853067595944,82.23239800680739,40.64857783980871,41.27244517065665,40
243.216,82.876556,82.8413528681699,81.54768351873999,82.1824254073495,40.65892746082041,41.29366934942992,40
246.754,82.864555,82.82872230622229,81.51359495605337,82.15934792056736,40.66937438565493,41.31512735016892,40
250.343,82.877556,82.84108518256286,81.50426923628646,82.1611687500022,40.67991643256066,41.3368159462764,40
253.984,82.894554,82.85743634171816,81.4986984577884,82.16688202673387,40.69055431498428,41.35873788392976,40
257.678,82.896553,82.85877962912676,81.4778838467354,82.15749096437276,40.701288664754,41.38089578239136,40
261.426,82.88356,82.84512189116064,81.44182975943006,82.13300186022605,40.7121200309346,41.40329213173058,40
265.229,82.85855899999999,82.81944697514714,81.393517684604,82.09639809645175,40.723048878695394,41.42592929054314,40
269.087,82.822556,82.78276090636629,81.33395733997315,82.04868816736467,40.73407273900162,41.44880356639314,40
273.001,82.784554,82.74406653365159,81.27214941400075,81.99887457791597,40.74519195573562,41.47191711965084,40
276.972,82.753555,82.71236570684619,81.21709373261375,81.95595892016311,40.75640678668307,41.49527197423244,40
281.0,82.721558,82.6796574533223,81.16079328277004,81.91194284965756,40.76771460366474,41.51886417055226,40
285.088,82.68455499999999,82.64193327185512,81.09922610448027,81.86281216789837,40.779121103956754,41.54270716737486,40
289.234,82.64856,82.6052075444463,81.03842243771186,81.81458960802935,40.79061793641695,41.56678510673444,40
293.441,82.59256,82.54846677220581,80.95735563603833,81.74625616923642,40.802210602969396,41.591111136167484,40
297.709,82.514557,82.4697129861904,80.85403216388708,81.65581679847386,40.81389618771654,41.61568082230332,40
302.04,82.447556,82.40195086661384,80.76144974456165,81.576273689845,40.82567717676885,41.6405011220522,40
306.433,82.39355499999999,82.3471786219832,80.68161695920467,81.50963080921784,40.837547812765365,41.66556166277853,40
