Freq "Floor Bounce"
20.5078 81.21612623187538
21.2402 82.26892169996654
21.9727 83.35011198065368
22.7051 84.3099439190737
23.4375 85.27472684976581
24.1699 86.08489268057494
25.6348 87.48439876424013
26.3672 88.10101672942683
27.0996 88.50527838043404
27.832 88.99473642529802
29.2969 89.93586886155464
30.0293 90.36271043423044
31.4941 91.11522735396615
32.2266 91.41235760041754
33.6914 91.78661003024742
34.4238 91.82987238450427
35.8887 91.69209542096588
37.3535 91.31807116399675
38.8184 90.72476994502526
39.5508 90.40507483012739
41.0156 89.90114033039349
42.4805 89.66627605524297
43.9453 89.71008343819294
45.4102 89.93332789280366
47.6074 90.32514244248682
49.0723 90.59768024710935
50.5371 90.76344879465094
52.7344 90.8969316464585
54.1992 90.99490444068105
56.3965 91.12623078658147
58.5938 91.16313241301636
60.0586 91.23292991704496
62.2559 91.2900414862316
64.4531 91.20160997265474
66.6504 91.3234259388162
69.5801 91.42811943519983
71.7773 91.54475114251974
73.9746 91.67868171992232
76.9043 91.8796137956788
79.834 92.00229909083446
82.7637 92.09141822851254
85.6934 92.20792933118393
88.623 92.26657522199825
91.5527 92.37472625698446
94.4824 92.42910173220137
98.1445 92.45656777840867
101.807 92.48559428317772
105.469 92.56204069070253
109.131 92.64192896721215
112.793 92.72283801586039
116.455 92.78997588650856
120.85 92.97053801293256
125.244 93.2379162214524
129.639 93.3939644982104
134.033 93.39577352915659
138.428 93.35239608504776
143.555 93.53637419101108
148.682 93.86989640732334
153.809 94.04026501479092
159.668 94.0169294946081
164.795 94.10165237920563
170.654 94.31295126633489
176.514 94.40822273503366
183.105 94.38046966764327
189.697 94.34545150219925
196.289 94.37620378560494
202.881 94.30359501224386
210.205 94.14891743068833
217.529 94.3773622292258
225.586 94.40048785594458
232.91 94.56309294425519
241.699 94.520263278223
249.756 94.78600984762886
258.545 95.48960613104425
268.066 95.340806031609
277.588 95.41709547950258
287.109 94.90680620927007
297.363 95.34077016194423
307.617 95.20036742297209
318.604 94.83156194579213
329.59 95.16876935504567
341.309 94.93479727253212
353.76 94.16244587047171
366.211 94.1648206545155
378.662 93.92191671061344
392.578 93.54781879256284
405.762 93.0651130411335
420.41 92.86554528344598
435.059 91.9810870580323
450.439 92.57665656506008
466.553 92.62226129657746
482.666 93.00078724044451
500.244 92.95910744645782
517.822 93.18693099687468
536.133 92.9947643679183
554.443 93.28330633664349
574.219 92.63132545815832
594.727 93.16400204467367
615.234 92.49515187550666
637.207 92.16411041099572
659.912 92.80226112131704
683.35 92.57999456989076
706.787 92.1003662653289
731.689 92.05712485664239
758.057 91.40958837882667
784.424 91.67952707231778
812.256 91.29867513775399
840.82 90.11033036359807
870.85 92.05399635206503
901.611 90.9668529101486
933.105 91.27331080259788
966.064 93.03769758697506
999.756 92.18544005468333
1034.91 91.39513635649023
1071.53 90.48144620826479
1109.62 91.18370337245895
1148.44 89.8695354707612
1189.45 90.07293005719349
1231.2 89.3117424930263
1274.41 88.15661736323403
1319.82 88.6553792031172
1365.97 87.96069747880881
1414.31 87.18528549770834
1464.11 86.8636021419767
1515.38 85.62184891633915
1568.85 84.99950165865361
1624.51 84.65483024198058
1681.64 84.59501653243389
1740.97 83.81957875429289
1802.49 83.22097231355234
1866.21 84.19178178041703
1932.13 84.03425710559429
2000.24 85.99608841655997
2070.56 86.12540048369777
2143.8 86.53615488321088
2219.24 85.73036460370895
2297.61 86.73184780822665
2378.17 87.66175600962613
2462.4 87.93003411673403
2548.83 88.12552155422956
2638.92 88.75911695832805
2731.93 89.44054041534697
2828.61 89.91022438877359
2928.22 90.73659822559928
3031.49 91.27407334058357
3138.43 91.64259740369528
3249.02 91.55078201182772
3363.28 92.01674390588198
3481.93 91.79899569325319
3604.98 91.58051951889293
3732.42 91.28642973086508
3863.53 91.37470315145781
3999.76 91.34577331935444
4141.11 90.73805402915458
4286.87 90.94145668584436
4438.48 90.65191111614195
4594.48 90.18277587368748
4757.08 90.25459507429467
4924.8 89.99218366870939
5098.39 89.9307933948934
5277.83 90.512216822491
5463.87 90.63116115173938
5656.49 90.75796148156086
5856.45 90.94647094567395
6062.99 90.99046181627158
6276.86 91.07896686188542
6498.05 90.82126767438933
6727.29 90.81494737481381
6964.6 90.70234885402691
7209.96 90.76668227303013
7464.11 90.39105863635834
7727.78 90.41590145831672
8000.24 90.13244525469344
8282.23 90.00059042576564
8574.46 89.93414840146527
8876.22 89.62956732618987
9189.7 89.43654057665117
9513.43 89.32481616290617
9848.88 89.1793445415895
10196.8 89.07037418522438
10556.4 88.8400882033241
10928.5 88.36515012271678
11313.7 88.28034931927323
11712.9 88.41665329823353
12126.0 88.3020882799433
12553.7 87.70198252782849
12996.1 87.14247286363106
13454.6 86.63617740201819
13928.5 86.16943838655618
14419.9 85.49002628017185
14928.2 84.92037929577529
15454.8 85.09133407715034
15999.8 84.29069548974321
16564.5 83.30502711773708
17148.2 83.43220284975304
17753.2 84.2556907184548
18379.4 83.45128162737252
19027.6 82.83600748654409
19698.5 82.29236465754911
19999.5 82.21497952782494
