Freq "Front Wall Bounce"
20.5078 80.36763593819286
21.2402 81.38295315776053
21.9727 82.51265353876164
22.7051 83.51134499546453
23.4375 84.49206904639736
24.1699 85.284845562467
25.6348 86.72904354547548
26.3672 87.35436457392325
27.0996 87.75937614701338
27.832 88.24879285797081
29.2969 89.21741299095116
30.0293 89.6423689839397
31.4941 90.3981064668139
32.2266 90.69503133588219
33.6914 91.07249885559708
34.4238 91.11615397181036
35.8887 90.9802793451218
37.3535 90.60358948621574
38.8184 90.01006980414702
39.5508 89.68876759649504
41.0156 89.1848500085996
42.4805 88.94845858911259
43.9453 88.98975362770621
45.4102 89.20926491531509
47.6074 89.59798495244384
49.0723 89.86916904531576
50.5371 90.0328600990769
52.7344 90.16726134856118
54.1992 90.26978018748684
56.3965 90.39572069439488
58.5938 90.44208356316913
60.0586 90.5236397930298
62.2559 90.58323285834304
64.4531 90.4920649201846
66.6504 90.60828344984195
69.5801 90.72949848841951
71.7773 90.84631259465563
73.9746 90.98518738530218
76.9043 91.19106862679094
79.834 91.31216687723152
82.7637 91.41342937476344
85.6934 91.54528868873169
88.623 91.61823156483747
91.5527 91.74773708137245
94.4824 91.82501011883286
98.1445 91.8720051297443
101.807 91.9165817123516
105.469 91.99957655366666
109.131 92.0811477146441
112.793 92.15293645579911
116.455 92.2218318826264
120.85 92.39087294296374
125.244 92.64833856103355
129.639 92.83509865514289
134.033 92.86157651720343
138.428 92.78333549532147
143.555 92.94014805799675
148.682 93.27375122774512
153.809 93.46391038550992
159.668 93.42602045435974
164.795 93.50103664742467
170.654 93.71390344680151
176.514 93.82499884617485
183.105 93.78842733597834
189.697 93.71613961691708
196.289 93.7115582810499
202.881 93.6312117518931
210.205 93.48232421609792
217.529 93.61973210836815
225.586 93.60231498157944
232.91 93.74296525366941
241.699 93.63161247943472
249.756 93.89593690428731
258.545 94.70950464700513
268.066 94.54708431872902
277.588 94.61408737524759
287.109 94.08539473391106
297.363 94.43161938661116
307.617 94.26724725609529
318.604 93.94637758805067
329.59 94.31276184412285
341.309 94.04427417676048
353.76 93.14477927491268
366.211 93.19340089283652
378.662 93.05480066726103
392.578 92.74092799401343
405.762 92.37917690760658
420.41 92.2059456363337
435.059 91.4758681356352
450.439 91.78237150551355
466.553 92.28283253473109
482.666 92.3454232673679
500.244 92.0811610907217
517.822 92.56716066656357
536.133 92.29211061806221
554.443 92.55375876446632
574.219 92.32970007862517
594.727 92.51878742863038
615.234 92.23530936632007
637.207 92.42558256836698
659.912 93.02079529454642
683.35 93.49787995010807
706.787 93.19846850093926
731.689 92.93500648207619
758.057 92.41699667033122
784.424 92.76196399882697
812.256 92.91970756979539
840.82 92.16997621185595
870.85 92.74077357590335
901.611 93.16360539689256
933.105 93.159385596866
966.064 94.24279570105158
999.756 93.89100320070771
1034.91 93.25286136720746
1071.53 92.61294560800424
1109.62 92.54584992675258
1148.44 91.14756417812237
1189.45 92.31273763022045
1231.2 91.41889159225722
1274.41 92.08675657572441
1319.82 91.95096957874573
1365.97 92.2231107168931
1414.31 92.14687000598144
1464.11 91.75195012250867
1515.38 91.53523738746362
1568.85 91.71645293247954
1624.51 92.47016692686768
1681.64 91.68111748730989
1740.97 92.0902339554823
1802.49 90.79856160244721
1866.21 91.66804517126536
1932.13 92.54433653374598
2000.24 92.01525153407805
2070.56 91.1100219126677
2143.8 90.97910346439663
2219.24 92.0590345158975
2297.61 92.2466869217722
2378.17 91.42610706430266
2462.4 91.68872179377719
2548.83 92.30987104587582
2638.92 91.9151981281175
2731.93 92.38040784334316
2828.61 93.23478997023071
2928.22 92.86813561309918
3031.49 92.11171823844452
3138.43 92.26935614722372
3249.02 92.67504562755511
3363.28 92.09127023865439
3481.93 92.2603088019515
3604.98 92.28254226541922
3732.42 92.21699407381351
3863.53 92.09741972172216
3999.76 91.57318875537868
4141.11 92.16281918170127
4286.87 91.4323705768361
4438.48 91.3035313604459
4594.48 91.13606395581444
4757.08 91.08890915840098
4924.8 90.71005116899184
5098.39 91.12856092109548
5277.83 91.11678001429745
5463.87 91.40130139119147
5656.49 92.21864362706778
5856.45 92.01918676654024
6062.99 92.53585598069122
6276.86 92.36945824885633
6498.05 92.73092857727805
6727.29 92.1518619107361
6964.6 92.57748747516801
7209.96 91.95751512862051
7464.11 92.35951309986739
7727.78 92.03045979352493
8000.24 92.16222499828042
8282.23 92.38937584996445
8574.46 91.98587300883183
8876.22 92.22610279774644
9189.7 92.37182222127342
9513.43 92.22637136825665
9848.88 92.19596101177422
10196.8 92.21190470293978
10556.4 91.85912767605329
10928.5 91.39631173889299
11313.7 91.06414689847234
11712.9 91.05098810153649
12126.0 91.06356664248793
12553.7 90.83864373329104
12996.1 90.75246693928744
13454.6 90.75666397114601
13928.5 90.8713582116951
14419.9 90.95313290673714
14928.2 90.98478852032834
15454.8 91.1079268581661
15999.8 91.38257934601104
16564.5 91.28160875217934
17148.2 90.62926179875116
17753.2 91.23905868833225
18379.4 91.05719873181548
19027.6 90.62954434841699
19698.5 90.26220528264612
19999.5 89.9284367949673
