Freq "Estimated In-Room Response"
20.5078 55.602339937969475
21.9727 57.650261575477145
23.4375 59.24606654868856
24.9023 60.85160317873442
26.3672 62.38499238345622
27.832 63.76196722387412
29.2969 65.21583820043112
30.7617 66.52258785965795
32.2266 67.85240010379476
33.6914 69.04921723487345
35.1563 70.34916570432743
36.6211 71.4581958916926
38.0859 72.59692289196158
39.5508 73.85612274896411
41.0156 74.0853487080795
42.4805 75.64977537761752
43.9453 76.56020267072451
45.4102 77.37626981675174
46.875 78.11671659989352
48.3398 78.80636732926364
51.2695 80.12344655559838
52.7344 80.69672207182813
54.1992 81.1758528232141
55.6641 81.62208816575983
58.5938 82.47033750723713
60.0586 82.77256046032036
62.9883 83.44551052156753
64.4531 83.75299719687386
67.3828 84.22377489736141
68.8477 84.36986795351339
71.7773 84.66295817642154
74.707 85.05313061870162
77.6367 85.33558152678165
79.1016 85.37673755895923
82.0313 85.54129592690575
84.9609 85.83810709660426
87.8906 85.8964623555303
90.8203 85.53522276687865
95.2148 86.18196031218207
98.1445 85.89208293785236
101.074 85.89773685298104
105.469 85.92165605071386
108.398 85.97460486879189
112.793 86.11908818314825
117.188 86.10544474820468
120.117 86.30202644616685
124.512 86.2579478190214
128.906 85.93170847012665
133.301 85.77303506514002
139.16 85.67185419258044
143.555 85.60647281159237
147.949 85.47403411526652
153.809 85.45320377221725
159.668 85.46734773020121
165.527 85.39056966504538
171.387 85.17122291667606
177.246 85.04104256985872
183.105 84.73790518047662
188.965 84.54318278007102
196.289 84.61696810176053
203.613 84.38802650757822
210.938 84.2077203102862
218.262 84.0681584734918
225.586 84.00235355373277
232.91 83.89688409669193
241.699 83.72418382222017
250.488 83.58314724544508
259.277 83.7414475027363
268.066 83.30754828990169
276.855 83.2399033494446
287.109 83.28198620855554
297.363 82.95253020892235
307.617 83.05938544570601
319.336 82.90339141242984
329.59 82.95885339278273
341.309 82.86320446840227
353.027 82.48385790939699
366.211 82.55400552480644
379.395 83.10776001177432
392.578 82.75203847369944
405.762 82.45369228964728
420.41 83.04036121594524
435.059 83.1058722126441
451.172 83.01374563693197
465.82 83.14763095101897
483.398 82.70684625098394
499.512 82.76983976073964
517.09 82.8499710126387
536.133 82.51813381397659
555.176 82.7698025244386
574.219 82.9592775051023
594.727 83.03610836767692
615.234 83.08016732073249
637.207 83.20464667064803
659.18 83.13434050640672
682.617 82.70602128612717
707.52 82.97138514025764
732.422 83.592880933966
757.324 83.30428008665342
785.156 83.44301944091694
811.523 83.02246067461952
840.82 83.09861351126723
870.117 82.91670245184602
900.879 83.04249033518589
933.105 83.08093608228582
965.332 83.09557653181368
1000.49 83.14068006299257
1035.64 83.01271323886317
1072.27 82.76282909992585
1108.89 82.4182412946005
1148.44 82.31815075695131
1189.45 82.45254161915852
1230.47 82.57566848957052
1274.41 82.56606387229243
1319.82 82.23210801445326
1366.7 82.00367759163362
1413.57 81.56989787402269
1463.38 81.33395180020491
1516.11 81.67725752174104
1568.85 81.79182874104784
1624.51 81.41664127335689
1681.64 81.21507125342893
1741.7 81.24545209847912
1803.22 81.57280692556363
1866.21 81.7283921860055
1932.13 81.12119869469083
1999.51 80.77010177528105
2069.82 81.07370496285284
2143.07 80.96615936288863
2219.24 80.36984023785637
2296.88 80.12775795410184
2378.91 80.761640763126
2462.4 80.66757375454041
2548.83 80.44356686044434
2639.65 81.14465207154298
2731.93 81.76400578467127
2828.61 81.9616935995331
2928.22 82.23258332169274
3030.76 82.06960298973848
3137.7 81.97094861168995
3249.02 81.77104665055137
3363.28 81.54406035638641
3481.93 81.28258182340662
3604.98 81.3398590813504
3732.42 81.08268386146014
3864.26 81.22240311728532
4000.49 81.32466650714686
4141.11 81.20523159230763
4287.6 81.08612329671456
4438.48 81.378638798207
4595.21 81.2998482663684
4756.35 81.53526407921049
4924.8 81.51475076919832
5097.66 81.47010737784831
5277.83 81.45612649912566
5463.87 81.26877298166984
5657.23 81.21939410060754
5856.45 80.85009759385878
6062.99 80.52437481015318
6276.86 80.45078156591347
6498.05 80.57137629928256
6726.56 80.42892869048347
6963.87 80.26347811863431
7209.96 79.83669403465585
7464.84 79.47265537730674
7727.05 79.14931992378934
7999.51 79.26898742212143
8282.23 79.44279586528312
8573.73 79.69596899602911
8876.95 79.61305644731242
9188.96 79.47822435256897
9514.16 79.38141293257759
9849.61 79.41625595206172
10196.8 79.54503237486284
10555.7 79.68855408741506
10927.7 79.84683430703599
11313.0 79.89030181640084
11712.9 79.63918427380472
12126.0 79.34766130517414
12553.7 79.38006585318993
12996.1 79.31164722714306
13454.6 79.0044308140289
13929.2 78.72674510365586
14419.9 78.57117383529419
14928.2 78.52323293702062
15455.6 78.39641945563218
16000.5 78.09632300107845
16564.5 77.75487617979695
17148.9 77.52354063588183
17752.4 77.31146887955099
18379.4 76.74658364701052
19026.9 75.748757561784
19697.8 75.16656495545453
19999.5 74.92350044685497
