Freq "Side Wall Bounce"
22.4 -15.789218624659014
23.0 -13.111049630384088
23.6 -10.022654368457296
24.0 -7.209082834863949
25.0 -5.080799945672453
25.8 -3.2531206440628466
26.5 -1.615396208231033
27.2 0.29548803821435854
28.0 1.828928721429719
29.0 2.6173947913456175
30.0 1.9210112735904943
30.7 2.9776150309050706
31.5 4.8382516249089065
32.5 7.478489382144232
33.5 9.232294569103146
34.5 10.616991331342234
35.5 12.32770941078337
36.5 14.00506290830944
37.5 15.38866113776669
38.7 16.90411688945747
40.0 19.953845896530368
41.2 24.332176257085052
42.5 26.00569759680755
43.7 25.454846573758374
45.0 26.64158638702534
46.2 30.030141163723385
47.5 34.466506319871684
48.7 37.85807286838019
50.0 40.167796951435236
51.5 42.37407336019402
53.0 43.7341626532712
54.5 44.205272639658716
56.0 46.19397695490082
58.0 49.565123113062924
60.0 52.413763644641136
61.5 55.26921474554729
63.0 57.91246809313611
65.0 59.99191740640367
67.0 61.171680372049266
69.0 62.310512466162606
71.0 63.65214086596889
73.0 65.02428858746597
75.0 66.44210173162692
77.5 67.78018335884987
80.0 69.0023023206405
82.5 70.44396845048445
85.0 71.84530504353961
87.5 73.20598456990744
90.0 74.426141893916
92.5 75.58751894170379
95.0 76.44673677241468
97.5 77.16670626616768
100.0 77.58751894170379
103.0 77.98849735609959
106.0 78.16670626616767
109.0 78.38526041028544
112.0 78.56395064819496
115.0 78.76395064819496
118.0 78.86395064819496
122.0 79.0023023206405
125.0 79.06119474234183
128.0 79.10230232064049
132.0 79.16119474234182
136.0 79.24119983124486
140.0 79.28156054014522
145.0 79.28156054014522
150.0 79.34119983124485
155.0 79.36119474234184
160.0 79.48156054014521
165.0 79.52064343308078
170.0 79.52064343308078
175.0 79.54073299106128
180.0 79.52064343308078
185.0 79.46027588070906
190.0 79.36073004666429
195.0 79.34073299106127
200.0 79.24073299106128
206.0 79.14073299106128
212.0 79.16119474234182
218.0 79.18156054014523
224.0 79.183389571943
230.0 79.183389571943
236.0 79.2023023206405
240.0 79.16395064819497
250.0 79.20598456990743
258.0 79.18751894170379
265.0 79.18751894170379
272.0 79.24530504353962
280.0 79.38156054014522
290.0 79.46119474234183
300.0 79.44073299106128
307.0 79.36119474234184
315.0 79.08338957194297
325.0 78.73247987557606
335.0 78.5182442438724
345.0 78.30352961026536
355.0 78.08505351870532
365.0 77.85678912644875
375.0 77.76244965331124
387.0 77.55970573251852
400.0 77.43688464551715
412.0 77.35432193465898
425.0 77.17940338926876
437.0 77.02753601492296
450.0 76.96781203523977
462.0 77.01039079867913
475.0 77.01039079867913
487.0 76.9363148970151
500.0 76.93530083796756
515.0 76.8321751148644
530.0 76.42783218957028
545.0 76.07082123630394
560.0 75.87630939472108
580.0 75.87549553632897
600.0 76.03198139148385
615.0 76.39835792959106
630.0 76.6237728007008
650.0 76.53866358448705
670.0 76.23541273030081
690.0 76.1513379801391
710.0 75.59475482481282
730.0 74.82740535925373
750.0 74.83267433614358
775.0 75.20977195281321
800.0 75.56218698176036
825.0 75.93264359841825
850.0 76.24094278560848
875.0 76.22894080802659
900.0 75.78137893191945
925.0 75.2406055089243
950.0 74.74550555733447
975.0 74.77045027902224
1000.0 74.64067405640324
1030.0 75.26995250819809
1060.0 75.14446129141604
1090.0 74.56707349370244
1120.0 74.14074829450918
1150.0 74.00927757690448
1180.0 74.52896771569594
1220.0 74.72732863276231
1250.0 74.8528223080379
1280.0 74.1560806153611
1320.0 73.90606673141455
1360.0 74.84159019355113
1400.0 74.73617194119402
1450.0 74.76119417718542
1500.0 74.26437724164703
1550.0 74.0633082595983
1600.0 74.78692726094629
1650.0 74.97717494713538
1700.0 74.59685633464883
1750.0 74.20797717857113
1800.0 74.7024885566224
1850.0 74.8336874625989
1900.0 75.0205875332137
1950.0 75.7373045750618
2000.0 76.05416742925819
2060.0 75.26233847999387
2120.0 75.90370205416926
2180.0 76.62747453875681
2240.0 76.15317182109659
2300.0 75.89859274437644
2360.0 76.41108640216748
2400.0 75.76146683268772
2500.0 75.47683933153843
2580.0 75.22337181627573
2650.0 74.29090919444302
2720.0 74.53271054108664
2800.0 73.26417008508417
2900.0 73.45979553011404
3000.0 72.92258619443251
3070.0 72.89978529566704
3150.0 73.25219489413927
3250.0 73.87961530408467
3350.0 73.79304267788737
3450.0 73.74966301771049
3550.0 74.47601164379793
3650.0 73.92017343183713
3750.0 73.50022163205888
3870.0 73.8905288712409
4000.0 74.01104020725093
4120.0 74.36933556272002
4250.0 74.4501035687319
4370.0 74.27941980321215
4500.0 73.42022728263579
4620.0 73.27554330581941
4750.0 72.21785971553574
4870.0 72.58772509659025
5000.0 72.06395020822158
5150.0 71.86215350387793
5300.0 72.26762498559052
5450.0 73.51814116385776
5600.0 73.30948656859213
5800.0 73.43529049212187
6000.0 72.33918778265114
6150.0 72.60295993472573
6300.0 72.28653719741185
6500.0 72.05921570561995
6700.0 71.34564029586349
6900.0 72.59944387216132
7100.0 73.45478560169346
7300.0 73.60143134510153
7500.0 73.73789105831506
7750.0 73.84893949705767
8000.0 73.93758627709575
8250.0 74.03683464247915
8500.0 73.3907658316036
8750.0 72.70060979434277
9000.0 72.27004485474743
9250.0 71.17317819989255
9500.0 70.8935024924993
9750.0 70.86386688478842
10000.0 71.80524377836885
10300.0 73.33175525769086
10600.0 73.73392736653123
10900.0 73.18634922082484
11200.0 72.60859348153733
11500.0 72.47438353356075
11800.0 72.77516236952653
12200.0 72.57922346865317
12500.0 72.64247401032321
12800.0 71.73508908777333
13200.0 69.79902197343407
13600.0 69.09898042565068
14000.0 69.11462764923536
14500.0 70.91259188867394
15000.0 71.83605878531017
15500.0 71.39799788916864
16000.0 70.72980732686939
16500.0 70.4255379731958
17000.0 70.17099227360058
17500.0 70.36018592559226
18000.0 70.12860539893714
18500.0 69.46438194075888
19000.0 68.0901567386731
19500.0 65.29244486602428
