Freq "On Axis"
20.0 59.05800000000001
20.2909 59.53699999999999
20.586 60.04899999999999
20.8855 60.56699999999999
21.1893 61.111000000000004
21.4975 61.667000000000016
21.8102 62.22699999999999
22.1274 62.789
22.4492 63.349000000000004
22.7758 63.90599999999999
23.1071 64.461
23.4432 65.014
23.7841 65.63
24.1301 66.24400000000001
24.4811 66.855
24.8372 67.46400000000001
25.1984 68.07
25.5649 68.674
25.9368 69.274
26.3141 69.871
26.6968 70.489
27.0851 71.10700000000001
27.4791 71.72
27.8788 72.32700000000001
28.2843 72.927
28.6957 73.52
29.1131 74.105
29.5365 74.68600000000002
29.9661 75.26099999999998
30.402 75.825
30.8442 76.376
31.2929 76.914
31.748 77.438
32.2098 77.946
32.6783 78.437
33.1536 78.91
33.6359 79.366
34.1251 79.801
34.6215 80.216
35.125 80.61199999999998
35.6359 80.981
36.1543 81.33
36.6802 81.66
37.2137 81.97
37.755 82.26300000000002
38.3041 82.533
38.8613 82.782
39.4265 83.015
40.0 83.235
40.5818 83.441
41.1721 83.633
41.771 83.807
42.3785 83.97100000000002
42.9949 84.127
43.6203 84.277
44.2548 84.415
44.8985 84.543
45.5515 84.66599999999998
46.2141 84.78599999999999
46.8863 84.903
47.5683 85.008
48.2602 85.11
48.9621 85.212
49.6743 85.313
50.3968 85.408
51.1299 85.50099999999999
51.8736 85.593
52.6281 85.67900000000002
53.3936 85.774
54.1702 85.86300000000001
54.9581 85.95300000000002
55.7575 86.04300000000002
56.5685 86.132
57.3914 86.221
58.2261 86.30999999999999
59.073 86.39999999999999
59.9323 86.49
60.804 86.58200000000001
61.6884 86.676
62.5857 86.77
63.496 86.865
64.4196 86.96
65.3566 87.05499999999999
66.3073 87.15
67.2717 87.247
68.2502 87.343
69.2429 87.43999999999998
70.2501 87.538
71.2719 87.633
72.3086 87.728
73.3603 87.824
74.4274 87.915
75.5099 88.006
76.6083 88.09499999999998
77.7226 88.18
78.8531 88.266
80.0 88.347
81.1636 88.426
82.3442 88.504
83.5419 88.57700000000001
84.757 88.65000000000002
85.9899 88.717
87.2406 88.783
88.5096 88.847
89.797 88.908
91.1031 88.968
92.4282 89.025
93.7726 89.083
95.1366 89.137
96.5204 89.19099999999999
97.9243 89.24500000000002
99.3486 89.299
100.794 89.35200000000002
102.26 89.40499999999999
103.747 89.461
105.256 89.518
106.787 89.577
108.34 89.63599999999998
109.916 89.694
111.515 89.753
113.137 89.81000000000002
114.783 89.866
116.452 89.919
118.146 89.969
119.865 90.015
121.608 90.055
123.377 90.091
125.171 90.11999999999999
126.992 90.143
128.839 90.16100000000002
130.713 90.169
132.615 90.173
134.543 90.17
136.5 90.159
138.486 90.152
140.5 90.134
142.544 90.104
144.617 90.079
146.721 90.053
148.855 90.016
151.02 89.979
153.217 89.941
155.445 89.903
157.706 89.864
160.0 89.824
162.327 89.783
164.688 89.75000000000001
167.084 89.711
169.514 89.664
171.98 89.614
174.481 89.567
177.019 89.514
179.594 89.44600000000001
182.206 89.363
184.856 89.27
187.545 89.17
190.273 89.05
193.041 88.918
195.849 88.773
198.697 88.61299999999999
201.587 88.447
204.52 88.28
207.494 88.116
210.512 87.95200000000001
213.574 87.796
216.681 87.653
219.833 87.514
223.03 87.375
226.274 87.236
229.565 87.094
232.905 86.94600000000001
236.292 86.788
239.729 86.61399999999999
243.216 86.42999999999999
246.754 86.232
250.343 86.026
253.984 85.81600000000002
257.678 85.61
261.426 85.413
265.229 85.236
269.087 85.081
273.001 84.956
276.972 84.859
281.0 84.78000000000002
285.088 84.704
289.234 84.607
293.441 84.451
297.709 84.181
302.04 83.846
306.433 83.623
310.89 83.53000000000002
315.412 83.48
320.0 83.452
324.655 83.433
329.377 83.413
334.168 83.38000000000001
339.028 83.297
343.959 83.131
348.962 82.853
354.038 82.43599999999999
359.188 81.87499999999999
364.412 81.18000000000002
369.713 80.385
375.09 79.582
380.546 78.95
386.081 78.65400000000001
391.697 78.712
397.394 78.97699999999999
403.175 79.24900000000001
409.039 79.403
414.989 79.436
421.025 79.43
427.149 79.497
433.362 79.73
439.665 80.14400000000002
446.06 80.663
452.548 81.168
459.131 81.567
465.809 81.831
472.584 81.99499999999999
479.458 82.157
486.432 82.409
493.507 82.797
500.686 83.266
507.968 83.769
515.357 83.986
522.853 84.15500000000002
530.458 84.244
538.174 84.336
546.002 84.497
553.943 84.722
562.001 84.954
570.175 85.13100000000001
578.469 85.246
586.883 85.33
595.419 85.402
604.08 85.49
612.866 85.616
621.78 85.75600000000001
630.824 85.855
640.0 85.933
649.309 86.033
658.753 86.16700000000002
668.335 86.313
678.056 86.446
687.919 86.56100000000002
697.925 86.646
708.077 86.63099999999999
718.376 86.538
728.825 86.355
739.426 86.209
750.181 86.195
761.093 86.266
772.163 86.243
783.394 85.99
794.789 85.526
806.349 84.991
818.078 84.516
829.977 84.133
842.05 83.846
854.298 83.735
866.724 83.90399999999998
879.33 84.36
892.12 84.974
905.097 85.623
918.262 86.32699999999998
931.618 87.004
945.169 87.728
958.917 88.42
972.864 89.096
987.015 89.766
1001.37 90.29
1015.94 90.48200000000001
1030.71 90.39799999999998
1045.71 90.325
1060.92 90.28699999999999
1076.35 89.879
1092.0 88.97100000000002
1107.89 87.812
1124.0 86.369
1140.35 84.759
1156.94 83.361
1173.77 82.17300000000002
1190.84 81.275
1208.16 81.407
1225.73 82.574
1243.56 83.89400000000002
1261.65 84.901
1280.0 86.157
1298.62 87.66
1317.51 88.39
1336.67 88.195
1356.11 87.55
1375.84 86.88799999999999
1395.85 86.312
1416.15 85.63200000000002
1436.75 84.732
1457.65 83.738
1478.85 82.657
1500.36 81.93499999999999
1522.19 82.29
1544.33 82.737
1566.79 82.717
1589.58 83.252
1612.7 84.247
1636.16 83.724
1659.95 82.105
1684.1 81.562
1708.6 82.21299999999998
1733.45 82.96
1758.66 83.92999999999999
1784.24 85.336
1810.19 86.734
1836.52 87.73099999999998
1863.24 87.98200000000001
1890.34 87.709
1917.83 87.294
1945.73 86.211
1974.03 84.336
2002.74 82.96900000000001
2031.87 83.05900000000001
2061.43 83.417
2091.41 83.681
2121.83 84.492
2152.69 84.999
2184.01 85.149
2215.77 85.44
2248.0 85.639
2280.7 85.793
2313.87 86.17
2347.53 86.426
2381.68 86.342
2416.32 86.099
2451.46 85.844
2487.12 85.82599999999998
2523.3 85.794
2560.0 85.212
2597.24 84.37
2635.01 83.85699999999999
2673.34 83.21899999999998
2712.23 82.519
2751.68 82.416
2791.7 82.67400000000002
2832.31 83.445
2873.5 84.498
2915.3 85.35800000000002
2957.7 85.65499999999999
3000.72 85.67900000000002
3044.37 85.802
3088.65 86.219
3133.58 86.765
3179.16 86.789
3225.4 86.551
3272.31 86.355
3319.91 85.83899999999998
3368.2 84.99400000000001
3417.19 84.129
3466.89 83.696
3517.32 84.123
3568.48 84.693
3620.39 84.901
3673.05 84.45900000000002
3726.47 83.10200000000002
3780.67 81.622
3835.67 81.391
3891.46 82.172
3948.06 83.17
4005.49 83.753
4063.75 83.852
4122.86 84.002
4182.82 84.363
4243.66 85.20800000000001
4305.39 86.423
4368.01 87.377
4431.55 87.66100000000002
4496.01 87.399
4561.4 86.699
4627.75 86.35
4695.06 86.627
4763.35 87.04900000000002
4832.64 87.43000000000002
4902.93 87.974
4974.24 88.389
5046.6 88.68400000000001
5120.0 89.171
5194.47 89.56600000000002
5270.03 89.84999999999998
5346.68 90.275
5424.45 90.903
5503.35 91.483
5583.4 91.622
5664.61 91.499
5747.01 91.484
5830.6 91.50500000000001
5915.41 91.521
6001.45 91.975
6088.74 92.716
6177.3 93.064
6267.15 93.02500000000002
6358.31 92.917
6450.8 92.916
6544.62 93.264
6639.82 93.912
6736.4 94.351
6834.38 94.467
6933.79 94.77299999999998
7034.64 95.466
7136.96 96.146
7240.77 96.324
7346.09 96.232
7452.94 95.949
7561.35 94.645
7671.33 92.669
7782.91 90.967
7896.12 89.41799999999999
8010.97 88.006
8127.49 87.426
8245.71 87.801
8365.65 88.557
8487.33 88.886
8610.78 88.468
8736.03 87.641
8863.09 87.913
8992.01 89.734
9122.8 91.06599999999999
9255.5 90.383
9390.12 87.766
9526.7 85.65
9665.27 84.705
9805.86 82.829
9948.49 82.081
10093.2 84.952
10240.0 88.32599999999998
10388.9 89.35200000000002
10540.1 89.26799999999999
10693.4 89.303
10848.9 88.916
11006.7 89.35600000000001
11166.8 90.46500000000002
11329.2 90.031
11494.0 88.79299999999999
11661.2 87.689
11830.8 85.926
12002.9 82.317
12177.5 79.21900000000001
12354.6 79.145
12534.3 80.944
12716.6 84.437
12901.6 88.122
13089.2 90.974
13279.6 93.057
13472.8 93.337
13668.8 92.996
13867.6 93.748
14069.3 94.868
14273.9 93.18
14481.5 87.908
14692.2 83.077
14905.9 81.649
15122.7 82.184
15342.7 82.412
15565.8 81.75099999999999
15792.2 80.61
16021.9 78.663
16255.0 75.135
16491.4 72.435
16731.3 73.658
16974.7 76.604
17221.6 78.929
17472.1 80.802
17726.2 81.847
17984.0 81.50500000000001
18245.6 80.413
18511.0 79.859
18780.2 79.063
19053.4 76.926
19330.5 74.57000000000001
19611.7 72.419
19897.0 69.761
