Freq "Sound Power"
20.5078 68.51114290384241
23.4375 71.746220850132
26.3672 73.91051457838621
29.2969 75.81366399254887
32.2266 77.66244327580004
35.1563 79.26380233024193
38.0859 80.7303407478755
41.0156 81.97475563791623
43.9453 83.19564911244974
46.875 84.20445104271612
49.8047 85.13579789325034
52.7344 85.92218675846235
55.6641 86.5551955772064
58.5938 87.09939458884301
61.5234 87.54529896989585
64.4531 87.96209116036921
67.3828 88.16677132768592
70.3125 88.44584743807306
73.2422 88.7826922626859
76.1719 88.97620520873393
79.1016 89.11634493223822
82.0313 89.19890450496776
84.9609 89.21156179678118
87.8906 89.24090410177804
90.8203 89.1613151440649
93.75 89.22689382193732
96.6797 89.1088848647157
102.539 88.93029106633848
105.469 88.82006890247436
108.398 88.92469752515997
111.328 89.04635005608317
117.188 88.99891548903229
120.117 88.96676078094518
125.977 88.67950516590618
128.906 88.54732793038269
134.766 88.58223016216806
137.695 88.37759998847554
143.555 88.02017249303705
149.414 87.74358556205176
155.273 87.67697026570154
158.203 87.845389652735
164.063 87.86196828030093
169.922 87.65333618797378
175.781 87.38399669639344
181.641 87.27906444490354
190.43 87.38703290812366
196.289 87.55488858211233
202.148 87.29949848526049
210.938 87.15602194157708
216.797 87.06088101981929
225.586 86.74815441871617
234.375 86.98435885382455
240.234 86.82031660055365
249.023 86.52442557334523
257.813 87.0080362648096
266.602 86.82646163259362
278.32 86.38014024619548
287.109 86.08638329826441
295.898 86.18757363900204
307.617 86.4326304912111
319.336 86.39438670625916
331.055 86.95587599221342
342.773 86.65452400550842
354.492 86.15464704678982
366.211 86.44406619038274
377.93 86.75677396783753
392.578 86.6069557946135
407.227 86.04497864988032
421.875 86.82123049776206
436.523 86.80332157462884
451.172 86.75318018956138
465.82 86.54818108653957
483.398 86.09752233496218
500.977 85.67796288798772
518.555 86.19949346918268
536.133 86.2564944715783
553.711 86.0785143114591
574.219 85.95930005395866
594.727 85.71258287005116
615.234 85.46852416528478
638.672 85.36009693904569
659.18 85.17558265459165
682.617 85.22654594619995
706.055 84.69763797418916
732.422 84.15859113680132
758.789 84.13808718212913
785.156 84.12893752374286
811.523 83.43230303485358
840.82 83.03020887894483
870.117 82.67066883334887
902.344 82.36441533998904
931.641 83.42796620893283
966.797 84.3613693546909
999.023 84.59690495303526
1034.18 84.23694109641487
1072.27 84.00379906551898
1110.35 83.66072005618176
1148.44 83.71265033176881
1189.45 84.2399560851754
1230.47 84.61111292745518
1274.41 85.11785561268945
1318.36 85.57995551394599
1365.23 85.31011659268148
1415.04 85.1411217378412
1464.84 85.26739109419567
1514.65 85.05748293810146
1570.31 84.94244475216838
1623.05 84.66718128066093
1681.64 84.06029939390689
1740.23 83.61997618624781
1801.76 83.27487511292378
1866.21 82.60246416810398
1930.66 82.08134183869196
2000.98 82.69098123389401
2071.29 82.98573475981581
2144.53 82.75741498757841
2217.77 82.40063199012313
2296.88 82.74337735324549
2378.91 83.37199393589286
2460.94 83.09031334746949
2548.83 83.41254288508138
2639.65 83.57908250323148
2733.4 83.3029079324735
2827.15 83.12490055811219
2926.76 82.92605606015779
3032.23 82.71004662282284
3137.7 82.600353333904
3249.02 82.45760611744937
3363.28 82.51273130049172
3483.4 82.60759209681405
3606.45 82.60289607388877
3732.42 82.64964115618784
3864.26 82.73878491467003
3999.02 82.57951659008204
4139.65 82.50023810360601
4286.13 82.44552389684459
4438.48 82.43744520958298
4593.75 82.24061983911106
4757.81 82.12419254237093
4924.8 81.99537101374483
5097.66 81.82970634497421
5279.3 81.65558466529117
5463.87 81.3955527647296
5657.23 81.17655797033196
5856.45 81.24121458678681
6061.52 81.43091327747887
6275.39 81.75636482179364
6498.05 81.94804476831406
6726.56 82.0464425931262
6963.87 82.03622796561598
7209.96 81.92450614568537
7464.84 81.80475055286117
7728.52 81.91316053927417
8000.98 82.22711763909909
8282.23 82.63329171726153
8575.2 82.83849496990686
8876.95 82.83028793073535
9190.43 82.69223732267945
9512.7 82.60160254599053
9849.61 82.6621887697792
10195.3 82.89649811017748
10555.7 83.21964292141753
10927.7 83.48662794667139
11314.5 83.56918274154351
11712.9 83.503884992566
12126.0 83.54312642621234
12553.7 83.74355997492063
12996.1 83.86527617226324
13453.1 84.12978655733869
13927.7 85.20406842306117
14419.9 86.62435330030466
14929.7 85.73364607319094
15454.1 84.32527187711672
15999.0 83.27659132932935
16564.5 82.49493551467843
17147.5 81.46843011587443
17753.9 80.62162204945925
18377.9 80.12009613861687
19028.3 80.03242965060578
19699.2 80.36356521685353
19998.0 80.35756026587269
