Freq "Estimated In-Room Response"
20.5078 62.6144389607629
21.9727 63.41242527847645
23.4375 66.51011383125658
24.9023 68.60915701987982
26.3672 69.91724376050189
27.832 71.6466373864467
29.2969 72.79119300036716
30.7617 74.32865792840333
32.2266 75.19665247259354
33.6914 75.79070186235792
35.1562 76.31606736422809
36.6211 76.84970047176537
38.0859 77.23947640329754
39.5508 77.47787360588843
41.0156 77.88244164719707
42.4805 78.26291273583682
43.9453 78.45377111186879
45.4102 78.72954925632193
46.875 79.00628395299232
48.3398 79.31874868458473
51.2695 79.79671202988791
52.7344 80.07618486451743
54.1992 80.31813266363622
55.6641 80.55971838048146
58.5938 81.01937518952326
60.0586 81.26278215529376
62.9883 81.72499738074445
64.4531 82.00208274016423
67.3828 82.3396387475134
68.8477 82.53360531562835
71.7773 82.92685603891034
74.707 83.30283749662267
77.6367 83.61147321687648
79.1016 83.74466797058481
82.0312 84.03114554359536
84.9609 84.2329794039971
87.8906 84.5689036254581
90.8203 84.7986160899919
95.2148 85.05547459195586
98.1445 85.21766648272522
101.074 85.38676121937577
105.469 85.54226444137103
108.398 85.59398366832463
112.793 85.53219247882907
117.188 85.64764728928844
120.117 85.87995684130338
124.512 85.96774597324891
128.906 85.94845979242326
133.301 85.89873170660637
139.16 85.63990775515487
143.555 85.61880196440686
147.949 85.76191557360787
153.809 85.34886737963699
159.668 85.0285252884068
165.527 84.7421709540138
171.387 85.00229023526595
177.246 84.9211158777287
183.105 85.01228535106738
188.965 84.90109109314618
196.289 84.46823199638219
203.613 84.32846890468244
210.938 84.15629322488863
218.262 84.18347181567215
225.586 83.77537020475047
232.91 83.55973824451839
241.699 83.20548462125042
250.488 83.28996680980974
259.277 83.54892431656849
268.066 83.31730313202623
276.855 82.47972708867754
287.109 82.36182025597007
297.363 83.69012308457991
307.617 83.44703764595054
319.336 82.96063259052814
329.59 83.1905207575799
341.309 82.89335835995823
353.027 83.11848667568178
366.211 83.37898922328921
379.395 83.07570226627014
392.578 83.27757669598863
405.762 83.47498182967968
420.41 83.52101907588532
435.059 83.5529105962899
451.172 82.94617429459167
465.82 83.20390179832263
483.398 83.4373688993327
499.512 82.50002363926787
517.09 82.18698441157638
536.133 81.81312525902344
555.176 81.9819359539484
574.219 82.24925857829935
594.727 82.43824438242542
615.234 82.71935120021296
637.207 82.8730319724568
659.18 83.05780300383499
682.617 83.03977419040994
707.52 83.42650670483559
732.422 82.88540432058299
757.324 83.56281794654274
785.156 82.77818304677955
811.523 82.93130869556663
840.82 82.73814194543067
870.117 82.47930531222958
900.879 82.30400595885298
933.105 81.89346081616308
965.332 81.72939581352213
1000.49 81.13493458946878
1035.64 81.26791576894789
1072.27 81.16611938784227
1108.89 81.20550756044105
1148.44 81.14596270165062
1189.45 81.10369563313587
1230.47 80.58182037396637
1274.41 80.26853522242186
1319.82 80.51433177683066
1366.7 80.63471164161679
1413.57 80.83928824680929
1463.38 81.06812352120544
1516.11 80.74757712872454
1568.85 80.68602112719128
1624.51 80.79352336488542
1681.64 81.03479005501022
1741.7 80.74293841276823
1803.22 80.80167549266073
1866.21 81.27527150083272
1932.13 81.30023650788887
1999.51 81.1492443979161
2069.82 80.98044158979917
2143.07 81.20386266645959
2219.24 81.06720099181315
2296.88 80.72730747196134
2378.91 81.01485481912476
2462.4 81.48111819694694
2548.83 82.07480260350813
2639.65 82.8533670814023
2731.93 83.08814651038199
2828.61 83.17237488470629
2928.22 83.1029448640458
3030.76 83.55570691377787
3137.7 83.62103931762603
3249.02 83.74060429250135
3363.28 83.75053296074114
3481.93 83.68110622348433
3604.98 83.49301839608692
3732.42 83.49240791266163
3864.26 83.55758835220486
4000.49 83.2453302335375
4141.11 83.2386976093902
4287.6 82.8107985924527
4438.48 82.58422147502834
4595.21 82.36936362476233
4756.35 82.43688700329143
4924.8 82.4978545616968
5097.66 82.36837299400493
5277.83 82.10682700618784
5463.87 82.15034415793434
5657.23 82.27784834434773
5856.45 82.28266337681545
6062.99 81.9167359731772
6276.86 81.66172664135878
6498.05 81.43231537997328
6726.56 81.06852588916922
6963.87 80.7099034045529
7209.96 80.42177511218483
7464.84 80.11391144524599
7727.05 79.93467725513443
7999.51 80.05739461251814
8282.23 80.2619702231946
8573.73 80.45391489528284
8876.95 80.65963320476725
9188.96 80.81473098636614
9514.16 80.80889176299388
9849.61 80.8060771697259
10196.8 80.72462206064877
10555.7 80.50827348460632
10927.7 80.39291121917837
11313.0 80.26371973916434
11712.9 80.20080462758803
12126.0 80.147369483974
12553.7 80.11020940446471
12996.1 80.08509090197111
13454.6 80.12270052888385
13929.2 80.0298976919939
14419.9 80.26175064869228
14928.2 80.25813537680763
15455.6 80.0961395666799
16000.5 79.4699862881168
16564.5 78.56704374193129
17148.9 78.3417441955943
17752.4 78.9832044205027
18379.4 78.3614195627537
19026.9 77.70134981016942
19697.8 77.15026032721157
19999.5 77.10444191565487
