Freq "Estimated In-Room Response"
22.4 23.298606830592405
23.0 23.292667576955182
23.6 23.494475805240427
24.0 25.022754816303802
25.0 26.44794803542527
25.8 27.595452068382826
26.5 28.568399791306945
27.2 29.413857454116936
28.0 30.17458078561512
29.0 30.883090375587642
30.0 31.799574635622378
30.7 33.14629221974951
31.5 34.28059060451764
32.5 35.219226771426435
33.5 36.02475962568553
34.5 36.74132371508128
35.5 37.4434698592529
36.5 38.51091723387685
37.5 39.47551104360892
38.7 40.29880447703371
40.0 41.02304338866293
41.2 41.67315375982241
42.5 42.519583088425335
43.7 43.38346031740225
45.0 44.1601533974044
46.2 44.81490372273221
47.5 45.46378201928562
48.7 46.27391500167539
50.0 47.05489598381678
51.5 47.708377790072575
53.0 48.32632869872933
54.5 49.098941175211735
56.0 49.801536543757905
58.0 50.437948112487504
60.0 51.05039691535369
61.5 51.77608217059898
63.0 52.4286065042494
65.0 53.019360826222055
67.0 53.69563094997207
69.0 54.334134835306855
71.0 54.92549333652009
73.0 55.56368607186988
75.0 56.177961798308246
77.5 56.726620359544285
80.0 57.36848709940713
82.5 57.91721214322148
85.0 58.503465462025616
87.5 59.05999225079162
90.0 59.61383679335414
92.5 60.168835549463296
95.0 60.68019883577786
97.5 61.20300962309412
100.0 61.674407094245936
103.0 62.16478393059245
106.0 62.62614365368508
109.0 63.05369221029983
112.0 63.47733388563606
115.0 63.87153425309657
118.0 64.22844025100655
122.0 64.56554655639589
125.0 64.85277311258918
128.0 65.10029361313732
132.0 65.32349513307648
136.0 65.4919976769044
140.0 65.61847957990969
145.0 65.69353770365944
150.0 65.70543346087976
155.0 65.68540077903474
160.0 65.61828125330868
165.0 65.49070450170903
170.0 65.33395082479626
175.0 65.17678837712573
180.0 65.02351550509566
185.0 64.90846124503145
190.0 64.87806582737996
195.0 64.95727787397672
200.0 65.11403115888342
206.0 65.38396089740353
212.0 65.67600585115568
218.0 65.9706051833135
224.0 66.23754847707042
230.0 66.36980618366955
236.0 66.41670240706546
240.0 66.31326638406176
250.0 66.03865186900514
258.0 65.64257490555185
265.0 65.14215077786784
272.0 64.59009011343838
280.0 64.070655702146
290.0 63.69560961722584
300.0 63.51257142715285
307.0 63.51192526145795
315.0 63.57152729665758
325.0 63.671609572640904
335.0 63.70904958452758
345.0 63.67082649981718
355.0 63.498534904957324
365.0 63.22545716117472
375.0 62.80130623101596
387.0 62.30510855906026
400.0 61.91281196153861
412.0 61.86925644479935
425.0 62.34973822557011
437.0 63.096177025240436
450.0 63.72175624629375
462.0 63.97893069927068
475.0 63.76372127344682
487.0 63.105891779859576
500.0 62.24132730831265
515.0 61.57269336086645
530.0 61.35734773137824
545.0 61.481272358564226
560.0 61.72512886614997
580.0 62.10719884475219
600.0 62.62062624414371
615.0 63.124361521807046
630.0 63.42299252931265
650.0 63.45589010317636
670.0 63.30406686840729
690.0 63.15335883866908
710.0 63.11626675217833
730.0 62.905222349514915
750.0 61.7588892355613
775.0 59.1123916280645
800.0 58.6395453141798
825.0 61.225637084044436
850.0 61.64232205193693
875.0 59.45235155516386
900.0 59.70032828892752
925.0 63.56459781586993
950.0 65.30742192995345
975.0 65.05374838862531
1000.0 63.48158038890878
1030.0 61.54347291884166
1060.0 61.651772842520614
1090.0 62.7829011267732
1120.0 62.69305112688977
1150.0 62.083289526984046
1180.0 61.55901544066256
1220.0 60.400577949609385
1250.0 59.81359605154981
1280.0 61.5963935238085
1320.0 63.34782461831111
1360.0 63.26511535858731
1400.0 63.97158384646484
1450.0 66.05124266950888
1500.0 67.20749184064992
1550.0 68.064564165351
1600.0 68.59094022022512
1650.0 69.00256041407467
1700.0 69.22196744002152
1750.0 69.25148679396062
1800.0 68.74719319022537
1850.0 69.03584862301908
1900.0 68.65381649187
1950.0 68.53924585840525
2000.0 67.76633642027738
2060.0 68.35981475091268
2120.0 68.01618547503246
2180.0 67.94374081002712
2240.0 66.80246154674842
2300.0 66.87593394236104
2360.0 65.03006863775833
2400.0 62.83904883456026
2500.0 62.844497983984
2580.0 62.25953698054113
2650.0 61.570609292701604
2720.0 62.32784818454846
2800.0 62.38923385348423
2900.0 62.25473518423826
3000.0 61.90715298849392
3070.0 62.0357163002237
3150.0 61.74915856863984
3250.0 63.07757546219412
3350.0 62.87708348868313
3450.0 62.71725901992788
3550.0 62.249194778407286
3650.0 63.120752474744975
3750.0 63.147748838023574
3870.0 63.772898091480045
4000.0 63.78911783941952
4120.0 64.49809166824255
4250.0 64.17350137258748
4370.0 64.85135545321349
4500.0 64.4412766498573
4620.0 63.6899970434268
4750.0 62.449935345871125
4870.0 63.52017191521698
5000.0 63.33825703045369
5150.0 64.28008030710612
5300.0 63.1433415938242
5450.0 60.701079040729894
5600.0 64.51856027981242
5800.0 65.72863716335952
6000.0 64.88998290680473
6150.0 65.45704350289387
6300.0 66.37678688923296
6500.0 64.9029943483431
6700.0 64.28840726587137
6900.0 64.28711918212692
7100.0 63.910078580485674
7300.0 64.43492840579448
7500.0 63.87794462859938
7750.0 63.14686641243611
8000.0 63.16749388806926
8250.0 62.21019706599181
8500.0 63.46205574450737
8750.0 62.24594824263556
9000.0 65.41310401679233
9250.0 68.45352358829582
9500.0 66.06648787772201
9750.0 64.15998923540074
10000.0 64.89271820780887
10300.0 66.23155134864056
10600.0 66.62235069442224
10900.0 63.49944607806958
11200.0 65.9346287143276
11500.0 65.05684580427372
11800.0 62.18527521556085
12200.0 63.83258479445057
12500.0 62.964703449658714
12800.0 59.47892654850061
13200.0 54.12347516860423
13600.0 54.1801382690943
14000.0 55.99013198856916
14500.0 57.596370459921886
15000.0 58.98364591596271
15500.0 60.730368329010446
16000.0 57.54300313734227
16500.0 56.435468520806126
17000.0 52.94722367888451
17500.0 51.66623326849802
18000.0 48.47089534512233
18500.0 43.36070622137672
19000.0 44.99236903301119
19500.0 46.244579722395144
