Freq "Ceiling Bounce"
22.4 37.21469154508854
23.0 37.814691545088536
23.6 39.048275459317935
24.0 42.88237488868724
25.0 45.34827545931795
25.8 47.01620866459312
26.5 48.4162086645931
27.2 50.316208664593105
28.0 51.9162086645931
29.0 53.11620866459309
30.0 54.316208664593105
30.7 55.784641375586986
31.5 56.984641375587
32.5 57.984641375587
33.5 59.253569370392924
34.5 60.35356937039292
35.5 61.35356937039292
36.5 62.45356937039291
37.5 63.41924211829762
38.7 64.28841756093728
40.0 65.28841756093729
41.2 66.08841756093729
42.5 66.95436573008782
43.7 67.79001580512511
45.0 68.6208290609875
46.2 69.55436573008781
47.5 70.4208290609875
48.7 71.42082906098749
50.0 72.29001580512511
51.5 73.22082906098751
53.0 74.12082906098749
54.5 75.02082906098751
56.0 75.82082906098749
58.0 76.62082906098749
60.0 77.38780366286109
61.5 78.0208290609875
63.0 78.7208290609875
65.0 79.28543205850228
67.0 79.82082906098749
69.0 80.2854320585023
71.0 80.72082906098751
73.0 81.18543205850227
75.0 81.7208290609875
77.5 82.15436573008782
80.0 82.25436573008781
82.5 82.45436573008783
85.0 82.52082906098751
87.5 82.49001580512511
90.0 82.39001580512512
92.5 82.29001580512511
95.0 82.19001580512513
97.5 82.2596912450176
100.0 82.49612372395596
103.0 82.79612372395594
106.0 83.19612372395595
109.0 83.5629091994284
112.0 83.93309110566044
115.0 84.23309110566045
118.0 84.43309110566044
122.0 84.60375261736762
125.0 84.63309110566043
128.0 84.70375261736761
132.0 84.70375261736761
136.0 84.70375261736761
140.0 84.80375261736764
145.0 84.94151124346882
150.0 85.10375261736763
155.0 85.24151124346882
160.0 85.44151124346884
165.0 85.54151124346883
170.0 85.61289850194215
175.0 85.71289850194216
180.0 85.77488919300473
185.0 85.74151124346882
190.0 85.71289850194216
195.0 85.57981251122978
200.0 85.25145182363319
206.0 84.96290764214133
212.0 84.93572143752186
218.0 85.47587272627057
224.0 86.44938668197973
230.0 87.1827043906008
236.0 87.60898863099119
240.0 87.73572143752186
250.0 87.63572143752187
258.0 87.30898863099121
265.0 86.94938668197973
272.0 86.69774739230886
280.0 86.56454533073655
290.0 86.6391885899214
300.0 86.83918858992139
307.0 86.89774739230886
315.0 86.92334653489308
325.0 86.66454533073654
335.0 86.17529242686055
345.0 86.09553613596712
355.0 86.47529242686055
365.0 86.85650678726306
375.0 86.75650678726306
387.0 86.29931115529187
400.0 85.77529242686053
412.0 85.23994857419981
425.0 85.01722788892219
437.0 85.16244420522096
450.0 85.04035702805798
462.0 84.6649122856451
475.0 84.5649122856451
487.0 84.840357028058
500.0 85.09490895613972
515.0 85.14035702805798
530.0 84.97040718478117
545.0 84.57264862805586
560.0 84.42115111968863
580.0 84.37193209832633
600.0 84.45969628542943
615.0 84.24089225357518
630.0 83.02243725814223
650.0 81.8408922535752
670.0 82.00281268601942
690.0 81.8186635461384
710.0 80.98493017074772
730.0 80.34902955793265
750.0 79.32458269441064
775.0 78.65557693227784
800.0 78.05944738231817
825.0 76.36277540980596
850.0 76.90476354178196
875.0 78.45912921162673
900.0 79.38286021367676
925.0 79.69648470562825
950.0 80.60308344355532
975.0 81.59269519849174
1000.0 80.57122554721221
1030.0 79.5026051212253
1060.0 79.46914685959588
1090.0 78.31657718314905
1120.0 76.82229338915063
1150.0 78.34151124346883
1180.0 79.23572143752186
1220.0 78.18270439060082
1250.0 76.56838253589353
1280.0 72.77473407519193
1320.0 69.98559930644672
1360.0 74.03191146012308
1400.0 74.30572220740699
1450.0 75.93596314970368
1500.0 76.04404582284944
1550.0 76.18924456556927
1600.0 76.65679997016808
1650.0 76.27723480696746
1700.0 74.7836931025585
1750.0 75.25094863208311
1800.0 74.52339400970489
1850.0 76.4751988561121
1900.0 74.45710467411755
1950.0 77.67792524346704
2000.0 78.20932580457767
2060.0 79.01872910653769
2120.0 77.4146068032534
2180.0 78.42312708883023
2240.0 75.6807601116088
2300.0 77.26840120393926
2360.0 74.92095096922235
2400.0 76.84234416540457
2500.0 78.29491379827077
2580.0 78.79150355524003
2650.0 80.07867095878092
2720.0 78.28854365070903
2800.0 80.52176768434911
2900.0 78.44363116709589
3000.0 79.79206041219621
3070.0 78.20649782811617
3150.0 79.59343883347141
3250.0 77.85255127635867
3350.0 77.30932580457768
3450.0 77.86371211110178
3550.0 78.26747871025074
3650.0 80.03661465251166
3750.0 79.48061109889647
3870.0 79.61196384819094
4000.0 80.21530297340352
4120.0 79.2741392609459
4250.0 79.86049820214373
4370.0 80.06511906363708
4500.0 79.9127471899315
4620.0 79.70331146845967
4750.0 78.61567552382606
4870.0 78.29557792843651
5000.0 77.56518907644782
5150.0 77.3588497712026
5300.0 78.02601195870427
5450.0 78.37231671596281
5600.0 79.02545994987437
5800.0 78.53094058299118
6000.0 78.75758082136439
6150.0 77.42271746936
6300.0 77.89965857016747
6500.0 77.01465326395366
6700.0 76.67567391119822
6900.0 76.01733763261572
7100.0 75.73230032036118
7300.0 77.06981192226596
7500.0 76.54205238771576
7750.0 77.54714890155083
8000.0 78.48920292949812
8250.0 77.22803797900889
8500.0 77.59003099124212
8750.0 77.51979230906439
9000.0 76.82823114242194
9250.0 74.05427573160135
9500.0 73.9260304976059
9750.0 74.4874816361675
10000.0 74.23554537286003
10300.0 74.87043828358175
10600.0 74.63288258232583
10900.0 77.82175120418736
11200.0 75.59598245507375
11500.0 73.06661984569425
11800.0 73.33738224936111
12200.0 74.42271746936
12500.0 78.1114415490449
12800.0 80.3085921952616
13200.0 79.32780916240013
13600.0 77.76274838869783
14000.0 76.1597569150953
14500.0 76.12119750386326
15000.0 73.22300291767824
15500.0 71.80074368278623
16000.0 72.42780916240012
16500.0 71.02386031963584
17000.0 71.24065733168801
17500.0 67.39047416263486
18000.0 67.7141909660589
18500.0 66.8741392609459
19000.0 67.59173300784065
19500.0 74.05439483068282
