Freq "Ceiling Bounce"
22.4 36.90076749445559
23.0 37.500767494455616
23.6 38.734351408685015
24.0 42.56845083805432
25.0 45.034351408685026
25.8 46.702284613960174
26.5 48.10228461396018
27.2 50.002284613960185
28.0 51.60228461396018
29.0 52.8022846139602
30.0 54.002284613960185
30.7 55.470717324954094
31.5 56.67071732495408
32.5 57.67071732495408
33.5 58.93964531976003
34.5 60.03964531976003
35.5 61.03964531976003
36.5 62.13964531976002
37.5 63.1053180676647
38.7 63.974493510304384
40.0 64.97449351030437
41.2 65.7744935103044
42.5 66.64044167945492
43.7 67.47609175449222
45.0 68.30690501035458
46.2 69.2404416794549
47.5 70.10690501035458
48.7 71.10690501035458
50.0 71.9760917544922
51.5 72.90690501035459
53.0 73.80690501035458
54.5 74.70690501035459
56.0 75.50690501035459
58.0 76.30690501035458
60.0 77.07387961222818
61.5 77.70690501035459
63.0 78.4069050103546
65.0 78.97150800786939
67.0 79.5069050103546
69.0 79.97150800786937
71.0 80.40690501035459
73.0 80.87150800786938
75.0 81.40690501035459
77.5 81.84044167945491
80.0 81.9404416794549
82.5 82.14044167945491
85.0 82.20690501035459
87.5 82.1760917544922
90.0 82.07609175449223
92.5 81.9760917544922
95.0 81.87609175449221
97.5 81.94576719438469
100.0 82.18219967332304
103.0 82.48219967332305
106.0 82.88219967332304
109.0 83.24898514879551
112.0 83.61916705502753
115.0 83.91916705502754
118.0 84.11916705502755
122.0 84.28982856673473
125.0 84.31916705502753
128.0 84.38982856673472
132.0 84.38982856673472
136.0 84.38982856673472
140.0 84.48982856673472
145.0 84.62758719283593
150.0 84.78982856673473
155.0 84.92758719283593
160.0 85.12758719283592
165.0 85.22758719283591
170.0 85.29897445130925
175.0 85.39897445130926
180.0 85.46096514237182
185.0 85.42758719283593
190.0 85.39897445130926
195.0 85.26588846059688
200.0 84.93752777300028
206.0 84.64898359150841
212.0 84.62179738688896
218.0 85.16194867563766
224.0 86.13546263134683
230.0 86.8687803399679
236.0 87.2950645803583
240.0 87.42179738688897
250.0 87.32179738688895
258.0 86.9950645803583
265.0 86.63546263134681
272.0 86.38382334167595
280.0 86.25062128010364
290.0 86.32526453928848
300.0 86.5252645392885
307.0 86.58382334167594
315.0 86.6094224842602
325.0 86.35062128010364
335.0 85.86136837622763
345.0 85.7816120853342
355.0 86.16136837622763
365.0 86.54258273663014
375.0 86.44258273663014
387.0 85.98538710465898
400.0 85.46136837622764
412.0 84.92602452356691
425.0 84.7033038382893
437.0 84.84852015458806
450.0 84.72643297742506
462.0 84.35098823501218
475.0 84.25098823501219
487.0 84.52643297742509
500.0 84.7809849055068
515.0 84.82643297742509
530.0 84.65648313414827
545.0 84.25872457742295
560.0 84.10722706905571
580.0 84.0580080476934
600.0 84.14577223479651
615.0 83.92696820294229
630.0 82.70851320750933
650.0 81.52696820294229
670.0 81.68888863538652
690.0 81.50473949550548
710.0 80.67100612011482
730.0 80.03510550729973
750.0 79.01065864377773
775.0 78.34165288164495
800.0 77.74552333168526
825.0 76.04885135917307
850.0 76.59083949114904
875.0 78.14520516099381
900.0 79.06893616304386
925.0 79.38256065499534
950.0 80.28915939292243
975.0 81.27877114785885
1000.0 80.2573014965793
1030.0 79.18868107059241
1060.0 79.15522280896299
1090.0 78.00265313251613
1120.0 76.50836933851774
1150.0 78.02758719283592
1180.0 78.92179738688894
1220.0 77.8687803399679
1250.0 76.25445848526064
1280.0 72.46081002455902
1320.0 69.67167525581382
1360.0 73.71798740949016
1400.0 73.99179815677408
1450.0 75.62203909907079
1500.0 75.73012177221653
1550.0 75.87532051493635
1600.0 76.34287591953517
1650.0 75.96331075633454
1700.0 74.4697690519256
1750.0 74.9370245814502
1800.0 74.20946995907198
1850.0 76.1612748054792
1900.0 74.14318062348464
1950.0 77.36400119283412
2000.0 77.89540175394475
2060.0 78.7048050559048
2120.0 77.1006827526205
2180.0 78.10920303819731
2240.0 75.36683606097591
2300.0 76.95447715330634
2360.0 74.60702691858944
2400.0 76.52842011477166
2500.0 77.98098974763786
2580.0 78.47757950460712
2650.0 79.764746908148
2720.0 77.97461960007611
2800.0 80.20784363371621
2900.0 78.12970711646297
3000.0 79.47813636156329
3070.0 77.89257377748326
3150.0 79.27951478283852
3250.0 77.53862722572576
3350.0 76.99540175394476
3450.0 77.54978806046888
3550.0 77.95355465961785
3650.0 79.72269060187877
3750.0 79.16668704826358
3870.0 79.29803979755805
4000.0 79.90137892277063
4120.0 78.960215210313
4250.0 79.54657415151084
4370.0 79.75119501300416
4500.0 79.5988231392986
4620.0 79.38938741782675
4750.0 78.30175147319314
4870.0 77.98165387780361
5000.0 77.2512650258149
5150.0 77.04492572056968
5300.0 77.71208790807138
5450.0 78.05839266532989
5600.0 78.71153589924147
5800.0 78.21701653235827
6000.0 78.44365677073147
6150.0 77.10879341872709
6300.0 77.58573451953457
6500.0 76.70072921332074
6700.0 76.36174986056533
6900.0 75.7034135819828
7100.0 75.41837626972828
7300.0 76.75588787163304
7500.0 76.22812833708284
7750.0 77.23322485091792
8000.0 78.17527887886523
8250.0 76.91411392837597
8500.0 77.27610694060922
8750.0 77.2058682584315
9000.0 76.51430709178904
9250.0 73.74035168096843
9500.0 73.61210644697297
9750.0 74.17355758553458
10000.0 73.92162132222711
10300.0 74.55651423294884
10600.0 74.31895853169291
10900.0 77.50782715355444
11200.0 75.28205840444085
11500.0 72.75269579506134
11800.0 73.0234581987282
12200.0 74.10879341872709
12500.0 77.79751749841198
12800.0 79.9946681446287
13200.0 79.01388511176722
13600.0 77.44882433806491
14000.0 75.8458328644624
14500.0 75.80727345323037
15000.0 72.90907886704534
15500.0 71.48681963215333
16000.0 72.1138851117672
16500.0 70.70993626900294
17000.0 70.92673328105512
17500.0 67.07655011200195
18000.0 67.40026691542599
18500.0 66.56021521031299
19000.0 67.27780895720772
19500.0 73.74047078004993
