Freq "Rear Wall Bounce"
22.4 35.307166368123475
23.0 35.870392108339004
23.6 37.136398782491895
24.0 40.98261998077943
25.0 43.399643732630906
25.8 45.08777510502118
26.5 46.519319415324745
27.2 48.47647763793334
28.0 50.06953418628122
29.0 51.34500404432616
30.0 52.66577928344556
30.7 54.18895815857938
31.5 55.463737043211395
32.5 56.596186243937225
33.5 58.03849732802114
34.5 59.26849870365068
35.5 60.34048026503682
36.5 61.5814217114726
37.5 62.62764066515031
38.7 63.59116224619764
40.0 64.53800153410847
41.2 65.34857821250874
42.5 66.13974050538242
43.7 66.87212091371495
45.0 67.59510681911668
46.2 68.43873834181163
47.5 69.1768932596452
48.7 70.05330969068804
50.0 70.84345052216837
51.5 71.75503173791462
53.0 72.60208708389189
54.5 73.4599509918131
56.0 74.2483829041607
58.0 75.11449516429907
60.0 75.89286503620251
61.5 76.60816596795567
63.0 77.32601828888764
65.0 77.98178794612765
67.0 78.58178794612765
69.0 79.13812479981769
71.0 79.6743129215064
73.0 80.16905904605326
75.0 80.69478928718394
77.5 81.14217812205361
80.0 81.22096199679454
82.5 81.32096199679454
85.0 81.37968260384396
87.5 81.27893241443371
90.0 81.13700294887448
92.5 80.95789551710239
95.0 80.85311063824763
97.5 80.86440346242416
100.0 81.00631330031536
103.0 81.2485726751814
106.0 81.49140583804228
109.0 81.73633226116988
112.0 81.92694568149993
115.0 82.09130072316552
118.0 82.20357326581085
122.0 82.30357326581084
125.0 82.30357326581084
128.0 82.3139916422234
132.0 82.27005069322753
136.0 82.27542564477376
140.0 82.34426292039889
145.0 82.47111102378449
150.0 82.59887305378814
155.0 82.71575400866733
160.0 82.8483302799588
165.0 82.92240987462026
170.0 82.90342462469145
175.0 82.9327832151792
180.0 83.01407323705804
185.0 83.07217263338386
190.0 83.10635212756816
195.0 83.05401480655881
200.0 82.6643430741294
206.0 81.91720133671585
212.0 81.12890440346644
218.0 80.6233855690693
224.0 80.80614753230006
230.0 81.22843719240362
236.0 81.71140813081932
240.0 82.09727461138041
250.0 82.20806691250236
258.0 82.04071791189024
265.0 81.7161139270497
272.0 81.18897027654666
280.0 80.54648237712165
290.0 80.05295035797978
300.0 79.99524759639256
307.0 80.30632891877704
315.0 80.635754651397
325.0 80.56940642793984
335.0 79.66600605459728
345.0 78.44757277032268
355.0 78.11449275955793
365.0 78.40298146283514
375.0 78.52993893708808
387.0 78.32775685341662
400.0 77.95701262599026
412.0 77.18376002717062
425.0 76.48931189492718
437.0 76.41079569614844
450.0 76.27007159156874
462.0 75.68264579532537
475.0 75.6102771490536
487.0 76.14153442091349
500.0 76.80656900421135
515.0 76.9750885753926
530.0 75.75602506423587
545.0 73.8597816160465
560.0 72.95333478198683
580.0 72.78005557857342
600.0 72.71733044613302
615.0 73.40688478948921
630.0 73.89480919159429
650.0 72.56158394175196
670.0 71.7129882071637
690.0 71.65220870979599
710.0 70.56680889086644
730.0 70.70474639244141
750.0 70.74067270680882
775.0 69.97954124370716
800.0 69.55937690021042
825.0 70.26105512923037
850.0 71.27374073337026
875.0 71.506658813324
900.0 70.84496862202131
925.0 69.35789653650637
950.0 68.68233393196417
975.0 68.86310220201787
1000.0 64.35839739493262
1030.0 59.71901268636098
1060.0 57.302138758721085
1090.0 60.911509305933905
1120.0 65.09092309372402
1150.0 65.20036098821582
1180.0 63.954023882714054
1220.0 61.86797043492278
1250.0 61.03836103783614
1280.0 59.714948591384186
1320.0 57.04051935982683
1360.0 55.284440797327775
1400.0 57.70695937939182
1450.0 57.07711258552065
1500.0 57.50851394713361
1550.0 58.130194708060245
1600.0 61.070933754949905
1650.0 60.73944015352528
1700.0 60.594278680765896
1750.0 62.01123313249816
1800.0 61.0061505221105
1850.0 58.333820384237
1900.0 56.702735862585726
1950.0 54.422492532198234
2000.0 56.15471384524356
2060.0 59.684464405755406
2120.0 60.9686357905759
2180.0 60.63887357806668
2240.0 62.38989351887848
2300.0 61.05153426630942
2360.0 63.629814751114466
2400.0 62.47470339829577
2500.0 62.566052046001076
2580.0 63.26807554560138
2650.0 64.37379991996364
2720.0 64.15687551244501
2800.0 64.11460306928899
2900.0 64.40874100427274
3000.0 63.7693389215017
3070.0 61.73691754433925
3150.0 63.26880919806926
3250.0 63.87016961628585
3350.0 66.35212827607667
3450.0 65.72420776477824
3550.0 64.92693950279748
3650.0 64.30349271156541
3750.0 61.06348932982867
3870.0 59.421158787841094
4000.0 60.814921163239134
4120.0 61.21970501573561
4250.0 62.02581239619765
4370.0 61.15688539930146
4500.0 63.49028049096647
4620.0 64.62077704167268
4750.0 64.73849477919087
4870.0 61.74790805763631
5000.0 63.20847966235995
5150.0 63.93451652547408
5300.0 63.98120262482378
5450.0 63.0566277874524
5600.0 59.41080302671621
5800.0 63.62764673858224
6000.0 64.6611371689887
6150.0 61.973790872001345
6300.0 59.716080683073315
6500.0 60.42271481359121
6700.0 59.936018360988456
6900.0 61.98106835300855
7100.0 62.73071345741714
7300.0 60.749158985597475
7500.0 63.957363114944954
7750.0 61.84140285240362
8000.0 62.21814583787297
8250.0 62.01762299523291
8500.0 62.27095586808129
8750.0 60.06613944241941
9000.0 61.28932658083379
9250.0 62.94224391823833
9500.0 59.93014448689577
9750.0 62.028499105798645
10000.0 60.500565482414586
10300.0 58.63702317529065
10600.0 60.535551230048284
10900.0 63.16998544682416
11200.0 61.412219544124795
11500.0 56.37424222466932
11800.0 58.59467538030485
12200.0 54.32269366232286
12500.0 58.756531979380824
12800.0 63.2525452607271
13200.0 61.609524239042386
13600.0 63.20423546494921
14000.0 63.82751432801702
14500.0 62.50226090248596
15000.0 59.325639209213094
15500.0 54.23934610218389
16000.0 55.870383440504995
16500.0 52.00103827481966
17000.0 56.005280530898816
17500.0 54.38306452281442
18000.0 52.772794440433344
18500.0 52.83998038051375
19000.0 51.44332425243634
19500.0 55.483502697610746
