Freq "On Axis"
22.4 20.17215189873417
23.0 23.572151898734205
23.6 27.772151898734194
24.0 32.17215189873417
25.0 35.67215189873417
25.8 38.67215189873417
26.5 41.67215189873417
27.2 42.572151898734205
28.0 43.272151898734194
29.0 43.572151898734205
30.0 44.17215189873417
30.7 47.272151898734194
31.5 49.672151898734185
32.5 51.772151898734194
33.5 54.07215189873419
34.5 56.272151898734194
35.5 58.672151898734185
36.5 60.47215189873418
37.5 61.87215189873419
38.7 63.672151898734185
40.0 66.57215189873419
41.2 69.67215189873419
42.5 71.2721518987342
43.7 71.97215189873418
45.0 73.17215189873417
46.2 75.17215189873419
47.5 77.07215189873418
48.7 78.57215189873419
50.0 79.57215189873418
51.5 79.2721518987342
53.0 79.37215189873419
54.5 80.7721518987342
56.0 81.7721518987342
58.0 82.2721518987342
60.0 82.57215189873419
61.5 82.97215189873418
63.0 83.2721518987342
65.0 83.57215189873419
67.0 83.67215189873419
69.0 83.67215189873419
71.0 83.67215189873419
73.0 83.57215189873419
75.0 83.47215189873418
77.5 83.2721518987342
80.0 82.87215189873419
82.5 82.57215189873419
85.0 82.2721518987342
87.5 81.87215189873419
90.0 81.37215189873419
92.5 80.87215189873419
95.0 80.37215189873419
97.5 79.7721518987342
100.0 79.2721518987342
103.0 78.67215189873419
106.0 78.17215189873417
109.0 77.57215189873419
112.0 77.07215189873418
115.0 76.37215189873419
118.0 75.97215189873418
122.0 75.47215189873418
125.0 74.97215189873418
128.0 74.67215189873419
132.0 74.2721518987342
136.0 73.97215189873418
140.0 73.67215189873419
145.0 73.37215189873419
150.0 73.0721518987342
155.0 72.7721518987342
160.0 72.47215189873418
165.0 72.2721518987342
170.0 72.07215189873418
175.0 71.97215189873418
180.0 71.97215189873418
185.0 71.97215189873418
190.0 71.97215189873418
195.0 72.07215189873418
200.0 72.17215189873419
206.0 72.2721518987342
212.0 72.37215189873419
218.0 72.47215189873418
224.0 72.47215189873418
230.0 72.37215189873419
236.0 72.07215189873418
240.0 71.6721518987342
250.0 71.57215189873419
258.0 71.97215189873418
265.0 72.57215189873419
272.0 73.0721518987342
280.0 73.37215189873419
290.0 73.37215189873419
300.0 73.2721518987342
307.0 72.97215189873418
315.0 72.67215189873419
325.0 72.37215189873419
335.0 72.17215189873419
345.0 72.07215189873418
355.0 72.2721518987342
365.0 72.47215189873418
375.0 72.7721518987342
387.0 72.97215189873418
400.0 73.17215189873417
412.0 73.2721518987342
425.0 73.0721518987342
437.0 72.57215189873419
450.0 71.97215189873418
462.0 71.47215189873418
475.0 71.87215189873419
487.0 73.0721518987342
500.0 74.2721518987342
515.0 75.17215189873419
530.0 75.37215189873419
545.0 75.07215189873419
560.0 74.47215189873418
580.0 73.87215189873419
600.0 73.57215189873419
615.0 73.67215189873419
630.0 73.47215189873418
650.0 72.87215189873419
670.0 72.2721518987342
690.0 71.97215189873418
710.0 71.57215189873419
730.0 70.7721518987342
750.0 69.37215189873419
775.0 68.0721518987342
800.0 68.2721518987342
825.0 69.47215189873418
850.0 70.07215189873419
875.0 69.47215189873418
900.0 68.47215189873418
925.0 68.87215189873419
950.0 69.97215189873418
975.0 69.87215189873419
1000.0 69.07215189873419
1030.0 68.7721518987342
1060.0 68.7721518987342
1090.0 69.57215189873418
1120.0 70.07215189873419
1150.0 68.87215189873419
1180.0 69.7721518987342
1220.0 71.2721518987342
1250.0 72.37215189873419
1280.0 74.37215189873419
1320.0 75.37215189873419
1360.0 74.1721518987342
1400.0 71.97215189873418
1450.0 70.5721518987342
1500.0 69.97215189873418
1550.0 69.87215189873419
1600.0 69.37215189873419
1650.0 69.1721518987342
1700.0 68.97215189873418
1750.0 70.17215189873419
1800.0 71.2721518987342
1850.0 71.57215189873419
1900.0 72.2721518987342
1950.0 72.2721518987342
2000.0 72.37215189873419
2060.0 72.07215189873418
2120.0 71.57215189873419
2180.0 72.57215189873419
2240.0 74.1721518987342
2300.0 74.67215189873419
2360.0 74.7721518987342
2400.0 74.1721518987342
2500.0 73.2721518987342
2580.0 72.67215189873419
2650.0 72.47215189873418
2720.0 72.7721518987342
2800.0 73.67215189873419
2900.0 73.87215189873419
3000.0 73.37215189873419
3070.0 73.2721518987342
3150.0 73.47215189873418
3250.0 73.37215189873419
3350.0 73.67215189873419
3450.0 73.47215189873418
3550.0 73.47215189873418
3650.0 73.57215189873419
3750.0 73.7721518987342
3870.0 73.67215189873419
4000.0 73.7721518987342
4120.0 73.57215189873419
4250.0 72.2721518987342
4370.0 72.87215189873419
4500.0 73.47215189873418
4620.0 73.2721518987342
4750.0 73.2721518987342
4870.0 72.87215189873419
5000.0 72.97215189873418
5150.0 73.2721518987342
5300.0 73.17215189873417
5450.0 72.7721518987342
5600.0 72.17215189873419
5800.0 72.37215189873419
6000.0 73.2721518987342
6150.0 73.2721518987342
6300.0 72.97215189873418
6500.0 73.17215189873417
6700.0 73.7721518987342
6900.0 74.87215189873419
7100.0 75.47215189873418
7300.0 75.5721518987342
7500.0 75.67215189873417
7750.0 76.07215189873419
8000.0 75.87215189873419
8250.0 74.67215189873419
8500.0 73.67215189873419
8750.0 74.37215189873419
9000.0 75.07215189873419
9250.0 74.67215189873419
9500.0 72.67215189873419
9750.0 71.87215189873419
10000.0 74.47215189873418
10300.0 77.07215189873418
10600.0 77.47215189873418
10900.0 75.97215189873418
11200.0 74.67215189873419
11500.0 74.37215189873419
11800.0 74.97215189873418
12200.0 73.87215189873419
12500.0 70.87215189873419
12800.0 73.17215189873417
13200.0 75.97215189873418
13600.0 75.2721518987342
14000.0 74.07215189873419
14500.0 72.37215189873419
15000.0 75.87215189873419
15500.0 71.2721518987342
16000.0 70.17215189873419
16500.0 75.17215189873419
17000.0 74.2721518987342
17500.0 75.37215189873419
18000.0 74.7721518987342
18500.0 73.67215189873419
19000.0 72.2721518987342
19500.0 73.2721518987342
