Freq "Listening Window"
20.5078 64.69077380852549
21.2402 66.44428814449158
21.9727 67.64039483092164
22.7051 69.09837672051407
23.4375 70.40970475324191
24.1699 73.08884384276296
25.6348 75.59891017322387
26.3672 76.96628795848177
27.0996 78.13018313699402
27.832 79.40002904039095
29.2969 81.02917152993439
30.0293 81.65413242010816
31.4941 82.857059470713
32.2266 83.19003312739929
33.6914 83.8200507690717
34.4238 84.0302804638478
35.8887 84.3594362729483
37.3535 84.69306389494639
38.8184 85.03412833985611
39.5508 85.1865484689031
41.0156 85.67796428407084
42.4805 86.01909149270533
43.9453 86.47050022409537
45.4102 86.82969488518785
47.6074 87.4528397137007
49.0723 87.79967585576377
50.5371 88.14440499872177
52.7344 88.69810631301391
54.1992 89.07458514279865
56.3965 89.56332382546206
58.5938 90.04029140974315
60.0586 90.43393374189118
62.2559 90.86172339696542
64.4531 91.2200001478189
66.6504 91.6476345609474
69.5801 92.14649373691641
71.7773 92.29882888080392
73.9746 92.30132933019563
76.9043 92.2484855392332
79.834 92.25004482627068
82.7637 92.12907132971102
85.6934 91.88846917315935
88.623 91.78576598824952
91.5527 91.67935070840893
94.4824 91.41947553580393
98.1445 91.11516332214065
101.807 90.61356237761824
105.469 90.28734691650472
109.131 90.00609793505006
112.793 89.69708205308997
116.455 89.59376423654615
120.85 90.1638160580239
125.244 89.77502974365355
129.639 89.32481451487722
134.033 89.72806004644629
138.428 89.37817209741223
143.555 88.86982425943421
148.682 88.88422605861267
153.809 88.81663682123938
159.668 88.32062206032437
164.795 87.99016148933197
170.654 87.69736459658372
176.514 87.9791087143939
183.105 87.6659061877153
189.697 87.14708780414419
196.289 86.90553170135641
202.881 86.69198110050166
210.205 87.60216040405514
217.529 87.1420817459947
225.586 87.14442436970634
232.91 87.50791277820638
241.699 87.13278643670482
249.756 86.6599515636065
258.545 86.99661256860033
268.066 87.65129637233946
277.588 86.6895077352125
287.109 88.420509453669
297.363 87.56944379301898
307.617 87.26189389846301
318.604 88.19320808689996
329.59 86.95701633008959
341.309 87.57033345547553
353.76 87.3744108907356
366.211 86.6103138431349
378.662 88.05798946291864
392.578 88.20966126572392
405.762 88.80669159390106
420.41 88.9300121887315
435.059 89.55167327208876
450.439 88.70359262826578
466.553 89.32186744566036
482.666 89.54931437280926
500.244 89.56584286652343
517.822 90.06188996319543
536.133 88.99896177266722
554.443 89.17113107545974
574.219 88.33584628996356
594.727 89.46070285069422
615.234 89.0572016738531
637.207 89.67280542988384
659.912 90.04862380972466
683.35 90.44051308517736
706.787 90.16954452891773
731.689 89.40680593972063
758.057 89.15987861472047
784.424 88.48399532959276
812.256 89.03424650556585
840.82 88.4008358014791
870.85 87.96641192282522
901.611 87.96745304125153
933.105 87.44233776890223
966.064 87.60534946866115
999.756 87.62071501127768
1034.91 87.0520343108889
1071.53 87.07807343502257
1109.62 86.96100123857946
1148.44 87.51897031503448
1189.45 87.64880476284225
1231.2 88.05831504757056
1274.41 87.9565073641845
1319.82 88.13396284356234
1365.97 87.58094228947884
1414.31 87.53751605802422
1464.11 87.65073703603296
1515.38 87.50113533829705
1568.85 85.88578724285168
1624.51 84.43425346949601
1681.64 84.5441390096907
1740.97 83.90877667342423
1802.49 85.49303570034404
1866.21 86.99335562346046
1932.13 87.27934653938162
2000.24 86.93835830206577
2070.56 87.73891277715109
2143.8 88.2720325285146
2219.24 87.95292992482332
2297.61 88.09249356373765
2378.17 88.59663582814291
2462.4 88.46537730978197
2548.83 88.36126690430443
2638.92 89.7336058879773
2731.93 89.88460234266071
2828.61 88.24824968408058
2928.22 88.24701101250146
3031.49 88.0945848057572
3138.43 87.26999767342701
3249.02 86.86413155795977
3363.28 86.49720933583721
3481.93 85.8364644497803
3604.98 86.36730849730124
3732.42 86.2377487392178
3863.53 86.46497311365873
3999.76 87.10926861892446
4141.11 87.55660606123588
4286.87 87.54338226907386
4438.48 88.20569978432987
4594.48 86.80818639393404
4757.08 87.61001217750088
4924.8 86.62999762423979
5098.39 86.41737850900589
5277.83 86.48987496943317
5463.87 86.15071022536053
5656.49 87.02613018611193
5856.45 87.54884697599478
6062.99 87.91237798839543
6276.86 87.66138874476881
6498.05 87.59317484793192
6727.29 87.06159889060785
6964.6 87.06124207088287
7209.96 86.5955008868445
7464.11 86.91866401721255
7727.78 86.8925935776296
8000.24 87.20911953345227
8282.23 87.2459008217251
8574.46 86.74179557510301
8876.22 86.59102542450772
9189.7 86.88239684134201
9513.43 86.93013346374566
9848.88 86.93569441029851
10196.8 86.99080788813944
10556.4 86.92034588544276
10928.5 86.99387631588904
11313.7 86.91524408066154
11712.9 86.89986928952455
12126.0 86.97528524710411
12553.7 87.09791967682861
12996.1 87.13433445226548
13454.6 87.11487976768908
13928.5 86.99383621974965
14419.9 86.66980111494297
14928.2 86.54710434069534
15454.8 86.8986428320209
15999.8 87.16301459200427
16564.5 87.36898503998145
17148.2 87.62973937364815
17753.2 87.80134985039246
18379.4 87.91545471415564
19027.6 87.98629453558026
19698.5 87.81572275688912
19999.5 87.89742989929903
