Freq "Front Wall Bounce"
22.4 49.22364573697594
23.0 50.35626569735548
23.6 51.631012549279845
24.0 53.74471933528393
25.0 55.48065695552499
25.8 56.94609259211488
26.5 58.16356286659489
27.2 59.26866241834746
28.0 62.17571937354673
29.0 64.77279990811836
30.0 66.58419609494375
30.7 67.83040762813697
31.5 69.49861213266335
32.5 72.81426057792112
33.5 74.95062977703975
34.5 76.42016173625295
35.5 77.66820525281571
36.5 79.30581299449456
37.5 80.60581299449457
38.7 81.62531956916405
40.0 82.26417959788418
41.2 82.18613251501792
42.5 82.14800737943135
43.7 82.2716136141893
45.0 83.55308070602028
46.2 84.64787017393132
47.5 85.56067937061047
48.7 86.64367974945273
50.0 87.4276099904916
51.5 88.2731445488385
53.0 89.45288156801195
54.5 90.38637128559654
56.0 91.27375644907495
58.0 92.10821380446016
60.0 92.47869772106397
61.5 92.00833991297036
63.0 91.56623977345663
65.0 91.82566534499702
67.0 92.1037588300771
69.0 92.46645863998116
71.0 92.71334494552228
73.0 91.67911901989794
75.0 90.0291939380518
77.5 89.39815645072586
80.0 89.06881313516553
82.5 89.15795995428444
85.0 89.8638628216885
87.5 90.77672768665516
90.0 90.7592386382915
92.5 90.77423686250064
95.0 90.75959692692703
97.5 89.4445397873761
100.0 88.29939952824473
103.0 87.78482017227677
106.0 86.9404346542546
109.0 87.3497736028906
112.0 87.54977360289058
115.0 87.12762586077969
118.0 86.99579800663881
122.0 88.02052451601699
125.0 88.58937267384589
128.0 89.72853968801638
132.0 89.47272056775073
136.0 89.6123601847311
140.0 91.09714599204065
145.0 91.96792296113176
150.0 92.26792296113176
155.0 90.63781427580298
160.0 89.60886452830557
165.0 89.62404564780323
170.0 89.39566690683093
175.0 90.39566690683093
180.0 90.69566690683092
185.0 90.39566690683093
190.0 90.02404564780323
195.0 91.15036398084985
200.0 91.32215725358166
206.0 89.18038608700611
212.0 89.05036398084984
218.0 89.72215725358166
224.0 86.89566690683093
230.0 87.73764396613836
236.0 89.39566690683093
240.0 89.49566690683092
250.0 89.8852973506883
258.0 90.15731732948389
265.0 90.93164111649448
272.0 90.10640184792207
280.0 87.85359060578527
290.0 89.18159456994889
300.0 89.28859683503042
307.0 87.88859683503041
315.0 88.14144112698038
325.0 88.54144112698036
335.0 89.04144112698037
345.0 89.49006529425031
355.0 89.86736101528098
365.0 90.16736101528099
375.0 90.46736101528099
387.0 90.83508676697815
400.0 91.18416348158088
412.0 91.4841634815809
425.0 91.56194708996408
437.0 91.47916156612584
450.0 91.35114185845866
462.0 91.21185253514273
475.0 90.99028143079539
487.0 90.60778175424676
500.0 90.22561700770238
515.0 89.88668304646009
530.0 89.6866830464601
545.0 89.5378598457513
560.0 89.35871198017426
580.0 89.35871198017426
600.0 89.55871198017427
615.0 89.65871198017426
630.0 89.55871198017427
650.0 89.4378598457513
670.0 89.31738517762425
690.0 89.03559476954221
710.0 88.6877917780579
730.0 88.4405629992453
750.0 88.32102411308763
775.0 88.29386208376019
800.0 88.5750023324231
825.0 88.92959724265238
850.0 89.2750023324231
875.0 89.54047168831733
900.0 89.55948166176147
925.0 89.37884867492345
950.0 88.94563681403791
975.0 88.32008866323646
1000.0 87.86785080007722
1030.0 87.63482566102006
1060.0 87.76785080007723
1090.0 87.84704260365477
1120.0 87.69952984278967
1150.0 87.23265131640703
1180.0 86.74822189756192
1220.0 86.36671528995893
1250.0 86.20519797200171
1280.0 85.85471096373021
1320.0 85.1804754448382
1360.0 84.39789672116615
1400.0 84.16894359373951
1450.0 84.37658577258684
1500.0 84.5494378618266
1550.0 84.6494378618266
1600.0 84.77166552899662
1650.0 84.79429378439286
1700.0 84.73055847699801
1750.0 84.76500022094392
1800.0 84.87749819667943
1850.0 84.50568030487439
1900.0 83.91260322153583
1950.0 83.39278180243377
2000.0 82.64447624707161
2060.0 81.94461638786304
2120.0 81.78621966288286
2180.0 81.98064616134725
2240.0 82.21624229173177
2300.0 82.22145776681333
2360.0 82.67879845495223
2400.0 84.06069890039626
2500.0 85.41455967435546
2580.0 86.93228996919447
2650.0 87.94351504164997
2720.0 88.39920504957243
2800.0 88.15863155845197
2900.0 87.01973718753212
3000.0 85.86108133832309
3070.0 84.7661289376211
3150.0 85.19862267813288
3250.0 86.11144258226264
3350.0 86.51144258226265
3450.0 87.27259604812734
3550.0 87.45609373688532
3650.0 86.46477007030295
3750.0 84.95003071641119
3870.0 84.65877471307168
4000.0 85.76269145416386
4120.0 86.3285645502139
4250.0 85.69595432425197
4370.0 87.39057006035294
4500.0 89.8009104326123
4620.0 91.15070353065205
4750.0 90.3085399896469
4870.0 89.31307198111321
5000.0 88.63649290582318
5150.0 88.21064861923941
5300.0 87.44613226294136
5450.0 88.9236158629549
5600.0 91.25994640878315
5800.0 90.90647215396037
6000.0 90.31124972512895
6150.0 89.15877471307168
6300.0 87.00444083311405
6500.0 87.23602121592324
6700.0 88.8891831034138
6900.0 89.48344369284588
7100.0 90.02822557426457
7300.0 90.0358062120376
7500.0 90.48827155897372
7750.0 88.9541918868406
8000.0 90.37830742534135
8250.0 93.32882241197821
8500.0 90.38730788078891
8750.0 90.6898191842485
9000.0 94.5108437737428
9250.0 94.24401120457712
9500.0 90.97567795792905
9750.0 90.14672680140978
10000.0 93.61946420990273
10300.0 93.89672887832194
10600.0 89.33314095754962
10900.0 92.92330515118901
11200.0 93.56798238948501
11500.0 88.9863401399217
11800.0 93.26763915553722
12200.0 92.70774443443233
12500.0 88.4601589552535
12800.0 90.47687385154288
13200.0 90.53558855820422
13600.0 96.14076561130442
14000.0 97.59852268910329
14500.0 97.60255662351723
15000.0 96.058680548723
15500.0 91.03742399098047
16000.0 88.66091927505512
16500.0 95.24479307674315
17000.0 90.8540345255637
17500.0 91.7541452227856
18000.0 89.7531373747959
18500.0 88.32609042943857
19000.0 83.17506103786228
19500.0 82.64473667276785
