Freq "Estimated In-Room Response"
20.5078 66.59547202346067
21.9727 67.95524695107683
23.4375 69.04510234305745
24.9023 69.91110187752957
26.3672 71.01279588814529
27.832 71.71317277305846
29.2969 72.80343205293657
30.7617 73.51828630904842
32.2266 74.11960813510683
33.6914 75.04453677298903
35.1562 75.76622956047918
36.6211 76.69416804700417
38.0859 77.4408989012951
39.5508 78.03077942945752
41.0156 78.15772341003878
42.4805 78.44413642518298
43.9453 79.33609555336082
45.4102 79.54259902151584
46.875 79.7117084712921
48.3398 80.49819796581437
51.2695 80.90621592501711
52.7344 81.12671199074607
54.1992 81.31833479838136
55.6641 81.4961789840148
58.5938 81.78663344734413
60.0586 81.85563251457586
62.9883 82.02333593204789
64.4531 82.2305348657694
67.3828 82.52647064306102
68.8477 82.57142280736586
71.7773 82.52478084459251
74.707 82.5088129198597
77.6367 82.38045073482827
79.1016 82.29891413733101
82.0312 82.41950173108131
84.9609 82.3653873071891
87.8906 82.33350651623985
90.8203 82.5363250472121
95.2148 82.53106942394956
98.1445 82.4366432484913
101.074 82.26719452314204
105.469 82.20549684053466
108.398 82.11550850082084
112.793 81.8668491106777
117.188 81.57650467833692
120.117 81.5662598014557
124.512 82.02908225814805
128.906 81.85920401824201
133.301 81.67734986646863
139.16 81.3787128243843
143.555 81.02854644087215
147.949 81.09634161640874
153.809 81.79050402044184
159.668 81.17355067709705
165.527 80.8991166467498
171.387 81.21527345843869
177.246 81.62407843953729
183.105 81.43769740470569
188.965 81.45669555370331
196.289 81.69419252841185
203.613 81.19334931458297
210.938 81.67354054793138
218.262 82.36554707708966
225.586 82.57725333046642
232.91 82.8563624098983
241.699 83.07430446143336
250.488 82.16434260311611
259.277 82.46393029468196
268.066 83.3938044461391
276.855 82.06276244428226
287.109 81.95726965982617
297.363 82.88763097453675
307.617 83.56347732821347
319.336 82.82497034399825
329.59 82.20001809956064
341.309 82.28665739203272
353.027 81.98244894908443
366.211 82.14149629722107
379.395 81.82869550982569
392.578 81.66478286081798
405.762 82.0243198808644
420.41 81.91271216381935
435.059 82.03274859079285
451.172 81.83025148898116
465.82 81.7264413612304
483.398 81.74697200666728
499.512 81.20046347033161
517.09 81.72452325662483
536.133 81.47466544260874
555.176 81.66198581987075
574.219 81.31321622087283
594.727 81.58011847435286
615.234 81.65119832472301
637.207 80.96840151298863
659.18 81.28552431202584
682.617 81.24013089669737
707.52 81.27220647918158
732.422 80.4952191280068
757.324 81.1055559599151
785.156 80.92832043560114
811.523 81.28051298651789
840.82 80.4967601819719
870.117 79.70758862178006
900.879 80.03794994040517
933.105 82.39158711962789
965.332 81.6040513812554
1000.49 80.81479932400242
1035.64 81.49972376214768
1072.27 81.13257368002587
1108.89 81.06615767891454
1148.44 80.62607725421663
1189.45 81.6609593536685
1230.47 80.88806154922487
1274.41 81.36420679748335
1319.82 81.22009908035764
1366.7 82.83642564026711
1413.57 82.27874408556124
1463.38 81.47623430336073
1516.11 81.75979079010128
1568.85 81.5021862947897
1624.51 81.80281343232517
1681.64 81.58802802524998
1741.7 80.40292965676433
1803.22 80.08120372169004
1866.21 79.88409574633343
1932.13 79.7554304553339
1999.51 79.34066292401941
2069.82 79.47066866746027
2143.07 79.34847574132192
2219.24 79.0769843543938
2296.88 80.28040779998112
2378.91 80.64787587508648
2462.4 80.6112938630057
2548.83 80.78626077809452
2639.65 80.99824324505926
2731.93 80.61360990768995
2828.61 80.78624881722997
2928.22 81.09223538649194
3030.76 80.83843316176683
3137.7 80.84881425753318
3249.02 80.85598204078256
3363.28 80.65617976071805
3481.93 80.91208908648169
3604.98 80.77975528775222
3732.42 80.90914200779413
3864.26 81.0279958490497
4000.49 80.67882304259577
4141.11 80.9023528180954
4287.6 80.69349308877601
4438.48 80.7629038358231
4595.21 80.57939932772484
4756.35 80.26670806938982
4924.8 80.16436521497276
5097.66 79.98558454265114
5277.83 80.024969688892
5463.87 80.09031983502969
5657.23 79.97254758768544
5856.45 80.13099645023705
6062.99 80.2471597885099
6276.86 79.94002665695628
6498.05 79.69820594636819
6726.56 79.64077423614084
6963.87 79.37929505147744
7209.96 79.30548609989579
7464.84 79.2655047045363
7727.05 79.0219693085316
7999.51 78.953123006768
8282.23 78.781461425961
8573.73 78.80830406956194
8876.95 78.63578816814082
9188.96 78.47978418221571
9514.16 78.16714615725601
9849.61 77.64732434966007
10196.8 77.64270252739156
10555.7 77.50616533189243
10927.7 77.5594755731052
11313.0 77.67262061876508
11712.9 77.56711977523125
12126.0 77.41704890362718
12553.7 77.26265588811209
12996.1 77.24552058331132
13454.6 77.15653678202733
13929.2 77.14832104514528
14419.9 76.95463110362992
14928.2 76.64950420441329
15455.6 76.38054968149737
16000.5 76.21208788618587
16564.5 76.2546588288255
17148.9 76.30388476180393
17752.4 77.16631992472168
18379.4 75.48477764461863
19026.9 75.3710513179
19697.8 76.20184274449906
19999.5 76.31376809235984
