Freq,On Axis,Listening Window,Sound Power,Early Reflections,Early Reflections DI,Sound Power DI,DI offset
22.4,14.700000000000003,15.426905322551264,14.375248454396356,16.81407569962859,38.612829622922675,41.05165686815491,40
23.0,15.299999999999997,16.913220620236004,15.688102604070664,18.30728327007209,38.60593735016391,41.22511801616534,40
23.6,16.200000000000003,18.424963234698154,17.00983505751539,19.7787027788129,38.646260455885255,41.415128177182766,40
24.0,18.700000000000003,21.306615851468266,19.594405121318133,22.47867153304948,38.82794431841879,41.71221073015013,40
25.0,20.500000000000014,23.26011448663003,21.280991763756063,24.279864976310947,38.980249510319084,41.97912272287397,40
25.8,22.700000000000003,25.422229652216473,23.1706526198508,26.253218501101102,39.16901115111537,42.251577032365674,40
26.5,24.799999999999997,27.269844429589327,24.72024451985031,27.85458122901001,39.41526320057932,42.549599909739015,40
27.2,26.600000000000037,28.626123611706177,25.712317651477733,28.88884715630367,39.73727645540251,42.913805960228444,40
28.0,28.200000000000003,29.735563810114726,26.43038623660844,29.629840562576064,40.10572324753866,43.305177573506285,40
29.0,29.60000000000001,30.75285330312009,27.15664445189826,30.380040306279014,40.37281299684108,43.59620885122183,40
30.0,31.299999999999997,32.23024235220639,28.366058290903837,31.583037666200383,40.647204686006006,43.86418406130255,40
30.7,33.89999999999999,34.61268126412041,30.48478694758562,33.73178851891616,40.88089274520425,44.12789431653479,40
31.5,36.10000000000001,36.66157316495689,32.319101083497415,35.55073324022045,41.11083992473644,44.342472081459476,40
32.5,38.000000000000014,38.369885689620546,33.852319077726136,37.07913341376401,41.29075227585653,44.51756661189441,40
33.5,39.500000000000014,39.83573131326558,35.18821011635784,38.385617981997356,41.45011333126823,44.647521196907746,40
34.5,40.89999999999999,41.146229356777255,36.38774506928043,39.570024895621216,41.57620446115604,44.75848428749683,40
35.5,42.3,42.512920034706966,37.69315515965546,40.84703904300231,41.665880991704654,44.819764875051504,40
36.5,44.7,44.88190911009117,39.99313075939166,43.12437967636136,41.757529433729815,44.88877835069951,40
37.5,46.7,46.8807505192501,41.979299844344624,45.08347927538263,41.79727124386747,44.901450674905476,40
38.7,48.39999999999999,48.52734826978927,43.59383638240236,46.66082298522629,41.86652528456298,44.93351188738691,40
40.0,49.8,49.90716260774967,44.977717762852436,47.99016333235495,41.916999275394716,44.92944484489723,40
41.2,51.10000000000001,51.25223701256262,46.337165072553276,49.317573446814336,41.93466356574828,44.91507194000934,40
42.5,53.000000000000014,53.17160340751481,48.277145715430365,51.19959161809406,41.97201178942075,44.894457692084444,40
43.7,55.000000000000014,55.08003724520525,50.21873058453376,53.094928781845354,41.98510846335989,44.86130666067149,40
45.0,56.500000000000014,56.64284652145578,51.80504272571291,54.61836595128018,42.0244805701756,44.83780379574287,40
46.2,57.89999999999999,58.01096323203241,53.23613749441684,55.99383109069531,42.0171321413371,44.77482573761557,40
47.5,59.3,59.421169163027926,54.685918620408515,57.41012820983066,42.011040953197266,44.73525054261941,40
48.7,61.2,61.35133554210731,56.67292831367813,59.326308787563036,42.02502675454427,44.67840722842918,40
50.0,62.89999999999999,63.00071649449512,58.42708255752406,61.01696402638369,41.98375246811143,44.57363393697106,40
51.5,64.39999999999999,64.50228899792062,59.98152610142215,62.51943085612686,41.982858141793756,44.52076289649847,40
53.0,65.8,65.85897097525458,61.42449711689052,63.91024983681345,41.94872113844113,44.43447385836406,40
54.5,67.3,67.29683923275662,62.97810702282088,65.39639799654402,41.9004412362126,44.318732209935746,40
56.0,68.8,68.7906372755781,64.56665182891147,66.92428124998817,41.86635602558994,44.22398544666663,40
58.0,70.3,70.30476649964258,66.16472671055232,68.46384658776871,41.84091991187387,44.14003978909027,40
60.0,71.59999999999998,71.59559558246752,67.5328132516451,69.78168604062984,41.81390954183769,44.06278233082243,40
61.5,72.90000000000002,72.86171622347352,68.87287714067736,71.07539322195565,41.78632300151787,43.98883908279616,40
63.0,74.09999999999998,73.99950411229408,70.08465004260817,72.23933866290487,41.760165449389206,43.9148540696859,40
65.0,75.10000000000001,75.0288737949735,71.18467001475857,73.3027799026788,41.72609389229471,43.84420378021494,40
67.0,76.2,76.07029635913669,72.25391119354623,74.33833816140697,41.731958197729725,43.81638516559046,40
69.0,77.2,77.04726458815999,73.2950972483281,75.34229932525263,41.704965262907365,43.752167339831885,40
71.0,78.1,77.9459386219969,74.24539486774533,76.26311781682166,41.68282080517524,43.70054375425157,40
73.0,78.9,78.73285200509761,75.06221688413798,77.0490664231248,41.68378558197281,43.67063512095963,40
75.0,79.6,79.3962560454399,75.77415210964422,77.73889302804393,41.657363017395966,43.62210393579568,40
77.5,80.2,79.98598404619476,76.40880568215478,78.33863935570226,41.6473446904925,43.57717836403998,40
80.0,80.7,80.46145483693576,76.91299666749089,78.81945339849449,41.64200143844127,43.54845816944487,40
82.5,81.2,80.98435113489286,77.48100775997064,79.36264894535633,41.621702189536535,43.503343374922224,40
85.0,81.8,81.57252280977616,78.0998803400259,79.9603844636475,41.61213834612866,43.472642469750255,40
87.5,82.2,81.99511067931275,78.5677711953192,80.38882573764901,41.60628494166373,43.42733948399355,40
90.0,82.5,82.30526583994018,78.94213964670222,80.74119007100404,41.564075768936135,43.36312619323796,40
92.5,82.8,82.54847888113189,79.23979608678734,80.9977010952731,41.550777785858784,43.30868279434455,40
95.0,82.99999999999999,82.75690249625715,79.49182573687001,81.23354093023134,41.52336156602581,43.26507675938714,40
97.5,83.3,83.06724342834049,79.84693467354579,81.55504099274694,41.51220243559355,43.2203087547947,40
100.0,83.6,83.37665305030342,80.22042784421517,81.90107811733886,41.47557493296456,43.15622520608825,40
103.0,83.8,83.63117176106883,80.4912562776934,82.1550522821555,41.47611947891333,43.13991548337543,40
106.0,84.00000000000001,83.83117176106883,80.73116602409321,82.37660640140926,41.45456535965957,43.10000573697562,40
109.0,84.3,84.14088053479296,81.0528410398278,82.69353360831194,41.44734692648102,43.08803949496516,40
112.0,84.6,84.38523931039693,81.32040173544799,82.94903159561848,41.43620771477845,43.06483757494894,40
115.0,84.7,84.56311655733535,81.47530419247772,83.10428516188898,41.45883139544637,43.087812364857626,40
118.0,84.9,84.6845367210354,81.60583648454988,83.23534365921017,41.44919306182523,43.07870023648552,40
122.0,85.0,84.8065334562127,81.72482056009974,83.36035592311318,41.44617753309953,43.08171289611296,40
125.0,85.10000000000001,84.89529580624882,81.79359782512626,83.44935467754799,41.44594112870084,43.10169798112257,40
128.0,85.0,84.89556400044603,81.78161966052791,83.44692948268421,41.44863451776182,43.11394433991812,40
132.0,85.10000000000001,84.9507816558835,81.81640166236637,83.49403433373942,41.45674732214408,43.13437999351713,40
136.0,85.10000000000001,84.99407807421042,81.85525603588238,83.52654019883063,41.46753787537979,43.138822038328044,40
140.0,85.10000000000001,84.98227624746117,81.84646356979825,83.5310258280213,41.45125041943987,43.135812677662926,40
145.0,85.10000000000001,84.98227624746117,81.81609200803472,83.5205499263502,41.46172632111097,43.16618423942646,40
150.0,85.0,84.9381589295137,81.78476102242384,83.47614465678609,41.462014272727615,43.15339790708987,40
155.0,85.0,84.89407807421043,81.74224440359383,83.44622472971763,41.4478533444928,43.1518336706166,40
160.0,84.9,84.84952243122419,81.67959358262654,83.3914629185225,41.45805951270168,43.16992884859765,40
165.0,84.9,84.83864920586504,81.66816193250006,83.36848020865826,41.470168997206784,43.170487273364984,40
170.0,84.9,84.78152289117915,81.59809697894313,83.301779412425,41.479743478754145,43.18342591223602,40
175.0,84.8,84.69332676255003,81.49160061927373,83.20471234932869,41.48861441322134,43.201726143276304,40
180.0,84.8,84.64953408116186,81.4391231951964,83.16176189056118,41.48777219060068,43.21041088596546,40
185.0,84.8,84.64953408116186,81.39605066728329,83.12943003219173,41.520104048970126,43.25348341387857,40
190.0,84.8,84.63961870142951,81.3335318845432,83.0783386413585,41.56128006007101,43.30608681688631,40
195.0,84.8,84.63961870142951,81.28253443678234,83.05517411745527,41.584444583974246,43.35708426464717,40
200.0,84.8,84.65153686029821,81.26417999611233,83.0546610840951,41.596875776203106,43.387356864185875,40
206.0,84.9,84.7289689961088,81.27180224989625,83.08648554225691,41.642483453851895,43.45716674621255,40
212.0,85.0,84.79652087493943,81.2994606037428,83.14034151676528,41.65617935817416,43.49706027119663,40
218.0,85.10000000000001,84.87447323908724,81.31503168847532,83.18397755633774,41.6904956827495,43.55944155061192,40
224.0,85.2,84.94064478582763,81.3321839687945,83.22863056797804,41.712014217849585,43.608460817033134,40
230.0,85.2,85.00749995438055,81.35811336510046,83.29023131344245,41.7172686409381,43.649386589280084,40
236.0,85.40000000000002,85.1082841080297,81.40587791664352,83.3730969382209,41.735187169808796,43.702406191386174,40
240.0,85.40000000000002,85.19652087493942,81.4490751074867,83.44528249058646,41.75123838435296,43.74744576745272,40
250.0,85.49999999999999,85.2192335273487,81.42628174371715,83.44187269394381,41.7773608334049,43.79295178363155,40
258.0,85.49999999999999,85.25202455605812,81.42304880601884,83.46266424043705,41.78936031562107,43.82897575003928,40
265.0,85.49999999999999,85.20853365452747,81.34875372803863,83.40635303891752,41.802180615609956,43.85977992648884,40
272.0,85.40000000000002,85.17368295623031,81.26247741854029,83.34138497434292,41.83229798188739,43.91120553769002,40
280.0,85.3,85.06311655733536,81.11642783297518,83.22232583340391,41.84079072393145,43.946688724360186,40
290.0,85.2,84.96311655733535,80.96097980372524,83.08828140130878,41.87483515602658,44.00213675361012,40
300.0,85.10000000000001,84.83050023876645,80.76019809221923,82.91494900468925,41.9155512340772,44.07030214654722,40
307.0,84.9,84.64164727953501,80.49895487446875,82.68210622192092,41.95954105761409,44.142692405066256,40
315.0,84.7,84.43148220631628,80.20093573052435,82.41270237021006,42.01877983610622,44.230546475791925,40
325.0,84.5,84.24342268405624,79.93958606029618,82.17640589761236,42.06701678644389,44.30383662376006,40
335.0,84.3,84.03371959806589,79.65015027507236,81.91602200408651,42.11769759397937,44.38356932299352,40
345.0,84.09999999999998,83.86616201610863,79.42070591396559,81.71284513355863,42.15331688255,44.44545610214304,40
355.0,84.00000000000001,83.69154929801424,79.16314898339455,81.47244127301445,42.219108024999784,44.52840031461969,40
365.0,83.9,83.60305827122276,79.00508957099451,81.33070461655058,42.27235365467219,44.59796870022825,40
375.0,83.9,83.6491172159591,78.98944760792253,81.33133969410987,42.31777752184922,44.659669608036566,40
387.0,84.00000000000001,83.71923557073218,78.9864246453326,81.34734772725248,42.3718878434797,44.732810925399576,40
400.0,84.09999999999998,83.77450198480234,78.95647387261064,81.33743311549021,42.43706886931213,44.8180281121917,40
412.0,84.2,83.9192355707322,79.02828210276333,81.43398112954017,42.485254441192026,44.89095346796887,40
425.0,84.39999999999999,84.08852109435317,79.10555348760963,81.52858443430813,42.55993666004504,44.98296760674354,40
437.0,84.5,84.14501061428,79.07801751124522,81.54124687352932,42.60376374075068,45.066993103034775,40
450.0,84.6,84.22405911685118,79.07500242357762,81.57680937944785,42.64724973740333,45.149056693273565,40
462.0,84.6,84.20425343101243,78.96330072943262,81.49574643022275,42.70850700078968,45.240952701579815,40
475.0,84.5,84.1383592374084,78.80555820048563,81.38093350587774,42.75742573153066,45.33280103692276,40
487.0,84.3,83.96907369890756,78.56184639317928,81.1877006390219,42.78137305988567,45.407227305728284,40
500.0,84.2,83.85664341406415,78.34612478716906,81.0260757544676,42.830567659596554,45.51051862689509,40
515.0,84.09999999999998,83.78091140886295,78.18895354825541,80.91101941860892,42.86989199025403,45.591957860607536,40
530.0,84.09999999999998,83.73412607285412,78.04447976833926,80.8133411688013,42.92078490405282,45.689646304514866,40
545.0,84.09999999999998,83.78688133280257,77.96620680302823,80.81354460492425,42.97333672787832,45.82067452977434,40
560.0,84.09999999999998,83.86264676768316,77.92486807236136,80.83601621763155,43.02663055005161,45.937778695321796,40
580.0,84.2,83.92874967125414,77.87304733531393,80.85365144897271,43.075098222281426,46.05570233594021,40
600.0,84.2,83.94911721595909,77.79595197817,80.84195053161476,43.107166684344335,46.153165237789096,40
615.0,84.2,83.92657270191025,77.63673503744357,80.74652400133998,43.18004870057027,46.289837664466674,40
630.0,84.09999999999998,83.86817557670302,77.47341487028199,80.63843815592769,43.229737420775336,46.39476070642104,40
650.0,84.00000000000001,83.8246042366313,77.33972657982673,80.54281118943442,43.281793047196885,46.48487765680457,40
670.0,84.00000000000001,83.76817557670303,77.17636643924206,80.43085955952039,43.337316017182644,46.59180913746097,40
690.0,84.09999999999998,83.84742395552136,77.14257323274695,80.45346218430485,43.39396177121651,46.70485072277441,40
710.0,84.3,84.07121016207792,77.27160401731481,80.64442186758207,43.42678829449585,46.7996061447631,40
730.0,84.7,84.405296078267,77.47833436328384,80.89666313266902,43.50863294559798,46.926961714983165,40
750.0,84.9,84.56283336350222,77.5526007867905,81.01696215485453,43.5458712086477,47.010232576711715,40
775.0,84.9,84.55504116220109,77.44837505279133,80.95124492789746,43.60379623430363,47.10666610940976,40
800.0,84.9,84.44758386454986,77.3093531567138,80.84607047411448,43.60151339043537,47.13823070783606,40
825.0,84.8,84.30910167403796,77.18792030587471,80.72219163407651,43.58691003996145,47.12118136816325,40
850.0,84.8,84.33253477964925,77.29959763471997,80.81381883548836,43.51871594416089,47.03293714492928,40
875.0,85.10000000000001,84.52056597904142,77.61813262964812,81.09723926824813,43.42332671079329,46.902433349393306,40
900.0,84.8,84.24505524670181,77.5130277083417,80.94658381126015,43.298471435441655,46.732027538360114,40
925.0,84.6,83.9647986402778,77.37986570195262,80.77534489009919,43.189453750178615,46.58493293832518,40
950.0,84.2,83.61231982542759,77.1663917966815,80.52104689528325,43.09127293014434,46.445928028746096,40
975.0,84.3,83.65851108548212,77.36709024949404,80.69136713754827,42.96714394793385,46.29142083598808,40
1000.0,84.2,83.61414365653971,77.40929158514462,80.71598713998446,42.89815651655525,46.204852071395095,40
1030.0,83.9,83.35038774887963,77.07488519863716,80.40796655559954,42.94242119328008,46.275502550242464,40
1060.0,83.6,83.05198648863032,76.53588669625087,79.93835832487333,43.113628163756985,46.51609979237945,40
1090.0,83.6,83.04438531843005,76.15828797882445,79.63749530098595,43.4068900174441,46.8860973396056,40
1120.0,84.00000000000001,83.43117688329157,76.17913555576955,79.75437633947173,43.67680054381984,47.25204132752202,40
1150.0,84.3,83.74404866673245,76.15207050571736,79.81398245330517,43.93006621342728,47.59197816101509,40
1180.0,84.5,83.8704942990214,75.89730269756065,79.6570454578145,44.2134488412069,47.973191601460755,40
1220.0,84.9,84.06491810137777,75.6679023868116,79.57892421505086,44.48599388632691,48.397015714566166,40
1250.0,85.40000000000002,84.47576687007285,75.70149480421432,79.73732869501295,44.7384381750599,48.774272065858526,40
1280.0,86.0,84.85858016637057,75.79511851673253,79.92656517609653,44.93201499027404,49.06346164963804,40
1320.0,86.2,84.93878277938508,75.69974882165695,79.86858457382827,45.07019820555681,49.239033957728125,40
1360.0,86.4,84.99261573077973,75.63600017652956,79.82236298720248,45.17025274357725,49.35661555425017,40
1400.0,86.50000000000001,84.98878266603737,75.6439365244006,79.78614334062492,45.20263932541245,49.344846141636765,40
1450.0,86.2,84.66520120313169,75.48137583280251,79.49478574124169,45.17041546189,49.183825370329174,40
1500.0,85.40000000000002,83.94704889552624,75.07975000771123,78.89713205593667,45.04991683958957,48.86729888781501,40
1550.0,84.3,82.99955067522859,74.6232338950964,78.16167303778035,44.837877637448244,48.376316780132186,40
1600.0,83.4,82.18539833128126,74.27970435878223,77.58096376001643,44.60443457126483,47.90569397249904,40
1650.0,82.60000000000001,81.47989885271411,73.9690189616818,77.10746230949792,44.372436543216196,47.51087989103232,40
1700.0,81.89999999999999,80.96430794739261,73.84456815645179,76.88896911660355,44.075338830789065,47.11973979094083,40
1750.0,81.4,80.65987134739434,73.92678487049757,76.94223809858919,43.71763324880516,46.73308647689677,40
1800.0,81.2,80.70944729343222,74.3448803982443,77.38419362062629,43.32525367280593,46.36456689518792,40
1850.0,81.3,81.02146929462646,74.86496308955037,77.98710051285786,43.03436878176859,46.156506205076084,40
1900.0,81.50000000000001,81.34051957067234,75.26820380630195,78.50865268450953,42.831866886162814,46.07231576437039,40
1950.0,81.4,81.31708802760454,75.2147845099981,78.60503953862035,42.712048488984195,46.102303517606444,40
2000.0,81.3,81.29505730116617,75.10791276924935,78.62218509086982,42.67287221029635,46.187144531916815,40
2060.0,81.50000000000001,81.52270584734121,75.20164716196018,78.82147423180086,42.70123161554035,46.32105868538103,40
2120.0,82.2,82.13176651969104,75.58758469551242,79.29358316080145,42.838183358889594,46.54418182417862,40
2180.0,83.4,83.11375107608207,76.2309048623073,80.03271660574698,43.081034470335084,46.88284621377477,40
2240.0,84.3,83.70360834694718,76.46817103220367,80.36042033886271,43.34318800808447,47.23543731474351,40
2300.0,84.5,83.660262064964,76.07729760971677,80.06093056320508,43.599331501758925,47.582964455247236,40
2360.0,84.8,83.75211172268313,75.84083501994964,79.88543617309588,43.86667554958724,47.91127670273349,40
2400.0,85.49999999999999,84.19426493730025,75.97327619601911,80.1051225123843,44.08914242491595,48.22098874128113,40
2500.0,86.4,84.9160994599613,76.46186145486594,80.64895304981182,44.26714641014948,48.45423800509536,40
2580.0,87.0,85.38311118596752,76.74558030376713,80.97338088868938,44.409730297278145,48.637530882200394,40
2650.0,86.7,85.1139521191385,76.39072475290946,80.62357831090407,44.49037380823444,48.72322736622904,40
2720.0,86.0,84.40332849592924,75.6479520552009,79.86575021733664,44.537578278592605,48.75537644072834,40
2800.0,85.0,83.49007492414735,74.72994787781887,78.91870695132106,44.571367972826295,48.76012704632848,40
2900.0,84.00000000000001,82.61330830346047,73.91746821971672,78.06959359973148,44.543714703728995,48.69584008374375,40
3000.0,83.4,82.27259301559523,73.6606143146842,77.7684175984975,44.50417541709773,48.61197870091104,40
3070.0,83.2,82.34880407406413,73.87320459237066,77.92131707500836,44.42748699905577,48.47559948169348,40
3150.0,82.99999999999999,82.47846268245182,74.10490745914966,78.09478022333589,44.38368245911593,48.37355522330216,40
3250.0,82.7,82.53987172820267,74.2219153026565,78.17825624422836,44.361615483974305,48.31795642554617,40
3350.0,82.8,82.90232541469976,74.58544056236629,78.52594725328326,44.3763781614165,48.31688485233347,40
3450.0,83.2,83.6484306968462,75.29487484811257,79.23734100656432,44.411089690281884,48.353555848733635,40
3550.0,83.3,83.88873505051023,75.49055615101713,79.45036480934068,44.43837024116955,48.398178899493104,40
3650.0,83.5,84.09198712695711,75.68257914593643,79.6467556208457,44.44523150611141,48.40940798102068,40
3750.0,83.9,84.48584750524277,76.05854291627703,80.01816781102761,44.467679694215164,48.42730458896574,40
3870.0,84.2,84.65184465070251,76.23548687205268,80.1924105850353,44.45943406566721,48.41635777864984,40
4000.0,84.3,84.43461884332407,76.0228733358531,79.9654609692691,44.46915787405497,48.41174550747097,40
4120.0,84.6,84.51347537519048,76.11072986594237,80.04017750932837,44.47329786586211,48.402745509248106,40
