Freq "Listening Window"
22.4 15.426905322551264
23.0 16.913220620236004
23.6 18.424963234698154
24.0 21.306615851468266
25.0 23.26011448663003
25.8 25.422229652216473
26.5 27.269844429589327
27.2 28.626123611706177
28.0 29.735563810114726
29.0 30.75285330312009
30.0 32.23024235220639
30.7 34.61268126412041
31.5 36.66157316495689
32.5 38.369885689620546
33.5 39.83573131326558
34.5 41.146229356777255
35.5 42.512920034706966
36.5 44.88190911009117
37.5 46.8807505192501
38.7 48.52734826978927
40.0 49.90716260774967
41.2 51.25223701256262
42.5 53.17160340751481
43.7 55.08003724520525
45.0 56.64284652145578
46.2 58.01096323203241
47.5 59.421169163027926
48.7 61.35133554210731
50.0 63.00071649449512
51.5 64.50228899792062
53.0 65.85897097525458
54.5 67.29683923275662
56.0 68.7906372755781
58.0 70.30476649964258
60.0 71.59559558246752
61.5 72.86171622347352
63.0 73.99950411229408
65.0 75.0288737949735
67.0 76.07029635913669
69.0 77.04726458815999
71.0 77.9459386219969
73.0 78.73285200509761
75.0 79.3962560454399
77.5 79.98598404619476
80.0 80.46145483693576
82.5 80.98435113489286
85.0 81.57252280977616
87.5 81.99511067931275
90.0 82.30526583994018
92.5 82.54847888113189
95.0 82.75690249625715
97.5 83.06724342834049
100.0 83.37665305030342
103.0 83.63117176106883
106.0 83.83117176106883
109.0 84.14088053479296
112.0 84.38523931039693
115.0 84.56311655733535
118.0 84.6845367210354
122.0 84.8065334562127
125.0 84.89529580624882
128.0 84.89556400044603
132.0 84.9507816558835
136.0 84.99407807421042
140.0 84.98227624746117
145.0 84.98227624746117
150.0 84.9381589295137
155.0 84.89407807421043
160.0 84.84952243122419
165.0 84.83864920586504
170.0 84.78152289117915
175.0 84.69332676255003
180.0 84.64953408116186
185.0 84.64953408116186
190.0 84.63961870142951
195.0 84.63961870142951
200.0 84.65153686029821
206.0 84.7289689961088
212.0 84.79652087493943
218.0 84.87447323908724
224.0 84.94064478582763
230.0 85.00749995438055
236.0 85.1082841080297
240.0 85.19652087493942
250.0 85.2192335273487
258.0 85.25202455605812
265.0 85.20853365452747
272.0 85.17368295623031
280.0 85.06311655733536
290.0 84.96311655733535
300.0 84.83050023876645
307.0 84.64164727953501
315.0 84.43148220631628
325.0 84.24342268405624
335.0 84.03371959806589
345.0 83.86616201610863
355.0 83.69154929801424
365.0 83.60305827122276
375.0 83.6491172159591
387.0 83.71923557073218
400.0 83.77450198480234
412.0 83.9192355707322
425.0 84.08852109435317
437.0 84.14501061428
450.0 84.22405911685118
462.0 84.20425343101243
475.0 84.1383592374084
487.0 83.96907369890756
500.0 83.85664341406415
515.0 83.78091140886295
530.0 83.73412607285412
545.0 83.78688133280257
560.0 83.86264676768316
580.0 83.92874967125414
600.0 83.94911721595909
615.0 83.92657270191025
630.0 83.86817557670302
650.0 83.8246042366313
670.0 83.76817557670303
690.0 83.84742395552136
710.0 84.07121016207792
730.0 84.405296078267
750.0 84.56283336350222
775.0 84.55504116220109
800.0 84.44758386454986
825.0 84.30910167403796
850.0 84.33253477964925
875.0 84.52056597904142
900.0 84.24505524670181
925.0 83.9647986402778
950.0 83.61231982542759
975.0 83.65851108548212
1000.0 83.61414365653971
1030.0 83.35038774887963
1060.0 83.05198648863032
1090.0 83.04438531843005
1120.0 83.43117688329157
1150.0 83.74404866673245
1180.0 83.8704942990214
1220.0 84.06491810137777
1250.0 84.47576687007285
1280.0 84.85858016637057
1320.0 84.93878277938508
1360.0 84.99261573077973
1400.0 84.98878266603737
1450.0 84.66520120313169
1500.0 83.94704889552624
1550.0 82.99955067522859
1600.0 82.18539833128126
1650.0 81.47989885271411
1700.0 80.96430794739261
1750.0 80.65987134739434
1800.0 80.70944729343222
1850.0 81.02146929462646
1900.0 81.34051957067234
1950.0 81.31708802760454
2000.0 81.29505730116617
2060.0 81.52270584734121
2120.0 82.13176651969104
2180.0 83.11375107608207
2240.0 83.70360834694718
2300.0 83.660262064964
2360.0 83.75211172268313
2400.0 84.19426493730025
2500.0 84.9160994599613
2580.0 85.38311118596752
2650.0 85.1139521191385
2720.0 84.40332849592924
2800.0 83.49007492414735
2900.0 82.61330830346047
3000.0 82.27259301559523
3070.0 82.34880407406413
3150.0 82.47846268245182
3250.0 82.53987172820267
3350.0 82.90232541469976
3450.0 83.6484306968462
3550.0 83.88873505051023
3650.0 84.09198712695711
3750.0 84.48584750524277
3870.0 84.65184465070251
4000.0 84.43461884332407
4120.0 84.51347537519048
4250.0 85.41884070115705
4370.0 86.29840910946756
4500.0 86.27336714470806
4620.0 85.30306207186344
4750.0 84.37883515442384
4870.0 83.97756257739442
5000.0 83.21968403334267
5150.0 81.58969336994527
5300.0 81.71884987603488
5450.0 82.73931394244856
5600.0 83.0642209354538
5800.0 83.29921887624282
6000.0 83.75487548126493
6150.0 83.87004626574979
6300.0 83.77292987548724
6500.0 84.04541464886256
6700.0 84.33550594499327
6900.0 83.9168327106487
7100.0 83.317498302992
7300.0 83.1876802869361
7500.0 83.55575527813154
7750.0 83.25452424471148
8000.0 82.34979195336194
8250.0 81.87480928970095
8500.0 81.15524914726414
8750.0 81.1520472755468
9000.0 82.02151185307554
9250.0 82.40841553185116
9500.0 82.48398240411362
9750.0 82.14652139613325
10000.0 81.31821722226519
10300.0 80.22013460145776
10600.0 80.45566485921672
10900.0 81.4366606527728
11200.0 82.08186480568348
11500.0 82.83777256259044
11800.0 83.31959712805259
12200.0 82.57666316289601
12500.0 82.55846269541946
12800.0 84.67859713626487
13200.0 85.20474222361808
13600.0 84.36186612957626
14000.0 83.37938799429064
14500.0 82.48687128906454
15000.0 82.28687128906455
15500.0 82.69865306500871
16000.0 82.63474670754164
16500.0 81.41403125867397
17000.0 80.51352697694556
17500.0 79.13273611270354
18000.0 78.38048540319856
18500.0 75.21664771908696
19000.0 74.95681412794018
19500.0 72.82399517452737
