Freq "Ceiling Bounce"
22.4 46.14177215189871
23.0 45.74177215189873
23.6 45.44177215189872
24.0 45.24177215189873
25.0 45.14177215189871
25.8 45.04177215189871
26.5 45.04177215189871
27.2 45.04177215189871
28.0 44.94177215189872
29.0 44.94177215189872
30.0 44.94177215189872
30.7 45.14177215189871
31.5 45.64177215189871
32.5 46.54177215189871
33.5 47.841772151898724
34.5 49.74177215189873
35.5 52.14177215189871
36.5 54.64177215189871
37.5 57.04177215189871
38.7 59.341772151898724
40.0 61.44177215189872
41.2 63.54177215189871
42.5 65.54177215189871
43.7 67.54177215189871
45.0 69.44177215189872
46.2 71.24177215189873
47.5 72.94177215189872
48.7 74.54177215189871
50.0 76.04177215189871
51.5 77.44177215189872
53.0 78.84177215189872
54.5 80.04177215189871
56.0 81.24177215189873
58.0 82.34177215189872
60.0 83.34177215189872
61.5 84.1417721518987
63.0 84.84177215189872
65.0 85.44177215189872
67.0 86.04177215189871
69.0 86.54177215189871
71.0 86.94177215189872
73.0 87.34177215189872
75.0 87.64177215189873
77.5 87.94177215189872
80.0 88.14177215189872
82.5 88.34177215189872
85.0 88.54177215189871
87.5 88.64177215189872
90.0 88.74177215189873
92.5 88.84177215189872
95.0 88.94177215189872
97.5 88.94177215189872
100.0 89.04177215189871
103.0 88.94177215189872
106.0 88.94177215189872
109.0 88.94177215189872
112.0 88.84177215189872
115.0 88.74177215189873
118.0 88.54177215189871
122.0 88.44177215189872
125.0 88.24177215189872
128.0 88.04177215189871
132.0 87.7417721518987
136.0 87.54177215189871
140.0 87.24177215189872
145.0 86.94177215189872
150.0 86.74177215189872
155.0 86.54177215189871
160.0 86.34177215189872
165.0 86.1753619787787
170.0 86.10869400305923
175.0 86.04253964635434
180.0 85.97536197877868
185.0 85.94253964635432
190.0 85.90869400305921
195.0 85.90869400305921
200.0 85.87612356058374
206.0 85.87612356058374
212.0 85.84253964635433
218.0 85.81022298995306
224.0 85.74484172294123
230.0 85.74484172294123
236.0 85.64484172294124
240.0 85.57998345078616
250.0 85.51328015976809
258.0 85.4132801597681
265.0 85.28221383135363
272.0 85.2162656622031
280.0 85.11626566220309
290.0 85.0162656622031
300.0 84.92074204709988
307.0 84.72074204709986
315.0 84.55607853052153
325.0 84.35607853052154
335.0 84.12670707650722
345.0 83.92670707650721
355.0 83.69945343011824
365.0 83.49945343011825
375.0 83.30273729427056
387.0 83.14074660320797
400.0 82.91840013443777
412.0 82.75804998367619
425.0 82.59414856696303
437.0 82.47629630583349
450.0 82.34567907658301
462.0 82.25804830239862
475.0 82.20111145171182
487.0 82.143448997946
500.0 82.1598163565
515.0 82.20488025660927
530.0 82.22370127566488
545.0 82.34410973148375
560.0 82.41846866978555
580.0 82.56849123741402
600.0 82.71666444272971
615.0 82.84414492572483
630.0 82.94414492572481
650.0 83.0166644427297
670.0 83.19258744098808
690.0 83.2925874409881
710.0 83.3925874409881
730.0 83.49258744098809
750.0 83.52022021207563
775.0 83.44414492572483
800.0 83.4166644427297
825.0 83.3166644427297
850.0 83.19258744098808
875.0 83.14160521850998
900.0 83.06892883215036
925.0 83.01821285382614
950.0 82.96892883215037
975.0 82.91821285382613
1000.0 82.86892883215035
1030.0 82.72022021207563
1060.0 82.54414492572482
1090.0 82.3489838805078
1120.0 82.12741655706982
1150.0 81.92493983711198
1180.0 81.65113740857932
1220.0 81.42493983711198
1250.0 81.19733717476088
1280.0 80.97141764195852
1320.0 80.69918500780449
1360.0 80.39918500780449
1400.0 79.99918500780448
1450.0 79.5991850078045
1500.0 79.19918500780449
1550.0 78.82741655706982
1600.0 78.58153735676159
1650.0 78.39149121187178
1700.0 78.27399019769247
1750.0 78.25804830239862
1800.0 78.28590100518498
1850.0 78.24367450689721
1900.0 78.21554878806803
1950.0 78.11554878806804
2000.0 78.03065593153329
2060.0 77.90111145171181
2120.0 77.8447400393225
2180.0 77.71789071721587
2240.0 77.56235908279264
2300.0 77.39149121187178
2360.0 77.26235908279263
2400.0 77.10739674270958
2500.0 77.00739674270959
2580.0 76.9073967427096
2650.0 76.8815373567616
2720.0 76.8815373567616
2800.0 76.9991850078045
2900.0 77.0991850078045
3000.0 77.29733717476087
3070.0 77.47141764195852
3150.0 77.5459377747185
3250.0 77.66849123741402
3350.0 77.74160521851
3450.0 77.74535322813892
3550.0 77.72552681725642
3650.0 77.63031724032453
3750.0 77.5835732117416
3870.0 77.53740192738663
4000.0 77.5835732117416
4120.0 77.60942051434327
4250.0 77.68357321174159
4370.0 77.76293177626422
4500.0 77.83740192738662
4620.0 77.88357321174159
4750.0 77.98357321174159
4870.0 78.03031724032454
5000.0 78.2041184843411
5150.0 78.38309501162058
5300.0 78.51531705480836
5450.0 78.70323487242106
5600.0 78.8205483726763
5800.0 78.89765996505432
6000.0 78.88016125847214
6150.0 78.88318848638328
6300.0 78.81468263150637
6500.0 78.84741807795855
6700.0 78.9055726169736
6900.0 78.97233404458778
7100.0 79.0976599650543
7300.0 79.20641895002407
7500.0 79.34730843101913
7750.0 79.38950796434385
8000.0 79.40787794960214
8250.0 79.3926711480736
8500.0 79.35289709849157
8750.0 79.27775887527022
9000.0 79.2631364104524
9250.0 79.24879907048815
9500.0 79.12096122798249
9750.0 79.03081777960729
10000.0 78.89552031660357
10300.0 78.65997976195287
10600.0 78.37187772304704
10900.0 78.07187772304702
11200.0 77.80759594115564
11500.0 77.54384455524823
11800.0 77.29331420933217
12200.0 77.09331420933218
12500.0 76.86819254614464
12800.0 76.62089781263725
13200.0 76.2420390673247
13600.0 75.82007045631163
14000.0 75.32287461015709
14500.0 74.7567630383067
15000.0 74.03350441585663
15500.0 73.32638152264367
16000.0 72.54929813400891
16500.0 71.6831076089738
17000.0 70.68495716842823
17500.0 69.64499720507995
18000.0 68.48508805888784
18500.0 67.11412667566523
19000.0 65.44934524684695
19500.0 63.31190751791044
