Freq "Floor Bounce"
22.4 44.94177215189872
23.0 44.94177215189872
23.6 45.04177215189871
24.0 45.14177215189871
25.0 45.14177215189871
25.8 45.04177215189871
26.5 44.94177215189872
27.2 44.841772151898724
28.0 44.841772151898724
29.0 44.94177215189872
30.0 45.04177215189871
30.7 45.24177215189873
31.5 45.74177215189873
32.5 46.54177215189871
33.5 47.64177215189871
34.5 49.44177215189872
35.5 51.64177215189871
36.5 54.04177215189871
37.5 56.44177215189872
38.7 58.74177215189873
40.0 60.94177215189872
41.2 63.04177215189871
42.5 65.14177215189873
43.7 67.24177215189872
45.0 69.1417721518987
46.2 71.04177215189871
47.5 72.7417721518987
48.7 74.44177215189872
50.0 75.94177215189872
51.5 77.34177215189872
53.0 78.70869400305922
54.5 79.94177215189872
56.0 81.04177215189871
58.0 82.14177215189872
60.0 83.04177215189871
61.5 83.94177215189872
63.0 84.64177215189872
65.0 85.27536197877869
67.0 85.84177215189872
69.0 86.34177215189872
71.0 86.80869400305923
73.0 87.14177215189872
75.0 87.5086940030592
77.5 87.7417721518987
80.0 87.9753619787787
82.5 88.20869400305922
85.0 88.34177215189872
87.5 88.5086940030592
90.0 88.60869400305923
92.5 88.70869400305922
95.0 88.74177215189873
97.5 88.80869400305922
100.0 88.84177215189872
103.0 88.80869400305922
106.0 88.80869400305922
109.0 88.74177215189873
112.0 88.70869400305922
115.0 88.60869400305923
118.0 88.44177215189872
122.0 88.30869400305923
125.0 88.10869400305921
128.0 87.90869400305922
132.0 87.60869400305923
136.0 87.40869400305921
140.0 87.10869400305923
145.0 86.8753619787787
150.0 86.60869400305921
155.0 86.40869400305921
160.0 86.24253964635433
165.0 86.10869400305923
170.0 86.04253964635433
175.0 86.0086940030592
180.0 85.97612356058373
185.0 85.90869400305921
190.0 85.90869400305921
195.0 85.90869400305921
200.0 85.87612356058374
206.0 85.87612356058374
212.0 85.87612356058374
218.0 85.84253964635433
224.0 85.81022298995306
230.0 85.81022298995306
236.0 85.77840790857057
240.0 85.71022298995305
250.0 85.67840790857058
258.0 85.64484172294124
265.0 85.61328015976811
272.0 85.51328015976809
280.0 85.47998345078614
290.0 85.37998345078616
300.0 85.31565176412688
307.0 85.18460245661845
315.0 85.08460245661846
325.0 84.9540439350549
335.0 84.79075730069424
345.0 84.69075730069423
355.0 84.56093920692625
365.0 84.39844471119922
375.0 84.29844471119922
387.0 84.16935934473464
400.0 84.0076606124956
412.0 83.879299924899
425.0 83.81840013443777
437.0 83.71840013443777
450.0 83.65804998367621
462.0 83.59825209851479
475.0 83.47111292631529
487.0 83.37111292631528
500.0 83.31212408977225
515.0 83.27111292631528
530.0 83.2856894005151
545.0 83.2856894005151
560.0 83.2856894005151
580.0 83.3856894005151
600.0 83.3856894005151
615.0 83.35369341943228
630.0 83.35369341943228
650.0 83.41212408977226
670.0 83.57111292631528
690.0 83.75804998367617
710.0 83.88590267571448
730.0 84.04650745308447
750.0 84.17508238991546
775.0 84.30766061249558
800.0 84.43649144309077
825.0 84.53649144309077
850.0 84.63160071863344
875.0 84.73160071863343
900.0 84.83160071863342
925.0 84.89438168392088
950.0 84.93160071863345
975.0 85.00273729427053
1000.0 85.00273729427053
1030.0 85.04074660320798
1060.0 85.07434433236429
1090.0 85.11260185474171
1120.0 85.11260185474171
1150.0 85.11260185474171
1180.0 85.11260185474171
1220.0 85.11260185474171
1250.0 85.11260185474171
1280.0 85.05140471871492
1320.0 84.92397027979926
1360.0 84.72397027979927
1400.0 84.536836732257
1450.0 84.31055249186663
1500.0 84.02559549357466
1550.0 83.72559549357466
1600.0 83.44211328129698
1650.0 83.10903774049483
1700.0 82.8341511399967
1750.0 82.53415113999672
1800.0 82.30177176934863
1850.0 82.13415113999672
1900.0 82.03415113999672
1950.0 81.93415113999671
2000.0 81.83415113999672
2060.0 81.69239343200236
2120.0 81.57723478324554
2180.0 81.47723478324554
2240.0 81.37046460557669
2300.0 81.30460832191406
2360.0 81.2787322778424
2400.0 81.21360193499886
2500.0 81.22396887035673
2580.0 81.23570474646203
2650.0 81.33570474646204
2720.0 81.5117333630812
2800.0 81.68817910665392
2900.0 81.8281045586904
3000.0 81.94586698199885
3070.0 82.051211688551
3150.0 82.151211688551
3250.0 82.32892434661115
3350.0 82.4712938061865
3450.0 82.53608140800276
3550.0 82.61422646376728
3650.0 82.61422646376728
3750.0 82.63608140800277
3870.0 82.70139249389983
4000.0 82.86722338598581
4120.0 83.02382120860825
4250.0 83.18982879945487
4370.0 83.2466530711124
4500.0 83.2466530711124
4620.0 83.26722338598582
4750.0 83.26722338598582
4870.0 83.25572867278144
5000.0 83.32275705740551
5150.0 83.35833034367042
5300.0 83.40403956593182
5450.0 83.45139289944707
5600.0 83.52559376023024
5800.0 83.66463118083638
6000.0 83.82751130838842
6150.0 84.03415113999672
6300.0 84.14211328129699
6500.0 84.2698931567982
6700.0 84.38982879945486
6900.0 84.4672233859858
7100.0 84.4672233859858
7300.0 84.5335703086728
7500.0 84.5335703086728
7750.0 84.5128395946379
8000.0 84.4698931567982
8250.0 84.40404134847596
8500.0 84.3158354219363
8750.0 84.251211688551
9000.0 84.251211688551
9250.0 84.29336532049744
9500.0 84.3158354219363
9750.0 84.27390038042626
10000.0 84.23870919571762
10300.0 84.13252493843403
10600.0 83.94586698199886
10900.0 83.74330325783683
11200.0 83.4804872623079
11500.0 83.28372273786864
11800.0 83.02752548038724
12200.0 82.69112292570925
12500.0 82.4552517520782
12800.0 82.06009892103754
13200.0 81.7017885749269
13600.0 81.27936184079367
14000.0 80.87129380618651
14500.0 80.48553334844352
15000.0 80.03820783610594
15500.0 79.48372273786863
16000.0 78.87351486500168
16500.0 78.10136600801805
17000.0 77.1498506624557
17500.0 76.08102967723443
18000.0 74.97563962029818
18500.0 73.8077461705079
19000.0 72.34658762097861
19500.0 70.4209612279825
