Freq "Front Wall Bounce"
22.4 48.5874647255546
23.0 48.29543704965472
23.6 48.01020645035628
24.0 47.68846916907232
25.0 47.397655207055564
25.8 47.166646305064674
26.5 46.980316501815466
27.2 46.88340024071094
28.0 46.839564386862136
29.0 46.75157407438637
30.0 46.69249092113368
30.7 46.732097032281345
31.5 46.98750209158693
32.5 47.543745609439824
33.5 48.54539715766147
34.5 50.07452984780549
35.5 52.13387172323844
36.5 54.44832541244661
37.5 56.79051458215356
38.7 59.04832541244663
40.0 61.175175334909156
41.2 63.244395687881735
42.5 65.31376600187288
43.7 67.34210109470227
45.0 69.2709060768416
46.2 71.11408953687695
47.5 72.82795665691822
48.7 74.42795665691821
50.0 75.94243001259296
51.5 77.35685529433755
53.0 78.71408953687694
54.5 79.94243001259296
56.0 81.12795665691822
58.0 82.18589613379935
60.0 83.12795665691822
61.5 83.98589613379934
63.0 84.70017799693933
65.0 85.32795665691822
67.0 85.92795665691823
69.0 86.42795665691821
71.0 86.87123282045464
73.0 87.21408953687694
75.0 87.52860910287019
77.5 87.80017799693935
80.0 88.05750341354694
82.5 88.27123282045464
85.0 88.42926145081913
87.5 88.58589613379935
90.0 88.68589613379935
92.5 88.75848677356348
95.0 88.81507506554225
97.5 88.88589613379935
100.0 88.88589613379935
103.0 88.88589613379935
106.0 88.87221307702148
109.0 88.81507506554225
112.0 88.72992889248071
115.0 88.62992889248072
118.0 88.51507506554226
122.0 88.32992889248071
125.0 88.14473208917988
128.0 87.94473208917987
132.0 87.70279689492511
136.0 87.41769270328963
140.0 87.18884907653235
145.0 86.91769270328963
150.0 86.68884907653236
155.0 86.47548706658326
160.0 86.31868511793384
165.0 86.1895227574365
170.0 86.11868511793385
175.0 86.04603219807032
180.0 86.00346841587063
185.0 85.97452984780553
190.0 85.9611236407593
195.0 85.93190057845767
200.0 85.91836192511701
206.0 85.91836192511701
212.0 85.93253759530776
218.0 85.90441927826228
224.0 85.91864045679044
230.0 85.9037479043376
236.0 85.91898674100293
240.0 85.91898674100293
250.0 85.89073529334506
258.0 85.89073529334506
265.0 85.86172690309034
272.0 85.83409809671593
280.0 85.79009211493388
290.0 85.73476479553263
300.0 85.64856616043815
307.0 85.57833771431193
315.0 85.47833771431193
325.0 85.36463078528642
335.0 85.26463078528643
345.0 85.21025087440914
355.0 85.1396505153882
365.0 85.10017132504538
375.0 85.02928556529655
387.0 84.98714797717122
400.0 84.9011012511227
412.0 84.83225891902912
425.0 84.81962627214666
437.0 84.79511250643104
450.0 84.8114716026587
462.0 84.79962663927485
475.0 84.82703710357929
487.0 84.84365415414523
500.0 84.89722689142056
515.0 84.9270371035793
530.0 84.98506575963471
545.0 85.04365415414522
560.0 85.10072601880016
580.0 85.1916764335559
600.0 85.29434957847918
615.0 85.3800485039848
630.0 85.4287753210194
650.0 85.4429170971023
670.0 85.45669262026384
690.0 85.54291709710229
710.0 85.60568071432614
730.0 85.60568071432614
750.0 85.63732495858476
775.0 85.59854084654307
800.0 85.56031899773701
825.0 85.5067596371844
850.0 85.4760685840971
875.0 85.40056814203186
900.0 85.35787863591217
925.0 85.268721186089
950.0 85.20237414583964
975.0 85.11627866398729
1000.0 85.0301388069973
1030.0 84.96409089813704
1060.0 84.85317082445586
1090.0 84.78608768215332
1120.0 84.70405904955157
1150.0 84.59717752497575
1180.0 84.484841824032
1220.0 84.38484182403201
1250.0 84.34664587108212
1280.0 84.30261690390886
1320.0 84.27916594368413
1360.0 84.15507152808587
1400.0 83.97084012124509
1450.0 83.83243162044168
1500.0 83.73198259190265
1550.0 83.70996005604383
1600.0 83.76746649408453
1650.0 83.7894900553657
1700.0 83.83198259190266
1750.0 83.8370444285635
1800.0 83.86261300225728
1850.0 83.92982197867022
1900.0 83.95300172076792
1950.0 83.9960268574139
2000.0 84.03603348332491
2060.0 84.00756382816746
2120.0 83.99228478652574
2180.0 83.94725816662519
2240.0 83.88308131466566
2300.0 83.86699024397033
2360.0 83.84533695607901
2400.0 83.80134374229586
2500.0 83.7545589208923
2580.0 83.67971182055022
2650.0 83.66433430282841
2720.0 83.62162151729966
2800.0 83.61077558323353
2900.0 83.60124285246916
3000.0 83.53386237515068
3070.0 83.45125623095474
3150.0 83.3681652114359
3250.0 83.30965308674786
3350.0 83.23895861728325
3450.0 83.18114464104058
3550.0 83.13613330243005
3650.0 83.09688031720465
3750.0 83.05515047113207
3870.0 83.10971061814251
4000.0 83.20368761772524
4120.0 83.32565390123592
4250.0 83.51839086012613
4370.0 83.66336611888076
4500.0 83.80446993610546
4620.0 83.9074256562634
4750.0 83.99843491161266
4870.0 84.1126798780388
5000.0 84.24577963525196
5150.0 84.31166664890414
5300.0 84.43549659364074
5450.0 84.54027207046312
5600.0 84.63577458317069
5800.0 84.80281281738863
6000.0 84.95196372286928
6150.0 85.0955386388982
6300.0 85.20627713756988
6500.0 85.28527786144203
6700.0 85.3227824987491
6900.0 85.37818452642557
7100.0 85.36716920807316
7300.0 85.38325961692799
7500.0 85.42479764736592
7750.0 85.44104551445785
8000.0 85.44558778274912
8250.0 85.40828133403724
8500.0 85.35740013107646
8750.0 85.33191175821356
9000.0 85.27319540294978
9250.0 85.22791856999912
9500.0 85.19843913152128
9750.0 85.13898597195787
10000.0 85.07845508814881
10300.0 84.9908183430968
10600.0 84.84310411888032
10900.0 84.68792719053472
11200.0 84.56537585402414
11500.0 84.38074969077827
11800.0 84.1346623772207
12200.0 83.91752171609055
12500.0 83.71161147119038
12800.0 83.50360212211996
13200.0 83.25134442819139
13600.0 82.99273273422413
14000.0 82.71027693412928
14500.0 82.38018410237609
15000.0 81.96586864754327
15500.0 81.4343187365106
16000.0 80.85476694573482
16500.0 80.17573891318658
17000.0 79.37079605037215
17500.0 78.50360117886827
18000.0 77.61787835231739
18500.0 76.7740864576641
19000.0 75.7237581464336
19500.0 74.01528709682667
