Freq,Floor Bounce,Ceiling Bounce,Front Wall Bounce,Side Wall Bounce,Rear Wall Bounce,Total Early Reflection
22.4,9.08574287476118,8.718961579120972,12.628012008710769,12.60696375474275,11.785489497526768,11.28226677123591
23.0,9.976009982689547,9.611216109697168,12.776725718014418,12.666592110789779,12.062218929350635,11.619497235773494
23.6,10.79942909958369,10.505014706663687,13.049096558890184,12.892108045807745,12.418113329650353,12.060016172968787
24.0,11.57351934895793,11.300360716187342,13.388763083947751,13.266102618619342,12.84983723061886,12.560741967344356
25.0,12.372041368949212,12.132404424373888,13.751061817361787,13.537162905054188,13.257034694057879,13.056709381729448
25.8,13.104557456409097,12.930067300640573,14.135523034141258,13.827083000754627,13.663320057971262,13.555331608079328
26.5,13.884531994472738,13.695704203316367,14.49186779731194,14.15544799212229,14.093407912584226,14.072523103677938
27.2,14.62305904560914,14.495704203316379,14.855984122147916,14.51602637058626,14.508570205749791,14.602020445336834
28.0,15.306857976394284,15.195704203316367,15.341067454818003,14.886863972720661,14.976684156493278,15.145152755034005
29.0,15.965288646734294,15.862631921913689,15.800855961065409,15.419023025941513,15.493863286283286,15.713560518526279
30.0,16.611214540638215,16.530067300640567,16.34393688972814,15.891571647688622,16.024154196314484,16.289183987136582
30.7,17.211214540638238,17.13006730064056,16.832479923157095,16.440727996307587,16.553188627122452,16.84419541704962
31.5,17.97156469139979,17.930067300640573,17.532479923157084,17.111872606408767,17.22620087646861,17.568687188252014
32.5,18.59967201004649,18.530067300640596,18.106866520967927,17.68732067042869,17.786013084345186,18.15799528785844
33.5,19.02252390169666,18.963387546915058,18.532479923157084,18.098807126209024,18.180045389812605,18.57636436652062
34.5,19.581171833413137,19.463387546915087,19.032479923157084,18.672912947925553,18.685506010507012,19.103753888107278
35.5,20.11410376388828,20.03157246553262,19.603730847278868,19.228206230413505,19.23025963242752,19.65810631639799
36.5,20.643921857656252,20.53157246553262,20.17342149033091,19.823987725216867,19.798563682270228,20.208357503772604
37.5,21.137767013580472,21.03157246553259,20.729957938174024,20.40189554237223,20.339473372877777,20.740042659369507
38.7,21.6377670135805,21.49722132282092,21.256632972832662,20.96031295325902,20.888641551063543,21.257926026273836
40.0,22.133148007748176,21.99722132282095,21.855999060937435,21.579304138066803,21.437010753093304,21.808186866324334
41.2,22.59800627990326,22.431572465532597,22.383760788544905,22.137537007068673,21.9768929345084,22.31114287776613
42.5,23.09800627990326,22.89800627990327,22.939393892898593,22.696789190473154,22.516523650506812,22.834428636112975
43.7,23.530067300640567,23.363387546915092,23.469247875617455,23.276045256308876,23.078491799310044,23.346325788750207
45.0,24.13006730064056,23.930067300640573,24.111986642149432,23.935213437831223,23.73522160599576,23.970888780924966
46.2,24.562631921913706,24.33006730064058,24.611986642149404,24.47558268664666,24.228712297917,24.444150550534758
47.5,24.928526535740744,24.697256654758505,25.06790862623778,24.915580141941533,24.696638866320413,24.86358136737887
48.7,25.395704203316356,25.097256654758482,25.538727463058038,25.435213437831223,25.19614860870807,25.335616390030154
50.0,25.861858560021247,25.564951591435502,26.038727463058038,25.97512006771062,25.739019890682457,25.83923336441366
51.5,26.329288117545772,26.030067300640567,26.538727463058038,26.47512006771062,26.25406842029726,26.329120512308506
53.0,26.761858560021253,26.464951591435508,27.038727463058038,26.97512006771062,26.764582402406475,26.805678484817165
54.5,27.19570420331634,26.898006279903242,27.481121213880257,27.47512006771062,27.285727322406345,27.272391857899535
56.0,27.76338754691507,27.463387546915058,28.052693383506053,28.035213437831217,27.86993498017138,27.84220102526085
58.0,28.26338754691507,27.963387546915087,28.55269338350608,28.535213437831217,28.42244569951042,28.35282160937429
60.0,28.698006279903282,28.363387546915092,28.95269338350606,28.955212589569797,28.86969118582276,28.77341765173462
61.5,29.13006730064056,28.863387546915064,29.352693383506065,29.394936708860754,29.322686550441674,29.217156567334413
63.0,29.598006279903274,29.329288117545772,29.824731706419783,29.835213437831214,29.806910231558646,29.683163683651415
65.0,30.064951591435516,29.829288117545772,30.296588833232462,30.33521343783123,30.31727525484827,30.17303310888819
67.0,30.564951591435502,30.329288117545772,30.768909247784464,30.775582686646672,30.796266945140687,30.65066967043714
69.0,31.100360716187353,30.89570420331637,31.326053549848027,31.33521343783123,31.338416946552925,31.20269965196752
71.0,31.664951591435525,31.46185856002124,31.82605354984804,31.835213437831214,31.83841694655294,31.727761086178262
73.0,32.064951591435516,31.894936708860754,32.22605354984805,32.25567733384311,32.269452927688434,32.14457039683015
75.0,32.564951591435516,32.394936708860754,32.68178117049129,32.67558268664665,32.700983881095155,32.605149481311344
77.5,33.0649515914355,32.928526535740716,33.181781170491305,33.17558268664665,33.15311174736178,33.10183927214322
80.0,33.564951591435516,33.42852653574073,33.66726162965007,33.67558268664665,33.600499752476495,33.58828208786706
82.5,34.097256654758496,34.02852653574071,34.21001985129958,34.1953972218099,34.11112156142745,34.12897964385256
85.0,34.59725665475851,34.56263192191369,34.69559456955501,34.67558268664665,34.57407457760675,34.62136738845524
87.5,35.06263192191368,34.99570420331635,35.166599462779644,35.11512176427662,34.97407457760674,35.06342287018212
90.0,35.4626319219137,35.428526535740716,35.59493670886074,35.575582686646655,35.38499855338574,35.490116301225584
92.5,35.9626319219137,35.89570420331637,36.0523612002189,35.99539722180991,35.78499855338573,35.93918625781866
95.0,36.46263192191368,36.395704203316356,36.59493670886074,36.49539722180991,36.30097837134238,36.451043125215136
97.5,36.92852653574073,36.86185856002125,36.99493670886075,36.935669699922016,36.74330597818327,36.89370415788895
100.0,37.328526535740735,37.26185856002125,37.394936708860754,37.31558014194154,37.12830987395067,37.286758913485116
103.0,37.76185856002125,37.66185856002123,37.894936708860754,37.73566969992201,37.549637407633796,37.72228905943146
106.0,38.22852653574071,38.161858560021244,38.30936417225821,38.17603472748583,38.01890869004664,38.179980295578375
109.0,38.72852653574073,38.628526535740704,38.80936417225821,38.63566969992202,38.449882330287025,38.65205166162902
112.0,39.22852653574071,39.09570420331636,39.3093641722582,39.09630762145083,38.84988233028703,39.118740293284944
115.0,39.72852653574073,39.62852653574072,39.794936708860746,39.57603472748582,39.24893550915645,39.599459228571035
118.0,40.29493670886076,40.22852653574073,40.33807610419858,40.15613145120257,39.76408851247369,40.16112663378132
122.0,40.894936708860754,40.828526535740735,40.894936708860754,40.75613145120256,40.26434386382678,40.734101962787406
125.0,41.46185856002124,41.428526535740716,41.45236120021889,41.35613145120257,40.853971145429654,41.31657467330922
128.0,41.99493670886075,41.99493670886075,41.9523612002189,41.99539722180991,41.476402237216746,41.88748190084222
132.0,42.628526535740704,42.66185856002123,42.58145120472169,42.655212589569786,42.21825676775063,42.55224455393325
136.0,43.19493670886074,43.19493670886074,43.13840179583973,43.255212589569794,42.901352579758736,43.13870356820718
140.0,43.72852653574073,43.794936708860746,43.68145120472168,43.794936708860746,43.590215894219554,43.7186931129408
145.0,44.29493670886073,44.36185856002125,44.252361200218886,44.394936708860754,44.3267651120877,44.32645766717714
150.0,44.828526535740735,44.894936708860754,44.80969202415285,44.97512006771062,45.02171745533197,44.90677237074476
155.0,45.29493670886076,45.36185856002125,45.30969202415285,45.4552125895698,45.61776313348331,45.409535025938766
160.0,45.828526535740735,45.894936708860754,45.82374386560603,45.975120067710634,46.218963194219825,45.9507428655878
165.0,46.294936708860746,46.294936708860746,46.32374386560603,46.394936708860754,46.70523006255914,46.40558754239325
170.0,46.69493670886074,46.69493670886074,46.752361200218886,46.79493670886073,47.07443864888728,46.80464776305246
175.0,47.19493670886074,47.16185856002123,47.19493670886074,47.19493670886074,47.44218338336164,47.23900588204607
180.0,47.52852653574071,47.49493670886075,47.59493670886074,47.575120067710614,47.68345070218784,47.575872561524605
185.0,47.894936708860754,47.86185856002125,47.980791197963114,47.9552125895698,47.98345070218785,47.93552138456765
190.0,48.26185856002124,48.19493670886074,48.294936708860746,48.27512006771062,48.30379519948637,48.26629970940982
195.0,48.59493670886074,48.59493670886074,48.59493670886074,48.655212589569786,48.672256473351595,48.62259013258587
200.0,48.894936708860754,48.96185856002124,48.99493670886075,49.01512176427663,49.07347523447375,48.988466896637036
206.0,49.29493670886073,49.29493670886073,49.32374386560603,49.41558014194155,49.49557488786532,49.36567401689216
212.0,49.62852653574072,49.69493670886074,49.69493670886074,49.81558014194154,49.90127531137928,49.74815897855889
218.0,49.99493670886075,50.061858560021236,50.05236120021888,50.21558014194153,50.25444570291913,50.11700687368493
224.0,50.394936708860754,50.428526535740716,50.394936708860754,50.535669699922025,50.563476800984446,50.46410521240469
230.0,50.661858560021244,50.72852653574071,50.666599462779644,50.83566969992202,50.74659701427703,50.72831399929095
236.0,50.828526535740735,50.86185856002126,50.86659946277966,51.01558014194153,50.936061721325686,50.9022410822013
240.0,50.99493670886075,50.99493670886075,51.038076104198566,51.05521258956979,50.985627261671326,51.0138456835582
250.0,51.028526535740724,50.99493670886075,51.11001985129957,51.01512176427664,50.97758965729325,51.02548127052104
258.0,51.028526535740724,50.89570420331637,51.15334255390135,50.93566969992203,50.85409721190864,50.97478966355426
265.0,51.095704203316345,50.89570420331637,51.181121213880246,50.856131451202586,50.72354039054618,50.95361484654185
272.0,51.095704203316345,50.86338754691508,51.22473170641979,50.79723902950124,50.6342885359755,50.928228366624055
280.0,51.163387546915075,50.89570420331637,51.28112121388024,50.81650742631571,50.625319786477064,50.96288643390831
290.0,51.26338754691507,50.93006730064057,51.353342553901356,50.87743291492667,50.608140497207586,51.01491945326697
300.0,51.363387546915064,50.998006279903265,51.48242600778116,50.89678919047314,50.61031185864239,51.08173809813334
307.0,51.39800627990327,50.93314800774817,51.59723147579767,50.858951529512055,50.571772856447055,51.087932662663164
315.0,51.46644471673011,50.90184171921533,51.69723147579768,50.800547093718606,50.53371487671818,51.101721028212395
325.0,51.50025477652544,50.86881632108893,51.69723147579768,50.76266786462769,50.50091134244478,51.090032131169224
335.0,51.46644471673011,50.774224034935074,51.65334255390137,50.64270309375793,50.41839624620292,51.01798619295364
345.0,51.33537838831566,50.60720849201694,51.526023465492486,50.46688976784701,50.295302308387846,50.87422361243215
355.0,51.131572465532614,50.443921857656264,51.353342553901356,50.20991847526143,50.125295730474264,50.68163569337936
365.0,50.9315724655326,50.2771363821838,51.15334255390135,49.940971640036565,49.99984473556442,50.48890071668923
375.0,50.83157246553263,50.17713638218379,50.953342553901365,49.73954862766429,49.86054914668027,50.34093319233561
387.0,50.82928811754579,50.3108636311278,50.938727463058044,49.73958924572234,49.809791765950166,50.35416925565417
400.0,50.86185856002126,50.47471416676642,50.90936417225822,49.85944667444011,49.83447478778986,50.41289904189949
412.0,50.794936708860746,50.604001009020564,50.88112121388025,49.98798628564005,49.803308943649526,50.43595349557826
425.0,50.62852653574072,50.46565403381483,50.73973482984843,49.86355447521488,49.63806412241442,50.288725902895465
437.0,50.36263192191369,50.19722132282094,50.55698046885321,49.62401353399753,49.29687233901785,50.03285789680854
450.0,50.064951591435516,49.82928811754577,50.37580516350708,49.43795682883869,48.969835755089846,49.76290237733147
462.0,49.93314800774819,49.56338754691508,50.29169173340638,49.39549406710218,48.7929270889296,49.624597090101176
475.0,49.83776701358049,49.39570420331637,50.26583592050119,49.38466163737111,48.73538219008283,49.553824000643644
487.0,49.807208492016926,49.29570420331636,50.165835920501195,49.357493759134414,48.80071951425033,49.51044301904999
500.0,49.67713638218379,49.09570420331636,50.065835920501186,49.23566969992203,48.827635374113626,49.40287236673656
515.0,49.747546240882926,49.03006730064058,50.10408260191902,49.2365927052323,48.77700766948766,49.40616426779424
530.0,49.94070390324545,49.20036071618736,50.214920942875196,49.376497249005965,48.83622906080886,49.542617719370014
545.0,50.26943021916513,49.53629821309663,50.441688212614295,49.59723902950125,49.1346652217065,49.82322290987328
560.0,50.40025477652544,49.70501470666366,50.57018793528532,49.66247836096416,49.22116645843549,49.94073112057153
580.0,50.30025477652545,49.60720849201694,50.53030757505063,49.430094174046914,48.80452443050048,49.77849035998079
600.0,50.131572465532614,49.41410376388829,50.40220092816368,49.1133450327785,48.269315172883694,49.53106545903928
615.0,49.998006279903265,49.19391116017,50.3459963773802,48.766645538595526,47.85317511763445,49.320498379632284
630.0,50.06644471673012,49.13808496995509,50.4459963773802,48.66404184057278,47.47456347269828,49.281719757684314
650.0,50.23314800774817,49.284093010157164,50.6459963773802,48.750609581765204,47.34711861733783,49.40162292345285
670.0,50.39800627990327,49.431896834804434,50.77257338340719,48.78310228510142,47.436274102730096,49.520982370659155
690.0,50.46495159143551,49.53189683480443,50.85698046885321,48.85553068944638,47.38370373018712,49.585433573229395
710.0,50.56881632108893,49.67987012417575,51.01492094287518,48.98315017266755,47.28850386900061,49.6932272789135
730.0,50.64392185765624,49.72420347765497,51.11492094287517,49.07429267833652,47.470094778062105,49.78408155491
750.0,50.65590185123257,49.6108636311278,51.158881833387895,48.93619961939761,47.25800209746944,49.72921341584053
775.0,50.67211566875878,49.43776701358048,51.25888183338789,48.86358114257884,46.95070438383381,49.68248996260196
800.0,50.6995817320461,49.44174654406889,51.25888183338789,48.90306651964109,46.926003658725804,49.694091593581035
825.0,50.66162223676096,49.285398924961314,51.119866255593635,48.81099034490583,46.75164355834623,49.581650730221
850.0,50.65261798708026,49.20292936101664,51.08212913284554,48.75341857636646,46.42013073991899,49.50993637290972
875.0,50.54754624088292,49.11610914595863,51.06251862158646,48.61611354245315,46.1303078663782,49.409905740315835
900.0,50.35160926816127,48.92427748327731,50.969494568306416,48.331389757463484,45.58074795772855,49.19862262608635
925.0,50.29967201004649,48.76371704882865,50.974271691164105,48.10446465453727,45.13073856598848,49.08206624403509
950.0,50.3996720100465,48.837876502462635,51.11047422768381,48.0857674419277,44.88974838389663,49.143241907450644
975.0,50.52252390169667,49.0975482678144,51.23729324013216,48.368421885721375,44.774274325476384,49.301214396791394
1000.0,50.82252390169667,49.48409301015717,51.45888183338788,48.73266316904446,44.84771563677097,49.58847929570291
1030.0,51.02252390169666,49.77211566875879,51.64359628250868,49.16660362445948,45.09222538305403,49.843276287434946
1060.0,50.86082516945761,49.565766411703734,51.60857611492955,49.06973912684062,44.79641651318907,49.713965532126664
1090.0,50.83246448186101,49.39967201004647,51.64615153197424,48.94227188386678,44.456898016842885,49.643501335887635
1120.0,50.83246448186101,49.16056939847063,51.66251862158647,48.73170087761781,44.1432373739451,49.55041072522796
1150.0,50.83246448186101,49.048987643391484,51.66251862158647,48.59439565494232,43.70795373512395,49.483519713153115
1180.0,50.96576641170371,49.16220229745686,51.8181475678106,48.80837764271308,43.699840543920956,49.626489235976194
1220.0,50.9380849699551,49.046711084208155,51.87095880994741,48.83484016147702,43.535933412894806,49.61225183328666
1250.0,50.75015640194454,48.77078278413221,51.78723285027395,48.697126133468316,43.185272035071705,49.44502099309855
1280.0,50.49000128921905,48.34789207673853,51.55840616471288,48.26659463085673,42.49965800933762,49.12051591084598
1320.0,50.5167340957497,48.35997608476826,51.55840616471288,48.20703257035912,42.109208374958584,49.10388134833708
1360.0,50.551416655476814,48.44408874884904,51.66254779420258,48.32189275967616,41.965582418690516,49.17759292830655
1400.0,50.61286460650926,48.39981762807443,51.79781299186476,48.45330470662327,41.90039220764213,49.25459711706789
1450.0,50.75359698486909,48.45720590543799,52.046151531974246,48.68846896496159,42.047939471245016,49.43683382056125
1500.0,51.01247474126008,48.66600415159992,52.243114863287545,48.94108319169236,42.0004524917713,49.6532894265724
1550.0,51.163717048828644,48.75720412289385,52.290605481155154,49.02382110793947,41.81171692856232,49.73447878613915
1600.0,51.08382218041079,48.69585059900116,52.19024825188855,48.896016760440304,41.377551029638724,49.631064695912826
1650.0,50.79759121226414,48.35761861704971,52.03797041355956,48.57870237990194,40.86337703988977,49.37358062714402
1700.0,50.7047652644283,48.08713718037647,52.11055414969273,48.17912592330143,40.41388673778455,49.256433951206105
1750.0,51.19981762807443,48.432526397755694,52.666665798510635,48.42450262541233,40.48703520520115,49.70411536779078
1800.0,51.9806745204403,49.198240547150036,53.249556204465804,49.157712165209176,41.08295807573758,50.39380863175295
1850.0,52.42886503700642,49.72607138574956,53.57254736618064,49.55523372346293,41.416255722758535,50.796087955235734
1900.0,52.59527783825901,49.90284746449525,53.75238432165524,49.58926095004857,41.55254974214664,50.94890841098844
1950.0,52.73751944549089,49.9892441543074,54.068706680963984,49.44351270204473,41.497190034587774,51.10495943525716
2000.0,52.98942539818364,50.17592161436755,54.344503643615624,49.460857568477024,41.68088732305792,51.32357193311829
2060.0,53.58942539818365,50.82096123242766,54.716114471525856,49.79412851895593,41.9811205568689,51.79957277263699
2120.0,53.904559219622826,51.27654879419494,54.95659406895628,50.07514642903239,42.199372560820024,52.10222357633165
2180.0,53.85359698486907,51.3676281620867,54.97517518643863,49.983509798828806,42.07854835423444,52.095471491554534
2240.0,54.10435919312094,51.77654879419495,55.160482964732765,49.979292695021925,42.10224072980604,52.31327515027087
2300.0,54.50435919312095,52.34671108420817,55.49575941815466,50.2662110395307,42.35265746554535,52.70334210813469
2360.0,54.7167340957497,52.76220229745685,55.535191680878015,50.327657304039846,42.38946776979145,52.86917805290474
2400.0,54.76576641170372,52.98731569695873,55.32402133306262,50.213110340807134,42.270367895563524,52.838384679045404
2500.0,54.58979376769244,52.95359698486908,54.89714461533636,49.99224855267437,41.810725732712214,52.59571436077037
2580.0,54.3108636311278,52.80455921962282,54.37517518643865,49.630070608961475,41.18881757209141,52.25004257460493
2650.0,54.174714166766435,52.613262150710455,53.93519168087802,49.33414673135623,40.74395939096239,51.98188830781767
2720.0,54.43458202862077,52.95630508508839,53.70591175817002,49.323593662411554,40.66095171460701,52.07966528948283
2800.0,54.535378388315664,53.05630508508838,53.55095696806477,49.47402210923738,40.64674391669948,52.11113671819804
2900.0,54.43314800774817,52.92096123242766,53.26888006547149,49.42699326585169,40.40255425761221,51.95535054743954
3000.0,54.43314800774817,52.81132441199081,53.147519618884346,49.48542292114759,40.06588080886233,51.89757531916287
