Freq "Front Wall Bounce"
22.4 12.628012008710769
23.0 12.776725718014418
23.6 13.049096558890184
24.0 13.388763083947751
25.0 13.751061817361787
25.8 14.135523034141258
26.5 14.49186779731194
27.2 14.855984122147916
28.0 15.341067454818003
29.0 15.800855961065409
30.0 16.34393688972814
30.7 16.832479923157095
31.5 17.532479923157084
32.5 18.106866520967927
33.5 18.532479923157084
34.5 19.032479923157084
35.5 19.603730847278868
36.5 20.17342149033091
37.5 20.729957938174024
38.7 21.256632972832662
40.0 21.855999060937435
41.2 22.383760788544905
42.5 22.939393892898593
43.7 23.469247875617455
45.0 24.111986642149432
46.2 24.611986642149404
47.5 25.06790862623778
48.7 25.538727463058038
50.0 26.038727463058038
51.5 26.538727463058038
53.0 27.038727463058038
54.5 27.481121213880257
56.0 28.052693383506053
58.0 28.55269338350608
60.0 28.95269338350606
61.5 29.352693383506065
63.0 29.824731706419783
65.0 30.296588833232462
67.0 30.768909247784464
69.0 31.326053549848027
71.0 31.82605354984804
73.0 32.22605354984805
75.0 32.68178117049129
77.5 33.181781170491305
80.0 33.66726162965007
82.5 34.21001985129958
85.0 34.69559456955501
87.5 35.166599462779644
90.0 35.59493670886074
92.5 36.0523612002189
95.0 36.59493670886074
97.5 36.99493670886075
100.0 37.394936708860754
103.0 37.894936708860754
106.0 38.30936417225821
109.0 38.80936417225821
112.0 39.3093641722582
115.0 39.794936708860746
118.0 40.33807610419858
122.0 40.894936708860754
125.0 41.45236120021889
128.0 41.9523612002189
132.0 42.58145120472169
136.0 43.13840179583973
140.0 43.68145120472168
145.0 44.252361200218886
150.0 44.80969202415285
155.0 45.30969202415285
160.0 45.82374386560603
165.0 46.32374386560603
170.0 46.752361200218886
175.0 47.19493670886074
180.0 47.59493670886074
185.0 47.980791197963114
190.0 48.294936708860746
195.0 48.59493670886074
200.0 48.99493670886075
206.0 49.32374386560603
212.0 49.69493670886074
218.0 50.05236120021888
224.0 50.394936708860754
230.0 50.666599462779644
236.0 50.86659946277966
240.0 51.038076104198566
250.0 51.11001985129957
258.0 51.15334255390135
265.0 51.181121213880246
272.0 51.22473170641979
280.0 51.28112121388024
290.0 51.353342553901356
300.0 51.48242600778116
307.0 51.59723147579767
315.0 51.69723147579768
325.0 51.69723147579768
335.0 51.65334255390137
345.0 51.526023465492486
355.0 51.353342553901356
365.0 51.15334255390135
375.0 50.953342553901365
387.0 50.938727463058044
400.0 50.90936417225822
412.0 50.88112121388025
425.0 50.73973482984843
437.0 50.55698046885321
450.0 50.37580516350708
462.0 50.29169173340638
475.0 50.26583592050119
487.0 50.165835920501195
500.0 50.065835920501186
515.0 50.10408260191902
530.0 50.214920942875196
545.0 50.441688212614295
560.0 50.57018793528532
580.0 50.53030757505063
600.0 50.40220092816368
615.0 50.3459963773802
630.0 50.4459963773802
650.0 50.6459963773802
670.0 50.77257338340719
690.0 50.85698046885321
710.0 51.01492094287518
730.0 51.11492094287517
750.0 51.158881833387895
775.0 51.25888183338789
800.0 51.25888183338789
825.0 51.119866255593635
850.0 51.08212913284554
875.0 51.06251862158646
900.0 50.969494568306416
925.0 50.974271691164105
950.0 51.11047422768381
975.0 51.23729324013216
1000.0 51.45888183338788
1030.0 51.64359628250868
1060.0 51.60857611492955
1090.0 51.64615153197424
1120.0 51.66251862158647
1150.0 51.66251862158647
1180.0 51.8181475678106
1220.0 51.87095880994741
1250.0 51.78723285027395
1280.0 51.55840616471288
1320.0 51.55840616471288
1360.0 51.66254779420258
1400.0 51.79781299186476
1450.0 52.046151531974246
1500.0 52.243114863287545
1550.0 52.290605481155154
1600.0 52.19024825188855
1650.0 52.03797041355956
1700.0 52.11055414969273
1750.0 52.666665798510635
1800.0 53.249556204465804
1850.0 53.57254736618064
1900.0 53.75238432165524
1950.0 54.068706680963984
2000.0 54.344503643615624
2060.0 54.716114471525856
2120.0 54.95659406895628
2180.0 54.97517518643863
2240.0 55.160482964732765
2300.0 55.49575941815466
2360.0 55.535191680878015
2400.0 55.32402133306262
2500.0 54.89714461533636
2580.0 54.37517518643865
2650.0 53.93519168087802
2720.0 53.70591175817002
2800.0 53.55095696806477
2900.0 53.26888006547149
3000.0 53.147519618884346
3070.0 53.04831523971163
3150.0 52.924081098753945
3250.0 52.86614005988538
3350.0 53.227044251594606
3450.0 53.34988264751762
3550.0 53.26074022463864
3650.0 53.32708739071866
3750.0 53.31103389823441
3870.0 53.53973482984844
4000.0 53.88280183166411
4120.0 54.23973482984843
4250.0 54.317991409505765
4370.0 54.26583592050119
4500.0 53.987232850273955
4620.0 53.607212394568336
4750.0 53.46064315570898
4870.0 53.35686034654479
5000.0 53.36870668096398
5150.0 53.18464562526181
5300.0 52.91855144619768
5450.0 52.590843105307485
5600.0 52.51031225987384
5800.0 52.54475425923398
6000.0 52.46447727267986
6150.0 52.28456739587661
6300.0 52.019260461131836
6500.0 51.73905243933909
6700.0 51.63946549671999
6900.0 51.63217142835235
7100.0 51.768085389322025
7300.0 51.89596496158049
7500.0 52.173499879898614
7750.0 52.667216199625514
8000.0 53.40879535349559
8250.0 54.05670857893108
8500.0 54.63319737939324
8750.0 55.15363582605826
9000.0 55.442272338941095
9250.0 55.495278323217235
9500.0 55.1978681073393
9750.0 54.76560792007193
10000.0 54.15967264035349
10300.0 53.60823934825123
10600.0 53.39984875463092
10900.0 52.98444689027623
11200.0 52.672600528268035
11500.0 52.71487036651601
11800.0 52.480703895684925
12200.0 52.6950309068619
12500.0 53.15313232206377
12800.0 53.32236666740913
13200.0 53.301580064652796
13600.0 52.55054288075915
14000.0 51.06973707536129
14500.0 50.01812762503458
15000.0 51.0449008898119
15500.0 52.77279611572676
16000.0 53.88498091213738
16500.0 54.34577610470791
17000.0 54.402716744101
17500.0 54.11325510123207
18000.0 53.08062640434224
18500.0 51.43164172209016
19000.0 51.18490640515746
19500.0 51.21906412887331
