Freq "Rear Wall Bounce"
22.4 11.785489497526768
23.0 12.062218929350635
23.6 12.418113329650353
24.0 12.84983723061886
25.0 13.257034694057879
25.8 13.663320057971262
26.5 14.093407912584226
27.2 14.508570205749791
28.0 14.976684156493278
29.0 15.493863286283286
30.0 16.024154196314484
30.7 16.553188627122452
31.5 17.22620087646861
32.5 17.786013084345186
33.5 18.180045389812605
34.5 18.685506010507012
35.5 19.23025963242752
36.5 19.798563682270228
37.5 20.339473372877777
38.7 20.888641551063543
40.0 21.437010753093304
41.2 21.9768929345084
42.5 22.516523650506812
43.7 23.078491799310044
45.0 23.73522160599576
46.2 24.228712297917
47.5 24.696638866320413
48.7 25.19614860870807
50.0 25.739019890682457
51.5 26.25406842029726
53.0 26.764582402406475
54.5 27.285727322406345
56.0 27.86993498017138
58.0 28.42244569951042
60.0 28.86969118582276
61.5 29.322686550441674
63.0 29.806910231558646
65.0 30.31727525484827
67.0 30.796266945140687
69.0 31.338416946552925
71.0 31.83841694655294
73.0 32.269452927688434
75.0 32.700983881095155
77.5 33.15311174736178
80.0 33.600499752476495
82.5 34.11112156142745
85.0 34.57407457760675
87.5 34.97407457760674
90.0 35.38499855338574
92.5 35.78499855338573
95.0 36.30097837134238
97.5 36.74330597818327
100.0 37.12830987395067
103.0 37.549637407633796
106.0 38.01890869004664
109.0 38.449882330287025
112.0 38.84988233028703
115.0 39.24893550915645
118.0 39.76408851247369
122.0 40.26434386382678
125.0 40.853971145429654
128.0 41.476402237216746
132.0 42.21825676775063
136.0 42.901352579758736
140.0 43.590215894219554
145.0 44.3267651120877
150.0 45.02171745533197
155.0 45.61776313348331
160.0 46.218963194219825
165.0 46.70523006255914
170.0 47.07443864888728
175.0 47.44218338336164
180.0 47.68345070218784
185.0 47.98345070218785
190.0 48.30379519948637
195.0 48.672256473351595
200.0 49.07347523447375
206.0 49.49557488786532
212.0 49.90127531137928
218.0 50.25444570291913
224.0 50.563476800984446
230.0 50.74659701427703
236.0 50.936061721325686
240.0 50.985627261671326
250.0 50.97758965729325
258.0 50.85409721190864
265.0 50.72354039054618
272.0 50.6342885359755
280.0 50.625319786477064
290.0 50.608140497207586
300.0 50.61031185864239
307.0 50.571772856447055
315.0 50.53371487671818
325.0 50.50091134244478
335.0 50.41839624620292
345.0 50.295302308387846
355.0 50.125295730474264
365.0 49.99984473556442
375.0 49.86054914668027
387.0 49.809791765950166
400.0 49.83447478778986
412.0 49.803308943649526
425.0 49.63806412241442
437.0 49.29687233901785
450.0 48.969835755089846
462.0 48.7929270889296
475.0 48.73538219008283
487.0 48.80071951425033
500.0 48.827635374113626
515.0 48.77700766948766
530.0 48.83622906080886
545.0 49.1346652217065
560.0 49.22116645843549
580.0 48.80452443050048
600.0 48.269315172883694
615.0 47.85317511763445
630.0 47.47456347269828
650.0 47.34711861733783
670.0 47.436274102730096
690.0 47.38370373018712
710.0 47.28850386900061
730.0 47.470094778062105
750.0 47.25800209746944
775.0 46.95070438383381
800.0 46.926003658725804
825.0 46.75164355834623
850.0 46.42013073991899
875.0 46.1303078663782
900.0 45.58074795772855
925.0 45.13073856598848
950.0 44.88974838389663
975.0 44.774274325476384
1000.0 44.84771563677097
1030.0 45.09222538305403
1060.0 44.79641651318907
1090.0 44.456898016842885
1120.0 44.1432373739451
1150.0 43.70795373512395
1180.0 43.699840543920956
1220.0 43.535933412894806
1250.0 43.185272035071705
1280.0 42.49965800933762
1320.0 42.109208374958584
1360.0 41.965582418690516
1400.0 41.90039220764213
1450.0 42.047939471245016
1500.0 42.0004524917713
1550.0 41.81171692856232
1600.0 41.377551029638724
1650.0 40.86337703988977
1700.0 40.41388673778455
1750.0 40.48703520520115
1800.0 41.08295807573758
1850.0 41.416255722758535
1900.0 41.55254974214664
1950.0 41.497190034587774
2000.0 41.68088732305792
2060.0 41.9811205568689
2120.0 42.199372560820024
2180.0 42.07854835423444
2240.0 42.10224072980604
2300.0 42.35265746554535
2360.0 42.38946776979145
2400.0 42.270367895563524
2500.0 41.810725732712214
2580.0 41.18881757209141
2650.0 40.74395939096239
2720.0 40.66095171460701
2800.0 40.64674391669948
2900.0 40.40255425761221
3000.0 40.06588080886233
3070.0 39.804772846445005
3150.0 39.84571436454851
3250.0 39.90094257732086
3350.0 40.270204630266235
3450.0 40.28811404615206
3550.0 39.85036535724974
3650.0 39.64762366773276
3750.0 39.32557658812571
3870.0 39.1542144163723
4000.0 38.726411245630345
4120.0 38.298906336250525
4250.0 37.53103937808143
4370.0 36.703001115327126
4500.0 35.66600961102667
4620.0 34.56139943412255
4750.0 33.883257882462146
4870.0 33.583862529989815
5000.0 33.483489081925654
5150.0 33.18355229492822
5300.0 32.80223048829028
5450.0 32.426393017875725
5600.0 32.19520167870057
5800.0 32.06214528396508
6000.0 31.773666559168447
6150.0 31.302335454875305
6300.0 30.649535463222747
6500.0 29.978200857862234
6700.0 29.507292211274276
6900.0 29.361556391595073
7100.0 29.5347724921818
7300.0 30.010238591934083
7500.0 30.9588118081097
7750.0 32.18417240845709
8000.0 33.40204612701534
8250.0 34.2991841310825
8500.0 34.95067174287597
8750.0 35.485836216713565
9000.0 35.773766487305465
9250.0 35.63966096014134
9500.0 35.069035648629765
9750.0 34.27911840680923
10000.0 33.17901196560368
10300.0 31.911721627530753
10600.0 30.806643446868392
10900.0 29.21083344631812
11200.0 27.719318630087443
11500.0 27.58301106690557
11800.0 28.19278741038771
12200.0 29.01947102687315
12500.0 29.50484114835436
12800.0 30.054935096058543
13200.0 31.08179532619036
13600.0 31.005977473590406
14000.0 29.495881330569247
14500.0 28.136027498766666
15000.0 28.363005568236574
15500.0 29.165536389725602
16000.0 29.885591821897563
16500.0 29.796565697883224
17000.0 28.792212138976524
17500.0 28.093478408068833
18000.0 26.80923470993382
18500.0 25.63187889214801
19000.0 26.50950392381064
19500.0 27.029815105014862
