Freq "Side Wall Bounce"
22.4 16.21202704588201
23.0 16.27165540192901
23.6 16.497171336947005
24.0 16.871165909758602
25.0 17.14222619619342
25.8 17.432146291893886
26.5 17.76051128326155
27.2 18.12108966172552
28.0 18.491927263859893
29.0 19.024086317080744
30.0 19.49663493882788
30.7 20.045791287446846
31.5 20.716935897547998
32.5 21.29238396156795
33.5 21.703870417348284
34.5 22.277976239064785
35.5 22.833269521552765
36.5 23.429051016356127
37.5 24.00695883351149
38.7 24.56537624439828
40.0 25.184367429206063
41.2 25.742600298207904
42.5 26.301852481612414
43.7 26.881108547448108
45.0 27.540276728970454
46.2 28.080645977785892
47.5 28.520643433080792
48.7 29.040276728970454
50.0 29.58018335884988
51.5 30.08018335884988
53.0 30.580183358849894
54.5 31.08018335884988
56.0 31.640276728970477
58.0 32.14027672897048
60.0 32.56027588070904
61.5 33.0
63.0 33.44027672897046
65.0 33.940276728970474
67.0 34.3806459777859
69.0 34.94027672897046
71.0 35.44027672897046
73.0 35.860740624982355
75.0 36.28064597778591
77.5 36.78064597778591
80.0 37.28064597778591
82.5 37.80046051294916
85.0 38.280645977785895
87.5 38.72018505541588
90.0 39.180645977785915
92.5 39.600460512949184
95.0 40.10046051294917
97.5 40.54073299106129
100.0 40.920643433080784
103.0 41.34073299106129
106.0 41.78109801862507
109.0 42.24073299106128
112.0 42.70137091259009
115.0 43.18109801862508
118.0 43.76119474234183
122.0 44.36119474234184
125.0 44.96119474234182
128.0 45.60046051294917
132.0 46.26027588070906
136.0 46.86027588070904
140.0 47.39999999999999
145.0 48.0
150.0 48.58018335884988
155.0 49.06027588070906
160.0 49.58018335884988
165.0 49.999999999999986
170.0 50.39999999999999
175.0 50.8
180.0 51.180183358849874
185.0 51.56027588070906
190.0 51.88018335884986
195.0 52.260275880709045
200.0 52.62018505541589
206.0 53.02064343308079
212.0 53.420643433080784
218.0 53.820643433080804
224.0 54.140732991061284
230.0 54.44073299106127
236.0 54.6206434330808
240.0 54.66027588070905
250.0 54.62018505541589
258.0 54.54073299106126
265.0 54.46119474234183
272.0 54.4023023206405
280.0 54.421570717454955
290.0 54.48249620606593
300.0 54.5018524816124
307.0 54.464014820651315
315.0 54.405610384857866
325.0 54.36773115576693
335.0 54.24776638489716
345.0 54.07195305898624
355.0 53.81498176640068
365.0 53.546034931175825
375.0 53.34461191880355
387.0 53.34465253686159
400.0 53.46450996557935
412.0 53.59304957677929
425.0 53.46861776635414
437.0 53.22907682513677
450.0 53.04302011997795
462.0 53.00055735824144
475.0 52.98972492851034
487.0 52.96255705027366
500.0 52.84073299106127
515.0 52.84165599637157
530.0 52.981560540145225
545.0 53.2023023206405
560.0 53.26754165210342
580.0 53.03515746518616
600.0 52.71840832391773
615.0 52.3717088297348
630.0 52.26910513171204
650.0 52.355672872904464
670.0 52.38816557624067
690.0 52.460593980585614
710.0 52.588213463806795
730.0 52.67935596947578
750.0 52.54126291053687
775.0 52.4686444337181
800.0 52.50812981078036
825.0 52.41605363604509
850.0 52.3584818675057
875.0 52.221176833592395
900.0 51.93645304860273
925.0 51.70952794567653
950.0 51.69083073306693
975.0 51.97348517686062
1000.0 52.3377264601837
1030.0 52.77166691559874
1060.0 52.674802417979876
1090.0 52.547335175006054
1120.0 52.33676416875706
1150.0 52.19945894608156
1180.0 52.41344093385233
1220.0 52.439903452616264
1250.0 52.30218942460759
1280.0 51.871657921995975
1320.0 51.81209586149838
1360.0 51.92695605081542
1400.0 52.05836799776252
1450.0 52.29353225610082
1500.0 52.54614648283162
1550.0 52.62888439907873
1600.0 52.501080051579535
1650.0 52.1837656710412
1700.0 51.78418921444067
1750.0 52.02956591655159
1800.0 52.762775456348436
1850.0 53.16029701460219
1900.0 53.19432424118783
1950.0 53.048575993183974
2000.0 53.06592085961627
2060.0 53.39919181009519
2120.0 53.68020972017162
2180.0 53.58857308996805
2240.0 53.5843559861612
2300.0 53.87127433066996
2360.0 53.932720595179106
2400.0 53.818173631946394
2500.0 53.597311843813614
2580.0 53.235133900100735
2650.0 52.93921002249546
2720.0 52.9286569535508
2800.0 53.07908540037663
2900.0 53.03205655699095
3000.0 53.09048621228682
3070.0 53.2644409453591
3150.0 53.37155154421782
3250.0 53.39140752108571
3350.0 53.90593866726829
3450.0 54.283979849776884
3550.0 54.13522911602884
3650.0 54.229057952121266
3750.0 54.072389606342284
3870.0 54.11787788446141
4000.0 54.143094595549655
4120.0 54.21949648496732
4250.0 53.78101017481514
4370.0 53.22816135168863
4500.0 52.392430039806
4620.0 51.40870335267495
4750.0 50.68514011019904
4870.0 50.11600846141812
5000.0 49.62871006713104
5150.0 49.19876685978127
5300.0 48.67779921804838
5450.0 48.24922926253696
5600.0 48.11375240265714
5800.0 48.11053103642746
6000.0 48.09971349710639
6150.0 47.8386523373145
6300.0 47.356696893377304
6500.0 46.85048236659135
6700.0 46.494784268180524
6900.0 46.136492775016876
7100.0 45.79172726167175
7300.0 45.45625563507738
7500.0 45.21996933644233
7750.0 45.517480181351985
8000.0 46.17741183202084
8250.0 46.96570253523032
8500.0 47.71285551440772
8750.0 48.43154495731291
9000.0 48.92181653937634
9250.0 49.02163303013977
9500.0 48.71289996958966
9750.0 48.20951226425585
10000.0 47.52192266662762
10300.0 46.68592337814884
10600.0 45.84836084500823
10900.0 44.40938165178164
11200.0 42.78647613041552
11500.0 41.79332709612379
11800.0 41.568395514130245
12200.0 42.32569868671827
12500.0 43.463871535083115
12800.0 44.451820402278216
13200.0 45.911327097403955
13600.0 46.796571873994466
14000.0 46.418234221196556
14500.0 46.39863765558489
15000.0 48.04300860551082
15500.0 49.796187052359954
16000.0 50.635492624619445
16500.0 50.90012151665684
17000.0 50.57577776124032
17500.0 49.911107119737295
18000.0 48.07722231147126
18500.0 44.53771165421047
19000.0 44.00881167880301
19500.0 43.799021324318204
