Freq "Total Early Reflection"
22.4 14.887330062375163
23.0 15.224560526912747
23.6 15.66507946410804
24.0 16.16580525848361
25.0 16.6617726728687
25.8 17.16039489921858
26.5 17.67758639481719
27.2 18.207083736476086
28.0 18.750216046173257
29.0 19.31862380966553
30.0 19.894247278275834
30.7 20.44925870818887
31.5 21.173750479391266
32.5 21.763058578997693
33.5 22.181427657659874
34.5 22.70881717924653
35.5 23.263169607537243
36.5 23.813420794911856
37.5 24.34510595050876
38.7 24.86298931741309
40.0 25.413250157463587
41.2 25.916206168905383
42.5 26.439491927252227
43.7 26.95138907988946
45.0 27.57595207206422
46.2 28.04921384167401
47.5 28.468644658518123
48.7 28.940679681169406
50.0 29.44429665555291
51.5 29.93418380344776
53.0 30.410741775956417
54.5 30.877455149038788
56.0 31.4472643164001
58.0 31.95788490051354
60.0 32.37848094287387
61.5 32.822219858473666
63.0 33.28822697479067
65.0 33.778096400027444
67.0 34.25573296157639
69.0 34.80776294310677
71.0 35.332824377317515
73.0 35.7496336879694
75.0 36.210212772450596
77.5 36.706902563282476
80.0 37.19334537900631
82.5 37.73404293499181
85.0 38.22643067959449
87.5 38.668486161321376
90.0 39.095179592364836
92.5 39.544249548957914
95.0 40.05610641635439
97.5 40.4987674490282
100.0 40.89182220462437
103.0 41.32735235057071
106.0 41.78504358671763
109.0 42.25711495276827
112.0 42.723803584424196
115.0 43.20452251971029
118.0 43.766189924920575
122.0 44.33916525392666
125.0 44.92163796444847
128.0 45.49254519198147
132.0 46.1573078450725
136.0 46.74376685934643
140.0 47.32375640408005
145.0 47.93152095831639
150.0 48.511835661884014
155.0 49.01459831707802
160.0 49.55580615672705
165.0 50.0106508335325
170.0 50.40971105419171
175.0 50.844069173185325
180.0 51.18093585266386
185.0 51.5405846757069
190.0 51.871363000549074
195.0 52.22765342372512
200.0 52.59353018777629
206.0 52.97073730803141
212.0 53.35322226969814
218.0 53.72207016482418
224.0 54.06916850354394
230.0 54.3333772904302
236.0 54.50730437334055
240.0 54.618908974697455
250.0 54.630544561660294
258.0 54.579852954693514
265.0 54.558678137681106
272.0 54.53329165776331
280.0 54.56794972504756
290.0 54.61998274440622
300.0 54.686801389272595
307.0 54.692995953802416
315.0 54.70678431935165
325.0 54.695095422308476
335.0 54.623049484092896
345.0 54.4792869035714
355.0 54.286698984518615
365.0 54.09396400782848
375.0 53.945996483474865
387.0 53.95923254679342
400.0 54.017962333038746
412.0 54.04101678671751
425.0 53.89378919403472
437.0 53.63792118794779
450.0 53.367965668470724
462.0 53.22966038124043
475.0 53.1588872917829
487.0 53.11550631018924
500.0 53.00793565787581
515.0 53.01122755893349
530.0 53.14768101050927
545.0 53.42828620101253
560.0 53.54579441171078
580.0 53.383553651120046
600.0 53.136128750178536
615.0 52.925561670771536
630.0 52.88678304882357
650.0 53.0066862145921
670.0 53.12604566179841
690.0 53.19049686436865
710.0 53.29829057005275
730.0 53.389144846049255
750.0 53.334276706979786
775.0 53.287553253741216
800.0 53.29915488472029
825.0 53.18671402136025
850.0 53.11499966404897
875.0 53.01496903145509
900.0 52.8036859172256
925.0 52.68712953517434
950.0 52.7483051985899
975.0 52.90627768793065
1000.0 53.19354258684216
1030.0 53.4483395785742
1060.0 53.31902882326592
1090.0 53.24856462702689
1120.0 53.155474016367215
1150.0 53.08858300429237
1180.0 53.23155252711545
1220.0 53.217315124425916
1250.0 53.050084284237805
1280.0 52.725579201985234
1320.0 52.708944639476336
1360.0 52.782656219445805
1400.0 52.85966040820714
1450.0 53.0418971117005
1500.0 53.25835271771165
1550.0 53.3395420772784
1600.0 53.23612798705208
1650.0 52.978643918283275
1700.0 52.86149724234536
1750.0 53.30917865893003
1800.0 53.9988719228922
1850.0 54.40115124637499
1900.0 54.55397170212769
1950.0 54.71002272639641
2000.0 54.92863522425754
2060.0 55.404636063776245
2120.0 55.707286867470906
2180.0 55.700534782693786
2240.0 55.91833844141012
2300.0 56.308405399273944
2360.0 56.474241344043996
2400.0 56.44344797018466
2500.0 56.200777651909625
2580.0 55.855105865744186
2650.0 55.58695159895692
2720.0 55.684728580622085
2800.0 55.71620000933729
2900.0 55.56041383857879
3000.0 55.50263861030212
3070.0 55.50014086578056
3150.0 55.494315054448954
3250.0 55.323591274260515
3350.0 55.659139023605896
3450.0 55.73308008343533
3550.0 55.45339437791092
3650.0 55.41583422901194
3750.0 55.21930814015543
3870.0 55.22285964909728
4000.0 55.27844854216321
4120.0 55.45686939748854
4250.0 55.29652320958284
4370.0 55.0143865901993
4500.0 54.57258467014268
4620.0 54.031186775644095
4750.0 53.71730037082174
4870.0 53.549464494643466
5000.0 53.46451727042581
5150.0 53.205217054993604
5300.0 52.84891989793281
5450.0 52.470513096988775
5600.0 52.321264369601174
5800.0 52.29955097228157
6000.0 52.215536426878494
6150.0 51.98251603263939
6300.0 51.66942673591566
6500.0 51.378070301600665
6700.0 51.24492623765148
6900.0 51.17644289671211
7100.0 51.20020865967329
7300.0 51.17349376588853
7500.0 51.243160054105154
7750.0 51.61673681134125
8000.0 52.26129410870127
8250.0 52.86961728887014
8500.0 53.446608425397706
8750.0 53.988696037515744
9000.0 54.30972165060394
9250.0 54.3461997756528
9500.0 54.054339641465255
9750.0 53.579862768182615
10000.0 52.95279355435185
10300.0 52.31123688801228
10600.0 51.89119401476494
10900.0 51.22557750286297
11200.0 50.65148836472884
11500.0 50.475115302978786
11800.0 50.097947646911415
12200.0 50.27212311407981
12500.0 50.752689422668176
12800.0 51.0681584709832
13200.0 51.38764125517081
13600.0 51.07402699768142
14000.0 49.983868296608456
14500.0 49.229769785626424
15000.0 50.473587441555885
15500.0 52.27514258077034
16000.0 53.31174101640104
16500.0 53.66543706208376
17000.0 53.542162117924114
17500.0 53.19355760540619
18000.0 51.9796846608757
18500.0 50.032666020309485
19000.0 50.05993535005036
19500.0 50.29821184475244
