Freq,On Axis,Listening Window,Sound Power,Early Reflections,Early Reflections DI,Sound Power DI,DI offset
22.4,6.000000000000014,13.877475916299332,13.39551643376548,12.82035887067353,41.0571170456258,40.48195948253385,40
23.0,8.200000000000003,18.102385340925863,16.961213361850454,15.988755005184274,42.11363033574159,41.14117197907541,40
23.6,10.299999999999997,22.122311378182772,21.007400671197146,19.28393627388415,42.83837510429862,41.114910706985626,40
24.0,12.899999999999991,21.99261529173812,23.977073061647886,20.617818951140478,41.37479634059764,38.01554223009023,40
25.0,15.200000000000003,21.761439661367078,26.33497798575054,22.159452573059312,39.601987088307766,35.42646167561654,40
25.8,17.299999999999997,21.660145688770044,28.475201019653596,23.80027205824355,37.859873630526494,33.18494466911645,40
26.5,19.29999999999997,21.165492525485817,29.930584252086604,25.158828473120124,36.00666405236569,31.234908273399213,40
27.2,21.89999999999999,22.214911962870715,28.596434602106186,25.312587148134284,36.90232481473643,33.61847736076453,40
28.0,24.200000000000003,24.022042028864078,28.394902231884842,26.418422149833262,37.603619879030816,35.627139796979236,40
29.0,26.299999999999997,25.963090044178486,28.696839970557974,27.83940392938463,38.123686114793855,37.26625007362051,40
30.0,28.60000000000001,28.226088430561546,29.7687899279246,29.6660967808768,38.55999164968475,38.457298502636945,40
30.7,31.200000000000003,31.07422963294242,32.48852224131228,32.296644436491576,38.77758519645084,38.58570739163014,40
31.5,33.500000000000014,33.59801016384996,35.12007437270212,34.7795020179838,38.81850814586616,38.47793579114784,40
32.5,35.7,36.20795082242516,38.16376581781232,37.682756825313575,38.525193997111586,38.04418500461284,40
33.5,38.3,39.78288719637648,40.35191358202947,40.076787165883744,39.706100030492735,39.43097361434701,40
34.5,40.7,42.94088997754925,42.308994705186976,42.31887217272212,40.622017804827124,40.63189527236227,40
35.5,42.89999999999999,44.53354397074118,43.08194265426424,43.32725272062986,41.20629125011132,41.45160131647694,40
36.5,45.39999999999999,43.980745964476924,42.28422187019815,42.5709609273993,41.409785037077626,41.69652409427877,40
37.5,47.8,45.64283550996721,43.92709538113262,44.317582965397676,41.32525254456954,41.7157401288346,40
38.7,50.10000000000001,48.0653359828096,46.51363742455406,47.01325099981243,41.05208498299717,41.55169855825554,40
40.0,52.8,51.92829524608901,50.80922089469898,51.41425362948455,40.51404161660446,41.119074351390026,40
41.2,55.10000000000001,55.772514500284345,54.99316393250764,55.67889617336503,40.09361832691931,40.7793505677767,40
42.5,57.7,58.64156970903143,57.85915133560589,58.65012476788392,39.991444941147506,40.78241837342554,40
43.7,60.2,61.183482851706756,60.41310347937046,61.25537636148589,39.92810649022087,40.77037937233629,40
45.0,62.7,63.60520336385943,63.041097881571304,63.74963232063102,39.85557104322841,40.56410548228813,40
46.2,65.3,65.76175593389192,65.48574885177383,65.78521402389148,39.976541910000435,40.276007082118085,40
47.5,67.7,68.29516932371281,68.24189199204397,68.28917749294762,40.0059918307652,40.05327733166884,40
48.7,70.2,71.5751954103044,72.01967991065953,72.84169045310743,38.73350495719697,39.55551549964487,40
50.0,72.5,74.51260393424899,75.03959988373579,76.25022687727606,38.26237705697292,39.4730040505132,40
51.5,74.7,75.08128956199921,74.28340491958338,75.39607119384839,39.68521836815083,40.79788464241584,40
53.0,76.7,76.17827385412188,74.143213410686,75.16040012043605,41.01787373368583,42.03506044343588,40
54.5,78.3,77.75995748495004,75.40246475369544,76.57463147665219,41.18532600829785,42.357492731254595,40
56.0,79.7,79.17098711725622,76.74628507126191,77.9656650393752,41.20532207788102,42.42470204599431,40
58.0,80.6,80.16175794909277,77.783760399113,78.96158717894731,41.20017077014546,42.37799754997977,40
60.0,81.2,80.8497031512462,78.55421792485406,79.69799388307676,41.15170926816944,42.295485226392145,40
61.5,81.59999999999998,81.29866346426766,79.11862404273114,80.21943711852727,41.079226345740395,42.18003942153652,40
63.0,81.7,81.4338469109761,79.29640037103067,80.36614857475794,41.06769833621816,42.13744653994543,40
65.0,81.8,81.41698476907717,79.27031815150058,80.30653659733343,41.11044817174374,42.1466666175766,40
67.0,81.8,81.36864977180252,79.34451673077733,80.26284012846556,41.10580964333697,42.024133041025195,40
69.0,81.8,81.46890303632871,79.58072129780281,80.40802648606257,41.060876550266144,41.8881817385259,40
71.0,81.8,81.60627797921985,80.03031382871463,80.75862881287385,40.847649166346,41.57596415050523,40
73.0,81.8,81.54298017269934,80.31008846334583,80.8861116617468,40.65686851095255,41.23289170935351,40
75.0,81.8,81.51629897156701,80.58598788736295,81.02463198815148,40.49166698341553,40.930311084204064,40
77.5,81.8,81.56896065090419,80.84223714080017,81.17485110002383,40.39410955088036,40.72672351010402,40
80.0,81.7,81.55990365112534,81.02671700288815,81.2341708937395,40.325732757385836,40.53318664823719,40
82.5,81.59999999999998,81.42571873171362,81.03836441549774,81.17673261876742,40.2489861129462,40.38735431621588,40
85.0,81.4,81.26895464854633,80.92431115105985,81.04339311637845,40.22556153216787,40.34464349748647,40
87.5,81.2,81.03743830470547,80.66939351278991,80.80614765260108,40.23129065210439,40.368044791915565,40
90.0,80.9,80.75887021170914,80.42712432630908,80.55635644299126,40.20251376871788,40.33174588540005,40
92.5,80.6,80.59028438086776,80.2829227808241,80.3947323786575,40.19555200221026,40.30736160004366,40
95.0,80.3,80.2343573213356,79.9341334310884,80.09347761017555,40.14087971116004,40.300223890247196,40
97.5,80.0,79.90127325984552,79.5273941929597,79.73853451192424,40.16273874792128,40.37387906688582,40
100.0,79.7,79.67519306924957,79.15847508717495,79.43849648834896,40.23669658090061,40.516717982074624,40
103.0,79.6,79.55528620879765,78.79483087647243,79.19563144743393,40.35965476136373,40.76045533232522,40
106.0,79.6,79.59666007068151,78.64427780074759,79.17689073381139,40.41976933687012,40.95238226993392,40
109.0,79.8,79.77722196976056,78.61264741404099,79.22779677643808,40.54942519332248,41.16457455571957,40
112.0,80.0,80.00883105356515,78.56943898162616,79.34093093805379,40.66790011551136,41.43939207193898,40
115.0,80.3,80.28429789353645,78.66609930684321,79.52462168612826,40.75967620740819,41.61819858669324,40
118.0,80.6,80.58223051179792,78.93597854311889,79.7993309430686,40.78289956872932,41.646251968679024,40
122.0,81.0,80.86105710863878,79.24607982541467,80.07969431386776,40.78136279477101,41.61497728322411,40
125.0,81.4,81.24823349737886,79.63356243239969,80.43604589814062,40.81218759923824,41.61467106497918,40
128.0,81.59999999999998,81.50252881735427,79.9839593571296,80.73537758650806,40.76715123084621,41.51856946022467,40
132.0,81.59999999999998,81.4137537319127,79.91034789850731,80.63291219061232,40.78084154130039,41.503405833405395,40
136.0,81.2,81.02767394688186,79.39213229945025,80.17278133008173,40.85489261680013,41.63554164743161,40
140.0,80.8,80.5620781409739,78.70870013824889,79.61950984891307,40.94256829206083,41.85337800272501,40
145.0,80.40000000000002,80.21870003808417,78.16334073205824,79.14644377065078,41.07225626743339,42.05535930602592,40
150.0,80.10000000000001,79.83255535646829,77.59840181365367,78.7241945094001,41.108360847068184,42.234153542814624,40
155.0,80.0,79.69196078707547,77.24455677830066,78.47915869505063,41.212802092024845,42.44740400877481,40
160.0,79.9,79.65284910331674,77.0607989331107,78.35883943254109,41.29400967077565,42.592050170206036,40
165.0,80.0,79.67755220068831,77.0189499305972,78.36558877563276,41.31196342505555,42.65860227009111,40
170.0,80.10000000000001,79.8327138275214,77.18548840800293,78.50802567937463,41.32468814814678,42.64722541951848,40
175.0,80.3,80.00758012903582,77.42173153281703,78.6848356437121,41.32274448532371,42.58584859621878,40
180.0,80.40000000000002,80.10836426821022,77.54736986155376,78.76238572112229,41.34597854708794,42.56099440665646,40
185.0,80.6,80.35026932121654,77.74951739707141,78.93374527683342,41.416524044383124,42.60075192414513,40
190.0,80.8,80.50783552944246,77.86662143843675,79.0953359506357,41.41249957880676,42.64121409100571,40
195.0,81.0,80.64088500348865,77.8755128079937,79.20276428675095,41.4381207167377,42.76537219549495,40
200.0,81.2,80.82823963784406,77.88566092284528,79.36570824492091,41.462531392923154,42.94257871499879,40
206.0,81.4,81.01748943911598,77.76987340824715,79.46563317111055,41.55185626800542,43.247616030868826,40
212.0,81.59999999999998,81.25969326986497,77.7523015232785,79.60815667486116,41.651536595003805,43.507391746586464,40
218.0,81.8,81.46181615576099,77.68458314395697,79.69390219542974,41.76791396033124,43.777233011804014,40
224.0,81.89999999999999,81.5762968420815,77.51472887989877,79.69665885009955,41.87963799198195,44.061567962182735,40
230.0,82.0,81.67783718186017,77.50120087618991,79.74402492375968,41.93381225810049,44.17663630567026,40
236.0,82.2,81.76980454575946,77.38081058509371,79.72257713314444,42.047227412615015,44.38899396066574,40
240.0,82.3,81.86835773222232,77.3518253750483,79.81055995935569,42.057797772866635,44.516532357174015,40
250.0,82.4,82.04420055742189,77.69169127906555,80.12444948340207,41.919751074019814,44.35250927835634,40
258.0,82.4,82.11917895742685,78.03549539924414,80.37492107355709,41.744257883869764,44.08368355818271,40
265.0,82.4,82.1539511568629,78.23441488043666,80.49636046850203,41.65759068836087,43.91953627642624,40
272.0,82.2,82.03734341240047,78.29319073175718,80.41957158102937,41.6177718313711,43.744152680643296,40
280.0,81.89999999999999,81.67816514395511,78.09313526256317,80.1021447864715,41.576020357483614,43.58502988139195,40
290.0,81.4,81.14471833614529,77.59714846521025,79.5700606075409,41.57465772860439,43.547569870935035,40
300.0,80.7,80.35071975547406,76.75932117830851,78.7605919403701,41.590127815103955,43.59139857716555,40
307.0,80.0,79.61987043046638,76.06672661403167,78.01398243669924,41.60588799376714,43.55314381643471,40
315.0,79.39999999999999,79.14009900676872,75.74753378917237,77.54804974132256,41.592049265446164,43.392565217596356,40
325.0,79.09999999999998,78.76815940301616,75.2918351974145,77.1120223290583,41.65613707395785,43.47632420560166,40
335.0,78.8,78.46988050064296,74.80094677103267,76.66923254539331,41.800647955249644,43.66893372961029,40
345.0,78.7,78.40829420473071,74.54980046936198,76.47338135144776,41.93491285328295,43.858493735368725,40
355.0,78.7,78.58233867137855,74.51900159599083,76.54659706920887,42.03574160216968,44.06333707538772,40
365.0,78.9,78.80254885025191,74.43181582984406,76.69117533359622,42.11137351665569,44.370733020407854,40
375.0,79.6,79.44896453282934,74.87881328182975,77.24393775164116,42.20502678118818,44.57015125099959,40
387.0,80.3,80.19053141198772,75.46708601605968,77.9126925942963,42.27783881769142,44.72344539592804,40
400.0,80.8,80.70344562877703,75.75501430719072,78.32806957305186,42.37537605572517,44.94843132158631,40
412.0,80.8,80.7784239708535,75.64552944163002,78.33038561626581,42.44803835458768,45.13289452922348,40
425.0,80.40000000000002,80.43033291431446,75.27575086228785,78.01385532364947,42.416477590665,45.15458205202661,40
437.0,79.8,79.88136703399697,74.89903935101144,77.6051717522098,42.27619528178717,44.98232768298553,40
450.0,79.3,79.40707713777178,74.66975401326526,77.31976636769419,42.08731077007759,44.73732312450652,40
462.0,78.9,79.12861764305656,74.7080989934153,77.17821424306052,41.950403399996034,44.42051864964125,40
475.0,78.6,78.91081494985899,74.80756154669797,77.10409685282951,41.806718097029474,44.10325340316102,40
487.0,78.9,79.52788933728613,75.36743756755448,77.55780118726659,41.970088150019535,44.16045176973165,40
500.0,80.7,81.31558617671585,76.54564676065958,78.87580710698332,42.43977906973254,44.769939416056275,40
515.0,82.8,82.99910910288206,77.50875589822519,80.11215661619043,42.88695248669163,45.49035320465687,40
530.0,84.00000000000001,84.0157984893789,77.80425123673268,80.75759808367988,43.258200405699014,46.21154725264621,40
545.0,84.00000000000001,84.08738567186828,77.5805979171132,80.81278242214957,43.27460324971871,46.50678775475508,40
560.0,83.3,83.33842158684378,76.64888176811955,80.04873139551577,43.289690191328006,46.68953981872423,40
580.0,82.5,82.5222174250507,75.6944662780041,79.18786923817143,43.33434818687927,46.8277511470466,40
600.0,82.4,82.08490687792995,75.12252183055888,78.75823047041649,43.32667640751346,46.96238504737107,40
615.0,82.3,81.72493595820599,74.6370490979636,78.44679367872389,43.2781422794821,47.08788686024239,40
630.0,82.0,81.20512076713875,74.09474052556966,78.00662048740861,43.19850027973014,47.11038024156909,40
650.0,81.7,80.86036449725007,73.82375238497352,77.70855379262066,43.15181070462941,47.03661211227656,40
670.0,81.7,80.83251483532037,73.78555375925505,77.61839451702454,43.21412031829583,47.046961076065315,40
690.0,81.89999999999999,80.77040548822075,73.57489061141466,77.39080274021278,43.37960274800797,47.19551487680609,40
710.0,81.89999999999999,80.6238862339856,73.14877859676282,77.00380807597247,43.62007815801313,47.47510763722278,40
730.0,82.2,80.70975246475778,72.98946419530651,76.9722640125123,43.737488452245486,47.720288269451274,40
750.0,82.4,80.78963923847924,73.03740773426763,77.0876074173486,43.702031821130646,47.75223150421161,40
775.0,82.4,80.67660197439741,72.91701116526211,77.01491577510032,43.661686199297094,47.759590809135304,40
800.0,82.60000000000001,80.75294548913587,72.7863874597713,76.95294139783839,43.80000409129748,47.96655802936456,40
825.0,83.1,81.16640576571287,72.99109310827579,77.2674533184312,43.89895244728167,48.175312657437075,40
850.0,83.6,81.63628770030839,73.3986378620542,77.70615875984886,43.930128940459525,48.237649838254185,40
875.0,83.8,81.7392101323425,73.60816638830799,77.8667493496413,43.87246078270121,48.131043744034514,40
900.0,83.5,81.26925874366994,73.29210378980717,77.46265479620966,43.806603947460275,47.977154953862765,40
925.0,82.90000000000002,80.6941770300947,72.8424396493828,76.98374926217708,43.71042776791762,47.85173738071191,40
950.0,82.60000000000001,80.44409489170563,72.9078508707512,76.98105243160632,43.46304246009932,47.53624402095443,40
975.0,82.4,80.45330134971671,72.13909878731589,76.30453065462082,44.14877069509589,48.31420256240082,40
1000.0,81.7,79.81998045970245,72.28598535370182,76.37234018522945,43.447640274473,47.53399510600063,40
1030.0,82.1,79.86548671064251,71.85847428380637,76.19035119038737,43.67513552025514,48.00701242683614,40
1060.0,82.0,79.76163634402376,70.75222864648069,75.16689129236015,44.59474505166361,49.00940769754307,40
1090.0,81.7,79.50259408581307,70.57216705213872,74.84561896575627,44.6569751200568,48.93042703367435,40
1120.0,82.0,79.72999528549008,70.84665717199847,74.96049226886282,44.769503016627255,48.883338113491604,40
1150.0,82.4,79.90097416884237,71.07962223891,75.00512899777065,44.89584517107171,48.82135192993236,40
1180.0,82.2,79.806484028117,70.86207409399042,74.7815031431778,45.0249808849392,48.94440993412658,40
1220.0,81.59999999999998,79.40910311517693,70.26263387269194,74.21146058182048,45.19764253335646,49.146469242485,40
1250.0,80.8,78.65932352063614,69.58748115936855,73.49817828678157,45.16114523385457,49.071842361267585,40
1280.0,80.3,78.28094818747157,69.46923744556965,73.33154019306956,44.94940799440201,48.81171074190192,40
1320.0,79.8,78.23411987098876,69.77437983283001,73.52865234508157,44.705467525907196,48.459740038158756,40
1360.0,79.8,78.1337567138975,69.20567720727993,73.2044445556367,44.9293121582608,48.928079506617564,40
1400.0,79.9,78.23721450532732,68.8586852410607,72.98410864478562,45.253105860541694,49.37852926426662,40
1450.0,80.10000000000001,78.4052503513814,68.99297877513604,73.14351232667047,45.26173802471092,49.41227157624536,40
1500.0,80.3,78.54984576148773,69.24566363390112,73.40562566970894,45.14422009177879,49.304182127586614,40
1550.0,80.10000000000001,78.3870637866962,69.40622569471434,73.48043963376365,44.90662415293255,48.980838091981866,40
1600.0,79.39999999999999,77.92133713574073,69.14263471118845,73.13417040570612,44.78716673003461,48.77870242455228,40
1650.0,78.4,77.21500064984949,68.91074178787109,72.51105671387364,44.70394393597584,48.3042588619784,40
1700.0,78.2,77.08613371441622,68.79933453375102,72.4146626476032,44.67147106681303,48.2867991806652,40
1750.0,78.8,77.73171146058537,69.1916378042592,72.9283977655735,44.80331369501188,48.54007365632617,40
1800.0,79.5,78.61241020685445,69.98764580288496,73.66563300986441,44.94677719699004,48.62476440396949,40
1850.0,80.0,79.0001023312988,70.31745725502115,73.98171410383114,45.01838822746767,48.68264507627765,40
1900.0,80.2,79.26413399015227,70.72484133159077,74.30783323262365,44.95630075752862,48.53929265856151,40
1950.0,80.3,79.09529025545459,70.25380600200869,74.04857810743597,45.046712148018614,48.8414842534459,40
2000.0,80.6,78.92549270142051,69.34054353242274,73.6097636632017,45.315729038218805,49.58494916899777,40
2060.0,80.8,78.78307513608007,68.94047645703047,73.4180480605725,45.36502707550757,49.8425986790496,40
2120.0,80.49999999999999,78.34557236661269,68.3843959581462,72.935441362366,45.41013100424668,49.961176408466486,40
2180.0,80.3,77.96676997633126,67.73679438159576,72.45302337411805,45.51374660221322,50.22997559473551,40
2240.0,80.6,78.00128398206004,67.72865286682764,72.47380367223539,45.527480309824654,50.2726311152324,40
2300.0,80.6,78.01807147667789,68.15539133383542,72.78710013041182,45.230971346266074,49.862680142842464,40
2360.0,80.8,78.38595180322199,68.79047584801198,73.25166529358829,45.1342865096337,49.595475955210006,40
2400.0,81.2,79.02741459496802,69.95746648346582,74.1589873089351,44.868427286032926,49.0699481115022,40
2500.0,81.0,79.54346094462959,70.74085530118876,74.71649446987375,44.826966474755835,48.80260564344083,40
2580.0,81.3,80.09218112816453,71.32517816265717,75.23993125528915,44.852249872875376,48.76700296550736,40
2650.0,81.89999999999999,80.88660319968047,71.93728657090521,75.88277557313486,45.0038276265456,48.94931662877525,40
2720.0,82.2,80.80955757567719,71.52851107991192,75.67010242179025,45.13945515388694,49.28104649576527,40
2800.0,82.5,81.03244753109307,71.98940908439407,76.16560218733615,44.86684534375692,49.043038446699,40
2900.0,80.3,79.37031860892786,71.51945650797364,75.22160463478922,44.148713974138644,47.85086210095422,40
3000.0,76.2,78.45904679067806,71.11234097527098,74.37280739919298,44.08623939148508,47.34670581540708,40
3070.0,77.8,78.89811698371479,69.94552309278589,73.84301655232373,45.055100431391054,48.952593890928895,40
3150.0,78.7,79.0948603433579,69.85070094275244,73.88952803250142,45.20533231085648,49.244159400605454,40
3250.0,81.2,80.54820101484387,70.80135802142318,75.19114993184897,45.3570510829949,49.746842993420685,40
3350.0,82.8,81.9504178450844,72.06363737081996,76.60846224446954,45.34195560061487,49.88678047426444,40
3450.0,83.5,82.43237000516596,72.57401772956736,77.12794022144789,45.30442978371808,49.858352275598605,40
3550.0,82.7,81.82471782356643,72.33854741243206,76.62103979646722,45.203678027099215,49.48617041113437,40
3650.0,81.7,80.92132328341862,71.63924138517484,75.85465024710605,45.066673036312565,49.282081898243774,40
3750.0,80.9,80.30499648288735,71.44912619567232,75.41780387750285,44.8871926053845,48.855870287215026,40
3870.0,81.0,80.30899843485524,71.24428688838512,75.17473450246305,45.13426393239219,49.06471154647012,40
4000.0,82.3,81.39982163889468,72.24239485385152,76.21529528636364,45.18452635253104,49.15742678504316,40
4120.0,84.39999999999999,83.03135767194284,73.5033398841027,77.93704369844326,45.09431397349958,49.52801778784014,40
4250.0,84.39999999999999,83.63404370161189,74.31457454923502,78.63771360949738,44.996330092114505,49.31946915237687,40
4370.0,81.59999999999998,82.17132867446449,73.23445795487635,77.12304965783784,45.04827901662665,48.93687071958814,40
4500.0,79.9,81.42486252991755,72.78693240467601,76.46445121680955,44.960411313108,48.63793012524154,40
