Freq "Sound Power"
22.4 13.556275927436403
23.0 17.12197285552135
23.6 21.16816016486804
24.0 24.13783255531878
25.0 26.495737479421436
25.8 28.635960513324463
26.5 30.0913437457575
27.2 28.75719409577708
28.0 28.55566172555571
29.0 28.85759946422884
30.0 29.929549421595496
30.7 32.64928173498315
31.5 35.280833866373015
32.5 38.324525311483214
33.5 40.512673075700334
34.5 42.46975419885787
35.5 43.242702147935105
36.5 42.44498136386905
37.5 44.08785487480351
38.7 46.67439691822496
40.0 50.969980388369876
41.2 55.15392342617854
42.5 58.01991082927681
43.7 60.57386297304136
45.0 63.201857375242184
46.2 65.64650834544472
47.5 68.40265148571488
48.7 72.18043940433041
50.0 75.20035937740668
51.5 74.44416441325427
53.0 74.30397290435691
54.5 75.56322424736634
56.0 76.90704456493279
58.0 77.94451989278392
60.0 78.71497741852495
61.5 79.27938353640202
63.0 79.45715986470155
65.0 79.43107764517148
67.0 79.50527622444822
69.0 79.7414807914737
71.0 80.19107332238552
73.0 80.47084795701672
75.0 80.74674738103383
77.5 81.00299663447105
80.0 81.18747649655906
82.5 81.19912390916865
85.0 81.08507064473075
87.5 80.8301530064608
90.0 80.58788381997998
92.5 80.443682274495
95.0 80.0948929247593
97.5 79.6881536866306
100.0 79.31923458084583
103.0 78.95559037014334
106.0 78.80503729441848
109.0 78.77340690771189
112.0 78.73019847529704
115.0 78.82685880051412
118.0 79.09673803678977
122.0 79.40683931908556
125.0 79.79432192607057
128.0 80.14471885080049
132.0 80.0711073921782
136.0 79.55289179312115
140.0 78.86945963191977
145.0 78.32410022572915
150.0 77.75916130732455
155.0 77.40531627197157
160.0 77.2215584267816
165.0 77.17970942426808
170.0 77.34624790167383
175.0 77.58249102648792
180.0 77.70812935522464
185.0 77.91027689074232
190.0 78.02738093210763
195.0 78.0362723016646
200.0 78.04642041651617
206.0 77.93063290191803
212.0 77.9130610169494
218.0 77.84534263762787
224.0 77.67548837356966
230.0 77.66196036986081
236.0 77.5415700787646
240.0 77.5125848687192
250.0 77.85245077273645
258.0 78.19625489291502
265.0 78.39517437410755
272.0 78.45395022542809
280.0 78.25389475623408
290.0 77.75790795888113
300.0 76.92008067197939
307.0 76.22748610770257
315.0 75.90829328284326
325.0 75.4525946910854
335.0 74.96170626470358
345.0 74.71055996303288
355.0 74.67976108966171
365.0 74.59257532351496
375.0 75.03957277550063
387.0 75.62784550973056
400.0 75.91577380086163
412.0 75.8062889353009
425.0 75.43651035595873
437.0 75.05979884468232
450.0 74.83051350693614
462.0 74.86885848708621
475.0 74.96832104036885
487.0 75.52819706122538
500.0 76.70640625433047
515.0 77.6695153918961
530.0 77.96501073040358
545.0 77.74135741078409
560.0 76.80964126179046
580.0 75.85522577167501
600.0 75.28328132422978
615.0 74.79780859163448
630.0 74.25550001924056
650.0 73.9845118786444
670.0 73.94631325292593
690.0 73.73565010508555
710.0 73.3095380904337
730.0 73.1502236889774
750.0 73.19816722793851
775.0 73.077770658933
800.0 72.94714695344221
825.0 73.15185260194667
850.0 73.55939735572511
875.0 73.7689258819789
900.0 73.45286328347807
925.0 73.00319914305368
950.0 73.0686103644221
975.0 72.29985828098678
1000.0 72.44674484737273
1030.0 72.01923377747728
1060.0 70.91298814015158
1090.0 70.73292654580963
1120.0 71.00741666566937
1150.0 71.2403817325809
1180.0 71.02283358766131
1220.0 70.42339336636282
1250.0 69.74824065303946
1280.0 69.62999693924053
1320.0 69.93513932650089
1360.0 69.36643670095081
1400.0 69.01944473473158
1450.0 69.15373826880695
1500.0 69.40642312757203
1550.0 69.56698518838523
1600.0 69.30339420485936
1650.0 69.07150128154198
1700.0 68.96009402742192
1750.0 69.3523972979301
1800.0 70.14840529655586
1850.0 70.47821674869205
1900.0 70.88560082526168
1950.0 70.4145654956796
2000.0 69.50130302609364
2060.0 69.10123595070138
2120.0 68.5451554518171
2180.0 67.89755387526667
2240.0 67.88941236049855
2300.0 68.3161508275063
2360.0 68.95123534168287
2400.0 70.11822597713672
2500.0 70.90161479485964
2580.0 71.48593765632808
2650.0 72.0980460645761
2720.0 71.6892705735828
2800.0 72.15016857806495
2900.0 71.68021600164455
3000.0 71.27310046894188
3070.0 70.1062825864568
3150.0 70.01146043642333
3250.0 70.96211751509408
3350.0 72.22439686449084
3450.0 72.73477722323825
3550.0 72.49930690610297
3650.0 71.80000087884575
3750.0 71.6098856893432
3870.0 71.405046382056
4000.0 72.4031543475224
4120.0 73.6640993777736
4250.0 74.47533404290591
4370.0 73.39521744854726
4500.0 72.94769189834692
4620.0 72.7842674209424
4750.0 72.92343901909727
4870.0 73.64170452825506
5000.0 75.31384353413354
5150.0 73.72693493936855
5300.0 72.28565224548059
5450.0 72.86153514288577
5600.0 74.14548683232515
5800.0 75.75739879383868
6000.0 74.83694839950779
6150.0 72.96859150003525
6300.0 73.15919237009366
6500.0 73.54396294297267
6700.0 73.17993161795164
6900.0 73.36767522794212
7100.0 72.57810656782551
7300.0 72.25200917566583
7500.0 71.21907045555612
7750.0 71.41159326281209
8000.0 71.55830965388218
8250.0 72.04832296257902
8500.0 71.91686978956483
8750.0 71.2729273843061
9000.0 72.05723332986892
9250.0 72.45708721907273
9500.0 71.94563476540988
9750.0 73.5162379894192
10000.0 72.84619187940665
10300.0 73.76430051656699
10600.0 73.78046129012694
10900.0 73.71127503238206
11200.0 74.14409802224306
11500.0 74.06088616122457
11800.0 71.67779276519117
12200.0 70.24641002394486
12500.0 70.8550031663752
12800.0 70.96950127567193
13200.0 71.40559174266158
13600.0 72.51016205584483
14000.0 71.69880170083174
14500.0 68.83273120654097
15000.0 68.09694524957973
15500.0 66.64732540520019
16000.0 63.15508593747846
16500.0 68.8528341032323
17000.0 69.2591147102318
17500.0 63.86565147684921
18000.0 63.1832358395735
18500.0 60.317144168742246
19000.0 49.07836285929061
19500.0 40.97686699069227
