Freq "Front Wall Bounce"
20.5078 48.86962510052251
21.9727 50.9052849998933
23.4375 55.80709165060571
24.9023 58.30328518117528
26.3672 61.252773506479116
27.832 63.98430862105819
29.2969 65.94243845930684
30.7617 67.96870587999416
32.2266 69.74981386050807
33.6914 71.41281775439066
35.1562 73.06607362173796
36.6211 74.45276226252324
38.0859 75.70919397204017
39.5508 76.85134070654163
41.0156 77.87372679102987
42.4805 78.84399792461207
43.9453 79.59527851003253
45.4102 80.40429649391312
46.875 81.06738700937788
48.3398 81.64919651488822
51.2695 82.71957393474288
52.7344 83.20843740223017
54.1992 83.68729693136214
55.6641 84.15698461417712
58.5938 84.83634504801321
60.0586 85.15040859713321
62.9883 85.70666477129598
64.4531 85.94608177412218
67.3828 86.32698186519546
68.8477 86.54228548610205
71.7773 86.95570986689255
74.707 87.30549099994741
77.6367 87.5029574830299
79.1016 87.5605871513544
82.0312 87.65458138111373
84.9609 87.80719115494945
87.8906 87.77615394596629
90.8203 87.99352121153932
95.2148 87.8504381192999
98.1445 87.61630879550438
101.074 87.47568657810633
105.469 87.77282007426311
108.398 87.81095795767567
112.793 87.8516285962457
117.188 87.72492554401148
120.117 87.82298389722648
124.512 87.6091725923115
128.906 87.08766215056937
133.301 87.07913482596427
139.16 86.98669907116397
143.555 86.74371548602119
147.949 86.75998619564339
153.809 86.78051442601208
159.668 86.7627886184332
165.527 86.6632912839407
171.387 86.49688993693599
177.246 86.56578355595897
183.105 86.2771578880373
188.965 86.09813792911316
196.289 86.30024381927134
203.613 86.19608042769704
210.938 86.32017762966356
218.262 86.09498355822346
225.586 86.12596266758304
232.91 86.28513425703603
241.699 86.04196391746666
250.488 86.10874026432647
259.277 86.44769810053094
268.066 86.02116892636089
276.855 86.23781815086785
287.109 86.15289442629762
297.363 86.20641980340022
307.617 86.41519205477633
319.336 86.31321137356989
329.59 85.91855124259448
341.309 85.95071013237637
353.027 86.04734614479511
366.211 85.88100854036477
379.395 86.51967180739001
392.578 85.98314296331145
405.762 86.00081958555921
420.41 86.24346654820577
435.059 85.75238588156729
451.172 86.30386116814739
465.82 86.16522570744809
483.398 86.13602811487848
499.512 85.89226510098723
517.09 85.82061651027105
536.133 85.84139858645985
555.176 87.65223008288885
574.219 88.17704960506941
594.727 87.17679658569294
615.234 86.64094312572436
637.207 86.13443430709857
659.18 85.53086762924076
682.617 84.65653915514288
707.52 84.399263537835
732.422 86.05929856401745
757.324 86.1891538816324
785.156 86.79097919324587
811.523 86.00318333637816
840.82 85.88007045525381
870.117 85.92473696403556
900.879 86.35761168719279
933.105 85.88835584030716
965.332 86.81355316514225
1000.49 85.61688673321306
1035.64 85.43793331515604
1072.27 84.72198164295403
1108.89 84.7836763063145
1148.44 84.49568551100434
1189.45 84.89755582664372
1230.47 85.09365884184504
1274.41 86.0558878317295
1319.82 87.33512319585256
1366.7 87.78292808153788
1413.57 87.72974722047604
1463.38 87.21006199111108
1516.11 86.60740279038319
1568.85 85.56210947745434
1624.51 86.29572688174417
1681.64 88.09892135480982
1741.7 88.17522742583415
1803.22 88.01373669372458
1866.21 87.53066923178564
1932.13 86.80050191566173
1999.51 86.98744256870893
2069.82 87.61835496604839
2143.07 87.6643125339848
2219.24 87.08967336195533
2296.88 86.39444468897493
2378.91 86.59621700976702
2462.4 87.86803923927036
2548.83 87.70662859813416
2639.65 86.49318699999044
2731.93 85.4614141120983
2828.61 85.43295766108471
2928.22 86.03872499806577
3030.76 86.26718076301798
3137.7 85.94553294912119
3249.02 85.03277895598836
3363.28 84.70546725246845
3481.93 84.65850946940058
3604.98 84.58090399658246
3732.42 84.78215992553143
3864.26 83.84938761514435
4000.49 82.64571494433774
4141.11 82.44587952259448
4287.6 82.05778382361225
4438.48 82.54498758032321
4595.21 81.91728169978671
4756.35 81.69690370849753
4924.8 82.93076250678251
5097.66 83.09098405228977
5277.83 82.54180145240517
5463.87 83.19043650349847
5657.23 83.76336459795384
5856.45 82.93099118912357
6062.99 84.11834749230383
6276.86 83.57516988746661
6498.05 84.3277740798797
6726.56 85.07517966559242
6963.87 84.61810012574973
7209.96 85.70905750065808
7464.84 86.03989882280418
7727.05 86.39724513025166
7999.51 86.4030592881055
8282.23 86.16879091882844
8573.73 86.268427689612
8876.95 85.51101464254003
9188.96 84.49764910568062
9514.16 83.45922893293593
9849.61 82.45679648912318
10196.8 82.27557075449812
10555.7 82.9221513291911
10927.7 83.76066183938464
11313.0 84.78319804318082
11712.9 85.59558731632167
12126.0 86.07612003321418
12553.7 86.0822145135067
12996.1 85.85450193164262
13454.6 85.55724213957049
13929.2 85.30497741861821
14419.9 85.24371994460695
14928.2 84.87924958346457
15455.6 84.3633439161602
16000.5 83.41339375809875
16564.5 82.3567726458654
17148.9 81.33527373089146
17752.4 79.98540645625886
18379.4 78.40373584380472
19026.9 76.95889222922908
19697.8 75.28925307877981
19999.5 74.61732029457406
