Freq "Front Wall Bounce"
20.5078 48.73495388840129
21.9727 50.77061378777208
23.4375 55.672420438484494
24.9023 58.168613969054064
26.3672 61.118102294357925
27.832 63.84963740893697
29.2969 65.80776724718564
30.7617 67.83403466787294
32.2266 69.61514264838686
33.6914 71.27814654226944
35.1562 72.93140240961675
36.6211 74.31809105040202
38.0859 75.57452275991895
39.5508 76.71666949442043
41.0156 77.73905557890868
42.4805 78.70932671249086
43.9453 79.46060729791134
45.4102 80.26962528179192
46.875 80.93271579725668
48.3398 81.51452530276701
51.2695 82.58490272262166
52.7344 83.07376619010897
54.1992 83.55262571924094
55.6641 84.02231340205591
58.5938 84.70167383589201
60.0586 85.01573738501199
62.9883 85.57199355917477
64.4531 85.81141056200097
67.3828 86.19231065307426
68.8477 86.40761427398084
71.7773 86.82103865477134
74.707 87.17081978782619
77.6367 87.36828627090871
79.1016 87.42591593923319
82.0312 87.51991016899252
84.9609 87.67251994282825
87.8906 87.64148273384508
90.8203 87.85884999941813
95.2148 87.7157669071787
98.1445 87.48163758338316
101.074 87.34101536598514
105.469 87.63814886214192
108.398 87.67628674555446
112.793 87.7169573841245
117.188 87.59025433189029
120.117 87.68831268510526
124.512 87.4745013801903
128.906 86.95299093844817
133.301 86.94446361384308
139.16 86.85202785904278
143.555 86.6090442739
147.949 86.62531498352217
153.809 86.64584321389086
159.668 86.628117406312
165.527 86.52862007181949
171.387 86.36221872481477
177.246 86.43111234383775
183.105 86.14248667591609
188.965 85.96346671699196
196.289 86.16557260715014
203.613 86.06140921557582
210.938 86.18550641754234
218.262 85.96031234610224
225.586 85.99129145546183
232.91 86.15046304491483
241.699 85.90729270534544
250.488 85.97406905220527
259.277 86.31302688840975
268.066 85.88649771423967
276.855 86.10314693874663
287.109 86.01822321417642
297.363 86.07174859127902
307.617 86.28052084265512
319.336 86.17854016144868
329.59 85.78388003047326
341.309 85.81603892025518
353.027 85.9126749326739
366.211 85.74633732824358
379.395 86.38500059526882
392.578 85.84847175119025
405.762 85.86614837343801
420.41 86.10879533608457
435.059 85.61771466944609
451.172 86.16918995602619
465.82 86.0305544953269
483.398 86.00135690275728
499.512 85.75759388886601
517.09 85.68594529814985
536.133 85.70672737433866
555.176 87.51755887076763
574.219 88.04237839294821
594.727 87.04212537357172
615.234 86.50627191360316
637.207 85.99976309497737
659.18 85.39619641711954
682.617 84.52186794302168
707.52 84.2645923257138
732.422 85.92462735189626
757.324 86.0544826695112
785.156 86.65630798112466
811.523 85.86851212425694
840.82 85.74539924313262
870.117 85.79006575191434
900.879 86.22294047507157
933.105 85.75368462818595
965.332 86.67888195302103
1000.49 85.48221552109185
1035.64 85.30326210303484
1072.27 84.58731043083282
1108.89 84.6490050941933
1148.44 84.36101429888313
1189.45 84.76288461452253
1230.47 84.95898762972385
1274.41 85.9212166196083
1319.82 87.20045198373136
1366.7 87.64825686941668
1413.57 87.59507600835482
1463.38 87.07539077898986
1516.11 86.47273157826197
1568.85 85.42743826533312
1624.51 86.16105566962297
1681.64 87.96425014268861
1741.7 88.04055621371296
1803.22 87.87906548160338
1866.21 87.39599801966442
1932.13 86.66583070354052
1999.51 86.85277135658772
2069.82 87.48368375392721
2143.07 87.52964132186361
2219.24 86.95500214983412
2296.88 86.25977347685372
2378.91 86.46154579764583
2462.4 87.73336802714914
2548.83 87.57195738601297
2639.65 86.35851578786924
2731.93 85.32674289997709
2828.61 85.29828644896352
2928.22 85.90405378594457
3030.76 86.13250955089677
3137.7 85.810861737
3249.02 84.89810774386714
3363.28 84.57079604034725
3481.93 84.52383825727938
3604.98 84.44623278446127
3732.42 84.64748871341023
3864.26 83.71471640302316
4000.49 82.51104373221654
4141.11 82.31120831047328
4287.6 81.92311261149104
4438.48 82.41031636820202
4595.21 81.78261048766551
4756.35 81.56223249637632
4924.8 82.7960912946613
5097.66 82.95631284016856
5277.83 82.40713024028396
5463.87 83.05576529137727
5657.23 83.62869338583263
5856.45 82.79631997700237
6062.99 83.98367628018262
6276.86 83.44049867534542
6498.05 84.19310286775851
6726.56 84.9405084534712
6963.87 84.48342891362853
7209.96 85.57438628853689
7464.84 85.90522761068297
7727.05 86.26257391813044
7999.51 86.2683880759843
8282.23 86.03411970670723
8573.73 86.1337564774908
8876.95 85.37634343041884
9188.96 84.3629778935594
9514.16 83.32455772081474
9849.61 82.32212527700199
10196.8 82.14089954237693
10555.7 82.78748011706989
10927.7 83.62599062726343
11313.0 84.64852683105961
11712.9 85.46091610420046
12126.0 85.94144882109298
12553.7 85.9475433013855
12996.1 85.7198307195214
13454.6 85.42257092744927
13929.2 85.170306206497
14419.9 85.10904873248576
14928.2 84.74457837134338
15455.6 84.228672704039
16000.5 83.27872254597753
16564.5 82.22210143374419
17148.9 81.20060251877027
17752.4 79.85073524413764
18379.4 78.26906463168353
19026.9 76.82422101710786
19697.8 75.15458186665859
19999.5 74.48264908245285
