Freq "Side Wall Bounce"
20.5078 47.001302878196384
21.9727 51.306000676620414
23.4375 55.61163363683161
24.9023 58.18817619697029
26.3672 61.28844061953194
27.832 63.84098798881162
29.2969 65.83103441797441
30.7617 67.84367598122176
32.2266 69.63799977483511
33.6914 71.35337967525204
35.1562 73.02109207682429
36.6211 74.42019877423569
38.0859 75.67011643280239
39.5508 76.82204528815974
41.0156 77.87083755691901
42.4805 78.84681337435678
43.9453 79.60453416725798
45.4102 80.41253913161258
46.875 81.08329751941756
48.3398 81.69931743933098
51.2695 82.79077614305905
52.7344 83.28356215240976
54.1992 83.7538379577206
55.6641 84.2049895495017
58.5938 84.89601558923943
60.0586 85.21081950463514
62.9883 85.78989964890582
64.4531 86.0371856695248
67.3828 86.42675047364433
68.8477 86.64513637030247
71.7773 87.0497242495302
74.707 87.37544254346378
77.6367 87.56901208703601
79.1016 87.62744825995485
82.0312 87.72918413331651
84.9609 87.85556939570247
87.8906 87.84188131619848
90.8203 87.97183945503599
95.2148 87.89613963377806
98.1445 87.67467072861356
101.074 87.55126410718933
105.469 87.7332098253199
108.398 87.7747475771892
112.793 87.73990423326025
117.188 87.57496387533193
120.117 87.65734037319791
124.512 87.53546218791023
128.906 87.11522391987322
133.301 87.03703734528429
139.16 86.91940300944651
143.555 86.72822313989654
147.949 86.61769838405147
153.809 86.56552006385901
159.668 86.53230103652952
165.527 86.48817651439474
171.387 86.27006085334355
177.246 86.21508627554854
183.105 85.99013847533469
188.965 85.80573207775421
196.289 85.82157074834842
203.613 85.64242778164696
210.938 85.84259153218362
218.262 85.64747591735693
225.586 85.61990042470495
232.91 85.66035740302526
241.699 85.42519379070997
250.488 85.39096855386417
259.277 85.61431093750664
268.066 85.16051049871075
276.855 85.39555869425183
287.109 85.36961321522611
297.363 85.27578320089998
307.617 85.48501336237229
319.336 85.10685640793102
329.59 85.01849161311551
341.309 84.82125397858164
353.027 84.99573219868043
366.211 84.84349286982906
379.395 85.46478329113386
392.578 85.08700061762312
405.762 84.74942320473875
420.41 84.8536818129885
435.059 84.71096291718028
451.172 84.94760965493148
465.82 84.98963805141085
483.398 84.87065567806384
499.512 84.71561891048782
517.09 84.60256856535375
536.133 83.26301123065944
555.176 84.6977031293938
574.219 86.04572033377772
594.727 85.6085654861817
615.234 85.47274023816615
637.207 85.07247496427865
659.18 84.15286409247781
682.617 83.56731938100981
707.52 84.52447850062258
732.422 84.75513165872776
757.324 84.6611521368289
785.156 84.19560617673469
811.523 82.67158733965886
840.82 82.81719876996262
870.117 82.32383515166106
900.879 83.1518620033573
933.105 81.95412498510883
965.332 83.39530346615946
1000.49 83.09736227259911
1035.64 83.05167478795566
1072.27 82.84510776747564
1108.89 82.17059844115086
1148.44 82.22582384023389
1189.45 81.58591236228462
1230.47 81.41139097682826
1274.41 82.91582299104871
1319.82 82.42783063029657
1366.7 84.14684673220003
1413.57 84.06335966771596
1463.38 83.74936015612246
1516.11 82.41408573669682
1568.85 82.0831516280171
1624.51 82.40234533521996
1681.64 83.15497984450604
1741.7 83.455589600378
1803.22 83.35560681744356
1866.21 83.19895638184768
1932.13 82.58838215268108
1999.51 82.76710776087018
2069.82 83.21232117792471
2143.07 83.20648091294319
2219.24 82.71520224045369
2296.88 82.24976072403288
2378.91 82.61690578115336
2462.4 83.82079397580561
2548.83 83.75814892473683
2639.65 82.41339899819808
2731.93 81.15622317539312
2828.61 81.47465351195018
2928.22 82.38815812318026
3030.76 82.72935829379978
3137.7 82.549498199569
3249.02 81.93552317668143
3363.28 81.37507202654425
3481.93 81.51971498121996
3604.98 81.50595608306857
3732.42 81.55983836257232
3864.26 80.4284411738872
4000.49 78.9593135786271
4141.11 79.09969961817384
4287.6 78.93853910720436
4438.48 78.9752746229558
4595.21 78.01145874831427
4756.35 77.56495189162344
4924.8 78.19886489986835
5097.66 77.60991816128308
5277.83 77.04662557273014
5463.87 77.51259580298678
5657.23 77.82699070472137
5856.45 77.31632954040755
6062.99 77.73206423479154
6276.86 78.02488581045682
6498.05 78.34666068813404
6726.56 78.71435165723915
6963.87 78.1260336224241
7209.96 79.13047467845651
7464.84 79.20065882501481
7727.05 79.35828616573305
7999.51 79.39834546319693
8282.23 78.67368943319377
8573.73 78.38357597529445
8876.95 77.27302564436002
9188.96 76.51364173129318
9514.16 75.02498963313482
9849.61 73.6092801681834
10196.8 73.16029073072455
10555.7 73.76359099327087
10927.7 74.36407845447661
11313.0 75.28630508623584
11712.9 75.96117451358644
12126.0 76.26575028904449
12553.7 76.27515012863823
12996.1 76.11227050453286
13454.6 75.75900313391217
13929.2 75.45648088958242
14419.9 75.50528737649515
14928.2 74.89405831901962
15455.6 74.43550273701321
16000.5 73.51432220419339
16564.5 71.9281964561284
17148.9 70.51402341056587
17752.4 68.39714832606731
18379.4 66.66397521933426
19026.9 65.56502388751875
19697.8 64.22673319976857
19999.5 63.59640955185205
