Freq,Floor Bounce,Ceiling Bounce,Front Wall Bounce,Side Wall Bounce,Rear Wall Bounce,Total Early Reflection
20.5078,54.9753240365343,56.80510210069123,55.05623336117738,56.3762491229311,62.22664113121452,58.08604102883261
21.9727,56.983305711333216,57.751254497174116,56.64285329794562,57.51055659098732,63.77303297277089,59.54668202465042
23.4375,60.03334394589616,61.365419581577285,59.94970491298271,61.07410486673477,66.54526476597879,62.629186623527985
24.9023,63.926457117489335,64.38976378965963,63.757999154538126,64.29583445405466,68.53945430794535,65.42233158028687
26.3672,65.77337142922724,66.34372622293705,65.59648058881093,66.31783998066507,70.57641201106232,67.39068217424362
27.832,68.2814162613388,68.8790352848336,68.19593489309737,68.80011727439607,72.32405511259431,69.61141407029807
29.2969,70.3677314320261,70.90585995218491,70.29484938449588,70.8831407756896,74.05823135030933,71.56054368720233
30.7617,72.26946270566536,72.73940104785085,72.2012372606151,72.75300344886325,75.57234347347868,73.3114969173672
32.2266,73.9047258757804,74.39244482201624,73.8558383675961,74.39109496844505,76.92185152238243,74.85942151995515
33.6914,75.32328673742099,75.74470727606929,75.27070954394128,75.77561152043337,78.04655133067924,76.16670683399617
35.1562,76.53892266132482,76.90126568984647,76.4793976002032,76.96099110344191,79.01512930343915,77.29003024963554
36.6211,77.53772640992294,77.86264864889704,77.47833598129743,77.93710547795905,79.79948008147086,78.2149641880645
38.0859,78.39435151416511,78.68887118613992,78.33662726876031,78.77329112498992,80.46710748265771,79.00873032367682
39.5508,79.12309164967736,79.38062320332517,79.06250821515886,79.48069988273137,81.02190781762444,79.67799208341366
41.0156,79.72317087401998,79.93892687135369,79.65675726581776,80.05586631511186,81.4592109494234,80.22062835735348
42.4805,80.22664815666742,80.40329067228136,80.15418867517623,80.53575836504274,81.81366477621071,80.67193629514934
43.9453,80.66968018665708,80.80629799058978,80.5921734839804,80.95173558609905,82.09754808712273,81.06036199397046
45.4102,81.03327725210892,81.13428614883009,80.95122964318801,81.28933965836977,82.31835605443253,81.3754579163725
46.875,81.2928524661612,81.36693823299048,81.20628276562083,81.53299667405422,82.47426588724562,81.60042693417434
48.3398,81.51782888089708,81.55835594087516,81.42495066738631,81.7366105319388,82.59157972401623,81.78754717711963
51.2695,81.92405140959913,81.91025087888261,81.82364159854235,82.1024570806706,82.77940529881546,82.12235118594784
52.7344,82.0528206393006,82.01339097385204,81.94757183288887,82.21247686875832,82.81651103049941,82.22041370337335
54.1992,82.11485563241106,82.06806418909304,82.00894052763154,82.26861436324536,82.82926401049917,82.26847935283654
55.6641,82.2132150751254,82.14708981407905,82.10452764595327,82.3496445967847,82.84721461261653,82.34096652642745
58.5938,82.43464290063184,82.31159441447535,82.32602812709804,82.51937774447087,82.83396610861739,82.48934392576508
60.0586,82.49611940072195,82.37962312287965,82.39264113697125,82.57761119174123,82.86048100846722,82.54487290315807
62.9883,82.58762855524166,82.43726805457393,82.48102171818606,82.63604908517297,82.78705271094991,82.58756230751509
64.4531,82.65889240236527,82.48293183276458,82.54657237306994,82.68578985719499,82.78435259679706,82.6330048497771
67.3828,82.72710607230253,82.50060139088828,82.5962659055417,82.7299592602782,82.7962865577744,82.67134973784322
68.8477,82.75351820215006,82.4939832534967,82.6185048630815,82.72625210482553,82.71947011627053,82.66339674074952
71.7773,82.82900464982977,82.52799121034275,82.68835091152157,82.76602645828852,82.64369357451288,82.69224252121812
74.707,82.60721816226179,82.26344853205684,82.4272564533749,82.55918363572171,82.61415794420873,82.49628852857198
77.6367,82.8580509413812,82.4874822786786,82.70298399938571,82.73430611178422,82.47735446736012,82.65455354137514
79.1016,82.78246504446456,82.42948992774963,82.62173971875407,82.67951212685159,82.51928949756754,82.6082361162566
82.0312,82.74040117685752,82.34374503864339,82.56624109942274,82.61210306048336,82.40058840535873,82.53500469227464
84.9609,82.61782279115853,82.14440280790326,82.42044066775092,82.44059119729934,82.20311119825513,82.36867417778814
87.8906,82.48816315183971,81.97573404579708,82.28273120881714,82.29346279391875,82.0712647476666,82.22602553666087
90.8203,82.86448195567542,82.30785699950029,82.65539729293525,82.6122558168168,82.24440161523684,82.54297997421847
95.2148,82.91714226485404,82.28187951593513,82.6680383628745,82.6487836119563,82.41376013076292,82.59150970187977
98.1445,82.8458057193361,82.21437532061115,82.60974100802554,82.55452573682759,82.24961363890539,82.5012427219686
101.074,82.86002966647469,82.22698235285243,82.63323571368095,82.53952874160201,82.13030625734855,82.4862532207236
105.469,82.84149885018435,82.17504043293714,82.61069436780889,82.475526679226,81.97280516196432,82.42606306486431
108.398,82.83634456083357,82.11444207100497,82.59535723726808,82.41775591695878,81.8651247439932,82.37935220484316
112.793,82.57988225005623,81.83350137704964,82.33670399486597,82.15483484952891,81.53822442710877,82.1040799434018
117.188,82.53628349968639,81.56976046614143,82.25280632813498,81.94515314566125,81.12649788249753,81.91430614649617
120.117,82.79322233272676,81.76199210781346,82.54373980422285,82.121474299303,80.9564156017495,82.08191117289176
124.512,82.78414769632907,81.90610079901357,82.56314192290044,82.269225531109,81.32222975248592,82.19897292303594
128.906,82.60312923699156,81.78807433451921,82.38417163421826,82.08498865414776,81.30342760602967,82.05645144797909
133.301,82.64297652026455,81.79782451861529,82.4361727969247,81.97734427939005,80.9624496056107,82.00175584956223
139.16,82.86471388896233,81.74446972195615,82.59157570617393,82.04351163482508,80.73569457935872,82.0574652709552
143.555,83.04815416039857,81.78023758854582,82.77175418115495,82.13922322217113,80.50049978163072,82.13569692759745
147.949,83.39760094103826,82.20958537153452,83.15743915928023,82.55051043391752,80.93989053869542,82.53310457899518
153.809,83.42545332281664,82.32477302224223,83.17572214801106,82.79860622802249,81.63246935100995,82.71719206496424
159.668,82.94905375874119,81.92307281094766,82.70343098786454,82.25587924915057,81.46606165990308,82.29181957251707
165.527,83.28051986685226,81.86413893328923,82.96866069770006,82.23148032703446,80.8041740055138,82.31493591321414
171.387,83.41688451297215,82.12767593672844,83.16988470709218,82.4218565970842,80.55827856042625,82.44873862912506
177.246,83.26550310039772,82.2421026541246,83.08087740789937,82.52900327697321,80.8365782523152,82.47098738338354
183.105,82.8432930025384,81.88907365327033,82.7678535110259,82.09172010024811,80.38108594180412,82.0797446494019
188.965,83.08901175403133,81.8276986644296,82.80784014608317,82.16729013166089,80.38863036248371,82.15345294129703
196.289,82.86455762268454,81.828189642082,82.6507774395025,82.0620100375157,80.562936669737,82.06534339622497
203.613,82.53040076784484,81.70620139740932,82.40671947138331,81.81367019067625,80.3941965165471,81.83317207391678
210.938,82.21704604657042,80.9973544634196,81.97314993596729,81.25870026138597,80.01326565963741,81.36000499763527
218.262,82.04526554845226,81.04309734321735,81.8720557979838,80.96573390514753,80.01945452910148,81.24855117902571
225.586,81.95335381645164,80.59365229891343,81.6658109895618,80.40546453852383,79.6998230516767,80.94332973584227
232.91,82.06462988604461,80.12672247469503,81.59166689214008,79.92309817465912,78.6897636272349,80.64678571515958
241.699,82.90181788839797,79.72940023152677,82.46872236358094,80.24270425911328,76.33585637213598,80.89436290023578
250.488,84.57478878825563,82.28542282404327,84.46213275821047,83.23679680441504,78.36037343842825,83.07343137263604
259.277,83.75741419567889,81.85729380325144,83.54322091461552,82.52789341963431,80.22957558178113,82.55958149615928
268.066,83.92896211648814,81.79181757770824,83.68210129117223,82.54255919301447,79.75515783510009,82.58033899458351
276.855,83.44735548642863,81.5789719965124,83.30610821490357,82.203243164944,80.57213816311945,82.35165444441415
287.109,82.88462967000821,81.32808312285992,82.86229616257026,81.72140209386835,80.36390922283074,81.93540849983042
297.363,83.56867176453393,80.83470003419104,83.21713729981613,81.62416170515165,79.10679031687845,81.95981175778701
307.617,83.03358099037071,80.87613189408195,82.78675659701537,81.34756789076268,79.6957321562817,81.72024181563195
319.336,83.79728338058564,81.42618204843406,84.01605297607713,82.08346431425879,76.96855953089924,82.26366397164068
329.59,83.06794100891412,81.89060733053147,83.33715964624689,82.435406529025,78.23972794829469,82.12044624478264
341.309,82.30652811949875,80.47928331589308,82.30328501303643,81.35236680847706,78.62008162235509,81.2123976211757
353.027,81.11059099510979,79.83066021575563,81.30059373429371,79.95082279823747,78.60975993351467,80.26705396289604
366.211,81.09414100824773,79.21918106010416,81.20517066407682,79.3791258031751,76.13056236847238,79.74864328784629
379.395,82.59633868676994,79.32211444097022,82.91142092219397,81.15896109496492,77.57217726747233,81.14360955175496
392.578,83.5013030279398,80.91735859140782,83.68862919815436,82.42166454370242,77.63992476530423,82.11650867306132
405.762,82.65715668136227,80.75848903746682,83.2530205761523,82.10279190869888,77.21789396730118,81.6431848645173
420.41,81.7876037553436,80.46102709796874,82.93067031220201,82.06866015082193,76.98735038174307,81.26766537418023
435.059,80.6695139449611,80.24121573316614,81.57829448555474,80.80385615812415,78.1836867238987,80.43250239990356
451.172,80.41001479217687,77.96493732644944,80.81956582515933,79.26974212905743,77.61837599741926,79.40087464895886
465.82,82.2251550887132,79.33953802591265,82.73701918785027,80.09783775512557,76.82223064646946,80.72620928224033
483.398,82.19117742159968,79.65712437625983,82.77131149230676,81.19913514469143,76.40148501161714,80.95370199946736
499.512,81.58187966558269,80.09266930140899,82.72524829147369,81.61513582795304,77.0487935287225,80.99768236614834
517.09,80.59903084496783,77.95777861792449,82.13155550435114,79.7937459495762,76.99507508959465,79.87722106991367
536.133,81.47173551258145,79.66190568777229,82.55501495507625,78.96949559186122,76.37619092183209,80.29572517340766
555.176,82.13238420330104,79.59142331962619,83.23691371065716,79.82448707668901,76.48617589843907,80.83283756904463
574.219,79.58026360392954,80.0883060990476,82.15916061101491,79.02889837336699,75.32357251876073,79.7430814375776
594.727,80.27249198734499,80.44491733642339,81.8492713779619,79.40059883960254,72.59464991599015,79.78298471603718
615.234,81.18712776277191,79.64058657466497,81.47162037358025,78.83334546137914,74.99075025412229,79.74810554365537
637.207,81.23624401307491,80.58694957351823,82.87286269281553,80.15139170781448,74.03300386713408,80.5692697981986
659.18,81.40877654081713,82.00727290111725,83.40340524521365,80.13332175146287,75.10097433725487,81.14947395383655
682.617,80.75955917050469,82.29103938543675,81.99287979286974,79.41969221458885,74.53506859151604,80.51322842757341
707.52,83.64207891332947,82.38057376073198,82.1191929256973,78.72289861770768,73.96599683021041,81.24938877550657
732.422,82.98015999613652,81.71850753989607,82.26655790436519,79.55790146734283,75.13229884122528,81.06261097390008
757.324,83.84670867135235,82.92046663608497,82.79411906666645,79.0189640475288,73.87225370930132,81.66040413303878
785.156,83.06761931829894,82.28267766199416,82.27197115768293,79.3880582947335,72.50455993907404,81.1072169237341
811.523,83.32605277562305,82.10418882920693,80.45241887482712,76.56331237621261,72.63433311608946,80.43020316929191
840.82,84.2895498297393,79.84733718254962,81.80991296227724,77.74393751451629,72.60253206846606,80.75141837760039
870.117,83.08005605638358,79.59007622466855,81.88469106226613,77.43273050294441,70.00529752713038,80.11950806410466
900.879,82.65797379972295,80.53122407436304,81.16468442650039,76.5165827682122,68.9034368854222,79.82987982458016
933.105,82.42678740246886,77.8429852626869,81.21426922297151,76.98210132487999,71.5151130427147,79.36571358373358
965.332,82.33791749871175,77.10676788631032,81.2785623217594,76.80036148559037,70.40804557491266,79.19876717868081
1000.49,80.61309248764694,75.8758432451799,82.27785555525845,77.76069780503403,68.739668107552,78.92100860211184
1035.64,80.69130524443887,76.38141456140897,82.03271688928291,77.06334790356374,71.07169060331005,78.85430947782017
1072.27,81.06997498542934,75.53962947419372,83.16552946507964,78.25399302134275,71.65114402066278,79.56690183056624
1108.89,79.8196621264469,75.49128749259619,83.09516216996518,78.17850969319502,69.95080059952957,79.14787152664105
1148.44,79.01622962627664,75.92652476311575,82.18580405065475,77.56760820323187,69.12933559984293,78.44588958235855
1189.45,77.43724471572314,74.24672148504766,81.55733537880022,76.17176130535235,68.80444740661598,77.39027467527319
1230.47,76.03144801490897,72.63009079713414,81.90332280391756,76.59117212376822,68.83663723207911,77.27036427905756
1274.41,75.20242422836746,73.10856131839033,81.38925655590266,75.30733594029864,65.65416320033485,76.6068468340765
1319.82,74.71419702507683,72.13110454178573,82.30912254300841,76.37041436006986,68.85064866907615,77.27793053582853
1366.7,74.11964604186326,73.20927553296295,82.19188604748518,75.30848791938185,66.51449573789519,77.00425960428782
1413.57,74.22494236718431,73.05071561807455,81.97043561984232,75.70769414393165,67.38800089567769,76.93295765638366
1463.38,73.52168273860279,74.42314626918828,81.51164180071252,75.13704548738016,66.55729806466124,76.60835841697053
1516.11,72.64621784193967,73.01540374553385,81.18559586801257,74.65619798545946,66.44567211573828,76.09448476768324
1568.85,72.5524724710072,73.12329987317456,80.46760168126607,74.04108538761602,65.29000844658448,75.52990178329932
1624.51,73.15092270680331,74.10759829980253,81.10556175274223,73.91732110726564,65.48215070691194,76.09756498687098
1681.64,72.95785991901379,74.68053349301167,81.53576920278935,74.92732180779663,66.97957821163227,76.58294503010664
1741.7,73.70591421901236,74.89545884445474,82.05818896745954,74.93795044111873,64.09241745589237,76.96726932282938
1803.22,74.30203672372328,75.01273305481915,81.6595950164408,74.94024211208837,65.77982356394254,76.81529994139059
1866.21,75.4789554462844,75.7460742841976,81.04777172138566,74.42960046944408,64.92377381546919,76.64609070068325
1932.13,76.47640553380135,76.63140100430648,80.72765509358497,74.08039318088649,66.46019958954395,76.78921362733713
1999.51,77.17923946621677,75.51178235466378,81.54550961414141,74.28636905382501,64.77126588723296,77.16639241294716
2069.82,77.66624584641727,75.75550416559048,81.42170161687564,75.05679685087505,65.41810936683174,77.32893268825252
2143.07,78.4873933119338,76.47812960238934,80.66508899315308,74.60171327390277,65.5090612476517,77.22616958982103
2219.24,78.29207436490319,75.489014548095,80.51984832074206,74.48526675372442,65.38226015805907,76.93962763118195
2296.88,78.2295541489592,75.11224952242422,80.66614316082006,74.80792905495055,64.36576044360909,76.96419199928367
2378.91,78.40893966384606,75.1370471760597,80.47279071483693,74.23982508625141,62.8016200138632,76.84691852143361
2462.4,78.88601413630438,74.98632977179459,79.72809543854423,73.48230482317247,63.54245071764244,76.57794767948776
2548.83,78.9774962947741,74.6081915564491,80.1506191778971,73.91658935806849,64.4259604059534,76.79169441049386
2639.65,79.53162666144296,76.4252475073024,81.01160554044516,75.3011282419065,63.367616999333165,77.72287559329777
2731.93,79.95229338698846,75.85829002810459,81.59197703266368,74.74295268189837,62.34718435852042,77.96906660363909
2828.61,79.9100017393332,76.29803469970035,81.79201653576638,74.58010152828977,63.081530262456425,78.09434981839917
2928.22,79.43944908264687,75.29850401494342,81.07091883655458,73.50235867446698,60.32553402444201,77.37520641164834
3030.76,78.83410990531917,74.79085720396291,81.47346715708098,73.07414838248488,59.746373268506616,77.29528910853354
3137.7,79.28673439025529,75.35616584685596,81.58210419077169,73.38677183218577,60.23113464597073,77.57388473601542
3249.02,79.37706649789668,75.08670072720943,80.57171496518191,72.69923710432602,61.7173225373285,77.04271872759777
3363.28,78.81024955693742,74.90777259110456,81.17523447369918,72.04225923095068,59.265313747697704,77.07433325157099
3481.93,79.06924919365952,74.80599257486055,81.47136482908012,72.69260795531265,58.879836052324535,77.3341890504235
3604.98,79.20395484326372,74.74171390325007,81.46447139155482,72.77722164690624,59.94384113335829,77.373422528693
3732.42,79.19215703409466,74.74335588293411,81.85136097663495,73.01243747318676,58.959666571286036,77.58591059124278
3864.26,79.33363229967334,74.73497954281763,80.98709410769858,72.44335230534796,58.70903190676056,77.14900224734787
4000.49,78.5638226999077,74.24334424030565,81.77240606275099,72.47528937454531,58.42152400240137,77.27840130350839
4141.11,78.94853030790925,73.95516301924782,81.21296346834521,72.11455315922177,57.13970018522549,77.03063813919537
4287.6,78.74577013628969,73.91185329516543,80.95720496354879,71.67373345254833,57.76832233159281,76.8031515220326
4438.48,78.50950718094123,74.11677589170763,81.40590198555525,71.81476950684926,56.60872098382505,77.00053502346417
4595.21,78.49273859392845,74.41277937369294,80.75606870456932,71.38731618583266,57.839407314999406,76.65933189921422
4756.35,78.19392598127423,73.33191972060388,81.10861511224219,71.80149809495971,57.63333361385965,76.67108757941556
4924.8,77.78927046770494,73.79631866650145,80.84699205632108,71.86512137950903,57.77209444933344,76.46546153682547
5097.66,78.08019013896791,73.28948068618553,80.96945434684069,71.38235729124227,57.07376053689735,76.52956362370772
5277.83,78.00617664537707,73.08642538055379,80.84121529483944,71.30930259460553,56.56830598303311,76.41244724943552
5463.87,77.90710669819363,72.51565425213222,81.01126494558763,71.35827729125658,55.40500515606995,76.4314856654536
5657.23,78.1335039426382,72.8314029774213,81.02118250014836,71.0437829555422,55.2664131106569,76.50927825552186
5856.45,77.88588803816329,73.11252385736701,80.88773073935535,71.35842609925388,55.62308682255208,76.40785359436437
6062.99,78.33328865519839,72.65039060601372,81.14812926372484,71.02430302164338,55.85341605023727,76.62461716677984
6276.86,78.15771741736383,72.76841172861519,81.17719800431622,71.33154678329718,56.63144923046731,76.618684613654
6498.05,78.58592246148125,72.25751568937804,81.00978877588996,71.4937018436944,56.4694716665184,76.62288061907033
6726.56,78.37107786784539,72.42478242811256,81.44558400505406,71.42575924241592,54.80264372382301,76.81032033623724
6963.87,78.65557594172311,72.5535193258538,81.28100304383618,70.7124441401319,53.19840708881044,76.77020712309545
7209.96,78.96274826285864,72.75678822328133,81.12675982508316,71.34973500743139,53.38763196680297,76.83235658335366
7464.84,78.82803519870161,72.52718892560547,81.15952514314603,71.16345008981479,53.531187765676705,76.77869428838802
7727.05,78.63492353090787,71.51945370198914,80.68514109310051,69.63816539298558,53.54456076833445,76.3090064071893
7999.51,77.93260922680084,70.91489508003446,81.11536497737238,69.16565152507411,53.20537322043468,76.27799947340749
8282.23,78.0583784698081,70.73913968877466,81.19065814952346,67.61402738305229,50.34602066145656,76.29875586145329
8573.73,77.9718021927636,72.93866974131221,80.63624777341765,68.77223444577844,51.69281538737444,76.14523883133391
8876.95,78.26557924703603,72.14385379766934,80.84355382791385,69.40348694275602,51.555697362000004,76.30946676789902
9188.96,78.13210517264802,72.61740576047363,80.95171837700751,71.15016837673133,54.06208522741177,76.45623191410932
9514.16,77.95385546723573,72.67098384795244,80.76287975101327,70.62199740837703,52.762326701416654,76.2707427387382
