Freq "Floor Bounce"
20.5078 54.86409221835248
21.9727 56.872073893151395
23.4375 59.92211212771434
24.9023 63.815225299307514
26.3672 65.66213961104542
27.832 68.17018444315698
29.2969 70.25649961384428
30.7617 72.15823088748354
32.2266 73.79349405759858
33.6914 75.21205491923916
35.1562 76.427690843143
36.6211 77.42649459174112
38.0859 78.28311969598329
39.5508 79.01185983149554
41.0156 79.61193905583816
42.4805 80.1154163384856
43.9453 80.55844836847525
45.4102 80.9220454339271
46.875 81.18162064797937
48.3398 81.40659706271526
51.2695 81.81281959141731
52.7344 81.94158882111878
54.1992 82.00362381422924
55.6641 82.10198325694358
58.5938 82.32341108245002
60.0586 82.38488758254013
62.9883 82.47639673705984
64.4531 82.54766058418345
67.3828 82.61587425412071
68.8477 82.64228638396824
71.7773 82.71777283164795
74.707 82.49598634407997
77.6367 82.74681912319937
79.1016 82.67123322628274
82.0312 82.6291693586757
84.9609 82.50659097297671
87.8906 82.3769313336579
90.8203 82.7532501374936
95.2148 82.80591044667221
98.1445 82.73457390115428
101.074 82.74879784829287
105.469 82.73026703200253
108.398 82.72511274265175
112.793 82.46865043187441
117.188 82.42505168150457
120.117 82.68199051454494
124.512 82.67291587814725
128.906 82.49189741880974
133.301 82.53174470208273
139.16 82.7534820707805
143.555 82.93692234221675
147.949 83.28636912285644
153.809 83.31422150463482
159.668 82.83782194055937
165.527 83.16928804867044
171.387 83.30565269479033
177.246 83.1542712822159
183.105 82.73206118435658
188.965 82.97777993584951
196.289 82.75332580450272
203.613 82.41916894966302
210.938 82.1058142283886
218.262 81.93403373027044
225.586 81.84212199826982
232.91 81.95339806786279
241.699 82.79058607021615
250.488 84.46355697007381
259.277 83.64618237749707
268.066 83.81773029830632
276.855 83.33612366824681
287.109 82.77339785182639
297.363 83.45743994635211
307.617 82.92234917218889
319.336 83.68605156240382
329.59 82.9567091907323
341.309 82.19529630131693
353.027 80.99935917692797
366.211 80.98290919006591
379.395 82.48510686858812
392.578 83.39007120975798
405.762 82.54592486318045
420.41 81.67637193716178
435.059 80.55828212677928
451.172 80.29878297399505
465.82 82.11392327053137
483.398 82.07994560341785
499.512 81.47064784740087
517.09 80.487799026786
536.133 81.36050369439963
555.176 82.02115238511922
574.219 79.46903178574772
594.727 80.16126016916317
615.234 81.07589594459009
637.207 81.12501219489309
659.18 81.29754472263531
682.617 80.64832735232287
707.52 83.53084709514765
732.422 82.8689281779547
757.324 83.73547685317052
785.156 82.95638750011712
811.523 83.21482095744123
840.82 84.17831801155748
870.117 82.96882423820176
900.879 82.54674198154113
933.105 82.31555558428704
965.332 82.22668568052993
1000.49 80.50186066946512
1035.64 80.58007342625704
1072.27 80.95874316724752
1108.89 79.70843030826508
1148.44 78.90499780809482
1189.45 77.32601289754132
1230.47 75.92021619672715
1274.41 75.09119241018564
1319.82 74.602965206895
1366.7 74.00841422368144
1413.57 74.11371054900249
1463.38 73.41045092042097
1516.11 72.53498602375785
1568.85 72.44124065282539
1624.51 73.0396908886215
1681.64 72.84662810083196
1741.7 73.59468240083054
1803.22 74.19080490554146
1866.21 75.36772362810258
1932.13 76.36517371561953
1999.51 77.06800764803495
2069.82 77.55501402823545
2143.07 78.37616149375198
2219.24 78.18084254672137
2296.88 78.11832233077737
2378.91 78.29770784566423
2462.4 78.77478231812256
2548.83 78.86626447659228
2639.65 79.42039484326114
2731.93 79.84106156880664
2828.61 79.79876992115138
2928.22 79.32821726446505
3030.76 78.72287808713735
3137.7 79.17550257207347
3249.02 79.26583467971486
3363.28 78.6990177387556
3481.93 78.9580173754777
3604.98 79.0927230250819
3732.42 79.08092521591284
3864.26 79.22240048149152
4000.49 78.45259088172588
4141.11 78.83729848972743
4287.6 78.63453831810787
4438.48 78.3982753627594
4595.21 78.38150677574663
4756.35 78.08269416309241
4924.8 77.67803864952312
5097.66 77.96895832078609
5277.83 77.89494482719525
5463.87 77.79587488001181
5657.23 78.02227212445638
5856.45 77.77465621998147
6062.99 78.22205683701657
6276.86 78.046485599182
6498.05 78.47469064329943
6726.56 78.25984604966357
6963.87 78.5443441235413
7209.96 78.85151644467682
7464.84 78.71680338051979
7727.05 78.52369171272605
7999.51 77.82137740861901
8282.23 77.94714665162628
8573.73 77.86057037458178
8876.95 78.15434742885421
9188.96 78.0208733544662
9514.16 77.8426236490539
9849.61 77.92041509480751
10196.8 78.09024720162569
10555.7 77.99416638389403
10927.7 77.80090095159002
11313.0 77.72602588754248
11712.9 78.35032169607666
12126.0 78.39836000820212
12553.7 78.20735832309742
12996.1 78.78023739362882
13454.6 79.39238231631596
13929.2 79.40815776643606
14419.9 78.75700259031957
14928.2 77.68801527250687
15455.6 76.65635918002155
16000.5 75.1524568891866
16564.5 73.02613581143218
17148.9 70.34175470103244
17752.4 70.44845644403782
18379.4 71.5364267534554
19026.9 72.38983580237948
19697.8 72.53123121434689
19999.5 72.25238563024098
