Freq "Rear Wall Bounce"
20.5078 62.1154093130327
21.9727 63.66180115458907
23.4375 66.43403294779696
24.9023 68.42822248976353
26.3672 70.4651801928805
27.832 72.21282329441249
29.2969 73.9469995321275
30.7617 75.46111165529686
32.2266 76.8106197042006
33.6914 77.93531951249741
35.1562 78.90389748525733
36.6211 79.68824826328904
38.0859 80.35587566447589
39.5508 80.91067599944262
41.0156 81.34797913124157
42.4805 81.7024329580289
43.9453 81.98631626894091
45.4102 82.2071242362507
46.875 82.3630340690638
48.3398 82.4803479058344
51.2695 82.66817348063364
52.7344 82.70527921231759
54.1992 82.71803219231735
55.6641 82.7359827944347
58.5938 82.72273429043557
60.0586 82.7492491902854
62.9883 82.67582089276809
64.4531 82.67312077861524
67.3828 82.68505473959257
68.8477 82.60823829808871
71.7773 82.53246175633106
74.707 82.5029261260269
77.6367 82.3661226491783
79.1016 82.40805767938572
82.0312 82.28935658717691
84.9609 82.09187938007331
87.8906 81.96003292948478
90.8203 82.13316979705502
95.2148 82.3025283125811
98.1445 82.13838182072357
101.074 82.01907443916673
105.469 81.8615733437825
108.398 81.75389292581139
112.793 81.42699260892695
117.188 81.01526606431571
120.117 80.84518378356768
124.512 81.2109979343041
128.906 81.19219578784785
133.301 80.85121778742888
139.16 80.6244627611769
143.555 80.3892679634489
147.949 80.8286587205136
153.809 81.52123753282812
159.668 81.35482984172125
165.527 80.69294218733198
171.387 80.44704674224442
177.246 80.72534643413339
183.105 80.2698541236223
188.965 80.27739854430189
196.289 80.45170485155518
203.613 80.28296469836528
210.938 79.90203384145559
218.262 79.90822271091966
225.586 79.58859123349488
232.91 78.57853180905308
241.699 76.22462455395416
250.488 78.24914162024643
259.277 80.11834376359931
268.066 79.64392601691827
276.855 80.46090634493763
287.109 80.25267740464892
297.363 78.99555849869662
307.617 79.58450033809987
319.336 76.85732771271742
329.59 78.12849613011286
341.309 78.50884980417327
353.027 78.49852811533285
366.211 76.01933055029056
379.395 77.4609454492905
392.578 77.52869294712241
405.762 77.10666214911936
420.41 76.87611856356125
435.059 78.07245490571688
451.172 77.50714417923744
465.82 76.71099882828764
483.398 76.29025319343532
499.512 76.93756171054068
517.09 76.88384327141283
536.133 76.26495910365027
555.176 76.37494408025725
574.219 75.2123407005789
594.727 72.48341809780833
615.234 74.87951843594047
637.207 73.92177204895226
659.18 74.98974251907305
682.617 74.42383677333422
707.52 73.8547650120286
732.422 75.02106702304346
757.324 73.7610218911195
785.156 72.39332812089222
811.523 72.52310129790764
840.82 72.49130025028424
870.117 69.89406570894856
900.879 68.79220506724037
933.105 71.40388122453288
965.332 70.29681375673084
1000.49 68.62843628937019
1035.64 70.96045878512822
1072.27 71.53991220248096
1108.89 69.83956878134775
1148.44 69.01810378166111
1189.45 68.69321558843416
1230.47 68.72540541389729
1274.41 65.54293138215303
1319.82 68.73941685089433
1366.7 66.40326391971337
1413.57 67.27676907749587
1463.38 66.44606624647942
1516.11 66.33444029755645
1568.85 65.17877662840266
1624.51 65.37091888873012
1681.64 66.86834639345045
1741.7 63.98118563771055
1803.22 65.66859174576072
1866.21 64.81254199728737
1932.13 66.34896777136213
1999.51 64.66003406905114
2069.82 65.30687754864992
2143.07 65.39782942946988
2219.24 65.27102833987725
2296.88 64.25452862542727
2378.91 62.69038819568138
2462.4 63.43121889946062
2548.83 64.31472858777158
2639.65 63.256385181151344
2731.93 62.2359525403386
2828.61 62.970298444274604
2928.22 60.214302206260186
3030.76 59.635141450324795
3137.7 60.119902827788906
3249.02 61.60609071914668
3363.28 59.15408192951588
3481.93 58.768604234142714
3604.98 59.83260931517647
3732.42 58.848434753104215
3864.26 58.59780008857874
4000.49 58.31029218421955
4141.11 57.02846836704367
4287.6 57.65709051341099
4438.48 56.49748916564323
4595.21 57.728175496817585
4756.35 57.52210179567783
4924.8 57.660862631151616
5097.66 56.96252871871553
5277.83 56.45707416485129
5463.87 55.293773337888126
5657.23 55.15518129247508
5856.45 55.51185500437026
6062.99 55.74218423205545
6276.86 56.52021741228549
6498.05 56.35823984833658
6726.56 54.69141190564119
6963.87 53.08717527062862
7209.96 53.27640014862115
7464.84 53.419955947494884
7727.05 53.43332895015263
7999.51 53.09414140225286
8282.23 50.23478884327474
8573.73 51.58158356919262
8876.95 51.44446554381818
9188.96 53.95085340922995
9514.16 52.65109488323483
9849.61 50.39537323981983
10196.8 50.03644965049884
10555.7 51.251192171680856
10927.7 52.65541450794413
11313.0 50.61925870204132
11712.9 48.84625004738092
12126.0 49.34872395821404
12553.7 50.36868272294453
12996.1 51.56186474202758
13454.6 52.38669750059216
13929.2 52.48456341011092
14419.9 51.15399089573077
14928.2 48.77746170801518
15455.6 45.76272332229007
16000.5 40.25316358687036
16564.5 33.761021173950326
17148.9 40.6686701403066
17752.4 43.76991794833282
18379.4 44.119039819720626
19026.9 46.396120646483496
19697.8 45.22234692680706
19999.5 46.93148085896115
