Freq,Floor Bounce,Ceiling Bounce,Front Wall Bounce,Side Wall Bounce,Rear Wall Bounce,Total Early Reflection
22.4,48.4054240073266,47.90306957104251,48.59401084846583,48.263742738929736,47.784492473672785,48.200750465978686
23.0,49.37001488257478,48.83821129888743,49.53754321429635,49.220701881212406,48.73397597375792,49.15094892249358
23.6,50.270014882574756,49.77150800786937,50.494010848465805,50.16374273892971,49.68449247367276,50.08746400448639
24.0,51.17001488257476,50.67150800786938,51.39401084846578,51.06374273892975,50.58449247367277,50.9874640044864
25.0,52.10542400732659,51.603069571042525,52.29401084846582,51.963742738929724,51.490911745147415,51.90191768560085
25.8,52.97001488257477,52.47150800786936,53.19401084846582,52.8637427389297,52.38449247367275,52.78746400448641
26.5,53.87001488257478,53.371508007869394,54.06813864411238,53.76374273892971,53.284492473672756,53.681794976963616
27.2,54.770014882574785,54.238211298887435,54.96813864411236,54.62070188121241,54.15410199172963,54.56131412165401
28.0,55.67001488257476,55.103069571042525,55.79401084846582,55.503529610265375,55.024104502815916,55.429638905927945
29.0,56.47001488257477,55.97150800786936,56.66813864411235,56.36374273892973,55.88449247367275,56.28179497696361
30.0,57.33746771551316,56.80306957104251,57.494010848465805,57.16374273892973,56.70286804675733,57.11082790648358
30.7,58.17001488257476,57.603069571042525,58.337543214296346,58.02070188121242,57.53397597375793,57.94443039760236
31.5,58.97001488257477,58.47150800786939,59.16813864411236,58.82070188121243,58.35410199172962,58.76751533717237
32.5,59.77001488257477,59.238211298887435,59.96813864411236,59.620701881212426,59.15410199172963,59.56131412165402
33.5,60.57001488257477,60.0030695710425,60.722857627479456,60.40352961026538,59.92410450281592,60.33592952063675
34.5,61.33746771551314,60.80306957104253,61.494010848465805,61.16374273892971,60.6909117451474,61.10865349411446
35.5,62.07001488257475,61.57150800786937,62.26813864411237,61.963742738929724,61.48449247367277,61.881794976963604
36.5,62.87001488257478,62.371508007869366,63.068138644112366,62.76374273892971,62.28449247367277,62.681794976963616
37.5,63.670014882574776,63.17150800786938,63.86813864411236,63.56374273892973,63.08449247367277,63.48179497696361
38.7,64.5054240073266,64.00306957104253,64.69401084846581,64.36374273892972,63.89091174514742,64.30191768560084
40.0,65.37001488257475,64.83821129888743,65.56813864411237,65.2207018812124,64.75410199172963,65.161314121654
41.2,66.27001488257477,65.70306957104252,66.40879413841813,66.10352961026537,65.63397597375794,66.03465723843071
42.5,67.13746771551314,66.60306957104252,67.29401084846582,66.96374273892971,66.50286804675734,66.91082790648358
43.7,67.97001488257477,67.47150800786939,68.19401084846581,67.86374273892973,67.38449247367276,67.78746400448641
45.0,68.87001488257475,68.33821129888743,69.06813864411235,68.70352961026536,68.24255542179843,68.65573584168548
46.2,69.67001488257478,69.10306957104252,69.83754321429635,69.50352961026536,69.03397597375793,69.44094059369844
47.5,70.37001488257475,69.87150800786937,70.56813864411237,70.2207018812124,69.75410199172963,70.16751533717236
48.7,70.97001488257476,70.47150800786937,71.19401084846582,70.86374273892972,70.37559469590921,70.78584349862298
50.0,71.53746771551316,71.00306957104252,71.69401084846581,71.36374273892973,70.8909117451474,71.30865349411447
51.5,71.90542400732663,71.40306957104251,72.09401084846581,71.76374273892972,71.29091174514741,71.70191768560085
53.0,72.17001488257478,71.67150800786939,72.36813864411236,72.02070188121242,71.56535614849135,71.96956396003696
54.5,72.37001488257476,71.87150800786937,72.56813864411238,72.22070188121242,71.75410199172963,72.16751533717236
56.0,72.47001488257477,71.97150800786939,72.66813864411237,72.34375958238677,71.86535614849134,72.27424001239986
58.0,72.53746771551316,72.00306957104252,72.6940108484658,72.36374273892973,71.92410450281592,72.31470212919756
60.0,72.57001488257477,72.03821129888743,72.73754321429634,72.42070188121242,71.94554534599304,72.35305326230204
61.5,72.57001488257477,72.07150800786938,72.76813864411237,72.42070188121242,71.95410199172964,72.36751533717236
63.0,72.57001488257477,72.07150800786938,72.76813864411237,72.42070188121242,71.97559469590921,72.37143148411064
65.0,72.67001488257478,72.10306957104251,72.79401084846582,72.50352961026536,72.02410450281592,72.42963890592794
67.0,72.67001488257478,72.17150800786938,72.89401084846581,72.56374273892972,72.08449247367277,72.4874640044864
69.0,72.77001488257476,72.27150800786937,72.9940108484658,72.66374273892971,72.18449247367276,72.5874640044864
71.0,72.93746771551314,72.40306957104252,73.09401084846581,72.76374273892971,72.29091174514741,72.70865349411447
73.0,73.07001488257477,72.57150800786937,73.26813864411235,72.92070188121242,72.44255542179843,72.86541799488366
75.0,73.27001488257477,72.70306957104252,73.40879413841812,73.10352961026537,72.62410450281592,73.03285861524033
77.5,73.4054240073266,72.90306957104251,73.59401084846581,73.26374273892972,72.78449247367276,73.20075046597866
80.0,73.60542400732662,73.10306957104251,73.79401084846582,73.46374273892972,72.99091174514741,73.40191768560085
82.5,73.87001488257475,73.30306957104253,73.9940108484658,73.66374273892973,73.23397597375794,73.62337776799392
85.0,74.07001488257477,73.57150800786938,74.26813864411237,73.94375958238676,73.46535614849135,73.87424001239985
87.5,74.30542400732661,73.80306957104251,74.46813864411237,74.16374273892971,73.70286804675733,74.09844812701037
90.0,74.60542400732662,74.03821129888742,74.72285762747944,74.44375958238676,73.97180374658889,74.36679513588047
92.5,74.83821129888743,74.33821129888742,74.9940108484658,74.66374273892973,74.23523562676101,74.6234554371976
95.0,75.10542400732662,74.60306957104251,75.26813864411237,74.94375958238676,74.48070928663739,74.89035712413927
97.5,75.37001488257475,74.83821129888743,75.52285762747944,75.2207018812124,74.75410199172963,75.15140895704553
100.0,75.60542400732662,75.10306957104252,75.7940108484658,75.46374273892972,75.00286804675734,75.4040954722046
103.0,75.87001488257476,75.37150800786938,76.09401084846581,75.7407911694502,75.25284779975678,75.67704504418624
106.0,76.13513059177983,75.57150800786938,76.39401084846581,76.02369830550883,75.48348480838412,75.93520717877786
109.0,76.36769521305294,75.8053180676647,76.663597780615,76.26385203250446,75.7023231662618,76.17533926462086
112.0,76.60076749445562,76.03663575667186,76.93502122931326,76.52268204597875,75.90621052643995,76.41675838913392
115.0,76.8,76.17071732495408,77.20489499373623,76.70260996965017,76.04311192918982,76.60522572563059
118.0,76.96692185116049,76.33964531976002,77.40489499373622,76.90260996965016,76.20543226209256,76.78609578226799
122.0,77.0669218511605,76.40531806766471,77.60489499373621,77.06434052227831,76.28841071494251,76.91297231457709
125.0,77.16845083805434,76.5053180676647,77.74675150375354,77.14761877669373,76.32404491100054,77.00862871537323
128.0,77.23663575667186,76.5404416794549,77.83175513861906,77.18616625593413,76.34037064978817,77.06000344092719
132.0,77.23663575667186,76.44044167945492,77.84675150375354,77.23319788455598,76.30758589341052,77.05024046513601
136.0,77.2404416794549,76.37609175449221,77.84675150375354,77.17049966243877,76.25080467885228,77.01731510773662
140.0,77.20986628672328,76.30986628672329,77.81739302852534,77.11260348594996,76.15185995910987,76.96383363368896
145.0,77.14576719438469,76.17609175449222,77.81739302852534,77.03416606309467,76.04082802974277,76.89285075339122
150.0,77.08656646311248,76.0457671943847,77.74479812098768,76.97662188647669,75.91323151334525,76.80748778030005
155.0,76.98656646311248,75.88219967332304,77.68850980857523,76.89836340489006,75.77972156910197,76.70689870820091
160.0,76.92926676879422,75.75260953202218,77.66009724486703,76.79836340489005,75.64817164954643,76.6241582896845
165.0,76.90464502318535,75.6234968506598,77.61609718937366,76.72049924387879,75.51334864230745,76.5490416745062
170.0,76.87717895989803,75.42349685065979,77.58850980857524,76.62833696788057,75.40438657612107,76.46779414077959
175.0,76.8236110299371,75.29485705883171,77.56009724486704,76.5635420999658,75.29128064423334,76.39743631488506
180.0,76.79749950966175,75.20464502318536,77.56009724486704,76.5283369678806,75.17169190619897,76.35203080358089
185.0,76.77697211958265,75.07717895989803,77.56009724486704,76.47078240875231,75.04573964787667,76.29702724756271
190.0,76.72699787697725,74.95016923070222,77.58786512280336,76.39410595852767,74.9658221167032,76.24648979171346
195.0,76.70265313251615,74.8501692307022,77.6167526163945,76.39410595852767,74.8371648442065,76.21530085153407
200.0,76.67872996753788,74.72361102993712,77.63215068185792,76.37940438347842,74.72075189618171,76.17604269374127
206.0,76.5969370438189,74.66283617001535,77.68786512280336,76.38076099220409,74.60432325871193,76.14865503087564
212.0,76.57406327003757,74.56283617001536,77.68786512280336,76.38235432724836,74.47588588384576,76.11199811153763
218.0,76.49430925610405,74.42869245367795,77.70336576812228,76.40309232602176,74.32445551330945,76.06413079776978
224.0,76.41595200332333,74.26878033996792,77.7314975747366,76.36280373919675,74.17782686766121,76.00528144511144
230.0,76.26001642302818,74.10942248426018,77.70336576812228,76.34138322947489,74.0086703276361,75.91492595249362
236.0,76.13898164121285,73.79237898809801,77.70336576812228,76.30846412034886,73.84579029045558,75.81984644665145
240.0,75.96338775251361,73.37757950460713,77.66009724486703,76.22675192428382,73.64252314808203,75.67416687979734
250.0,75.74331750677855,72.90962074754836,77.5478511003438,76.101943210856,73.43524785678487,75.4835736542776
258.0,75.46966333356839,72.32364704950977,77.4321506818579,75.9267519242838,73.19960805928268,75.25583540238263
265.0,75.2447529719088,71.59380864002827,77.30466541105422,75.7416325144369,72.93993272205269,75.01991958091168
272.0,74.95671344964049,70.85550966256152,77.13278882757177,75.49994385970184,72.69884191355588,74.74967758999237
280.0,74.65519220018267,70.05002917385904,76.97763667454645,75.27919078524239,72.43319578926834,74.48459383806308
290.0,74.38838259233903,69.3219993670211,76.83537086618988,75.04057194934104,72.16845875027813,74.2381284153133
300.0,74.10677539847121,68.61112494659282,76.73537086618988,74.85117568997056,71.92005740222484,74.02365904884154
307.0,73.94302103107542,68.01663584579043,76.63789264820295,74.63426455627513,71.66597850802934,73.83740167872173
315.0,73.78051352069254,67.4602463116381,76.60914589305828,74.44583021209276,71.40514026328073,73.68892629363161
325.0,73.70489348120857,67.03869711145322,76.63789264820295,74.36231674862523,71.18583939504046,73.62025389176178
335.0,73.65917873856527,66.72762437426567,76.69681251256304,74.2668206675208,70.9811516738125,73.5760942144899
345.0,73.63167423934988,66.45543535837467,76.79681251256304,74.25462612055433,70.77007313284533,73.57558233648685
355.0,73.66078125161694,66.19625263361826,76.94235653127141,74.26468697188785,70.60193068522831,73.61873461832428
365.0,73.67355758553458,65.94742862603721,77.07154730056966,74.29681452935385,70.40722978770003,73.65724023979759
375.0,73.60669030042276,65.71339185077105,77.24235653127143,74.39281705966143,70.2362787524322,73.7188692153382
387.0,73.54197289094127,65.37221385500744,77.41735564865367,74.46657817795521,70.06470436441175,73.77822905352814
400.0,73.4391692798226,64.96530863402067,77.58710619188749,74.54078249253392,69.90855085226671,73.83196558678148
412.0,73.3120654382288,64.44342762479259,77.71735564865367,74.66650266227943,69.72543290769916,73.87439157164665
425.0,73.08178622282209,63.83827372918911,77.81735564865369,74.76650266227942,69.56289482818606,73.88311691378104
437.0,72.82451222983246,63.16427207020487,77.93310954762794,74.89189870058875,69.36987533043445,73.90443346415047
450.0,72.51000662305384,62.506461621996436,78.06373611801398,74.98124790252307,69.16976437291758,73.92273862036112
462.0,72.27190213361663,61.86174558403452,78.10862713911347,75.01676469471583,68.98578756297063,73.90102348404263
475.0,71.97186175887042,61.2726130886855,78.23942623521458,75.0708142497944,68.76772654472204,73.92454850934318
487.0,71.70468816500129,60.742475216244344,78.33942623521457,75.03573284550527,68.5051778387991,73.91606502410117
500.0,71.49966709167356,60.28671133218339,78.43166443048618,74.97320318237156,68.23671294290745,73.90840379575168
515.0,71.2643514329921,59.90393928472862,78.53166443048619,74.84088311130937,67.8983355847289,73.88523356264483
530.0,71.11093239591581,59.577878059793136,78.6082790818216,74.67912102135415,67.56692363637285,73.85554307212819
545.0,70.96868614886488,59.346531662306745,78.72480847514765,74.5575803729475,67.26951314199361,73.8670421920266
560.0,70.83247119040081,59.10170531621016,78.82480847514768,74.36702040041958,66.97405358073873,73.8572883245373
580.0,70.61961506644742,59.03741786327001,78.9334830748531,74.21747331185053,66.71179098647083,73.86174205458461
600.0,70.47876001728112,58.99414643637135,79.05029905462526,74.10475272401646,66.5073720539797,73.89248947354282
615.0,70.31112903128592,59.09337099324436,79.09925268643633,73.97493062543835,66.32890237331456,73.87716873079147
630.0,70.07683551282153,59.226892168443044,79.14529312182161,73.91452171437618,66.24669516949602,73.87367351375586
650.0,69.8438127351622,59.440177129616,79.17726826511888,73.87827739344941,66.24727447812724,73.87058296772598
670.0,69.60775184010664,59.80273718798185,79.17726826511888,73.91385998998697,66.34878406690666,73.86583452161196
690.0,69.3172939855713,60.12503415250727,79.17726826511888,73.95016491495934,66.49590363611348,73.8600500899128
710.0,69.11563533736351,60.58008538610646,79.14878181929042,74.03393320511915,66.68480967261941,73.855299298258
730.0,68.92663007493398,60.97168717690079,79.14878181929042,74.13999991258255,66.91893939471102,73.87827999689227
750.0,68.68184647502686,61.426264877500856,79.14878181929042,74.26398491156978,67.18317910134672,73.90557134139468
775.0,68.50468839723491,61.75800804769342,79.12076211162325,74.40390262987565,67.43583003673825,73.92227774643209
800.0,68.23366374812308,61.960046230063384,79.08836665509858,74.5596046195331,67.68934971324111,73.93545918180202
825.0,68.0456858249603,62.03508614678239,79.07091054784844,74.66995463741658,67.87646734371948,73.94996771118785
850.0,67.85684114401796,61.9256622853635,79.07091054784844,74.78771010680103,68.01752146136111,73.97427800763708
875.0,67.73751523184728,61.77725241950269,79.07091054784844,74.94135597710114,68.13631904119745,74.01038493605294
900.0,67.55683983347514,61.44849497663979,79.09343859806334,75.11520738843991,68.20597182702788,74.06003779618133
925.0,67.46635990928475,61.16387511765534,79.15378373474546,75.23326871819135,68.27981159559572,74.12563064548995
950.0,67.39154203051443,60.87669886108564,79.17640057047574,75.34203142175592,68.33346275536185,74.16511016135313
975.0,67.40775649586188,60.5986600387625,79.20470702014275,75.47816815401642,68.39237837490701,74.22028830454619
1000.0,67.36052381361078,60.4026382005589,79.27640057047573,75.61534823854264,68.43617004022079,74.30100531208309
1030.0,67.46663795627082,60.24000404296329,79.32758020744903,75.70378657622335,68.52007743688274,74.36453470237097
1060.0,67.47455543841902,60.161328601453974,79.38810079587952,75.81567341724876,68.55369983683998,74.43451979192807
1090.0,67.55157062037688,60.18354649534125,79.4596855474149,75.91567341724875,68.63011692512724,74.51403522270247
1120.0,67.62135022107229,60.2186198129383,79.52758020744902,75.99637877979005,68.70717949362408,74.58577964495444
1150.0,67.61420915782772,60.28614403123409,79.5596855474149,76.03875776029757,68.7284031046875,74.61885832383786
1180.0,67.59351125469588,60.26946044792392,79.65968554741491,76.09303387014158,68.73780450383809,74.6959698139163
1220.0,67.56622401291976,60.356844365529085,79.72758020744902,76.11677757452951,68.68361377253693,74.7420559041218
1250.0,67.48766646944311,60.3022520696168,79.7596855474149,76.12212378398179,68.53946722489663,74.75341573171
1280.0,67.30142062093051,60.304109166385985,79.8596855474149,76.10512418900048,68.36033823922247,74.79739157303754
1320.0,67.14435407604603,60.191248726401156,79.90470702014275,76.06645708003408,68.14523120849127,74.80020495117643
1360.0,66.96663795627082,59.996749676160235,79.93698126844556,76.01290562272737,67.8170238042189,74.78597214717801
1400.0,66.72299570617507,59.78637896901462,80.03698126844556,75.93521792557614,67.55357582453418,74.81224262975341
1450.0,66.49207282687208,59.577039771410085,80.05378373474548,75.91183774761866,67.26066743722554,74.79847610007411
1500.0,66.33329920952217,59.35002917385903,80.08643721525844,75.81183774761867,66.9820046104622,74.77941920358974
1550.0,66.18527774074329,59.087791151636324,80.1643876597268,75.78346138584952,66.80782323293144,74.81420308304163
1600.0,66.02633263903952,58.75352165026992,80.18147278830732,75.7737298825227,66.655679458564,74.81277489320203
1650.0,65.9263326390395,58.500410091720084,80.21467241741301,75.73033067236435,66.5935740622554,74.81922168750118
1700.0,65.8474286260372,58.165528762261516,80.29326599014054,75.74015979997296,66.64819683629979,74.87437032669486
1750.0,65.80561737721415,57.88686427957849,80.31063265137014,75.76369524746518,66.74715564316429,74.89303017516887
1800.0,65.76530863402067,57.56414193844151,80.36193901340312,75.7631852884801,66.8144669665731,74.92854564676576
1850.0,65.72646166368379,57.25477168396807,80.4236010834474,75.78769685459218,66.94281477375556,74.97958931221916
1900.0,65.6708433103241,56.94583147157398,80.44124799874558,75.81633325731708,67.04674210685052,74.9998370073115
1950.0,65.60142497517089,56.67641629732152,80.47553278001087,75.84135491689514,67.16086534916442,75.03115897771222
2000.0,65.52329917745048,56.35521969308378,80.47553278001087,75.82345715695313,67.15796814423348,75.02408357450304
2060.0,65.292880716675,56.06668552790022,80.49337569575918,75.79975004282045,67.14339321129953,75.02467702693684
2120.0,65.12198979596634,55.792385622161035,80.49337569575918,75.78540235984177,67.04668009601582,75.01388261465264
2180.0,64.8751198307131,55.48493492460851,80.47553278001087,75.76038433378578,66.9378803131267,74.98619653193413
2240.0,64.5306233319139,55.21430637862282,80.44124799874558,75.73579575705337,66.78144024087636,74.9440964324026
2300.0,64.20009898430523,54.90986628672327,80.46193901340312,75.71163163359529,66.61182707950191,74.94152897789583
2360.0,63.95934674206194,54.70986628672328,80.46193901340312,75.73548455959046,66.46889741361733,74.93877194748734
2400.0,63.63751423493886,54.474493510304384,80.51063265137014,75.78415278729985,66.31911440914357,74.97573379450058
2500.0,63.32949275548292,54.276091754492214,80.53195385844312,75.80221292225686,66.24581667262991,74.98866810272992
2580.0,63.03289770349737,54.116279400836405,80.61063265137014,75.88913701206864,66.19160445744161,75.06053483835805
2650.0,62.74447410975252,54.00937400321449,80.68301042603409,76.0134539828342,66.18117561075987,75.1388031491701
2720.0,62.46735612808864,53.91495907510499,80.7319538584431,76.1545547134944,66.19887046985724,75.20586431035639
2800.0,62.28220943809869,53.83601044983642,80.83195385844311,76.33180989928815,66.26956284523312,75.32129925838008
2900.0,62.0172939855713,53.771335494460274,80.95366387780146,76.4545547134944,66.27770391794964,75.43654275627254
3000.0,61.845604037983435,53.76994067853262,81.05366387780147,76.59217176571063,66.34618807545179,75.54279449631203
3070.0,61.5757353818297,53.73220488328333,81.13646878050928,76.74475814781265,66.40094462765016,75.63976796899607
3150.0,61.386201638553686,53.653445265892984,81.20343598990847,76.86932417310722,66.37774371553618,75.71741285836367
3250.0,61.18620163855368,53.49280370563629,81.28643721525845,76.93819721569982,66.30859933883245,75.79092866621285
3350.0,60.97573538182968,53.35959768562891,81.33173632649091,77.00644844901215,66.2201015712698,75.83732643837361
