Freq "Ceiling Bounce"
22.4 46.34610754572603
23.0 47.28124927357095
23.6 48.21454598255289
24.0 49.1145459825529
25.0 50.046107545726045
25.8 50.91454598255288
26.5 51.814545982552914
27.2 52.681249273570955
28.0 53.546107545726045
29.0 54.41454598255288
30.0 55.24610754572603
30.7 56.046107545726045
31.5 56.91454598255291
32.5 57.681249273570955
33.5 58.44610754572602
34.5 59.24610754572605
35.5 60.01454598255289
36.5 60.814545982552886
37.5 61.6145459825529
38.7 62.44610754572605
40.0 63.28124927357095
41.2 64.14610754572604
42.5 65.04610754572604
43.7 65.91454598255291
45.0 66.78124927357095
46.2 67.54610754572604
47.5 68.31454598255289
48.7 68.9145459825529
50.0 69.44610754572604
51.5 69.84610754572603
53.0 70.11454598255291
54.5 70.31454598255289
56.0 70.41454598255291
58.0 70.44610754572604
60.0 70.48124927357095
61.5 70.5145459825529
63.0 70.5145459825529
65.0 70.54610754572603
67.0 70.6145459825529
69.0 70.71454598255289
71.0 70.84610754572604
73.0 71.01454598255289
75.0 71.14610754572604
77.5 71.34610754572603
80.0 71.54610754572603
82.5 71.74610754572605
85.0 72.0145459825529
87.5 72.24610754572603
90.0 72.48124927357094
92.5 72.78124927357094
95.0 73.04610754572603
97.5 73.28124927357095
100.0 73.54610754572604
103.0 73.8145459825529
106.0 74.0145459825529
109.0 74.24835604234822
112.0 74.47967373135538
115.0 74.6137552996376
118.0 74.78268329444354
122.0 74.84835604234823
125.0 74.94835604234822
128.0 74.98347965413842
132.0 74.88347965413844
136.0 74.81912972917573
140.0 74.75290426140681
145.0 74.61912972917574
150.0 74.48880516906821
155.0 74.32523764800656
160.0 74.1956475067057
165.0 74.06653482534333
170.0 73.86653482534331
175.0 73.73789503351523
180.0 73.64768299786888
185.0 73.52021693458155
190.0 73.39320720538574
195.0 73.29320720538573
200.0 73.16664900462064
206.0 73.10587414469887
212.0 73.00587414469888
218.0 72.87173042836147
224.0 72.71181831465144
230.0 72.5524604589437
236.0 72.23541696278153
240.0 71.82061747929065
250.0 71.35265872223188
258.0 70.7666850241933
265.0 70.03684661471179
272.0 69.29854763724504
280.0 68.49306714854256
290.0 67.76503734170463
300.0 67.05416292127634
307.0 66.45967382047395
315.0 65.90328428632162
325.0 65.48173508613674
335.0 65.1706623489492
345.0 64.89847333305819
355.0 64.63929060830178
365.0 64.39046660072073
375.0 64.15642982545457
387.0 63.815251829690965
400.0 63.40834660870419
412.0 62.88646559947611
425.0 62.28131170387263
437.0 61.60731004488839
450.0 60.949499596679956
462.0 60.30478355871804
475.0 59.71565106336902
487.0 59.185513190927864
500.0 58.72974930686691
515.0 58.34697725941214
530.0 58.020916034476656
545.0 57.789569636990265
560.0 57.54474329089368
580.0 57.48045583795353
600.0 57.43718441105487
615.0 57.53640896792788
630.0 57.669930143126564
650.0 57.88321510429952
670.0 58.24577516266537
690.0 58.56807212719079
710.0 59.02312336078998
730.0 59.41472515158431
750.0 59.869302852184376
775.0 60.20104602237694
800.0 60.403084204746904
825.0 60.47812412146591
850.0 60.36870026004702
875.0 60.22029039418621
900.0 59.89153295132331
925.0 59.60691309233886
950.0 59.31973683576916
975.0 59.04169801344602
1000.0 58.84567617524242
1030.0 58.68304201764681
1060.0 58.604366576137494
1090.0 58.62658447002477
1120.0 58.66165778762182
1150.0 58.72918200591761
1180.0 58.71249842260744
1220.0 58.799882340212605
1250.0 58.74529004430032
1280.0 58.747147141069505
1320.0 58.634286701084676
1360.0 58.439787650843755
1400.0 58.22941694369814
1450.0 58.020077746093605
1500.0 57.79306714854255
1550.0 57.530829126319844
1600.0 57.19655962495344
1650.0 56.943448066403604
1700.0 56.608566736945036
1750.0 56.32990225426201
1800.0 56.00717991312503
1850.0 55.69780965865159
1900.0 55.3888694462575
1950.0 55.11945427200504
2000.0 54.7982576677673
2060.0 54.50972350258374
2120.0 54.235423596844555
2180.0 53.92797289929203
2240.0 53.65734435330634
2300.0 53.35290426140679
2360.0 53.1529042614068
2400.0 52.917531484987904
2500.0 52.719129729175734
2580.0 52.559317375519925
2650.0 52.45241197789801
2720.0 52.35799704978851
2800.0 52.27904842451994
2900.0 52.214373469143794
3000.0 52.21297865321614
3070.0 52.17524285796685
3150.0 52.096483240576504
3250.0 51.93584168031981
3350.0 51.80263566031243
3450.0 51.67359986737259
3550.0 51.49100241197644
3650.0 51.271587450434936
3750.0 51.07236840889709
3870.0 50.94714714106951
4000.0 50.774355390241055
4120.0 50.69522558760758
4250.0 50.61548790697688
4370.0 50.649581614537
4500.0 50.72496709844967
4620.0 50.82236680939678
4750.0 51.01888404995498
4870.0 51.26630275094345
5000.0 51.55909380867962
5150.0 51.8508816083997
5300.0 52.168888418202755
5450.0 52.547777470188976
5600.0 52.852416265334085
5800.0 53.113800731937886
6000.0 53.454942061064855
6150.0 53.64541074850965
6300.0 53.917930265514514
6500.0 54.11555918209345
6700.0 54.263161479320445
6900.0 54.437625520978884
7100.0 54.687854732048635
7300.0 54.96360994695283
7500.0 55.34263327165857
7750.0 55.82430154652296
8000.0 56.51587390825398
8250.0 57.29522558760759
8500.0 58.23341681516071
8750.0 59.29958954784425
9000.0 60.346172598597235
9250.0 61.43125632631795
9500.0 62.41639274030797
9750.0 63.257225815818245
10000.0 63.968658441587024
10300.0 64.39511688477992
10600.0 64.64086686820485
10900.0 64.73198407577229
11200.0 64.6319840757723
11500.0 64.44086686820484
11800.0 64.14993779839314
12200.0 63.85920044600945
12500.0 63.56865844158702
12800.0 63.32424184993762
13200.0 63.12424184993762
13600.0 62.92424184993763
14000.0 62.72424184993763
14500.0 62.524241849937624
15000.0 62.27831546650317
15500.0 62.024241849937624
16000.0 61.76865844158701
16500.0 61.368658441587016
17000.0 61.01468652125027
17500.0 60.568658441587004
18000.0 60.11468652125026
18500.0 59.66865844158701
19000.0 59.16865844158701
19500.0 58.66865844158701
