Freq "Sound Power"
20.5078 52.542636577672255
21.9727 51.22236684309044
23.4375 53.36905919177934
24.9023 54.339357957208335
26.3672 55.960446731027446
27.832 57.66669273722263
29.2969 59.3879327932533
30.7617 61.22378634848569
32.2266 62.792057474978094
33.6914 64.7878989233826
35.1562 66.64767228454275
36.6211 68.42227489199512
38.0859 70.2058634832907
39.5508 71.97624724068135
41.0156 73.64359493898823
42.4805 75.16347921330464
43.9453 76.50763613378055
45.4102 77.73383789758286
46.875 78.60545760767047
48.3398 79.18562627622208
51.2695 79.94777547040304
52.7344 80.08860782274868
54.1992 80.23741552340883
55.6641 80.32839801540271
58.5938 80.47184628420074
60.0586 80.60062874520955
62.9883 80.85565495218648
64.4531 80.86982302239548
67.3828 80.987216179983
68.8477 81.09764353353174
71.7773 81.50787918516065
74.707 81.7704021425322
77.6367 81.99146860011524
79.1016 82.15459300283045
82.0312 82.42181223273258
84.9609 82.50605806420072
87.8906 82.76387719562587
90.8203 83.15094820946048
95.2148 83.15567491413422
98.1445 83.31159009514845
101.074 83.44032129844697
105.469 83.54895307473465
108.398 83.64475862181843
112.793 83.82187700836002
117.188 83.87316705715142
120.117 83.92891007453794
124.512 83.90456752620241
128.906 83.9122562822172
133.301 83.88663449741397
139.16 83.77223653464651
143.555 83.66775602348028
147.949 83.56989534966345
153.809 83.46004422551528
159.668 83.4330487373361
165.527 83.55013130863833
171.387 83.46684863621454
177.246 83.22869751547799
183.105 83.04923266930317
188.965 82.9247553323218
196.289 82.93143638087952
203.613 82.71142895523278
210.938 82.77340273208767
218.262 82.69646090021638
225.586 82.66100265763679
232.91 82.52336182812034
241.699 82.46331097928541
250.488 82.33049229861064
259.277 82.57147468521313
268.066 82.45722280475998
276.855 82.22369004890547
287.109 82.28972956674352
297.363 82.32483005406253
307.617 82.36446301415529
319.336 82.19272645157821
329.59 82.05853551473592
341.309 82.072656448976
353.027 81.87326850982868
366.211 81.98088201356778
379.395 82.20190952408902
392.578 82.30602827081599
405.762 82.08085708502509
420.41 82.12903625628418
435.059 81.95950961493776
451.172 82.09926094175628
465.82 82.13275797001924
483.398 82.08240859012264
499.512 82.02382202140413
517.09 82.32791614652405
536.133 81.63978491013637
555.176 81.84338443351541
574.219 81.99820625024738
594.727 81.86532455000575
615.234 81.689640841571
637.207 81.67560656268222
659.18 81.16112592965615
682.617 81.0383850150457
707.52 80.8567874091847
732.422 80.62063072269818
757.324 80.19380582254021
785.156 80.327612981122
811.523 79.89050149875723
840.82 79.96068465939251
870.117 80.01220725940749
900.879 80.0877391117763
933.105 80.07135976242168
965.332 79.76686581169002
1000.49 79.4268508533174
1035.64 78.86835124063555
1072.27 78.36930096077984
1108.89 77.38133498535319
1148.44 76.87052291932919
1189.45 77.27450637206775
1230.47 77.71283442690839
1274.41 78.10476864190636
1319.82 78.45550990120995
1366.7 78.8832006506917
1413.57 79.14888908564217
1463.38 79.16595830092415
1516.11 78.9604396970816
1568.85 78.52746786616564
1624.51 77.90303757085258
1681.64 78.2728449292729
1741.7 78.74993146040003
1803.22 79.1458880412134
1866.21 79.00394256778304
1932.13 78.45532272281717
1999.51 78.01706310970185
2069.82 77.39074315843948
2143.07 77.10705220018302
2219.24 76.71837717809667
2296.88 75.8869943992352
2378.91 75.68599657879986
2462.4 75.67402420593095
2548.83 75.83830549462888
2639.65 75.61106898049034
2731.93 74.89301930614441
2828.61 74.77269996942526
2928.22 75.21237398201242
3030.76 75.57701222819725
3137.7 75.46459717676258
3249.02 75.3934883819514
3363.28 75.25325816473278
3481.93 75.48494890158261
3604.98 75.76693007418231
3732.42 75.70878499015203
3864.26 75.85990610157572
4000.49 75.28532646859038
4141.11 75.6221692834059
4287.6 75.83259027812397
4438.48 75.84684748638144
4595.21 75.71711433965174
4756.35 76.024404670865
4924.8 76.13510202208505
5097.66 75.93069814638693
5277.83 75.44443358643123
5463.87 75.79452962916932
5657.23 75.55415069705593
5856.45 75.54053805114947
6062.99 75.55225226675422
6276.86 75.67396891934659
6498.05 75.573570887328
6726.56 75.64384820785821
6963.87 75.30711760641708
7209.96 75.71739755047477
7464.84 75.71074366401243
7727.05 75.62403600095247
7999.51 75.49279682308133
8282.23 74.74607922394883
8573.73 74.94513053459666
8876.95 74.94681634323982
9188.96 75.24841790960468
9514.16 75.00656869892809
9849.61 75.00712234076006
10196.8 74.79158272624001
10555.7 74.74366532568904
10927.7 74.62280336523364
11313.0 74.69527944068034
11712.9 74.78100546330562
12126.0 74.5418075711506
12553.7 74.51338049368051
12996.1 74.35971974623651
13454.6 74.25766278078623
13929.2 74.14736602063728
14419.9 74.20575780732952
14928.2 74.22532172939714
15455.6 74.07686477091224
16000.5 74.04804700059923
16564.5 73.59781610694915
17148.9 73.4909067084374
17752.4 73.25164294446196
18379.4 72.8621549881199
19026.9 72.47555175865978
19697.8 71.89377970369151
19999.5 71.75031746445688
