Freq "Side Wall Bounce"
20.5078 42.53161285891099
21.9727 39.47940679402737
23.4375 43.621319213149604
24.9023 50.7294495252643
26.3672 56.25891454560525
27.832 58.387418970561185
29.2969 62.26995922973924
30.7617 65.71116577686148
32.2266 68.57649157828995
33.6914 71.03287193693538
35.1562 72.85602411012391
36.6211 75.5295915774179
38.0859 77.79561779476856
39.5508 79.47559149398386
41.0156 80.88449046913873
42.4805 81.9062760457397
43.9453 82.84338901873082
45.4102 83.58249555202426
46.875 84.19676775303493
48.3398 84.67009878537615
51.2695 85.24847800473133
52.7344 85.47644123851212
54.1992 85.6590347499535
55.6641 85.80614133935974
58.5938 85.99684713701878
60.0586 86.06073633149889
62.9883 86.19404552612818
64.4531 86.22743347263166
67.3828 86.29881237041033
68.8477 86.3494200970897
71.7773 86.44635658610702
74.707 86.50577017621316
77.6367 86.56561769842784
79.1016 86.58972642098689
82.0312 86.6765394322978
84.9609 86.75152590661196
87.8906 86.66332590975601
90.8203 86.70377802018245
95.2148 86.79180975382769
98.1445 86.79314047592369
101.074 86.79266823319543
105.469 86.79523376256009
108.398 86.88161710593903
112.793 86.96834195152192
117.188 86.98251519174508
120.117 86.96246242887342
124.512 87.24285209765677
128.906 87.12647421435797
133.301 87.23174800497888
139.16 87.17886614326675
143.555 87.10361456527141
147.949 87.10473434723613
153.809 86.71606869148262
159.668 86.79916492818779
165.527 86.87063402451939
171.387 86.28434489391579
177.246 86.2897758717233
183.105 86.2046586989714
188.965 85.91697590327297
196.289 86.03714818800822
203.613 85.78215052958952
210.938 85.70681934789691
218.262 85.28211054286942
225.586 85.42759374316184
232.91 85.32166396466198
241.699 84.7335469387618
250.488 85.252382338567
259.277 85.26463469862391
268.066 84.954892890678
276.855 84.93660850935998
287.109 85.3201758216471
297.363 85.50804291395642
307.617 85.54737339985078
319.336 85.1194715603391
329.59 85.04276093685014
341.309 84.6700436983751
353.027 84.98281897685064
366.211 85.1627375811708
379.395 85.53394740224303
392.578 84.89695441595498
405.762 84.37845863934598
420.41 84.64442644354736
435.059 84.3906413681371
451.172 84.74913039227278
465.82 84.39373959712646
483.398 84.4237543760437
499.512 84.667731635775
517.09 84.61547060674037
536.133 84.78367528039506
555.176 85.07242845973764
574.219 84.90019934116226
594.727 84.02216019042194
615.234 83.94883820252662
637.207 83.82134706393157
659.18 83.34540427873426
682.617 84.3433100572905
707.52 84.64841249150739
732.422 83.94479164293219
757.324 83.87722420547077
785.156 83.38498989749763
811.523 83.4615416929624
840.82 83.76207012918178
870.117 84.10794833527943
900.879 84.43942285465843
933.105 83.8451351294436
965.332 83.90531810745898
1000.49 83.37309506733271
1035.64 82.96992779189715
1072.27 83.04315220528183
1108.89 83.11970387520392
1148.44 82.69531146504313
1189.45 81.59523566234125
1230.47 81.80671516794881
1274.41 81.98631351738453
1319.82 81.4008757536067
1366.7 80.80916526386092
1413.57 79.96582983420421
1463.38 79.08196347562313
1516.11 77.90062477087785
1568.85 77.46730687939245
1624.51 78.75481946382345
1681.64 80.58299710351591
1741.7 81.14945531454082
1803.22 80.93740632364252
1866.21 80.48696151114399
1932.13 80.56976563905673
1999.51 81.54570688203961
2069.82 81.67560231231796
2143.07 81.31102076504891
2219.24 79.25341002260764
2296.88 79.92940932961723
2378.91 80.39610360433663
2462.4 81.47571909399238
2548.83 81.32730062885193
2639.65 80.64542546638748
2731.93 80.06910513024982
2828.61 80.50550628051315
2928.22 81.10324560455359
3030.76 81.1838034629991
3137.7 81.54736070903594
3249.02 81.38713300172255
3363.28 81.17918082263215
3481.93 80.98058459009103
3604.98 81.65333521847975
3732.42 82.22930291024053
3864.26 81.8887011312973
4000.49 82.49147721743533
4141.11 82.9108735321874
4287.6 82.8540185209588
4438.48 83.24549731796381
4595.21 82.86242862592532
4756.35 83.1053274125149
4924.8 83.32988888446172
5097.66 82.41067185227865
5277.83 83.02631194296703
5463.87 82.85989379606951
5657.23 82.92741275066635
5856.45 83.01442258482375
6062.99 83.49667434232394
6276.86 82.97634678051224
6498.05 83.71418954862007
6726.56 83.59648826469262
6963.87 83.46395169404977
7209.96 83.70500074674374
7464.84 83.17574835415785
7727.05 83.49456556849917
7999.51 83.09313906800875
8282.23 83.20337986204456
8573.73 82.75380884033987
8876.95 82.55321633191416
9188.96 82.09259509594226
9514.16 82.09487930523653
9849.61 81.84979738518243
10196.8 81.60166428171101
10555.7 81.41111766712127
10927.7 81.5336201558278
11313.0 81.46712252841246
11712.9 81.21319817930123
12126.0 80.89610902223568
12553.7 80.14442318297404
12996.1 79.61201362205885
13454.6 79.0845707893163
13929.2 78.64378858105972
14419.9 77.85886711595971
14928.2 76.7652601238096
15455.6 75.23603647463234
16000.5 73.59225954894121
16564.5 72.21335400294029
17148.9 70.76183630812014
17752.4 69.33190233130071
18379.4 68.0570810806982
19026.9 67.4674898283244
19697.8 67.2873376666681
19999.5 67.09955832309504
