Freq,Floor Bounce,Ceiling Bounce,Front Wall Bounce,Side Wall Bounce,Rear Wall Bounce,Total Early Reflection
22.4,-2.1445233369948937,16.17628493783576,6.335364937899328,5.762529232053453,5.667691759174318,10.320378430825969
23.0,1.2400492784102823,19.319496544368263,9.12832823522092,7.3197004197815545,7.440727551791554,13.261336102208816
23.6,5.077539952418874,22.05524678820194,13.004529660747892,8.9115948595921,9.65855690726471,16.036599542681444
24.0,8.287245836103693,24.47558286183471,15.279272877454275,11.74244933880479,12.21125537025813,18.479396334549307
25.0,10.935986723371514,26.226722089169073,17.076528844915146,14.569463962608609,14.632534950964242,20.33867858322344
25.8,13.405191946273476,27.287600462889202,18.785334729419844,17.280179941996636,16.994354908289097,21.682138290476985
26.5,15.855222808962992,27.42179599023939,20.61174228397533,20.154116782470936,19.736488487483967,22.570363456006817
27.2,19.183829925286545,28.347868292242993,22.679723305772995,21.517976682174435,21.684155332770587,23.948005510196765
28.0,21.801531105938096,29.251492005278152,24.57747034355134,22.305254447491222,23.011476867549874,25.185373119272896
29.0,23.87872996753788,28.53221804579377,25.99477197692289,22.643904441968203,23.975278014512128,25.535672283177746
30.0,24.41627783177745,24.562681908189006,28.114269497983628,22.62332993819831,24.358935129253467,25.226927251732945
30.7,24.34942181474031,27.01657677405325,31.00371807374998,23.620330580848048,25.260417773936894,27.162159377189028
31.5,24.930882673580953,29.854445818059844,33.883245948282195,24.22612933372517,26.502794589907552,29.4793516126324
32.5,25.866231622112025,32.59077603388607,37.11739024934275,24.388646907262,27.952805776039156,32.17478943192742
33.5,28.742664385307705,37.71177744949753,40.36229012802406,28.970011541185613,31.12764954934181,35.93471750246698
34.5,31.54583147157399,43.1085412110115,44.21238008228144,33.73793820341456,34.48786617287425,40.28881644513723
35.5,34.459062636575084,50.65249347780619,50.40686209538518,39.78802643151806,39.3060324545018,46.93501049678923
36.5,36.79040221489248,54.29297992422926,53.58482415619068,42.63366860649367,42.203256018753706,50.30785131749522
37.5,38.42081469862046,54.769157886479434,53.7861177397441,43.196905115334346,43.19988999665668,50.701841247586685
38.7,40.44027530866606,50.36704034038138,50.94543282614336,43.48946555012162,43.673531338591204,47.63187180957485
40.0,43.97725241950269,48.10274274418538,50.930123467564215,44.73573943564,45.128242518893956,47.41629733366443
41.2,47.34273297424514,48.5927276533821,52.56811862169718,45.67449382002164,47.242224645665175,48.99957421505172
42.5,52.48959528561198,52.952341824250766,53.57894262190365,48.49488556414215,48.765045242388254,51.753324247378345
43.7,57.00473530118575,57.84512846789917,55.10936308661056,52.38421772998632,51.587629870957244,55.446042963064855
45.0,59.10554950338954,61.62499796689477,56.90675726727255,57.58571220867893,57.15482228502361,58.866171982732965
46.2,57.96336865784946,65.22253333882662,59.64430279986965,62.668942369933745,61.517289236635634,62.117902551658005
47.5,57.24852142053365,67.88615193394082,60.700301801660345,63.71146196775152,62.432578088111455,63.78518286259765
48.7,62.503753689731155,64.60874768185136,62.81017356493683,62.32018104949418,61.49993272342226,62.87723921311118
50.0,66.51173993648595,64.08319381475746,65.13366714986398,63.08053885838822,63.306145453430275,64.6162196998406
51.5,68.52545123408709,67.52425294099808,68.22088212694028,66.17589393388107,66.19150509908616,67.43837610468549
53.0,69.44391724861637,72.46146272052233,71.42062316108618,69.27586600854391,68.34006218364397,70.45957129003611
54.5,69.86023655467066,72.1489851487955,72.07004551564889,70.2966302970072,68.14660411993894,70.7499975936987
56.0,71.72188682922213,72.73358982687998,73.63698362578535,71.7674098116479,69.13673054832273,72.03879197904104
58.0,74.97449351030437,73.4079926521559,75.64062958016645,73.59969320598495,71.43827929750672,74.0427832492962
60.0,77.0441577493485,75.11912930458362,77.4852646874751,75.39486046446564,73.43907497656038,75.9303074576171
61.5,78.64415774934851,77.7234968506598,79.36754991238108,77.32370278547715,75.46615083681152,77.89635292698122
63.0,80.97449351030437,79.63752777300027,81.30433100962667,79.56491879593445,77.80144096994805,80.02530710362939
65.0,83.3404416794549,81.4121361197686,83.15180973342405,81.79982983417716,80.07302030227874,82.11596218140133
67.0,84.57928732607432,83.66692185116051,84.84202100713294,83.60134574923774,82.2202826254861,83.87567719239338
69.0,85.87387961222818,85.23435140868503,86.34202100713296,85.0944829039731,84.11485109314961,85.39653810547978
71.0,87.20306957104252,86.25380974359446,87.63783437493726,86.33357366274146,85.75015845070124,86.69030568648995
73.0,88.17001488257478,87.31172846437379,88.46204375999245,87.52713272491395,87.14055880897202,87.75239855171041
75.0,89.03746771551315,88.11430637862281,89.18850980857525,88.48804608481397,88.22471111618458,88.63206807974689
77.5,89.73746771551315,88.66845083805433,89.81739302852534,89.2046043972274,89.07492980126737,89.32159897186682
80.0,90.20306957104253,89.13663575667186,90.12946066855592,89.66349681892873,89.90906057823697,89.82503205814326
82.5,90.53513059177983,89.56845083805433,90.52979499755904,90.06213480580068,90.49249325237535,90.25369300132016
85.0,90.76845083805433,89.93513059177982,90.88748929892043,90.44119983124484,90.916667814909,90.60501074503807
87.5,91.06845083805433,90.23513059177982,91.17166275391891,90.74119983124486,91.2555918240626,90.91003752792355
90.0,91.46845083805432,90.60306957104251,91.50099441428073,91.0630532742558,91.57343143075491,91.25682941675568
92.5,91.7030695710425,90.93821129888742,91.82946066855592,91.34396845048444,91.87720346477779,91.55248321439363
95.0,92.1022846139602,91.13821129888743,92.08618450501949,91.58526041028543,92.05098097581845,91.80877164005295
97.5,92.33435140868504,91.37609175449222,92.3147553152921,91.78849735609958,92.0336452911192,91.98400603850318
100.0,92.60076749445561,91.6760917544922,92.5716627539189,91.9722137210486,91.86362192505955,92.15349850974653
103.0,92.76845083805432,91.80690501035458,92.78585448910238,92.17680320017618,91.71088080258414,92.27396517625768
106.0,92.83435140868502,91.94283030471973,92.9288071567453,92.33700614024073,91.53940367464504,92.34809140600122
109.0,92.90076749445562,91.94283030471973,92.8726484311316,92.3544429425558,91.31189445174363,92.31688126578422
112.0,92.73435140868503,91.90690501035459,92.85742449135815,92.3544429425558,91.13510112212273,92.24136587913188
115.0,92.5007674944556,91.57609175449221,92.60097926743461,92.15444294255579,90.87735996163283,91.98786272191654
118.0,92.16845083805433,91.1760917544922,92.22880715674529,91.71235201541552,90.26067318240294,91.56816016863584
122.0,91.93663575667188,90.87609175449221,92.08585448910237,91.5123520154155,89.98128522360417,91.34447989073058
125.0,91.86845083805433,90.77609175449221,92.0,91.37221372104861,90.02338421844736,91.26789851701281
128.0,91.83663575667187,90.61227178315619,91.8861845050195,91.15444294255579,89.98782455290599,91.15502955220711
132.0,91.57150800786938,90.34898514879549,91.87297191737703,91.0944829039731,90.03305387061542,91.04017274224057
136.0,91.6760917544922,90.34898514879549,91.98748929892042,91.09805014496487,90.14911052306095,91.1110096453688
140.0,91.7404416794549,90.35260953202217,92.08748929892042,91.08505351870534,90.12427888922518,91.14445691529849
145.0,91.77609175449221,90.31916705502753,92.1590700361194,91.04817140149626,89.97046067502296,91.13389686759514
150.0,91.77609175449221,90.22758719283591,92.18748929892041,91.01313953999232,89.76680009120506,91.08857575625888
155.0,91.74576719438468,90.22758719283591,92.20229476693693,90.936773874776,89.51983507284496,91.03468771935499
160.0,91.68219967332305,90.05667255930051,92.17525122642458,90.8204366302858,89.25661552389818,90.92507499585739
165.0,91.58219967332305,89.86588846059686,92.04675150375354,90.6863606964899,88.988082996916,90.77333801668163
170.0,91.41916705502754,89.59897445130925,91.91998423401445,90.502452276636,88.77165357984418,90.59225545320517
175.0,91.28982856673471,89.33752777300026,91.84675150375355,90.36648157916895,88.61245455200664,90.45232139412506
180.0,91.12758719283593,89.14898359150843,91.71998423401445,90.14868728184521,88.5552872770752,90.29893625264373
185.0,91.06096514237183,88.92179738688895,91.61998423401444,89.93276641677856,88.53731172352259,90.17673791553415
190.0,90.89897445130926,88.68888547155004,91.52386986096212,89.70468072914875,88.49245163885456,90.02657847025024
195.0,90.77082970284297,88.56194867563767,91.53924275721991,89.46781203523977,88.41161263416988,89.92645832581896
200.0,90.7096325668162,88.37641629732151,91.53924275721991,89.33530083796757,88.22584419725939,89.83506406056443
206.0,90.84314826109436,88.292378988098,91.6677916354448,89.30524571781295,87.8112842857191,89.8350359400459
212.0,90.98219812790055,88.4672655885961,91.80914589305829,89.4631940348164,87.17236028592677,89.89304294065855
218.0,91.18219812790056,88.66726558859611,91.99366590096781,89.6505946307487,86.44072979108381,89.99523572085725
224.0,91.28219812790054,88.64258273663015,92.16779163544481,89.7631940348164,85.73439572845446,90.03784931204092
230.0,91.2950645803583,88.48538710465898,92.25491760385287,89.7150221017313,85.26026950189097,90.00516587015906
236.0,91.1687803399679,88.10497668676807,92.16005936857911,89.33958984999389,84.7315103838207,89.78254071608791
240.0,90.88382334167595,87.7809849055068,91.90126136965905,88.9475843694911,83.99556422620427,89.45529600768975
250.0,90.58382334167595,87.52643297742509,91.6136394060688,88.76563435383952,83.28038521950778,89.16462076078545
258.0,90.52869245367796,87.8033038382893,91.42251496369491,88.87723959744741,82.90218571106644,89.1246707630665
265.0,90.55521969308379,88.18538710465897,91.39009840257404,89.18218917506924,82.84372882497654,89.23547043097932
272.0,90.74314826109435,88.52526453928849,91.58748929892042,89.70111029491154,83.34414406597102,89.53224107786826
280.0,90.81592538879983,88.592378988098,91.67297191737703,89.9342698061023,83.64142330226142,89.65299570285117
290.0,90.68219812790056,88.02875610128315,91.64379075419728,90.12546959607742,83.78957404985465,89.57506580909273
300.0,90.80464502318536,88.20034112939827,91.6,90.52201385578812,85.63531071972339,89.82587657285043
307.0,90.82349685065981,88.84898359150841,91.3437907541973,90.05970573251852,85.58586488386308,89.74451185603931
315.0,89.98219812790056,88.0094224842602,91.01998423401444,89.48681951076163,84.76956077322835,89.11839683375234
325.0,89.58382334167597,87.37641629732153,90.92386986096213,89.06910851874457,84.5740038419417,88.79208931380097
335.0,89.34258273663015,86.992378988098,90.91363940606882,88.75188796562664,84.25792086750312,88.58627434634973
345.0,89.10330383828929,86.67269145322595,91.05121482311348,88.46268361388638,83.7876607999766,88.44253854934654
355.0,88.98343461029552,86.44066681957173,91.202876283004,88.18973153625866,83.00809851201478,88.33795656308023
365.0,89.14197022557484,86.36620989389218,91.37455785944567,88.15525426062341,82.46734678112648,88.39678478724376
375.0,89.18888863538652,86.32457993687898,91.45086213388186,88.00795037400573,82.09272661855199,88.38761945737716
387.0,88.96893616304386,85.9931748750689,91.25086213388187,87.6377187596224,81.7859850643936,88.1308209974467
400.0,88.49727311966745,85.1017460112477,90.799422931822,86.87637132801356,81.06742154926877,87.55617768076799
412.0,87.70851320750933,84.09689984743689,90.07091054784846,85.65490043036593,79.85413537377819,86.6795907081931
425.0,86.6401027109221,83.37915446671192,89.19343859806335,84.42397222920934,78.33227937982474,85.69286146289211
437.0,85.60851320750932,82.65872457742296,88.22758020744902,83.27225321772578,76.57233986588486,84.68640802881708
450.0,84.72696820294229,82.30432912249856,87.40287628300402,82.6834982753765,75.1250940643175,83.92664359269025
462.0,84.25098823501219,83.96726558859612,87.08847217927516,83.24502047806243,74.7405065865165,84.04091954582559
475.0,85.41627783177748,87.3950645803583,87.69009840257407,84.94431520118266,76.12356218315053,85.6528498043114
487.0,86.97082970284299,86.1377673428554,87.54303370469881,82.38803310154803,76.15723606486611,85.2924862962347
500.0,87.08538710465898,85.52643297742509,88.64441901451353,83.64002046521387,77.11299968694713,85.75799356554128
515.0,87.3491520399883,86.3260245235669,89.39343859806334,84.29198668676057,76.58432249198073,86.347065149992
530.0,87.6816120853342,87.56726558859611,89.82579638388722,84.67237650221534,75.02058819122314,86.88985366350256
545.0,87.54852015458806,87.092378988098,89.80888507559837,84.65275754444728,73.81165145375695,86.72753512785829
560.0,87.12643297742508,85.39430744544664,89.28147278830733,83.88323608773955,73.2881682835963,85.96737031140916
580.0,86.7694198636673,83.95131759580825,88.58147278830732,82.88605526304372,72.22982824393753,85.20111856184536
600.0,86.38098490550679,82.92790007353129,88.15378373474547,82.31538474698085,71.21202165854268,84.67813991417212
615.0,86.34197022557484,82.52790007353128,88.08147278830732,82.08823107350231,71.59688407221,84.55997740982768
630.0,86.62180052683973,82.73403046914814,88.55990168395996,82.53600207390548,71.77959540189723,84.93935415577494
650.0,86.99727311966744,83.17211025799338,89.12076211162324,83.44434242237853,72.2674445739406,85.47298932410034
670.0,87.15959385611933,83.3114589804255,89.52833223333886,83.97670298991002,72.38353258912854,85.79451964771508
690.0,87.05800804769342,83.25086653771837,89.55923203800299,83.90712945626642,72.74491526337991,85.76915998177282
710.0,86.49037884047719,82.85086653771837,89.27146493467718,82.9386217840145,72.59436873808214,85.31210520561773
730.0,85.7644368050309,82.12997587926382,88.78844499392838,81.44556359828371,71.69035465198222,84.62759546746364
750.0,85.55905592381313,82.06049792747929,88.48762852338831,80.54126008809975,70.88636339580168,84.31959361940639
775.0,85.5730120924441,81.9604979274793,88.1471681095725,80.14922926253698,68.76426525038313,84.0878499098342
800.0,85.30529495129532,81.29193280811248,87.78969515549682,80.29443818478632,66.54524364797356,83.75320952306834
825.0,84.58838259233903,79.84657415151082,87.23871757721683,79.86043809981754,64.09674450608964,83.06671465515281
850.0,83.70994607707172,78.35289390570608,86.91913795500015,79.1549696954807,61.254638015344426,82.45015091689568
875.0,83.07211025799336,77.65245443784349,86.80669169661842,78.33021796950429,58.846153561112374,82.09153074698787
900.0,82.81208790807138,78.17470033730757,86.84733305442549,77.44744690890582,57.26249930473409,82.02340102979676
925.0,82.63090041982177,77.86544662488609,86.7081385713718,76.24730227168389,58.69484410125963,81.7951541908634
950.0,82.43867151058345,76.96020987470855,86.17741823040242,74.7726307405625,62.75249109548653,81.28139392569007
975.0,82.35946333713581,76.1814411425355,85.95720202017168,73.87744910204941,68.4130547108621,81.0669197101582
1000.0,82.48155097500957,76.55972095020422,86.04181832106275,74.09588548155642,71.68290781053098,81.2367700194858
1030.0,83.71813904149155,76.18207161710212,86.10248969994655,75.13772119744726,73.26200227175042,81.69302953570725
1060.0,83.84562075966362,74.72838877456493,86.70536007820803,76.15195223830628,73.52311730608713,82.06377774219632
1090.0,83.22862980215248,72.54096588251532,87.381135297133,76.59126794690903,73.39918549856141,82.26812390972796
1120.0,83.01487453586826,74.44773581244513,88.03894276610546,77.82500816836792,74.29557682248478,82.79753553341048
1150.0,82.05228993987737,75.65405093453076,88.31333764110484,79.29713376171418,74.17477578601923,82.95145616403532
1180.0,82.22719737856889,76.94179998067982,88.70849587576842,81.5035928641326,73.97415417159552,83.5239677281809
1220.0,81.82094650032104,76.557399299195,88.9547071681927,82.36950388638695,72.99616290644268,83.7141397859703
1250.0,80.86970378972042,74.81067263765291,88.698717831455,82.14807624688825,72.36049206292998,83.32334956507393
1280.0,81.47969334658987,74.51786801381469,88.55263989204597,81.82171225191085,72.12511288896803,83.23829635645704
1320.0,81.47291450660072,74.6993965677986,89.16193901340311,83.52225500195333,73.99427123500831,83.96024097607092
1360.0,82.05809541835906,75.02199936702112,90.37071823989353,85.84752662993102,75.05378100395905,85.30943859108619
1400.0,81.62470938790032,74.69509323354771,90.86301220938269,86.0389276042205,74.21587409383969,85.61762690107945
1450.0,81.54858398571899,74.25849834345348,90.73698126844558,85.76077147925058,73.87408715060292,85.4546021488396
1500.0,80.5460049319119,72.11621981582714,90.31106138014496,85.16767525394133,73.58978013695486,84.92888256841113
1550.0,78.10057942474259,72.29727691609602,89.94700149822297,85.02879019714405,74.8968375984326,84.52898570647895
1600.0,77.23789404684393,73.24258273663014,89.98847217927515,86.26936372968345,76.10405923334783,84.8734929206971
1650.0,79.62294362715997,74.51172846437377,89.81998423401444,87.47424572797777,76.78712836898885,85.27907955625619
1700.0,80.31657454846321,76.30464358834796,89.23175513861908,87.31312233933006,76.11809990443913,84.96292437436404
1750.0,78.1166486698529,73.94264053902359,88.44313939533782,86.94266484973116,75.98575533491586,84.2246982989349
1800.0,77.085346015696,71.5320980952248,87.61739302852534,86.5863503254194,75.86045142553361,83.56904406704463
1850.0,76.37625435142638,68.57787805979314,87.09998738070209,86.36959838861173,75.36436264539091,83.14432752440415
1900.0,77.77131751433743,71.69389595883673,87.49044363353323,86.61788593940098,74.92522810273373,83.52488325950306
1950.0,77.48353519125975,71.53819571547217,87.9743111667567,86.4002123843306,74.68793437833702,83.66787087094633
2000.0,77.33995065572921,70.73012365263646,88.0391537740895,86.03068827354538,74.38183532330498,83.54515355695403
2060.0,76.2635762164199,70.84503046635382,88.40934960840093,86.31722613178358,73.85742406661285,83.80339379047308
2120.0,77.67286465227727,73.95556810457694,89.33210754273385,86.98898910828353,75.05217865766284,84.69161324616645
2180.0,77.29876133933645,73.28353519125974,89.74280506859782,86.86812338274115,75.17344839988701,84.87588872321774
2240.0,76.34434528223859,70.75999077166719,89.75069458496654,86.56072872106304,74.28668438460087,84.71005968693059
2300.0,77.70566895210032,71.9169955998452,89.49456340799703,85.88285891599398,73.25470545709666,84.38800659740912
2360.0,77.4729666769864,72.65237067879931,89.17956027660098,84.35746783910571,72.42333211809391,83.77441627871906
2400.0,76.2753042618925,70.42358522236051,88.97423355740435,83.75531101410581,71.76703229740359,83.40649806670467
2500.0,74.48481481945332,66.98179134375295,88.34883108815646,82.84337381716857,70.18006055886332,82.64669524421492
2580.0,75.60085208331813,67.77687903601802,87.6141265572998,81.4924070595384,68.68544134798327,81.86401727322506
2650.0,73.8084620786801,71.49795038530482,87.7346374178096,82.30623901928656,69.25720058293933,82.09627079446568
2720.0,74.05086398144306,68.01853668450543,88.55144746603281,84.1626527882514,71.6362240304294,83.11110857264438
2800.0,74.81299697788518,67.67553768929196,89.3530396829892,84.66417740296319,71.48543451174083,83.81842820784024
2900.0,72.74240010667204,66.21227178315618,90.19575758039036,85.60255076492214,72.61625802714066,84.62591688112803
3000.0,73.06481802292983,67.31943696522612,91.18838857951356,86.44114701044661,74.10155600271816,85.57932475589818
3070.0,77.32123776393739,67.15888067104001,90.87755573413166,86.05404465436234,72.65709105060412,85.3265815875415
3150.0,75.90178223770091,65.70191445428935,89.81152868549647,84.90744930671578,73.13079344292429,84.2497673284493
3250.0,73.58525610115547,68.08745842819408,89.25311111393847,84.36684882745577,72.29872054616195,83.66076493501969
3350.0,72.67184098646526,70.07332093584144,88.32230288159806,82.89993996965427,71.14176418691297,82.63031380835928
