Freq "Front Wall Bounce"
22.4 7.469542153089208
23.0 10.2625054504108
23.6 14.138706875937828
24.0 16.413450092644155
25.0 18.210706060105053
25.8 19.919511944609724
26.5 21.74591949916521
27.2 23.813900520962875
28.0 25.71164755874122
29.0 27.1289491921128
30.0 29.248446713173564
30.7 32.13789528893986
31.5 35.017423163472074
32.5 38.25156746453263
33.5 41.49646734321399
34.5 45.34655729747129
35.5 51.54103931057509
36.5 54.71900137138056
37.5 54.92029495493398
38.7 52.07961004133324
40.0 52.064300682754094
41.2 53.70229583688706
42.5 54.71311983709353
43.7 56.24354030180044
45.0 58.04093448246243
46.2 60.77848001505956
47.5 61.83447901685025
48.7 63.94435078012674
50.0 66.26784436505389
51.5 69.35505934213016
53.0 72.55480037627608
54.5 73.20422273083878
56.0 74.77116084097523
58.0 76.77480679535635
60.0 78.619441902665
61.5 80.50172712757097
63.0 82.43850822481657
65.0 84.28598694861394
67.0 85.97619822232284
69.0 87.47619822232284
71.0 88.77201159012716
73.0 89.59622097518236
75.0 90.32268702376514
77.5 90.95157024371522
80.0 91.2636378837458
82.5 91.66397221274894
85.0 92.02166651411031
87.5 92.3058399691088
90.0 92.63517162947062
92.5 92.9636378837458
95.0 93.2203617202094
97.5 93.448932530482
100.0 93.70583996910881
103.0 93.92003170429226
106.0 94.06298437193519
109.0 94.00682564632149
112.0 93.99160170654805
115.0 93.73515648262452
118.0 93.36298437193517
122.0 93.22003170429227
125.0 93.1341772151899
128.0 93.02036172020938
132.0 93.00714913256692
136.0 93.1216665141103
140.0 93.2216665141103
145.0 93.29324725130928
150.0 93.3216665141103
155.0 93.33647198212682
160.0 93.30942844161446
165.0 93.18092871894345
170.0 93.05416144920433
175.0 92.98092871894343
180.0 92.85416144920434
185.0 92.75416144920432
190.0 92.65804707615203
195.0 92.6734199724098
200.0 92.6734199724098
206.0 92.8019688506347
212.0 92.94332310824817
218.0 93.12784311615772
224.0 93.3019688506347
230.0 93.38909481904278
236.0 93.29423658376899
240.0 93.03543858484896
250.0 92.74781662125869
258.0 92.55669217888479
265.0 92.52427561776395
272.0 92.7216665141103
280.0 92.80714913256692
290.0 92.77796796938719
300.0 92.73417721518987
307.0 92.4779679693872
315.0 92.15416144920434
325.0 92.05804707615202
335.0 92.0478166212587
345.0 92.18539203830338
355.0 92.33705349819391
365.0 92.50873507463555
375.0 92.58503934907176
387.0 92.38503934907176
400.0 91.93360014701187
412.0 91.20508776303834
425.0 90.32761581325323
437.0 89.3617574226389
450.0 88.5370534981939
462.0 88.22264939446504
475.0 88.82427561776396
487.0 88.67721091988871
500.0 89.77859622970342
515.0 90.52761581325325
530.0 90.9599735990771
545.0 90.94306229078828
560.0 90.41565000349722
580.0 89.71565000349722
600.0 89.28796094993535
615.0 89.2156500034972
630.0 89.69407889914986
650.0 90.25493932681314
670.0 90.66250944852874
690.0 90.69340925319287
710.0 90.40564214986708
730.0 89.92262220911829
750.0 89.62180573857819
775.0 89.28134532476238
800.0 88.92387237068672
825.0 88.37289479240671
850.0 88.05331517019003
875.0 87.9408689118083
900.0 87.98151026961537
925.0 87.84231578656171
950.0 87.31159544559233
975.0 87.09137923536159
1000.0 87.17599553625264
1030.0 87.23666691513644
1060.0 87.83953729339791
1090.0 88.51531251232291
1120.0 89.17311998129537
1150.0 89.44751485629472
1180.0 89.84267309095831
1220.0 90.0888843833826
1250.0 89.8328950466449
1280.0 89.68681710723587
1320.0 90.29611622859302
1360.0 91.50489545508344
1400.0 91.99718942457257
1450.0 91.87115848363547
1500.0 91.44523859533484
1550.0 91.08117871341288
1600.0 91.12264939446506
1650.0 90.95416144920432
1700.0 90.36593235380896
1750.0 89.57731661052772
1800.0 88.75157024371524
1850.0 88.234164595892
1900.0 88.62462084872311
1950.0 89.10848838194661
2000.0 89.1733309892794
2060.0 89.54352682359082
2120.0 90.46628475792375
2180.0 90.87698228378773
2240.0 90.88487180015643
2300.0 90.62874062318693
2360.0 90.31373749179087
2400.0 90.10841077259424
2500.0 89.48300830334635
2580.0 88.7483037724897
2650.0 88.86881463299947
2720.0 89.68562468122269
2800.0 90.4872168981791
2900.0 91.32993479558026
3000.0 92.32256579470346
3070.0 92.01173294932155
3150.0 90.94570590068636
3250.0 90.38728832912838
3350.0 89.45648009678794
3450.0 89.0856239083303
3550.0 89.93221650852274
3650.0 90.82087968382116
3750.0 90.63127533953369
3870.0 90.43023869445899
4000.0 90.02283420639658
4120.0 90.06554516624634
4250.0 90.07944267996707
4370.0 90.40066392293586
4500.0 90.1915269681155
4620.0 90.66970682588179
4750.0 90.04515111839822
4870.0 89.40553405466662
5000.0 89.42210519086399
5150.0 90.4399167054006
5300.0 90.48016646671134
5450.0 90.43795176133426
5600.0 90.49690161530354
5800.0 90.13814787711767
6000.0 90.3681131219212
6150.0 90.0051957140913
6300.0 90.00572451575954
6500.0 89.70373612471805
6700.0 90.00516499741879
6900.0 90.6187451510775
7100.0 90.86278199389605
7300.0 90.41521935853578
7500.0 90.44511195158522
7750.0 91.07688148699711
8000.0 91.2971571085636
8250.0 91.66932346919455
8500.0 92.11303195616708
8750.0 92.4042682408087
9000.0 92.71610633808602
9250.0 92.82813569862758
9500.0 93.2304351459166
9750.0 93.4169156169053
10000.0 93.61397046391764
10300.0 93.79975887571487
10600.0 94.04817978303046
10900.0 94.43529162590801
11200.0 94.66759248436733
11500.0 94.63619967306974
11800.0 93.90527881289938
12200.0 93.35596979863774
12500.0 92.68773354006586
12800.0 92.04161174415746
13200.0 91.54091075761409
13600.0 88.26422954565365
14000.0 86.4437564551913
14500.0 84.69616566518815
15000.0 83.09349630403149
15500.0 81.13415426451084
16000.0 78.09485442574957
16500.0 77.30747946828288
17000.0 83.89293134820619
17500.0 73.9519436864478
18000.0 68.63910075766566
18500.0 69.66512324182074
19000.0 69.09499149907337
19500.0 67.8965702711863
