Freq,On Axis,Listening Window,Sound Power,Early Reflections,Early Reflections DI,Sound Power DI,DI offset
22.4,-12.0,-12.952204608519963,-13.13669180436358,-13.447474479997595,20.495269871477632,20.184487195843616,20
23.0,-11.099999999999966,-12.84542764421235,-12.895805880718342,-13.324111528550219,20.47868388433787,20.050378236505992,20
23.6,-10.5,-12.809121829195703,-12.835976382135186,-13.338604094475471,20.529482265279768,20.026854552939483,20
24.0,-10.199999999999989,-12.772742792414306,-12.95140633594346,-13.451411873615314,20.678669081201008,20.178663543529154,20
25.0,-9.800000000000011,-12.602650923031746,-13.01437945985623,-13.450730512846377,20.84807958981463,20.411728536824484,20
25.8,-9.199999999999989,-12.141121122056461,-12.837534318864414,-13.155207456761104,21.014086334704643,20.696413196807953,20
26.5,-8.100000000000023,-11.119344757160178,-12.124480613500168,-12.295298169337002,21.175953412176824,21.00513585633999,20
27.2,-6.399999999999977,-9.431192329635309,-10.7075412039284,-10.716748373446421,21.285556043811113,21.27634887429309,20
28.0,-4.199999999999989,-7.15999741150776,-8.665436347650967,-8.52129596858748,21.36129855707972,21.505438936143207,20
29.0,-1.6999999999999886,-4.556120401695296,-6.2765702226558915,-5.98165468378798,21.425534282092684,21.720449820960596,20
30.0,0.6999999999999886,-2.001379334611727,-3.8210956163698313,-3.4319607155587164,21.43058138094699,21.819716281758105,20
30.7,3.0,0.47773017028131903,-1.426773488599423,-0.9488789754073537,21.426609145688673,21.904503658880742,20
31.5,5.0,2.7334791117949635,0.8600589245403967,1.3750327232434358,21.358446388551528,21.873420187254567,20
32.5,6.800000000000011,4.8260404687511596,3.0666950462809837,3.5855568421546877,21.240483626596472,21.759345422470176,20
33.5,8.300000000000011,6.820764195706857,5.278563671661033,5.751651782440717,21.06911241326614,21.542200524045825,20
34.5,9.699999999999989,8.836351056936792,7.547353749859752,7.976636903432279,20.859714153504513,21.28899730707704,20
35.5,11.0,10.888883281071259,9.894645254338371,10.256886665744958,20.6319966153263,20.994238026732887,20
36.5,12.099999999999994,12.9634656064801,12.362678112286574,12.644004161307947,20.319461445172152,20.600787494193526,20
37.5,13.199999999999989,15.093729293443772,14.82564707521908,15.034080181783565,20.059649111660207,20.26808221822469,20
38.7,14.400000000000006,17.088469700965874,17.174076140180034,17.30137115171692,19.787098549248952,19.91439356078584,20
40.0,15.800000000000011,18.946564872304606,19.298914447578454,19.352529393317923,19.594035478986683,19.64765042472615,20
41.2,17.69999999999999,20.519988278181586,21.087639556618285,21.06237001337641,19.457618264805177,19.4323487215633,20
42.5,19.80000000000001,21.869645511891235,22.546372617995587,22.442214445315244,19.42743106657599,19.32327289389565,20
43.7,22.099999999999994,23.24452955004884,23.889239637536747,23.711117978464017,19.53341157158482,19.35528991251209,20
45.0,24.400000000000006,24.623187525832947,25.300362150066576,25.04408173198013,19.57910579385282,19.32282537576637,20
46.2,26.69999999999999,26.192535785695213,26.873803199701,26.547211692973576,19.645324092721637,19.318732585994212,20
47.5,28.80000000000001,27.801117404074574,28.581162813217816,28.221634084248393,19.57948331982618,19.21995459085676,20
48.7,30.80000000000001,29.457503455557173,30.331710801838824,29.980208520956666,19.477294934600508,19.12579265371835,20
50.0,32.69999999999999,31.140172707644297,32.06686694980246,31.73318219601839,19.406990511625906,19.073305757841837,20
51.5,34.400000000000006,32.762958220798,33.76403214968008,33.45428965851286,19.308668562285135,18.99892607111792,20
53.0,36.099999999999994,34.38162792014066,35.440038719053746,35.17076176593798,19.210866154202677,18.941589201086913,20
54.5,37.69999999999999,35.9788831806579,37.06128573429419,36.82055624279255,19.158326937865354,18.917597446363715,20
56.0,39.19999999999999,37.530606058875804,38.6310630678301,38.39656254593234,19.134043512943464,18.899542991045706,20
58.0,40.599999999999994,39.007733909431465,40.143167599640094,39.93374985942876,19.073984050002707,18.86456630979137,20
60.0,42.0,40.4874372205318,41.58540046523183,41.38857596824249,19.09886125228931,18.902036755299974,20
61.5,43.400000000000006,41.89786421700492,42.94128966374488,42.762431280763764,19.13543293624116,18.95657455326004,20
63.0,44.599999999999994,43.182313229217996,44.20141364140605,44.02144915598343,19.160864073234563,18.980899587811948,20
65.0,45.8,44.47922269662068,45.39876610393985,45.2620015923452,19.21722110427548,19.080456592680832,20
67.0,47.0,45.745473136575214,46.52799193141598,46.417893154118644,19.32757998245657,19.21748120515923,20
69.0,48.099999999999994,46.94382289669214,47.60576894102476,47.51712771448473,19.42669518220741,19.338053955667377,20
71.0,49.19999999999999,48.113766735590346,48.623669353118984,48.5764523357788,19.53731439981155,19.49009738247136,20
73.0,50.29999999999998,49.271492597218725,49.62298973490876,49.621355499182314,19.65013709803641,19.648502862309968,20
75.0,51.400000000000006,50.48661369939363,50.64511766956821,50.69893328665506,19.787680412738567,19.84149602982542,20
77.5,52.5,51.64212552701706,51.634862827743646,51.74427748166684,19.897848045350216,20.00726269927341,20
80.0,53.599999999999994,52.82790986298474,52.647955642578026,52.824303054470946,20.003606808513794,20.179954220406714,20
82.5,54.8,54.06129304119557,53.68363291346847,53.9371659209139,20.12412712028167,20.377660127727097,20
85.0,56.0,55.27327224321391,54.75976845398793,55.06440723118146,20.208865012032447,20.51350378922598,20
87.5,57.099999999999994,56.52521057871802,55.86616061837313,56.22392648646053,20.30128409225749,20.659049960344888,20
90.0,58.3,57.74052667722941,56.9810620692634,57.35670611325699,20.38382056397242,20.75946460796601,20
92.5,59.400000000000006,58.89224037578322,58.08260244298353,58.47371135569438,20.41852902008884,20.80963793279969,20
95.0,60.400000000000006,59.98817238674806,59.122799919224846,59.50147046786428,20.48670191888378,20.865372467523216,20
97.5,61.30000000000001,60.89766561090582,60.06168915364273,60.43088712541669,20.46677848548913,20.835976457263087,20
100.0,62.0,61.72750536682392,60.887236416191215,61.23203628907942,20.495469077744502,20.840268950632705,20
103.0,62.599999999999994,62.38127710423244,61.570249899211774,61.89071348614742,20.49056361808502,20.811027205020665,20
106.0,63.099999999999994,62.881277104232424,62.12355999533122,62.40764928756306,20.473627816669364,20.757717108901204,20
109.0,63.5,63.30328449402553,62.642959122801685,62.873298536218485,20.429985957807048,20.66032537122385,20
112.0,63.80000000000001,63.69177612109563,63.11971056528358,63.290990730521415,20.400785390574214,20.572065555812046,20
115.0,64.1,64.02419779300914,63.59927301026178,63.682791991096806,20.34140580191233,20.424924782747354,20
118.0,64.4,64.34649558882192,64.04067648341062,64.0481485292924,20.29834705952952,20.305819105411302,20
122.0,64.7,64.63562068408571,64.46437208767259,64.3998997700455,20.235720914040215,20.171248596413122,20
125.0,64.9,64.92445814420117,64.89711671222562,64.76543424037438,20.159023903826792,20.027341431975543,20
128.0,65.20000000000002,65.22445814420118,65.2792186098857,65.09498835712593,20.12946978707525,19.945239534315476,20
132.0,65.4,65.45889934695255,65.61444612071202,65.37295296435337,20.085946382599175,19.84445322624053,20
136.0,65.6,65.65889934695257,65.88551902362138,65.61067417754425,20.048225169408312,19.773380323331182,20
140.0,65.8,65.85889934695254,66.09070946033225,65.80914498034622,20.049754366606322,19.76818988662029,20
145.0,66.0,66.00255805872011,66.23352826695572,65.95253851412816,20.050019544591947,19.769029791764396,20
150.0,66.1,66.1025580587201,66.28129785294597,66.01886526362625,20.083692795093853,19.821260205774138,20
155.0,66.1,66.14882646893507,66.25630987518615,66.04222888746838,20.106597581466687,19.892516593748923,20
160.0,66.2,66.20255805872011,66.1874398896019,66.04139435216165,20.16116370655847,20.01511816911821,20
165.0,66.30000000000001,66.24830263372168,66.07460574773032,65.99865714831935,20.249645485402326,20.17369688599136,20
170.0,66.4,66.31377695707036,65.97015096858344,65.9879724243167,20.325804532753665,20.34362598848692,20
175.0,66.4,66.40255805872012,65.86993509254765,65.9888989840622,20.413659074657915,20.532622966172468,20
180.0,66.5,66.46846270750856,65.79873500560943,66.00476755997639,20.463695147532178,20.669727701899134,20
185.0,66.6,66.55686156553041,65.7506742750379,66.02869530111842,20.528166264411993,20.806187290492517,20
190.0,66.69999999999999,66.60229639130465,65.70600204040342,66.05263261148377,20.549663779820875,20.89629435090123,20
195.0,66.69999999999999,66.5907853962292,65.6301285350271,66.01205919572277,20.578726200506424,20.960656861202096,20
200.0,66.6,66.51274477799038,65.5144273365787,65.93334049810666,20.57940427988372,20.998317441411672,20
206.0,66.5,66.4015232095018,65.36887175818677,65.81215097641997,20.589372233081832,21.032651451315033,20
212.0,66.4,66.26819897766141,65.26062526352767,65.71012737999033,20.558071597671088,21.00757371413374,20
218.0,66.30000000000001,66.23461706421345,65.20488633059526,65.6528060360716,20.581811028141857,21.029730733618194,20
224.0,66.30000000000001,66.23461706421345,65.1939854314297,65.65227162877494,20.582345435438512,21.040631632783757,20
230.0,66.30000000000001,66.23461706421345,65.17696832069177,65.65195754151185,20.582659522701604,21.057648743521682,20
236.0,66.2,66.167941235565,65.12893470524287,65.6013273984907,20.5666138370743,21.039006530322126,20
240.0,66.2,66.167941235565,65.07866233565633,65.56501918166455,20.602922053900443,21.089278899908663,20
250.0,66.2,66.14575355685861,65.03079099589245,65.54311660854663,20.602636948311982,21.114962560966163,20
258.0,66.2,66.14575355685861,64.96889051036383,65.51236558037745,20.63338797648116,21.176863046494773,20
265.0,66.2,66.14575355685861,64.9201657477058,65.50716346069478,20.638590096163824,21.225587809152813,20
272.0,66.2,66.15634471847235,64.8800752063477,65.49415107939276,20.66219363907959,21.276269512124657,20
280.0,66.30000000000001,66.22293110248063,64.8674814470276,65.52093734738527,20.70199375509536,21.35544965545303,20
290.0,66.30000000000001,66.22293110248063,64.82650777060914,65.52202938389594,20.70090171858469,21.39642333187149,20
300.0,66.30000000000001,66.23409756292212,64.7550820055282,65.49578932243179,20.738308240490326,21.47901555739392,20
307.0,66.30000000000001,66.24549447919881,64.67669994525582,65.4678212179501,20.777673261248708,21.56879453394299,20
315.0,66.30000000000001,66.24549447919881,64.5628177790656,65.41086453592045,20.834629943278358,21.682676700133214,20
325.0,66.30000000000001,66.2127447779904,64.42640113853737,65.3417907715359,20.870954006454497,21.786343639453023,20
335.0,66.30000000000001,66.1795068701197,64.2719916253851,65.24858859738673,20.930918272732967,21.907515244734597,20
345.0,66.2,66.11274477799039,64.09435554829699,65.12933309843612,20.983411679554266,22.018389229693398,20
355.0,66.2,66.06971018796763,63.92198539785218,65.01466102138733,21.055049166580304,22.147724790115447,20
365.0,66.2,66.05837672536981,63.76302643737398,64.91567026559937,21.142706459770437,22.29535028799583,20
375.0,66.2,66.03762776013772,63.59915848201503,64.82495294051151,21.212674819626216,22.438469278122696,20
387.0,66.30000000000001,66.02896215694926,63.430268537466304,64.72450697079455,21.304455186154712,22.598693619482958,20
400.0,66.30000000000001,66.02896215694926,63.28430771990324,64.64463673687519,21.384325420074077,22.744654437046023,20
412.0,66.30000000000001,66.02896215694926,63.142752569283175,64.5600371050562,21.468925051893066,22.886209587666087,20
425.0,66.30000000000001,65.98703592431401,62.9932381729826,64.46930169849875,21.51773422581526,22.993797751331414,20
437.0,66.2,65.97521491911375,62.860086093190276,64.38448749431893,21.59072742479482,23.115128825923478,20
450.0,66.2,65.92047706924544,62.71680860619746,64.3032060281387,21.617271041106733,23.203668463047975,20
462.0,66.2,65.88703592431402,62.57592330901707,64.23214169983412,21.654894224479904,23.31111261529695,20
475.0,66.2,65.88703592431402,62.44604864058509,64.16879711658724,21.718238807726777,23.44098728372893,20
487.0,66.1,65.87521491911374,62.335080335569444,64.14584975520458,21.729365163909165,23.5401345835443,20
500.0,66.1,65.87521491911374,62.246145715742415,64.13515563643367,21.74005928268008,23.62906920337133,20
515.0,66.1,65.87521491911374,62.165606947201866,64.12189344345059,21.753321475663157,23.70960797191188,20
530.0,66.2,65.88703592431402,62.09710895946297,64.11943971385578,21.767596210458237,23.78992696485105,20
545.0,66.1,65.87521491911374,62.020583240963674,64.10282633839508,21.77238858071867,23.85463167815007,20
560.0,66.1,65.87521491911374,61.95296897981119,64.07614523444792,21.799069684665824,23.922245939302556,20
580.0,66.1,65.82896215694925,61.878656838553496,64.04059679293725,21.788365364011995,23.95030531839575,20
600.0,66.0,65.78378881309229,61.81501655080696,63.98460981422424,21.799178998868044,23.968772262285327,20
615.0,66.0,65.74928032556396,61.77014092553162,63.95383177035835,21.79544855520561,23.979139400032338,20
630.0,65.9,65.72621015383258,61.7618473167299,63.940512645333,21.78569750849958,23.964362837102684,20
650.0,65.9,65.72621015383258,61.80112016716737,63.98399668120166,21.742213472630922,23.925089986665213,20
670.0,65.9,65.73762776013773,61.8492250532298,64.0088298965369,21.728797863600832,23.888402706907925,20
690.0,65.9,65.76090170960877,61.91674136442589,64.08810154800051,21.672800161608265,23.844160345182885,20
710.0,66.0,65.81502336890956,61.94544411149698,64.13176973979293,21.683253629116635,23.869579257412582,20
730.0,65.9,65.80354610191523,61.91134395891896,64.12173622666464,21.681809875250593,23.89220214299627,20
750.0,65.9,65.72621015383258,61.82220327462579,64.04875368403388,21.6774564697987,23.90400687920679,20
775.0,65.8,65.6470136092696,61.704151392960085,63.96383421153283,21.68317939773678,23.94286221630952,20
800.0,65.8,65.63588035141758,61.59711901774452,63.8901559290107,21.74572442240688,24.038761333673065,20
825.0,65.8,65.63588035141758,61.5351407525183,63.86033512474968,21.7755452266679,24.10073959889928,20
850.0,65.9,65.7358803514176,61.52045117418996,63.91492342302864,21.820956928388966,24.215429177227648,20
875.0,65.9,65.76819897766143,61.441903493504896,63.88298514195003,21.885213835711397,24.32629548415653,20
900.0,65.9,65.7358803514176,61.29312222675705,63.79813052746593,21.937749823951677,24.442758124660557,20
925.0,65.8,65.65916364211732,61.09043215265865,63.62982473763148,22.02933890448584,24.56873148945867,20
950.0,65.7,65.59131010411082,60.92283110802316,63.49036170447127,22.10094839963955,24.668478996087657,20
975.0,65.7,65.58054112804466,60.84931603238584,63.44712875703087,22.13341237101379,24.731225095658814,20
1000.0,65.8,65.68054112804467,60.86384065306022,63.46466061523046,22.21588051281421,24.816700474984444,20
1030.0,65.7,65.55941602702663,60.78534579741222,63.365219973834144,22.194196053192485,24.77407022961441,20
1060.0,65.5,65.31633393476267,60.597158481746916,63.13815526610409,22.178178668658575,24.71917545301575,20
1090.0,65.5,65.20981013608359,60.42213880011995,62.993268091687824,22.216542044395766,24.787671335963637,20
1120.0,65.8,65.3838959101637,60.2970286395275,62.996146850104836,22.387749060058866,25.086867270636205,20
1150.0,66.0,65.47095244309618,60.11274400294809,62.935632690277004,22.535319752819177,25.35820844014809,20
1180.0,66.0,65.4192079697043,59.8257859493074,62.74916937251895,22.670038597185354,25.5934220203969,20
1220.0,65.8,65.26455038437477,59.497792877920986,62.468986728701964,22.795563655672808,25.766757506453786,20
1250.0,65.7,65.11314381441491,59.20639736065769,62.24119727004967,22.871946544365244,25.906746453757222,20
1280.0,65.7,65.13090999560383,59.082570088092666,62.16882026477565,22.962089730828183,26.048339907511163,20
1320.0,65.8,65.24928614567983,59.110409575351866,62.2433906603836,23.005895485296236,26.138876570327966,20
1360.0,65.8,65.26090751417131,59.07439909623743,62.232239068117906,23.028668446053402,26.18650841793388,20
1400.0,65.7,65.20344182577799,58.982241337522225,62.16247142084441,23.040970404933574,26.22120048825576,20
1450.0,65.5,65.04927968483429,58.799028028137826,61.99196351035849,23.0573161744758,26.250251656696463,20
1500.0,65.29999999999998,64.87276104750845,58.64470379098513,61.818907605565514,23.053853441942934,26.228057256523314,20
1550.0,65.1,64.76062442988025,58.666292199806605,61.75802603247256,23.002598397407695,26.094332230073647,20
1600.0,65.0,64.67902428146292,58.86447853236638,61.79799393017828,22.881030351284636,25.81454574909654,20
1650.0,65.0,64.6098057576324,59.15779904322136,61.93135484954345,22.678450908088948,25.45200671441104,20
1700.0,64.9,64.52706265056793,59.45667068375211,62.09201386512845,22.435048785439477,25.07039196681582,20
1750.0,64.9,64.53534222579506,59.70979334295329,62.28050944612686,22.254832779668206,24.825548882841773,20
1800.0,64.9,64.51988654739675,59.91949274866117,62.451761706595576,22.068124840801175,24.60039379873558,20
1850.0,64.7,64.4397100228505,60.20186408547349,62.668474060789535,21.77123596206097,24.237845937377017,20
1900.0,64.5,64.20612006569965,60.46989223805443,62.85420936460271,21.35191070109694,23.736227827645223,20
1950.0,64.3,64.00888482477528,60.34246867594355,62.7954695222771,21.213415302498177,23.66641614883173,20
2000.0,64.1,63.76917009623946,59.9197533080151,62.543778029059,21.225392067180465,23.84941678822436,20
2060.0,63.80000000000001,63.48335179759367,59.770779729107346,62.46199483916698,21.021356958426693,23.712572068486324,20
2120.0,63.2,63.084171072518984,60.02133623902027,62.64420054624452,20.439970526274465,23.062834833498712,20
2180.0,62.79999999999998,62.744768222787116,60.261418264073654,62.8966172098194,19.84815101296772,22.48334995871346,20
2240.0,62.70000000000002,62.5885230784867,60.23101277185003,63.00706736473907,19.58145571374763,22.35751030663667,20
2300.0,62.79999999999998,62.56716958614413,59.969181861392926,62.93878279538205,19.62838679076208,22.597987724751206,20
2360.0,63.0,62.653296102412014,59.587260379626,62.70585496875131,19.947441133660703,23.06603572278601,20
2400.0,63.3,62.81940909386347,59.15936259340137,62.42952905809594,20.389880035767533,23.6600465004621,20
2500.0,63.599999999999994,63.073936490450194,58.726686906160324,62.11964892241687,20.954287568033322,24.34724958428987,20
2580.0,63.900000000000006,63.34935202008175,58.3013713367252,61.81498968626397,21.534362333817782,25.047980683356556,20
2650.0,64.19999999999999,63.55875083983841,57.85803986346788,61.47108438128065,22.087666458557763,25.70071097637053,20
2720.0,64.3,63.79195562502116,57.410038472085205,61.116981348940215,22.674974276080945,26.381917152935955,20
2800.0,64.5,63.94367899452634,57.003221014173434,60.80712139627278,23.13655759825356,26.940457980352903,20
2900.0,64.6,64.00652112243611,56.66813101129176,60.56352683555798,23.442994286878132,27.33839011114435,20
3000.0,64.6,64.07107655743636,56.447354640051515,60.36672329700262,23.704353260433734,27.62372191738484,20
3070.0,64.6,64.06000489351248,56.273093509899965,60.17356365622004,23.886441237292445,27.78691138361252,20
3150.0,64.6,64.03777061971189,56.119229644443635,59.96632577567999,24.0714448440319,27.918540975268257,20
3250.0,64.6,63.95460765513687,55.93884823768293,59.76784318197201,24.186764473164857,28.015759417453935,20
3350.0,64.6,63.86016608269466,55.733035486777965,59.56385040716978,24.29631567552488,28.127130595916697,20
3450.0,64.6,63.77921801254786,55.582780374998265,59.46653994419498,24.31267806835288,28.196437637549593,20
3550.0,64.7,63.70104736715706,55.48657575849572,59.43177706530868,24.26927030184838,28.21447160866134,20
3650.0,64.8,63.63003892617152,55.46618514924613,59.468448722778334,24.16159020339319,28.163853776925393,20
3750.0,64.8,63.56940979877976,55.503418100590835,59.576510671232654,23.992899127547105,28.065991698188924,20
