Freq "Listening Window"
22.4 -12.47245777307694
23.0 -12.365680808769298
23.6 -12.329374993752708
24.0 -12.29299595697131
25.0 -12.122904087588722
25.8 -11.661374286613466
26.5 -10.639597921717154
27.2 -8.951445494192313
28.0 -6.680250576064736
29.0 -4.0763735662523
30.0 -1.5216324991687031
30.7 0.9574770057243427
31.5 3.2132259472379587
32.5 5.305787304194155
33.5 7.300511031149853
34.5 9.316097892379787
35.5 11.368630116514254
36.5 13.443212441923123
37.5 15.573476128886796
38.7 17.56821653640887
40.0 19.426311707747658
41.2 20.99973511362458
42.5 22.34939234733426
43.7 23.724276385491862
45.0 25.102934361275942
46.2 26.672282621138237
47.5 28.280864239517598
48.7 29.93725029100017
50.0 31.619919543087292
51.5 33.24270505624099
53.0 34.86137475558368
54.5 36.4586300161009
56.0 38.01035289431883
58.0 39.48748074487446
60.0 40.9671840559748
61.5 42.37761105244792
63.0 43.66206006466102
65.0 44.95896953206369
67.0 46.22521997201822
69.0 47.423569732135135
71.0 48.593513571033355
73.0 49.75123943266172
75.0 50.96636053483665
77.5 52.12187236246007
80.0 53.307656698427735
82.5 54.54103987663858
85.0 55.753019078656905
87.5 57.00495741416103
90.0 58.220273512672435
92.5 59.37198721122621
95.0 60.46791922219107
97.5 61.37741244634884
100.0 62.207252202266915
103.0 62.86102393967546
106.0 63.36102393967545
109.0 63.783031329468514
112.0 64.17152295653861
115.0 64.50394462845213
118.0 64.82624242426492
122.0 65.1153675195287
125.0 65.40420497964416
128.0 65.70420497964417
132.0 65.93864618239556
136.0 66.13864618239556
140.0 66.33864618239556
145.0 66.48230489416312
150.0 66.58230489416313
155.0 66.6285733043781
160.0 66.68230489416312
165.0 66.72804946916469
170.0 66.79352379251335
175.0 66.88230489416313
180.0 66.94820954295156
185.0 67.03660840097344
190.0 67.08204322674767
195.0 67.07053223167222
200.0 66.99249161343339
206.0 66.88127004494481
212.0 66.74794581310444
218.0 66.71436389965645
224.0 66.71436389965645
230.0 66.71436389965645
236.0 66.647688071008
240.0 66.647688071008
250.0 66.62550039230162
258.0 66.62550039230162
265.0 66.62550039230162
272.0 66.63609155391535
280.0 66.70267793792364
290.0 66.70267793792364
300.0 66.71384439836511
307.0 66.7252413146418
315.0 66.7252413146418
325.0 66.69249161343339
335.0 66.65925370556269
345.0 66.5924916134334
355.0 66.54945702341062
365.0 66.53812356081282
375.0 66.51737459558072
387.0 66.50870899239226
400.0 66.50870899239226
412.0 66.50870899239226
425.0 66.46678275975704
437.0 66.45496175455676
450.0 66.40022390468846
462.0 66.36678275975703
475.0 66.36678275975703
487.0 66.35496175455677
500.0 66.35496175455677
515.0 66.35496175455677
530.0 66.36678275975703
545.0 66.35496175455677
560.0 66.35496175455677
580.0 66.30870899239227
600.0 66.26353564853531
615.0 66.22902716100698
630.0 66.20595698927559
650.0 66.20595698927559
670.0 66.21737459558072
690.0 66.2406485450518
710.0 66.29477020435256
730.0 66.28329293735824
750.0 66.20595698927559
775.0 66.12676044471263
800.0 66.11562718686059
825.0 66.11562718686059
850.0 66.2156271868606
875.0 66.24794581310442
900.0 66.2156271868606
925.0 66.13891047756033
950.0 66.07105693955383
975.0 66.06028796348767
1000.0 66.16028796348766
1030.0 66.03916286246964
1060.0 65.79608077020569
1090.0 65.6895569715266
1120.0 65.86364274560671
1150.0 65.95069927853919
1180.0 65.89895480514733
1220.0 65.74429721981778
1250.0 65.59289064985792
1280.0 65.61065683104682
1320.0 65.72903298112286
1360.0 65.74065434961432
1400.0 65.683188661221
1450.0 65.52902652027731
1500.0 65.35250788295147
1550.0 65.24037126532326
1600.0 65.15877111690594
1650.0 65.08955259307542
1700.0 65.00680948601094
1750.0 65.01508906123806
1800.0 64.99963338283976
1850.0 64.91945685829353
1900.0 64.68586690114266
1950.0 64.48863166021829
2000.0 64.24891693168246
2060.0 63.963098633036665
2120.0 63.56391790796198
2180.0 63.224515058230125
2240.0 63.068269913929726
2300.0 63.046916421587156
2360.0 63.13304293785501
2400.0 63.299155929306494
2500.0 63.55368332589322
2580.0 63.82909885552475
2650.0 64.0384976752814
2720.0 64.27170246046418
2800.0 64.42342582996935
2900.0 64.48626795787912
3000.0 64.55082339287935
3070.0 64.5397517289555
3150.0 64.51751745515489
3250.0 64.43435449057989
3350.0 64.33991291813766
3450.0 64.25896484799085
3550.0 64.18079420260007
3650.0 64.10978576161455
3750.0 64.04915663422278
3870.0 64.0174251009379
4000.0 63.93746498462178
4120.0 63.90788073271632
4250.0 63.92645057490462
4370.0 63.90290273846554
4500.0 63.91084443528608
4620.0 63.907276457125235
4750.0 63.95908147315592
4870.0 63.90588625077082
5000.0 63.83654788214878
5150.0 63.76229402118534
5300.0 63.72862199112194
5450.0 63.69267071214773
5600.0 63.66744954730942
5800.0 63.61252959887956
6000.0 63.52855596953907
6150.0 63.47625712803956
6300.0 63.314994001400635
6500.0 63.153488794983375
6700.0 62.906644220011714
6900.0 62.82020337039978
7100.0 62.78598535947681
7300.0 62.74967763271668
7500.0 62.64606937502418
7750.0 62.5742362560495
8000.0 62.44278939523251
8250.0 62.30526644948657
8500.0 62.131097553807166
8750.0 62.01126904594115
9000.0 61.918519325516925
9250.0 61.81384439836512
9500.0 61.71685545432432
9750.0 61.596040338997994
10000.0 61.507972290794754
10300.0 61.331820463676436
10600.0 61.09427959086342
10900.0 60.85695704672759
11200.0 60.63724492495966
11500.0 60.391376553860255
11800.0 60.12833035954594
12200.0 59.695081640978245
12500.0 59.23677623886904
12800.0 58.747806027228094
13200.0 58.30379091991085
13600.0 57.84649371286898
14000.0 57.28572900259431
14500.0 56.62368842952969
15000.0 55.805222138306576
15500.0 54.7795957269079
16000.0 53.64771887375878
16500.0 52.780742696064976
17000.0 52.15710614627048
17500.0 51.71165834768868
18000.0 51.47735780536176
18500.0 51.39818158983091
19000.0 51.258561710435046
19500.0 50.52547230246674
