Freq "Sound Power"
22.4 -13.13669180436358
23.0 -12.895805880718342
23.6 -12.835976382135186
24.0 -12.95140633594346
25.0 -13.01437945985623
25.8 -12.837534318864414
26.5 -12.124480613500168
27.2 -10.7075412039284
28.0 -8.665436347650967
29.0 -6.2765702226558915
30.0 -3.8210956163698313
30.7 -1.426773488599423
31.5 0.8600589245403967
32.5 3.0666950462809837
33.5 5.278563671661033
34.5 7.547353749859752
35.5 9.894645254338371
36.5 12.362678112286574
37.5 14.82564707521908
38.7 17.174076140180034
40.0 19.298914447578454
41.2 21.087639556618285
42.5 22.546372617995587
43.7 23.889239637536747
45.0 25.300362150066576
46.2 26.873803199701
47.5 28.581162813217816
48.7 30.331710801838824
50.0 32.06686694980246
51.5 33.76403214968008
53.0 35.440038719053746
54.5 37.06128573429419
56.0 38.6310630678301
58.0 40.143167599640094
60.0 41.58540046523183
61.5 42.94128966374488
63.0 44.20141364140605
65.0 45.39876610393985
67.0 46.52799193141598
69.0 47.60576894102476
71.0 48.623669353118984
73.0 49.62298973490876
75.0 50.64511766956821
77.5 51.634862827743646
80.0 52.647955642578026
82.5 53.68363291346847
85.0 54.75976845398793
87.5 55.86616061837313
90.0 56.9810620692634
92.5 58.08260244298353
95.0 59.122799919224846
97.5 60.06168915364273
100.0 60.887236416191215
103.0 61.570249899211774
106.0 62.12355999533122
109.0 62.642959122801685
112.0 63.11971056528358
115.0 63.59927301026178
118.0 64.04067648341062
122.0 64.46437208767259
125.0 64.89711671222562
128.0 65.2792186098857
132.0 65.61444612071202
136.0 65.88551902362138
140.0 66.09070946033225
145.0 66.23352826695572
150.0 66.28129785294597
155.0 66.25630987518615
160.0 66.1874398896019
165.0 66.07460574773032
170.0 65.97015096858344
175.0 65.86993509254765
180.0 65.79873500560943
185.0 65.7506742750379
190.0 65.70600204040342
195.0 65.6301285350271
200.0 65.5144273365787
206.0 65.36887175818677
212.0 65.26062526352767
218.0 65.20488633059526
224.0 65.1939854314297
230.0 65.17696832069177
236.0 65.12893470524287
240.0 65.07866233565633
250.0 65.03079099589245
258.0 64.96889051036383
265.0 64.9201657477058
272.0 64.8800752063477
280.0 64.8674814470276
290.0 64.82650777060914
300.0 64.7550820055282
307.0 64.67669994525582
315.0 64.5628177790656
325.0 64.42640113853737
335.0 64.2719916253851
345.0 64.09435554829699
355.0 63.92198539785218
365.0 63.76302643737398
375.0 63.59915848201503
387.0 63.430268537466304
400.0 63.28430771990324
412.0 63.142752569283175
425.0 62.9932381729826
437.0 62.860086093190276
450.0 62.71680860619746
462.0 62.57592330901707
475.0 62.44604864058509
487.0 62.335080335569444
500.0 62.246145715742415
515.0 62.165606947201866
530.0 62.09710895946297
545.0 62.020583240963674
560.0 61.95296897981119
580.0 61.878656838553496
600.0 61.81501655080696
615.0 61.77014092553162
630.0 61.7618473167299
650.0 61.80112016716737
670.0 61.8492250532298
690.0 61.91674136442589
710.0 61.94544411149698
730.0 61.91134395891896
750.0 61.82220327462579
775.0 61.704151392960085
800.0 61.59711901774452
825.0 61.5351407525183
850.0 61.52045117418996
875.0 61.441903493504896
900.0 61.29312222675705
925.0 61.09043215265865
950.0 60.92283110802316
975.0 60.84931603238584
1000.0 60.86384065306022
1030.0 60.78534579741222
1060.0 60.597158481746916
1090.0 60.42213880011995
1120.0 60.2970286395275
1150.0 60.11274400294809
1180.0 59.8257859493074
1220.0 59.497792877920986
1250.0 59.20639736065769
1280.0 59.082570088092666
1320.0 59.110409575351866
1360.0 59.07439909623743
1400.0 58.982241337522225
1450.0 58.799028028137826
1500.0 58.64470379098513
1550.0 58.666292199806605
1600.0 58.86447853236638
1650.0 59.15779904322136
1700.0 59.45667068375211
1750.0 59.70979334295329
1800.0 59.91949274866117
1850.0 60.20186408547349
1900.0 60.46989223805443
1950.0 60.34246867594355
2000.0 59.9197533080151
2060.0 59.770779729107346
2120.0 60.02133623902027
2180.0 60.261418264073654
2240.0 60.23101277185003
2300.0 59.969181861392926
2360.0 59.587260379626
2400.0 59.15936259340137
2500.0 58.726686906160324
2580.0 58.3013713367252
2650.0 57.85803986346788
2720.0 57.410038472085205
2800.0 57.003221014173434
2900.0 56.66813101129176
3000.0 56.447354640051515
3070.0 56.273093509899965
3150.0 56.119229644443635
3250.0 55.93884823768293
3350.0 55.733035486777965
3450.0 55.582780374998265
3550.0 55.48657575849572
3650.0 55.46618514924613
3750.0 55.503418100590835
3870.0 55.626067044011066
4000.0 55.78765725226029
4120.0 56.05610187561382
4250.0 56.28545738624753
4370.0 56.232599885572725
4500.0 55.941153478626234
4620.0 55.70787082906821
4750.0 55.69014940058547
4870.0 55.84594511523501
5000.0 56.122824428941
5150.0 56.38983007542706
5300.0 56.636924531001185
5450.0 56.78470809305374
5600.0 56.7638537558349
5800.0 56.52662172680631
6000.0 56.14909255551544
6150.0 55.87233744844107
6300.0 55.733990654971294
6500.0 55.70267462145898
6700.0 55.670234612461115
6900.0 55.58507774982225
7100.0 55.31761825531839
7300.0 54.94717564979291
7500.0 54.52936731906047
7750.0 54.177860264859135
8000.0 53.956570508458086
8250.0 53.94889280106064
8500.0 54.07091872028147
8750.0 54.2574418716585
9000.0 54.33709091735197
9250.0 54.29749345080825
9500.0 54.143959866191295
9750.0 53.97293102599508
10000.0 53.887807196004545
10300.0 53.855702038626475
10600.0 53.83616518833267
10900.0 53.66156736936475
11200.0 53.211633091732395
11500.0 52.48900945233879
11800.0 51.56903712570062
12200.0 50.538448638261855
12500.0 49.577432653454025
12800.0 48.68777906131032
13200.0 47.984927537522964
13600.0 47.46414629269276
14000.0 47.02576010544185
14500.0 46.54825872552448
15000.0 45.962998145650374
15500.0 45.300593567504365
16000.0 44.7005743307335
16500.0 44.37101696098567
17000.0 44.100727355342244
17500.0 43.621248847687355
18000.0 43.032376718090504
18500.0 42.61056112095949
19000.0 42.372533365631
19500.0 41.858853465640095
