Freq,On Axis,Listening Window,Sound Power,Early Reflections,Early Reflections DI,Sound Power DI,DI offset
20.5078,47.495999999999995,47.12508558703264,51.2188023202677,49.46259987318852,37.66248571384412,35.906283266764945,40
23.4375,51.161199999999994,50.9340015475059,55.56364520136533,53.72280266244529,37.21119888506061,35.37035634614057,40
26.3672,54.60979999999999,54.36451860806095,57.43470240684151,56.026916140940315,38.33760246712063,36.92981620121944,40
29.2969,57.4534,57.28188925600632,60.60318931227219,59.13258105622107,38.14930819978525,36.67869994373413,40
32.2266,60.25009999999999,60.13565841448191,63.38681175474382,61.96254341668474,38.17311499779717,36.74884665973809,40
35.1563,64.13279999999999,64.0605273551857,66.49891732580666,65.3687721549624,38.6917552002233,37.56161002937904,40
38.0859,67.1689,67.12350846912688,69.32097155264385,68.29357280487922,38.82993566424766,37.80253691648302,40
41.0156,70.4512,70.42934150899218,72.29112437151896,71.40406716559775,39.02527434339443,38.13821713747322,40
43.9453,73.0967,73.08327890648609,74.67446532884767,73.9017646411343,39.18151426535178,38.40881357763841,40
46.875,75.5132,75.51457040885151,76.97854556175854,76.26656546722866,39.24800494162285,38.536024847092975,40
49.8047,77.2146,77.22543784606498,78.57363406212762,77.91494249726945,39.31049534879553,38.65180378393735,40
52.7344,78.53270000000002,78.55003364646787,79.76534231709961,79.16823078368871,39.38180286277915,38.78469132936826,40
55.6641,79.4607,79.4829269645793,80.58766354293016,80.04246987950414,39.44045708507517,38.89526342164915,40
58.5938,80.1242,80.14938795106791,81.15063637811618,80.65428332395821,39.4951046271097,38.99875157295173,40
61.5234,80.6572,80.68500612225048,81.60351905185645,81.14598794311995,39.53901817913054,39.08148707039403,40
64.4531,81.1213,81.15096780086053,81.99559113880643,81.57294023679226,39.578027564068265,39.155376662054096,40
67.3828,81.6084,81.63960081166302,82.41846134750529,82.02675899540789,39.61284181625513,39.22113946415773,40
70.3125,82.1361,82.16790761635231,82.88305433536017,82.52189853329378,39.64600908305853,39.28485328099214,40
73.2422,82.63680000000001,82.67006080243422,83.33923169538589,83.00129484447746,39.668765957956765,39.33082910704833,40
76.1719,83.1204,83.15318437965755,83.74951848470714,83.44637394600709,39.70681043365046,39.40366589495041,40
79.1016,83.4685,83.501985740977,84.0684414301891,83.778450594706,39.723535146271004,39.43354431078791,40
82.0313,83.8499,83.88351993466806,84.40020753862548,84.13468038769705,39.74883954697101,39.48331239604258,40
84.9609,84.2276,84.25611327951567,84.62738119717714,84.43188407035217,39.824229209163505,39.62873208233853,40
87.8906,84.5807,84.60183258154142,84.7994545088372,84.68827825674707,39.91355432479435,39.802378072704215,40
90.8203,84.2753,84.31587619182605,84.9047663726309,84.60708411740416,39.70879207442189,39.41110981919515,40
93.75,84.56510000000002,84.60345014304411,85.09621500350053,84.83973309222309,39.76371705082103,39.50723513954358,40
96.6797,84.9959,85.01934351725835,85.16553971497788,85.08160778386257,39.93773573339578,39.85380380228047,40
102.539,84.7514,84.7820794156559,85.05007630138076,84.90741368876635,39.874665726889546,39.732003114275145,40
105.469,84.7282,84.75724105344925,84.99291760251329,84.86569482496917,39.89154622848008,39.76432345093596,40
108.398,84.8228,84.84906395214816,85.03284367715206,84.92791366550681,39.92115028664135,39.8162202749961,40
111.328,84.8986,84.92270515348473,85.05878299797646,84.97607076787027,39.94663438561446,39.86392215550826,40
117.188,84.8319,84.85330031648725,84.93480635068848,84.88173564568862,39.97156467079863,39.918493965798774,40
120.117,84.8304,84.84976892540959,84.90388166034316,84.86564549751262,39.984123427896975,39.94588726506643,40
125.977,84.8574,84.87088103703923,84.83210606834955,84.83636646509449,40.03451457194474,40.03877496868968,40
128.906,84.63850000000001,84.64985489924597,84.53262054903495,84.57534876112872,40.07450613811724,40.11723435021102,40
134.766,84.1812,84.19530798399202,84.17049516478677,84.1628289108189,40.03247907317312,40.02481281920525,40
137.695,84.126,84.14159838521749,84.16799959029545,84.13654065459191,40.00505773062558,39.97359879492204,40
143.555,83.7702,83.78695598824633,83.89573101956371,83.82517141464962,39.96178457359672,39.89122496868262,40
149.414,83.6198,83.6151681835506,83.44435100649031,83.49780057660578,40.11736760694481,40.170817177060286,40
155.273,83.8745,83.86325391350381,83.41976616125515,83.61667420179099,40.246579711712826,40.44348775224866,40
158.203,83.7479,83.73930451872509,83.33828768664128,83.5151499881547,40.22415453057039,40.40101683208381,40
164.063,83.55910000000002,83.5521084536389,83.18022592200491,83.34097565016584,40.21113280347305,40.371882531633986,40
169.922,83.3781,83.36458368927892,83.00348119957395,83.14690160407503,40.21768208520389,40.36110248970496,40
175.781,83.3996,83.38147730818407,82.93746430213072,83.12154487478249,40.25993243340159,40.44401300605335,40
181.641,83.54,83.51351513839161,82.92861915086958,83.19108166328475,40.32243347510686,40.58489598752203,40
190.43,83.5585,83.53145030519538,82.88801951625187,83.19069333897302,40.34075696622236,40.643430788943505,40
196.289,83.7907,83.75469622690817,83.10211793004771,83.41076800073219,40.343928226175976,40.652578296860455,40
202.148,84.0029,83.95802076774778,83.19626579898761,83.56319960120182,40.39482116654597,40.76175496876017,40
210.938,84.39739999999999,84.34602816755097,83.4278701454271,83.87744991274307,40.468578254807895,40.918158022123876,40
216.797,84.5537,84.4995534282257,83.61638009861738,84.04900310719005,40.45055032103565,40.88317332960831,40
225.586,85.1542,85.07899564055259,83.94871942955812,84.51271722944254,40.56627841111005,41.13027621099447,40
234.375,85.64739999999999,85.56971872861111,84.30078756725885,84.94601814218863,40.62370058642247,41.268931161352256,40
240.234,85.7746,85.68967335424307,84.41755745062028,85.067783499822,40.62188985442107,41.27211590362279,40
249.023,86.1429,86.03361022133012,84.38860831754563,85.23500041233265,40.79860980899747,41.64500190378449,40
257.813,86.4226,86.3240730991988,84.7083714726267,85.5597736455019,40.76429945369689,41.615701626572104,40
266.602,86.12509999999999,86.0096178134372,84.29659083551319,85.18822860589923,40.821389207537976,41.71302697792402,40
278.32,86.0147,85.88660486580676,83.95755303724005,84.95894728945414,40.927657576352615,41.92905182856671,40
287.109,85.8526,85.72385540982201,83.67877197144497,84.7753247341913,40.94853067563071,42.045083438377034,40
295.898,85.7241,85.5882400327077,83.31916969155951,84.54028540680153,41.04795462590617,42.26907034114819,40
307.617,85.4884,85.36000922228736,83.13595563323733,84.33350849765515,41.026500724632214,42.22405358905003,40
319.336,85.1519,85.00935617799956,82.52935448055322,83.87590681868728,41.13344935931228,42.48000169744634,40
331.055,84.9792,84.83375741542577,82.38788342425535,83.70391424330609,41.12984317211968,42.445873991170416,40
342.773,84.6787,84.51440004377696,81.96892475189004,83.31708450938112,41.19731553439584,42.545475291886916,40
354.492,84.8007,84.63571922771273,81.61613385284438,83.25441876371781,41.38130046399492,43.01958537486834,40
366.211,84.7556,84.61010807010607,81.47045211508258,83.19846975450518,41.41163831560088,43.139655955023485,40
377.93,84.8098,84.66224088984482,81.62999817691616,83.30008029801307,41.36216059183175,43.032242712928664,40
392.578,84.4011,84.22403654797334,81.08992270805632,82.7613812625981,41.462655285375234,43.13411383991702,40
407.227,84.6814,84.46422724392987,81.01685452161834,82.86261360811609,41.60161363581378,43.44737272231153,40
421.875,85.2487,85.02599064321696,81.66885978798,83.45758697430607,41.56840366891089,43.35713085523696,40
436.523,85.5015,85.28880526795844,82.00635863497081,83.75035865085368,41.53844661710475,43.28244663298763,40
451.172,85.314,85.15341117870874,81.93496188604536,83.67475385048722,41.478657328221516,43.21844929266338,40
465.82,85.416,85.25077695766318,81.96849173053131,83.7602095104896,41.490567447173575,43.282285227131865,40
483.398,85.1266,85.00053528179737,81.86109383219436,83.50373797071038,41.49679731108699,43.13944144960301,40
500.977,85.0172,84.94610220172255,81.9580171395859,83.56144414907914,41.38465805264342,42.98808506213665,40
518.555,84.9652,84.90590397450839,82.12840724342855,83.61242952177375,41.29347445273464,42.777496731079836,40
536.133,84.6116,84.56159984209852,81.79281943586884,83.19525537980964,41.36634446228888,42.76878040622968,40
553.711,84.7483,84.75433184162397,82.02642804648174,83.48269666385067,41.27163517777329,42.727903795142225,40
574.219,84.4508,84.58832275672079,82.52978868338354,83.70351405611385,40.88480870060694,42.05853407333724,40
594.727,81.72080000000001,82.18827716301612,82.79357072193451,82.73356146050875,39.45471570250737,39.39470644108161,40
615.234,82.32539999999999,82.25641564528435,82.50250217603448,82.32438493029629,39.93203071498806,39.753913469249866,40
638.672,84.8737,84.52295387371579,82.25282515392327,83.25854325020626,41.264410623509534,42.270128719792524,40
659.18,85.3147,85.01781107955865,82.29582404907411,83.6978103612279,41.32000071833076,42.72198703048454,40
682.617,85.5983,85.24860117672505,82.14371715949495,83.70868456857241,41.53991660815264,43.10488401723009,40
706.055,85.9594,85.57199984060419,82.1150266218584,83.86078663213111,41.71121320847308,43.45697321874579,40
732.422,85.78349999999999,85.43121476355138,82.03135090315597,83.81026033686854,41.62095442668284,43.39986386039541,40
758.789,86.102,85.68621971049207,81.60909361393112,83.68838520828636,41.997834502205706,44.077126096560946,40
785.156,85.72330000000001,85.33873208532023,81.51219940356037,83.56136695416815,41.77736513115208,43.82653268175986,40
811.523,86.0919,85.68665809024667,81.30370243113913,83.48636684465531,42.20029124559136,44.38295565910754,40
840.82,85.95880000000001,85.57246248067887,81.13449765280183,83.38500977441394,42.18745270626492,44.43796482787704,40
870.117,86.2192,85.827872854552,81.42850326306025,83.69358137626324,42.13429147828876,44.39936959149175,40
902.344,86.1959,85.84553514634028,81.24130318314538,83.57356251044796,42.271972635892325,44.604231963194906,40
931.641,86.2421,85.84341300556619,81.28863491704362,83.68076392899808,42.162649076568115,44.55477808852257,40
966.797,85.7335,85.42280988771668,80.87754124050407,83.41538673650953,42.00742315120715,44.54526864721261,40
999.023,85.3315,85.09386136872538,80.87172167195543,83.40497392827528,41.6888874404501,44.22213969676996,40
1034.18,84.7989,84.485627521068,80.27084524581066,82.8622791649456,41.62334835612239,44.214782275257335,40
1072.27,84.0054,83.83150060118437,79.91780889836403,82.56316820204144,41.268332399142935,43.913691702820344,40
1110.35,83.6763,83.45397126746342,79.5277569202514,82.27968953590776,41.17428173155565,43.92621434721201,40
1148.44,83.5716,83.28910640085819,79.45010932798182,82.20585214120725,41.08325425965094,43.83899707287637,40
1189.45,83.65819999999998,83.37653360394027,79.27947160089548,82.00306535538861,41.37346824855166,44.0970620030448,40
1230.47,83.88969999999999,83.73477220114648,79.41184831013001,82.11659533191965,41.61817686922683,44.32292389101647,40
1274.41,84.0033,83.91006790778918,79.74154896341031,82.30954663555448,41.6005212722347,44.168518944378874,40
1318.36,84.1636,83.75991790307408,79.44383174296335,82.0510519592236,41.70886594385048,44.31608616011073,40
1365.23,82.8592,82.38214417818094,78.17905318313817,81.00697066464993,41.37517351353101,44.20309099504277,40
1415.04,82.7472,82.1104273040673,77.36272631249888,80.39201578577634,41.718411518290964,44.74770099156842,40
1464.84,83.9895,83.48532090592838,78.34623842946426,81.32214278172013,42.163178124208244,45.13908247646411,40
1514.65,86.0871,85.45934022345902,79.66474144444777,82.52763241312904,42.93170781032998,45.79459877901125,40
1570.31,86.558,86.03510216956431,79.94643228258765,82.8361440293759,43.19895814018841,46.08866988697666,40
1623.05,85.7462,85.25859279503263,79.31140268961735,82.19725702354101,43.06133577149161,45.947190105415274,40
1681.64,85.2773,84.81689104010475,78.92311790933253,81.99975459261022,42.81713644749453,45.89377313077222,40
1740.23,85.5441,85.0449578303984,78.92507650171656,81.99627424667491,43.04868358372349,46.11988132868184,40
1801.76,86.1289,85.4844530040049,79.14116948636855,82.26778494345892,43.216668060545985,46.34328351763635,40
1866.21,85.7464,84.93794817179489,78.76259594065682,81.87211473595532,43.065833435839565,46.17535223113806,40
1930.66,85.34919999999998,84.55554279659607,78.31829994589602,81.4878533427702,43.06768945382588,46.237242850700056,40
2000.98,85.9088,84.92130569933943,78.45495462422474,81.67951648883825,43.24178921050118,46.46635107511469,40
2071.29,86.3144,85.55714644860016,78.88180446880104,82.23109054682438,43.32605590177579,46.67534197979913,40
2144.53,84.9286,84.39317832057957,78.08300838549341,81.28021760049897,43.11296072008059,46.31016993508615,40
2217.77,84.15860000000002,83.74640570915311,77.75101123892644,80.89327480814863,42.85313090100448,45.99539447022667,40
2296.88,84.6408,84.14347844650551,78.05433163410332,81.18546722085945,42.95801122564606,46.08914681240219,40
2378.91,84.96310000000001,84.4739804609218,78.58013559910493,81.7903581808274,42.6836222800944,45.89384486181686,40
2460.94,83.6024,83.56997521109821,78.07177231601503,81.16647884577657,42.403496365321644,45.49820289508318,40
2548.83,83.0818,82.9953335210656,77.7895170989433,81.03544933267894,41.95988418838667,45.2058164221223,40
2639.65,83.2556,83.01295837362504,77.46406786315997,80.89113450501623,42.121823868608814,45.54889051046507,40
2733.4,81.94870000000002,81.92557574999263,76.50099403661322,79.9046426929645,42.02093305702813,45.42458171337941,40
2827.15,80.6234,80.6951624405037,75.39382958787677,78.8225939309586,41.87256850954509,45.30133285262693,40
2926.76,80.8763,80.92804882210888,75.63556497963494,79.09968559461846,41.828363227490414,45.29248384247394,40
3032.23,80.9432,81.08947777656472,75.97223098519959,79.49906052433836,41.59041725222636,45.11724679136513,40
3137.7,81.2233,81.41111383992649,76.22171434287297,79.64091039735315,41.77020344257333,45.189399497053515,40
3249.02,81.2914,81.3954856123532,76.2085570948891,79.58899865171794,41.806486960635254,45.186928517464096,40
3363.28,81.354,81.28782834492337,75.98072692424147,79.41557877298771,41.872249571935654,45.3071014206819,40
3483.4,81.70709999999998,81.67787492006278,75.98635177257198,79.43129585977009,42.24657906029269,45.6915231474908,40
3606.45,81.9949,81.83868341564414,75.93979495344705,79.40099461686403,42.437688798780115,45.89888846219709,40
3732.42,81.44159999999998,81.4619092874201,75.3805993689367,78.98323245866574,42.47867682875436,46.0813099184834,40
3864.26,81.7265,81.68747377690842,75.21402670974535,78.70127049337876,42.98620328352966,46.473447067163065,40
3999.02,81.9782,81.6911479019981,74.93064196850166,78.43375804184073,43.25738986015736,46.76050593349643,40
4139.65,81.9491,81.4335791131672,74.78878174365934,78.31818171790698,43.11539739526022,46.644797369507856,40
4286.13,82.3521,81.57688471657606,74.49034360125232,78.19743561457011,43.37944910200595,47.08654111532374,40
4438.48,81.5787,80.89373470878608,73.82540910753899,77.38200386625645,43.51173084252963,47.068325601247096,40
4593.75,80.6298,80.12398926569584,73.18177911098775,76.72076304239889,43.403226223296954,46.94221015470809,40
4757.81,79.8907,79.32511858456917,72.85764305696222,76.25353573777018,43.07158284679899,46.46747552760695,40
4924.8,79.9632,79.23175229684055,72.86198822398659,76.21930914367117,43.012443153169386,46.36976407285397,40
5097.66,80.1819,79.8064611781747,73.15698381747212,76.72158008707616,43.08488109109854,46.649477360702576,40
5279.3,81.1884,80.75736854774534,74.15704883922731,78.0220358383899,42.73533270935545,46.60031970851803,40
5463.87,81.776,81.38107774844381,74.55348188601796,78.4717099107267,42.90936783771711,46.82759586242585,40
5657.23,81.1689,80.84072480844465,74.1707565939577,77.94864282143402,42.89208198701063,46.66996821448694,40
5856.45,81.5046,81.03086161962149,74.5307209122747,78.13030794579186,42.900553673829634,46.50014070734679,40
6061.52,82.6436,81.43531054471222,74.67077226944807,78.33560265904376,43.099707885668465,46.76453827526416,40
6275.39,82.968,81.71710035320595,74.74345812982322,78.43556949999699,43.28153085320896,46.973642223382726,40
6498.05,82.878,81.75351520149088,74.71951328141161,78.61053039788705,43.14298480360384,47.03400192007928,40
6726.56,82.5431,81.67657725244634,74.57713303564991,78.53351231242682,43.143064940019514,47.09944421679643,40
6963.87,82.2608,81.56509446316188,74.53841057734017,78.4989531494757,43.06614131368619,47.02668388582171,40
7209.96,81.87480000000001,81.32805147479172,74.32229761879931,78.3424833305124,42.98556814427933,47.00575385599241,40
7464.84,81.5241,81.16313743654511,74.28457667458378,78.21333766812621,42.9497997684189,46.87856076196134,40
7728.52,80.7668,80.89198796621028,74.16128622257344,78.06552544964619,42.82646251656409,46.73070174363684,40
8000.98,80.4407,80.84889418339709,74.05984382581056,77.96535730187266,42.883536881524435,46.78905035758653,40
8282.23,80.40159999999999,80.88841774684855,74.11323195178043,77.96091856469894,42.9274991821496,46.77518579506811,40
8575.2,80.0172,80.55187209742878,74.12588837857648,77.85915543654755,42.69271666088123,46.42598371885231,40
8876.95,78.2487,79.44550289768,74.07115617481851,77.53977867042036,41.90572422725964,45.37434672286149,40
9190.43,78.01110000000001,79.02985083500211,74.07919961076023,77.46692503028439,41.56292580471772,44.95065122424188,40
9512.7,79.7391,79.87298416395454,74.1233619652585,77.78062363922591,42.09236052472863,45.749622198696045,40
9849.61,81.6975,81.14891860709784,74.38055720761443,78.3782715517617,42.77064705533614,46.76836139948341,40
10195.3,83.2468,82.24342369642042,74.90067932426042,78.95271069584896,43.29071300057146,47.34274437216,40
10555.7,85.75619999999999,84.3896034423376,75.83684734899522,80.19123755477588,44.19836588756172,48.55275609334238,40
10927.7,86.50609999999999,85.08002297603947,75.85145735824835,80.50444779469197,44.5755751813475,49.22856561779112,40
11314.5,87.17880000000001,85.55270145627932,75.78697969942405,80.63031145308683,44.92239000319249,49.76572175685527,40
11712.9,86.8556,85.30271119345241,75.50494722500184,80.31918409167763,44.98352710177478,49.79776396845057,40
12126.0,86.9569,85.33218675637568,75.36121681419404,80.23091835576155,45.10126840061413,49.97096994218164,40
12553.7,87.0126,85.41404961987683,75.31138426146411,80.27361125225029,45.140438367626544,50.10266535841272,40
12996.1,86.8492,85.34250613325183,75.02349940689587,80.07281514550904,45.26969098774279,50.319006726355965,40
13453.1,86.6258,85.14080930791489,74.68168136480949,79.76173927688443,45.379070031030466,50.4591279431054,40
13927.7,86.4789,84.89024397434024,74.16459091969669,79.32586606040856,45.56437791393168,50.725653054643544,40
14419.9,86.6876,84.8334397827852,73.71929748312355,79.04558053042952,45.78785925235569,51.11414229966165,40
14929.7,87.463,85.27317878213682,73.62774787039842,79.17179255473842,46.10138622739841,51.6454309117384,40
15454.1,87.9913,85.60032796618727,73.63375255551591,79.35014566122844,46.25018230495883,51.96657541067135,40
15999.0,87.2069,84.92380424583315,73.00899440445933,78.71755144466188,46.206252801171274,51.914809841373824,40
16564.5,85.0805,83.33413715407605,71.7904050703734,77.32668620319353,46.007450950882514,51.54373208370265,40
17147.5,82.1888,81.11000110613953,69.92567442560612,75.17554483004598,45.934456276093556,51.18432668053342,40
17753.9,83.4307,81.1377555710527,69.30477842504392,74.63857850048808,46.49917707056461,51.83297714600877,40
18377.9,83.86220000000002,81.03896902249203,68.82750541856318,74.43068964460623,46.60827937788579,52.21146360392885,40
19028.3,83.5132,80.32837447664623,68.07015429234688,73.84415008299169,46.48422439365454,52.25822018429935,40
