Freq "Rear Wall Bounce"
22.4 56.96114827302088
23.0 57.99272300743198
23.6 58.93964498256631
24.0 60.05016240789175
25.0 61.070883183073136
25.8 62.27088318307315
26.5 63.37598854230299
27.2 64.65016240789174
28.0 65.79706538564552
29.0 67.08641842586518
30.0 68.29706538564552
30.7 69.575988542303
31.5 70.79706538564552
32.5 72.02861584395868
33.5 73.28641842586516
34.5 74.48641842586518
35.5 75.68641842586517
36.5 76.88641842586517
37.5 77.99706538564551
38.7 79.149678578861
40.0 80.23891466684036
41.2 81.29706538564551
42.5 82.36041587866019
43.7 83.3396449825663
45.0 84.27598854230298
46.2 85.1973074364634
47.5 86.06065442440851
48.7 86.81901511236833
50.0 87.55016240789175
51.5 88.20310719688305
53.0 88.81396011270049
54.5 89.31901511236832
56.0 89.80383242764641
58.0 90.18326863427433
60.0 90.45710827087642
61.5 90.66807660202116
63.0 90.79960118743493
65.0 90.85807447736431
67.0 90.86904037165397
69.0 90.84314232878037
71.0 90.78144856590049
73.0 90.65414594368828
75.0 90.59814288701087
77.5 90.54076793873963
80.0 90.4777680417981
82.5 90.45322921335712
85.0 90.44364500793328
87.5 90.44364500793328
90.0 90.45022472258191
92.5 90.46387707117594
95.0 90.41803790722435
97.5 90.42962612324493
100.0 90.42042380316057
103.0 90.42259392473521
106.0 90.4180926495014
109.0 90.44124407182059
112.0 90.41602325996416
115.0 90.36073212360716
118.0 90.17247405319412
122.0 89.98391811458242
125.0 89.77523966886419
128.0 89.5618779114439
132.0 89.39481902929082
136.0 89.22646981509256
140.0 89.00324546192144
145.0 88.49902600724131
150.0 87.92594854470433
155.0 87.39285595975012
160.0 86.72887077754217
165.0 86.06672240765576
170.0 85.40683032940557
175.0 84.89568330232034
180.0 84.51269734496205
185.0 84.25083031798736
190.0 83.96012205405533
195.0 83.84911497947112
200.0 83.90943502131039
206.0 83.92575447227615
212.0 83.74648804286944
218.0 83.41112673703532
224.0 82.98059671661727
230.0 82.55088885711191
236.0 82.21812004011356
240.0 82.10042359234343
250.0 81.9565703467955
258.0 81.57589169536962
265.0 81.26795233045202
272.0 81.52842848429646
280.0 82.24271674248591
290.0 82.8392886204337
300.0 83.02269538035087
307.0 83.02883406908778
315.0 83.19947612958156
325.0 83.09175420152806
335.0 82.23558523726588
345.0 80.82985218225987
355.0 79.08328922954095
365.0 77.51673578414157
375.0 77.11828700401017
387.0 77.79503370463004
400.0 78.39134755465983
412.0 78.2357446301798
425.0 77.23279866007917
437.0 75.8338470464751
450.0 74.03243429360515
462.0 71.86981785073273
475.0 71.13887504905551
487.0 71.24099745899706
500.0 71.39921896320489
515.0 72.27447446476268
530.0 73.33369956984117
545.0 73.92016508167579
560.0 73.57508680357873
580.0 73.28535654206274
600.0 74.81134998190264
615.0 76.60314280876369
630.0 77.4277688136836
650.0 77.5199197373446
670.0 77.91726745220103
690.0 79.47163285281123
710.0 80.60060237899509
730.0 81.28722862190065
750.0 81.72041331543738
775.0 83.83935592283973
800.0 84.7691555301323
825.0 83.16275679147049
850.0 81.65218140130631
875.0 80.57739842681028
900.0 82.22064800675987
925.0 83.64956585174724
950.0 82.85797804929796
975.0 83.04980849871522
1000.0 83.65977984550943
1030.0 82.92162134918192
1060.0 81.93904859714439
1090.0 80.64518552818922
1120.0 80.05314024873965
1150.0 79.75017236164187
1180.0 81.27476466638765
1220.0 82.50261277862081
1250.0 83.04313573759569
1280.0 83.75196558228643
1320.0 84.03996771934135
1360.0 84.70434987002366
1400.0 85.53045802302692
1450.0 85.52191610244813
1500.0 84.87179361213437
1550.0 84.63634748594674
1600.0 84.65550627102547
1650.0 84.60809171297636
1700.0 84.85176408207546
1750.0 84.76816463455478
1800.0 84.46247242010779
1850.0 84.11325246005012
1900.0 84.45358345802728
1950.0 84.67273933792434
2000.0 83.9934340437294
2060.0 84.17951939082391
2120.0 84.99080622746959
2180.0 83.98717042364933
2240.0 85.17493394972847
2300.0 85.89360173381722
2360.0 86.24313054964442
2400.0 85.88013062928157
2500.0 85.84462093285782
2580.0 85.47694304226384
2650.0 85.1906587527556
2720.0 85.41317698399858
2800.0 85.83975451400886
2900.0 83.88331535880235
3000.0 83.01529640364757
3070.0 83.07067492614186
3150.0 83.18325505620294
3250.0 82.62289614690101
3350.0 82.65450551705065
3450.0 82.6279013916647
3550.0 82.57664521299169
3650.0 81.77038792734291
3750.0 80.55905890541823
3870.0 79.57418397763699
4000.0 79.09252310748975
4120.0 78.60732053840688
4250.0 78.54894603023388
4370.0 78.72992641617047
4500.0 77.75903617367682
4620.0 77.24188726007921
4750.0 76.77755328584405
4870.0 77.1955882095854
5000.0 77.63867023212073
5150.0 78.5821218077813
5300.0 79.40662847745511
5450.0 78.73313350196298
5600.0 80.51774544979551
5800.0 79.59276141721625
6000.0 78.06609534864089
6150.0 78.26947363708804
6300.0 77.14807466881211
6500.0 76.36536109322884
6700.0 76.15252264072346
6900.0 74.91961022540319
7100.0 74.15805340721076
7300.0 71.46610729705198
7500.0 69.63627969122344
7750.0 67.31953064185984
8000.0 66.87129872125172
8250.0 65.88927804665329
8500.0 65.11749705536063
8750.0 65.45211724660525
9000.0 66.9473856691793
9250.0 65.74080184422841
9500.0 60.554530408793056
9750.0 60.27006442178397
10000.0 62.84457121475833
10300.0 61.88581534654975
10600.0 63.203594082279025
10900.0 68.33927678514834
11200.0 71.85382973957519
11500.0 72.90649125038513
11800.0 75.70804902965442
12200.0 75.81972462570201
12500.0 74.69250009320967
12800.0 74.34157725598584
13200.0 71.70465052658194
13600.0 69.20528783120898
14000.0 66.64120956401132
14500.0 69.13363335518711
15000.0 69.60806230961681
15500.0 67.05330084264673
16000.0 62.801766634342485
16500.0 63.363205937543
17000.0 63.78372882652312
17500.0 67.03989709906851
18000.0 60.03925615019537
18500.0 53.68734144912881
19000.0 50.20066822729757
19500.0 37.20158027713401
