Freq "Side Wall Bounce"
20.0 40.09030602362384
20.2909 40.520121859012505
20.586 40.70078698363545
20.8855 41.10053134886937
21.1893 41.72824711260458
21.4975 42.479582552293635
21.8102 43.358857197463976
22.1274 44.0333480874028
22.4492 44.47432444201803
22.7758 44.788012800540145
23.1071 44.902947301977605
23.4432 45.02795184833215
23.7841 45.451684262866564
24.1301 46.101524968096044
24.4811 46.87374496778176
24.8372 47.44063535382489
25.1984 47.835321130698304
25.5649 48.090914696229646
25.9368 48.216461832156284
26.3141 48.41817133853098
26.6968 48.73527178483354
27.0851 49.04349530655213
27.4791 49.24648755303278
27.8788 49.43638258063103
28.2843 49.55902527877598
28.6957 49.759691418271274
29.1131 50.1615937292749
29.5365 50.62783358384672
29.9661 50.97629425773829
30.402 51.29539476960747
30.8442 51.5026146906186
31.2929 51.7483440781983
31.748 52.03997441655366
32.2098 52.3178195106112
32.6783 52.551419123055865
33.1536 52.815733734784516
33.6359 53.14342645405188
34.1251 53.39915242582808
34.6215 53.82340869733474
35.125 54.15061172851364
35.6359 54.407569380929175
36.1543 54.844672215079726
36.6802 55.15925773714571
37.2137 55.54183332110276
37.755 55.91884548161664
38.3041 56.20059310469509
38.8613 56.565852211874045
39.4265 56.90027678902723
40.0 57.245038053125285
40.5818 57.568514486448066
41.1721 57.979044948137926
41.771 58.34678606640273
42.3785 58.7001632531192
42.9949 58.985024101272046
43.6203 59.29196847914636
44.2548 59.77603702473209
44.8985 60.12535729277465
45.5515 60.57848063553476
46.2141 61.00430129945855
46.8863 61.35077372628976
47.5683 61.71669126172969
48.2602 62.20649199314977
48.9621 62.57804686415068
49.6743 62.980955041273006
50.3968 63.45342401971985
51.1299 63.87232574984105
51.8736 64.3551995928609
52.6281 64.85766927323544
53.3936 65.24224074161924
54.1702 65.62759298088238
54.9581 66.14946113639382
55.7575 66.62448251764008
56.5685 66.99948983526777
57.3914 67.45848680194429
58.2261 67.95136380736916
59.073 68.42530631162035
59.9323 68.82429288759062
60.804 69.29473883823614
61.6884 69.7314708457538
62.5857 70.30787424769439
63.496 70.67487672142124
64.4196 71.17487672142126
65.3566 71.67487672142126
66.3073 72.07687672142124
67.2717 72.59970955471874
68.2502 72.99326779584521
69.2429 73.5149177851539
70.2501 73.92802739926765
71.2719 74.41361287682426
72.3086 74.81261287682425
73.3603 75.35261287682425
74.4274 75.72831429560632
75.5099 76.13618261443315
76.6083 76.54740793708051
77.7226 76.94662235829861
78.8531 77.31114999644258
80.0 77.65156213181999
81.1636 77.95916267328518
82.3442 78.33741311696478
83.5419 78.66287274025649
84.757 78.95800740389282
85.9899 79.23842352177469
87.2406 79.52940269912224
88.5096 79.7379557479384
89.797 80.01173937592608
91.1031 80.24197881557022
92.4282 80.543721896915
93.7726 80.76010790497062
95.1366 80.96210016057466
96.5204 81.13413043378185
97.9243 81.24471775899063
99.3486 81.43241983060997
100.794 81.574484279789
102.26 81.6059632268113
103.747 81.65881571154921
105.256 81.8703986488211
106.787 82.00305961969894
108.34 82.12319464807194
109.916 82.3209632268113
111.515 82.46122768464863
113.137 82.57839389249708
114.783 82.7108303927346
116.452 82.78296322681129
118.146 82.91986378712741
119.865 83.08569580360636
121.608 83.08703702473207
123.377 83.18978921455357
125.171 83.27912480032262
126.992 83.38703702473207
128.839 83.52878908065142
130.713 83.6547890806514
132.615 83.81003702473208
134.543 83.91003702473208
136.5 83.97128109358846
138.486 84.20688973898176
140.5 84.29896322681128
142.544 84.26882976805312
144.617 84.3523032043981
146.721 84.34714401258364
148.855 84.38532039294509
151.02 84.50354272268919
153.217 84.55325180096675
155.445 84.63256427221438
157.706 84.67925282651387
160.0 84.62823730636137
162.327 84.59335772826788
164.688 84.64433879682595
167.084 84.72369216741956
169.514 84.76870240912285
171.98 84.72076076347246
174.481 84.80097568072372
177.019 84.86389480867906
179.594 84.83139654666256
182.206 84.90398710490119
184.856 84.96414503506715
187.545 85.05831464873043
190.273 85.1327279698552
193.041 85.22220828556733
195.849 85.31890440911758
198.697 85.41475739477065
201.587 85.49144802127664
204.52 85.50035834526578
207.494 85.5766461941274
210.512 85.66979718557604
213.574 85.7468224572791
216.681 85.82066916702621
219.833 85.88588786098968
223.03 85.86651367260153
226.274 85.81200612644055
229.565 85.77092146881182
232.905 85.72108908956281
236.292 85.60464033041762
239.729 85.61196581363694
243.216 85.54235879628004
246.754 85.50835698837011
250.343 85.41252977072968
253.984 85.36604695889909
257.678 85.31642764926528
261.426 85.26385384751222
265.229 85.28324246584837
269.087 85.30159017044915
273.001 85.31519164320794
276.972 85.30924937666519
281.0 85.3327712015145
285.088 85.34555585326977
289.234 85.36632495716256
293.441 85.39777620987964
297.709 85.43602211296711
302.04 85.41840451891376
306.433 85.40520016766963
310.89 85.36518951164115
315.412 85.30320016766964
320.0 85.29891947513329
324.655 85.23140432652187
329.377 85.14568149965262
334.168 85.04639791067981
339.028 84.95701961414632
343.959 84.87362428621819
348.962 84.86833451327533
354.038 84.8532922847862
359.188 84.8203709626843
364.412 84.82319046796934
369.713 84.83709450993345
375.09 84.88350200702052
380.546 84.979121252624
386.081 85.05960636661484
391.697 85.13276664558924
397.394 85.15860636661483
403.175 85.15860636661483
409.039 85.15860636661483
414.989 85.17793285219882
421.025 85.16240792297023
427.149 85.11799743632011
433.362 85.06701880358719
439.665 85.03499695655495
446.06 85.05049593738556
452.548 85.08218684050757
459.131 85.10595107987906
465.809 85.14959747082752
472.584 85.16572347536392
479.458 85.24872125774786
486.432 85.32127388664156
493.507 85.30527541704254
500.686 85.26813005405154
507.968 85.21483479468309
515.357 85.16085169082311
522.853 85.13811728941704
530.458 85.08840658927379
538.174 84.98237169182853
546.002 84.91523645024861
553.943 84.85034746099778
562.001 84.77157382405426
570.175 84.67593543522108
578.469 84.56758259472723
586.883 84.46365142269181
595.419 84.38600842255329
604.08 84.35569295065146
612.866 84.39617010290536
621.78 84.4291247442824
630.824 84.48904359526605
640.0 84.49735301116607
649.309 84.43614959831076
658.753 84.34334211807176
668.335 84.23006488311424
678.056 84.1242377880854
687.919 84.06332776242685
697.925 84.06462645427432
708.077 84.069600938815
718.376 84.04205869792335
728.825 83.87657585786798
739.426 83.58219789845032
750.181 83.2421260859231
761.093 82.89888955850518
772.163 82.72728733446174
783.394 82.78176214282368
794.789 82.97869764305015
806.349 83.18454487805688
818.078 83.30928652896287
829.977 83.29427854250825
842.05 83.16910560196939
854.298 83.00077126134539
866.724 82.83771460449597
879.33 82.6988363534731
892.12 82.55671686425939
905.097 82.38700757954469
918.262 82.27817587550246
931.618 82.28864367402544
945.169 82.42472208537978
958.917 82.58037827219995
972.864 82.67759238664478
987.015 82.67580796041042
1001.37 82.55653620711914
1015.94 82.452421649394
1030.71 82.41415844460403
1045.71 82.43616989559847
1060.92 82.4443411254831
1076.35 82.36229610130039
1092.0 82.22779930878418
1107.89 82.07589549922216
1124.0 81.93737231352124
1140.35 81.77794373178864
1156.94 81.61536666078682
1173.77 81.52657309828273
1190.84 81.54042147166984
1208.16 81.57612292410556
1225.73 81.60105640855156
1243.56 81.61838098434868
1261.65 81.69534153035822
1280.0 81.80506627290322
1298.62 81.91310389127
1317.51 82.00094059087628
1336.67 82.04832624390087
1356.11 82.04648683384195
1375.84 81.84908002017039
1395.85 81.4753116533577
1416.15 81.0866395761652
1436.75 80.77900151309892
1457.65 80.4562462227215
1478.85 80.05353426197338
1500.36 79.72912723698666
1522.19 79.65185275971034
1544.33 79.78114707082409
1566.79 79.96147769718057
1589.58 80.18073651424025
1612.7 80.35483775199117
1636.16 80.43706792188787
1659.95 80.5288732188867
1684.1 80.74855974670096
1708.6 80.98402919863268
1733.45 81.07531952828666
1758.66 81.09232759741371
1784.24 81.06764004590369
1810.19 80.9273184708378
1836.52 80.69108212348489
1863.24 80.46623103394931
1890.34 80.34721508407573
1917.83 80.44431601611385
1945.73 80.54092469029848
1974.03 80.43094469054647
2002.74 80.33556403612613
2031.87 80.33004021950836
2061.43 80.26815096188535
2091.41 80.21224585932936
2121.83 80.07982735162109
2152.69 79.9895875762171
2184.01 80.06354792508348
2215.77 80.12954483925229
2248.0 80.21926145262691
2280.7 80.34734349703287
2313.87 80.41505020884794
2347.53 80.38566594968317
2381.68 80.40095289931384
2416.32 80.39274628459549
2451.46 80.42691537196391
2487.12 80.43724460155985
2523.3 80.32319840427037
2560.0 80.18911181607415
2597.24 80.15671267296366
2635.01 80.09543318764622
2673.34 80.09017095589715
2712.23 80.06546921532411
2751.68 80.10662307157492
2791.7 80.01281402528795
2832.31 79.80986379690845
2873.5 79.70821374702761
2915.3 79.60424314820332
2957.7 79.56300186630695
3000.72 79.45959172787882
3044.37 79.2143317560727
3088.65 78.9267613156497
3133.58 78.81315157095577
3179.16 78.76387747802471
3225.4 78.58506435390602
3272.31 78.21209266046894
3319.91 77.92962753926315
3368.2 77.81895717304083
3417.19 77.73310298352737
3466.89 77.5613146459365
3517.32 77.3532646842655
3568.48 77.306749616453
3620.39 77.35790880845964
3673.05 77.30879038960555
3726.47 77.03313129106378
3780.67 76.87397871425007
3835.67 76.96197101457619
3891.46 77.02413894446518
3948.06 76.89572316799587
4005.49 76.86354827759911
4063.75 77.00962526539179
4122.86 77.11561842203282
4182.82 77.16556568595274
4243.66 77.3142565033495
4305.39 77.41881933304495
4368.01 77.41544742385611
4431.55 77.48487141359028
4496.01 77.57632721809682
4561.4 77.65023755360993
4627.75 77.64336891777248
4695.06 77.53895503107125
4763.35 77.28455825848154
4832.64 77.0675102969322
4902.93 76.90673663027421
4974.24 76.62981905342903
5046.6 76.45281732579245
5120.0 76.31995200424429
5194.47 76.08703491453892
5270.03 76.01703607595299
5346.68 75.91733293284331
5424.45 75.86683462377746
5503.35 75.91929710358933
5583.4 76.17683952593626
5664.61 76.31026315610735
5747.01 76.37056417384203
5830.6 76.4413924187798
5915.41 76.27666065057065
6001.45 76.18210698849293
6088.74 75.90501808603422
6177.3 75.78707049340302
6267.15 75.73326851694037
6358.31 75.56410433927942
6450.8 75.41573341224712
6544.62 75.26802190582458
6639.82 75.13873303730432
6736.4 75.12187691997786
6834.38 75.0150129876263
6933.79 75.01388130191317
7034.64 75.06085907340619
7136.96 75.20066641530981
7240.77 75.39097838077797
7346.09 75.64774362615265
7452.94 75.83588413618648
7561.35 75.93332409063258
7671.33 75.84182389570142
7782.91 75.72975968888197
7896.12 75.42224449626747
8010.97 75.23145823663414
8127.49 75.0359841306677
8245.71 74.91989746764489
8365.65 74.63759885002878
8487.33 74.3738966567599
8610.78 74.03422496322403
8736.03 73.87408584429126
8863.09 74.15153869849723
8992.01 74.68592942194273
9122.8 74.78003872387784
9255.5 74.60706296065487
9390.12 74.26895615083697
9526.7 74.07164939058329
9665.27 73.99432276605603
9805.86 74.02942289597212
9948.49 74.00405215170434
10093.2 73.93210402123852
10240.0 73.84433545073927
10388.9 73.6979750779
10540.1 73.38752398541497
10693.4 72.9786288198361
10848.9 72.6459947242107
11006.7 72.36552125394049
11166.8 71.92902055061505
11329.2 71.32209155264042
11494.0 70.2680357972614
11661.2 69.60418619691204
11830.8 72.52931316852755
12002.9 73.89747104553888
12177.5 73.02545562669495
12354.6 72.0792631005643
12534.3 71.671767732243
12716.6 71.53329720854722
12901.6 71.24473604088953
13089.2 70.98831159648685
13279.6 71.1322595817428
13472.8 71.33911220751673
13668.8 71.35480990218934
13867.6 71.12516111903284
14069.3 70.72369146792634
14273.9 71.47369473811709
14481.5 72.5960045855013
14692.2 72.10420473916002
14905.9 71.2314818167417
15122.7 70.51715503747981
15342.7 70.61796506049235
15565.8 70.27966334007083
15792.2 69.39042941342964
16021.9 69.42836393745281
16255.0 70.08351018292521
16491.4 69.7191027590825
16731.3 67.73497508448759
16974.7 67.80544153775196
17221.6 68.97246168755586
17472.1 68.17904915035496
17726.2 66.92670970963039
17984.0 66.61240787024641
18245.6 66.37840189800879
18511.0 65.60525189605708
18780.2 67.35526368883944
19053.4 68.91382791186032
19330.5 71.17160633025486
19611.7 72.66271671748072
19897.0 72.84721208677477
