Freq,Floor Bounce,Ceiling Bounce,Front Wall Bounce,Side Wall Bounce,Rear Wall Bounce,Total Early Reflection
22.4,44.000000000000014,46.000000000000014,47.03530572057075,46.63700628594718,47.129412775741045,46.298009522202946
23.0,44.26692185116049,45.8,46.87559544277853,46.45518024575027,46.79755692209967,46.13798142986086
23.6,44.39999999999999,45.8,46.79443404085394,46.37458218091594,46.61921446389438,46.078222078190336
24.0,44.666921851160524,45.89999999999999,46.854188021232815,46.41116570956389,46.619499655476105,46.156031030497886
25.0,45.2,46.3,47.24256853617892,46.768863098501086,46.90427956566556,46.53822015046164
25.8,46.500000000000014,47.39999999999999,48.176267916844026,47.66382830547842,47.516882053086235,47.484684538815046
26.5,48.5669218511605,49.2,49.727554924568935,49.154435650756014,48.535972059992034,49.05991591009787
27.2,51.10000000000001,51.60000000000001,51.80802887474793,51.192072870684925,49.97669122953026,51.17970336274122
28.0,53.76692185116049,54.26692185116049,54.105882294447795,53.45718617685985,51.712106935204034,53.55092015513658
29.0,56.2,56.7,56.36762474317008,55.69174435603075,53.5875408598515,55.83683485625822
30.0,58.36692185116051,58.8,58.39337327115324,57.71026774879404,55.35360590881585,57.88058768282825
30.7,60.2,60.63358982687997,60.23371491468454,59.530050677702135,57.0440206929358,59.697157559235606
31.5,61.89999999999999,62.33358982687996,61.932423594909395,61.25177651680046,58.65010245688639,61.390965201055835
32.5,63.60000000000001,63.96692185116051,63.61772065663227,62.919450281114294,60.257927638476744,63.05511081543803
33.5,65.26692185116049,65.5669218511605,65.30262353598299,64.60146183400725,61.87015596757932,64.70694572139179
34.5,67.0669218511605,67.23358982687998,67.00262353598302,66.31067486808419,63.567054747754995,66.4233137518852
35.5,68.86692185116051,68.9669218511605,68.8160666492014,68.0792225903498,65.34515355916288,68.20202216196556
36.5,70.66692185116051,70.70076749445562,70.5736415936905,69.85172278460482,67.1216864853608,69.9687553426954
37.5,72.36692185116051,72.33435140868504,72.22979499755905,71.54280446246709,68.82784169271906,71.64194643481193
38.7,74.00000000000001,73.90076749445562,73.81541858004539,73.11115118140853,70.42117661780799,73.23178590473124
40.0,75.46692185116049,75.36692185116051,75.3154185800454,74.5935393399997,71.92484470970808,74.71297905185125
41.2,76.89999999999999,76.76845083805432,76.74379833967025,75.9935393399997,73.34046925286968,76.12939272942027
42.5,78.2669218511605,78.10076749445562,78.07232492078934,77.32545043733684,74.66018315462327,77.46772732509162
43.7,79.46692185116049,79.26845083805432,79.27232492078934,78.53549572063675,75.85189470958952,78.66135175700948
45.0,80.56692185116049,80.33435140868504,80.3291339249429,79.61393403175833,76.93240814384377,79.73736436740337
46.2,81.5669218511605,81.36845083805433,81.31508314243885,80.59673492635592,77.92782117864904,80.73818728210209
47.5,82.4669218511605,82.26845083805433,82.25873795327733,81.49673492635591,78.84110924155924,81.6495874285109
48.7,83.2669218511605,83.10228461396021,83.10065786069426,82.34036591722561,79.70278080996044,82.48196658103801
50.0,84.0669218511605,83.93435140868503,83.92946066855592,83.16783457914487,80.54262160242243,83.30554800897785
51.5,84.86692185116051,84.66845083805434,84.67297191737701,83.9201891811219,81.32331977038359,84.06607194261561
53.0,85.56692185116049,85.36845083805433,85.38782687450471,84.62936261475937,82.06003624822766,84.77518227171782
54.5,86.26692185116049,86.06845083805432,86.10229476693691,85.32018918112188,82.73987600291325,85.47459471299887
56.0,86.89999999999999,86.73663575667187,86.71671462166476,85.9729064932588,83.41700849556624,86.11995277522544
58.0,87.5669218511605,87.36845083805433,87.37461192973441,86.58218023879287,84.06787032930288,86.76389258195653
60.0,88.1,87.93663575667186,87.93176292232134,87.1729064932588,84.63887547573289,87.32576083534012
61.5,88.6669218511605,88.43663575667186,88.4610247430264,87.6821802387929,85.19556025300862,87.8564630117622
63.0,89.0669218511605,88.93663575667186,88.91671462166477,88.16382467186482,85.6645957907152,88.31544497367524
65.0,89.5669218511605,89.33663575667187,89.37461192973441,88.5729064932588,86.13630150071721,88.76224369381944
67.0,89.9669218511605,89.73663575667186,89.7610247430264,88.97290649325879,86.55018127845408,89.16063819434295
69.0,90.26692185116049,90.13663575667186,90.13176292232136,89.36382467186482,86.92344739437985,89.5253327598139
71.0,90.6,90.43663575667186,90.4610247430264,89.66382467186482,87.26649927961897,89.844672385946
73.0,90.8669218511605,90.70531806766472,90.71835363941749,89.92736890010202,87.54548966565925,90.11047622400687
75.0,91.1669218511605,90.93663575667186,90.9755820490264,90.1851275215656,87.8040300013047,90.37225638632407
77.5,91.4,91.13663575667186,91.18976100351553,90.41658410664681,88.05186550996412,90.59480903650679
80.0,91.59999999999998,91.33663575667187,91.39077330092339,90.61658410664683,88.25186550996412,90.79504124191081
82.5,91.7669218511605,91.53663575667186,91.5907733009234,90.79837367819157,88.40318102497362,90.97819687869438
85.0,91.96692185116049,91.70531806766472,91.73500585061618,90.93855035018271,88.55277218075946,91.14124097898792
87.5,92.0669218511605,91.80531806766471,91.8623075878047,91.04928079995656,88.66795542249304,91.25123640044829
90.0,92.16692185116051,91.9053180676647,91.91964914887527,91.12960490921013,88.72776645169267,91.3332650930707
92.5,92.2,91.9053180676647,92.00556759676957,91.19114566453631,88.78239712482672,91.37879791025115
95.0,92.26692185116049,91.97150800786939,92.03500585061617,91.21999920299363,88.79502373255221,91.42368027077073
97.5,92.26692185116049,92.0053180676647,92.03500585061617,91.22960490921015,88.8086008917633,91.4346872634909
100.0,92.26692185116049,91.9053180676647,92.03500585061617,91.20359861416314,88.78355462216317,91.40435893238224
103.0,92.2,91.9053180676647,91.99238461119319,91.18099715289159,88.75029464353996,91.37028843013559
106.0,92.16692185116051,91.80531806766471,91.93500585061618,91.12534883439729,88.69262407126354,91.30951290324397
109.0,92.13358982687998,91.77449351030438,91.8642768094572,91.06128908425897,88.6054708336744,91.25637142594546
112.0,92.03358982687998,91.67449351030439,91.79238461119319,90.97172087800014,88.51825169315599,91.16623487151018
115.0,91.93358982687997,91.5404416794549,91.67916148686331,90.86128908425896,88.4054708336744,91.05215615714032
118.0,91.8,91.40531806766471,91.55033944827476,90.72534883439728,88.27170631003473,90.91885664044959
122.0,91.63358982687997,91.2744935103044,91.37916148686331,90.58422957064651,88.12137255663673,90.76591970345714
125.0,91.4669218511605,91.07449351030438,91.2071734284422,90.38422957064653,87.92379990944994,90.58080316842525
128.0,91.26692185116049,90.87449351030439,90.99399532385975,90.19347919453628,87.718251693156,90.37893133601293
132.0,91.03358982687998,90.6098662867233,90.78015316127592,89.94847944683612,87.48748270644477,90.14115265859594
136.0,90.8,90.37449351030438,90.5376333724868,89.71528002652978,87.18939286747671,89.89821308666134
140.0,90.53358982687996,90.07449351030438,90.25226916424818,89.42795210441308,86.88877705781253,89.61225533921923
145.0,90.23358982687996,89.74415774934852,89.9671949819496,89.14847944683612,86.54458216994965,89.30824050148274
150.0,89.93358982687998,89.4098662867233,89.6671949819496,88.80315954010581,86.18937018169046,88.9861337476584
155.0,89.5669218511605,89.04415774934853,89.3245475101978,88.4828734710898,85.80957262422426,88.63285630919488
160.0,89.23358982687998,88.70986628672328,89.00947414388976,88.15078238109383,85.43809541998017,88.29987943635757
165.0,88.90076749445562,88.3098662867233,88.6671949819496,87.79349509836206,85.07143276626574,87.94190496646556
170.0,88.5669218511605,87.97977745790568,88.38015316127593,87.48424550838037,84.7593607026377,87.62697987654359
175.0,88.2669218511605,87.6797774579057,88.10717342844221,87.20433730951348,84.48884096739597,87.34036100118534
180.0,88.00076749445562,87.44576719438469,87.85067992377613,86.98424550838037,84.2722626939569,87.09757634864408
185.0,87.76692185116049,87.21592692226706,87.65067992377614,86.79349509836206,84.11243139376707,86.88883720298172
190.0,87.5669218511605,87.01592692226707,87.50717342844221,86.66092518101574,84.0133255093549,86.72629680890948
195.0,87.43435140868503,86.88219967332303,87.3923846111932,86.53601073771252,83.95401924274354,86.6071456878433
200.0,87.33435140868504,86.78219967332306,87.30650890317744,86.48196652048158,83.93300378720527,86.52822844604755
206.0,87.23663575667186,86.68219967332304,87.29171781902188,86.40011226550624,83.93913519877616,86.46463306806505
212.0,87.17150800786938,86.61227178315617,87.30910936306492,86.35534478959904,83.95716952236083,86.43194148903534
218.0,87.14044167945492,86.47928732607433,87.38237401417713,86.3113703837685,83.99740311765788,86.411307353081
224.0,87.17609175449222,86.37928732607432,87.48336495539145,86.2710946709728,84.0555560643006,86.42410899840391
230.0,87.18219967332304,86.34680983520815,87.55808920831808,86.24082681428222,84.14840059464593,86.44340784611971
236.0,87.21592692226706,86.2840783937255,87.65808920831807,86.23876966973688,84.21746623794972,86.47311912560255
240.0,87.25260953202216,86.25237800738083,87.729407748446,86.23876966973688,84.31435994357604,86.50623721597064
250.0,87.21916705502754,86.25237800738083,87.77168556777691,86.2471339131226,84.41583442396036,86.52352205707174
258.0,87.21916705502754,86.2595316600418,87.81364039116852,86.28582983891644,84.5376498012558,86.55846764880002
265.0,87.15260953202217,86.2595316600418,87.8427369100676,86.32715460217581,84.72349726241704,86.58246204891752
272.0,87.11916705502755,86.29843514857178,87.85518249849906,86.35503729531372,84.88050346236973,86.61147128086613
280.0,87.11916705502755,86.32909084157254,87.85518249849906,86.40357665280261,85.07850642103578,86.65339417006123
290.0,87.05667255930051,86.36826674204795,87.92966643952458,86.43181912405791,85.2482479551545,86.6959310483778
300.0,87.09471929119204,86.39913536951437,88.01528959573474,86.46244160865923,85.36687682533746,86.7555643361202
307.0,87.13752777300029,86.46826674204794,88.0901252688507,86.51321940037523,85.47821939130796,86.82328409046154
315.0,87.17662798253905,86.49913536951436,88.22141432139672,86.52156180557716,85.56045283817483,86.88640173230326
325.0,87.17662798253905,86.53858119222399,88.3059780748802,86.52156180557716,85.62582023827589,86.92639736073644
335.0,87.17662798253905,86.53858119222399,88.35145829744671,86.51450946464719,85.62345856779443,86.93731254583362
345.0,87.14898359150843,86.50937400321449,88.38011551144128,86.50551431635598,85.58527823229568,86.92688061692296
355.0,87.08888547155003,86.47857832215101,88.393957793835,86.436268106918,85.50663815412732,86.88853541496192
365.0,86.98888547155003,86.4191293045836,88.39685918136331,86.36061557617714,85.40053017504815,86.82872953501563
375.0,86.98888547155003,86.36023655467066,88.39685918136331,86.2537669505109,85.27450066098369,86.78098877412147
387.0,86.96194867563766,86.30190235499849,88.38453262351953,86.08791818115347,85.11743199702238,86.71005515777098
400.0,86.88888547155003,86.17244660678604,88.31658891427828,85.90373988691805,84.90327025170483,86.58978739490185
412.0,86.78888547155003,86.11495907510502,88.28901446738982,85.71216921504826,84.68248061627042,86.48765458396487
425.0,86.71627783177748,86.00167684604727,88.18526495168057,85.52217093525643,84.44068052816547,86.35655080847098
437.0,86.64413052381576,85.97354966200263,88.08526495168057,85.3542232183098,84.16969638038779,86.2432601808232
450.0,86.47244826645844,85.91804420460132,87.9313763063668,85.17473595665835,83.90437887355192,86.08636945183336
462.0,86.33331023801675,85.83601044983644,87.78526495168057,84.97473595665835,83.63141847811411,85.93038075240877
475.0,86.20123572626639,85.73601044983643,87.64707951953413,84.77785614718196,83.34081114429053,85.774004826984
487.0,86.13331023801675,85.66373727955805,87.54707951953414,84.56281738383922,83.03694990968809,85.64573480376883
500.0,86.17244826645843,85.60936525668059,87.46761108534184,84.36188640432454,82.72054711255991,85.5542486644071
515.0,86.34413052381575,85.58316768521324,87.50055620832082,84.18667282774648,82.31667982185967,85.53329964894559
530.0,86.67662798253905,85.6296454900598,87.6075594682129,84.03849358839922,81.83811294899613,85.59510989099293
545.0,87.04898359150842,85.65149200527814,87.78218918033922,83.90981870967153,81.2796960502068,85.69296092802047
560.0,87.32179738688896,85.67912048463792,87.91370098649577,83.79604308836701,80.6148255434722,85.75858021623107
580.0,87.48219812790055,85.72671908551528,87.98836665509859,83.6986408716038,79.95930011669842,85.78995504103129
600.0,87.55521969308377,85.67489229083098,87.98836665509859,83.58187835940498,79.25672931734181,85.75327082271257
615.0,87.58219812790055,85.55081528908939,87.93888838814686,83.46700577640176,78.50206337768874,85.67549167802636
630.0,87.62179738688896,85.49983306661126,87.8883666550986,83.34930633455066,77.74602398690317,85.62014272643133
650.0,87.64898359150841,85.37644070192741,87.87736076766267,83.24110763609703,77.11955937882972,85.56941736192083
670.0,87.72179738688895,85.27644070192741,87.88972594108478,83.11400831772451,76.64345112768528,85.55084145741397
690.0,87.76194867563765,85.17644070192742,87.90594880645803,83.04280548964856,76.31554666874337,85.5349382529047
710.0,87.83546263134681,85.05345843440055,87.95451755492444,82.89915517348282,76.06810000299836,85.53255329936887
730.0,87.90942248426019,84.95345843440056,87.98914944623135,82.80080586514428,75.84631428338395,85.53684538412809
750.0,87.90942248426019,84.83088119339841,88.01951261069249,82.70978462283806,75.60910946503432,85.51180497274842
775.0,87.91792789764851,84.65345843440058,87.99552232558176,82.5608769616268,75.35546259514439,85.45575768950982
800.0,87.892378988098,84.45345843440056,87.95826513545,82.45243664780864,75.10441658185916,85.38461711974556
825.0,87.79237898809798,84.3035810762402,87.89552232558177,82.29738507393417,74.83812543357747,85.2815182172562
850.0,87.76726558859612,84.1035810762402,87.87498561574081,82.1439256242217,74.61600612346372,85.21430164102328
875.0,87.70034112939827,83.95345843440056,87.78502970795002,82.07376852894382,74.3725701906374,85.12273495106433
900.0,87.70034112939827,83.83088119339841,87.74407254272869,81.9911275489968,74.16943264111806,85.07753026816229
925.0,87.76726558859612,83.65345843440055,87.74407254272869,81.95004341793177,73.96742325649022,85.06888166957614
950.0,87.74258273663014,83.53088119339841,87.74407254272869,81.91140895916602,73.77782847714222,85.03551091039361
975.0,87.81832544184972,83.33088119339841,87.77498561574082,81.87660799304639,73.60238559711813,85.04198719332763
1000.0,87.76136837622764,83.18126357183944,87.78286798276667,81.80072803116313,73.42295309712645,84.9936150364178
1030.0,87.6377673428554,82.88126357183945,87.70151854352174,81.66832997663121,73.23303300564164,84.86160952849183
1060.0,87.3377673428554,82.48126357183945,87.5599901323096,81.43613740909292,73.00281795843091,84.61830081538695
1090.0,86.9816120853342,81.98126357183943,87.35999013230959,81.11653200696891,72.74394638977476,84.31204393240994
1120.0,86.70330383828927,81.4593427130673,87.20128603572064,80.80243141434956,72.44586637606353,84.05123545652832
1150.0,86.5033038382893,80.9593427130673,87.08814040293538,80.51854290418156,72.1216332741336,83.8459955084211
1180.0,86.39430744544666,80.6105569656426,87.05641318829937,80.29982905672928,71.7809846299934,83.73278410639455
1220.0,86.32643297742509,80.44132285972186,87.04780918904345,80.11166245130255,71.4192002206971,83.66641209453884
1250.0,86.25098823501219,80.32067914588751,87.09183001309371,79.95593093637468,71.00423207762486,83.62838680173672
1280.0,86.15098823501219,80.2004100917201,87.07131634593797,79.7734966847404,70.60675491326532,83.55189739769482
1320.0,86.09780984381857,80.00041009172008,86.99393765993399,79.57589558009103,70.15624520042125,83.45857775350308
1360.0,85.91904449785343,79.85352165026993,86.9633146887544,79.36103874228633,69.67555903720798,83.34457177777507
1400.0,85.71904449785342,79.65352165026991,86.86213827076871,79.11615053853903,69.1678282102044,83.1842634661094
1450.0,85.44066681957173,79.50720618364726,86.74719503410789,78.86568388103605,68.6714384195299,82.99505576261012
1500.0,85.2165581917717,79.28099554556165,86.6372938527458,78.66362200073316,68.21177082632431,82.82534173632072
1550.0,85.07100612011483,79.28099554556165,86.60098087289981,78.54796870276054,67.85384941782443,82.74645344317234
1600.0,84.98161208533422,79.300892817766,86.58232799803606,78.51617808176,67.56735958017961,82.70457613551768
1650.0,84.99179815677408,79.32698400522295,86.58121222577489,78.48494663907177,67.3072247007545,82.7059469840315
1700.0,84.99179815677408,79.28099554556165,86.65445608722376,78.42764200562017,67.11646572539493,82.73233718327008
1750.0,84.90324612052703,79.16146272052232,86.70058575362181,78.41942124612045,66.9968148156699,82.71377702168945
1800.0,84.79220047151571,79.11629014082129,86.80058575362182,78.39216718930824,67.02912648732334,82.72231830917453
1850.0,84.6708338338135,79.17168717690079,86.89050877635196,78.39957289309463,67.12672893630564,82.73615877407508
1900.0,84.54985150686697,79.29073156635842,86.9505536273356,78.4528390706328,67.24984496013418,82.74562573220248
1950.0,84.4752382379475,79.43557846745938,86.99743125082937,78.54405163370099,67.36509173192465,82.76878597816663
2000.0,84.37523823794749,79.5162901408213,87.00938575908079,78.60933737282126,67.42168928186892,82.75869011507164
2060.0,84.30901938277,79.5162901408213,87.02521979237595,78.68241080470891,67.47048204137144,82.75401618448892
2120.0,84.30901938277,79.52765241487276,87.06562248320428,78.78906497863098,67.53682544308509,82.7855398923421
2180.0,84.37523823794749,79.52765241487276,87.1550212566746,78.88667900113201,67.6163300745236,82.86058659396929
2240.0,84.50901938276999,79.66597134844476,87.2279089674836,78.93576616553318,67.70255318062786,82.95510218441088
2300.0,84.62924838946488,79.7233065430453,87.28644025637433,78.99673472152689,67.7572027377326,83.0314286691714
2360.0,84.72924838946487,79.76380046507488,87.32076512879812,79.01433511420406,67.8216344366546,83.08427189004061
2400.0,84.82924838946487,79.76380046507488,87.36229879731303,79.02047698698537,67.9040768523989,83.1366198048071
2500.0,84.92924838946486,79.78173928668521,87.38526891078335,79.04392048141322,68.02005479216898,83.18261787290864
2580.0,84.99562483724394,79.77527887886522,87.4120265592769,79.15950609487635,68.19805603080454,83.226078138247
2650.0,85.07523823794749,79.87527887886525,87.48526891078335,79.29064970888915,68.39249202500848,83.30899411382065
2720.0,85.20199903162157,79.95147047691813,87.56121487007515,79.41210578622226,68.60116052672947,83.40476604733553
2800.0,85.3493489016972,80.1305628794476,87.62000586787416,79.48706155441984,68.73509106879197,83.50324947558715
2900.0,85.5269682029423,80.29727691609604,87.67198031647084,79.57812066526081,68.86389872834833,83.60822832159592
3000.0,85.65800804769343,80.42165173158813,87.7249316262054,79.64966414214233,68.94726984180771,83.69396661078967
3070.0,85.8099460770717,80.50274274418537,87.81487062085868,79.72191413860158,68.95753446890805,83.80075026415803
3150.0,85.91411392837597,80.52765241487276,87.88806129949309,79.76895923785402,68.90858175178442,83.87649378927536
3250.0,85.91411392837597,80.56597134844478,87.9163670671973,79.8088326124693,68.8090846426707,83.89679580422246
3350.0,85.92057765478032,80.56597134844478,87.9721009738292,79.79304255896368,68.71080851216577,83.92523615090929
3450.0,85.92057765478032,80.52330654304531,88.02148939274898,79.75613926525146,68.58561414932872,83.9429252249391
3550.0,85.93736534393183,80.52330654304531,88.04641339185704,79.66847494947207,68.40633057111495,83.95336126290044
