Freq "Ceiling Bounce"
22.4 46.513924050632866
23.0 46.31392405063288
23.6 46.31392405063288
24.0 46.41392405063287
25.0 46.81392405063288
25.8 47.91392405063287
26.5 49.71392405063288
27.2 52.11392405063289
28.0 54.78084590179337
29.0 57.21392405063288
30.0 59.31392405063288
30.7 61.14751387751285
31.5 62.84751387751287
32.5 64.48084590179336
33.5 66.08084590179338
34.5 67.74751387751286
35.5 69.48084590179339
36.5 71.2146915450885
37.5 72.8482754593179
38.7 74.4146915450885
40.0 75.88084590179339
41.2 77.28237488868722
42.5 78.6146915450885
43.7 79.78237488868722
45.0 80.84827545931792
46.2 81.88237488868721
47.5 82.78237488868722
48.7 83.61620866459309
50.0 84.44827545931791
51.5 85.1823748886872
53.0 85.88237488868721
54.5 86.58237488868721
56.0 87.25055980730474
58.0 87.88237488868721
60.0 88.45055980730474
61.5 88.95055980730474
63.0 89.45055980730474
65.0 89.85055980730475
67.0 90.25055980730475
69.0 90.65055980730475
71.0 90.95055980730474
73.0 91.2192421182976
75.0 91.45055980730474
77.5 91.65055980730473
80.0 91.85055980730475
82.5 92.05055980730475
85.0 92.21924211829759
87.5 92.3192421182976
90.0 92.41924211829759
92.5 92.41924211829759
95.0 92.48543205850225
97.5 92.51924211829758
100.0 92.41924211829759
103.0 92.41924211829759
106.0 92.3192421182976
109.0 92.28841756093726
112.0 92.18841756093725
115.0 92.0543657300878
118.0 91.91924211829757
122.0 91.78841756093728
125.0 91.58841756093726
128.0 91.38841756093726
132.0 91.12379033735618
136.0 90.88841756093726
140.0 90.58841756093726
145.0 90.25808179998138
150.0 89.92379033735617
155.0 89.5580817999814
160.0 89.22379033735616
165.0 88.82379033735617
170.0 88.49370150853856
175.0 88.19370150853857
180.0 87.95969124501757
185.0 87.72985097289995
190.0 87.52985097289994
195.0 87.39612372395594
200.0 87.29612372395592
206.0 87.19612372395592
212.0 87.12619583378907
218.0 86.99321137670721
224.0 86.89321137670719
230.0 86.86073388584103
236.0 86.79800244435837
240.0 86.76630205801371
250.0 86.76630205801371
258.0 86.77345571067468
265.0 86.77345571067468
272.0 86.81235919920466
280.0 86.84301489220542
290.0 86.88219079268082
300.0 86.91305942014723
307.0 86.98219079268083
315.0 87.01305942014726
325.0 87.05250524285688
335.0 87.05250524285688
345.0 87.02329805384737
355.0 86.99250237278389
365.0 86.9330533552165
375.0 86.87416060530353
387.0 86.81582640563137
400.0 86.6863706574189
412.0 86.6288831257379
425.0 86.51560089668016
437.0 86.4874737126355
450.0 86.43196825523418
462.0 86.34993450046932
475.0 86.2499345004693
487.0 86.17766133019093
500.0 86.12328930731347
515.0 86.09709173584612
530.0 86.14356954069267
545.0 86.16541605591102
560.0 86.19304453527079
580.0 86.2406431361482
600.0 86.18881634146388
615.0 86.06473933972225
630.0 86.01375711724414
650.0 85.89036475256029
670.0 85.7903647525603
690.0 85.69036475256028
710.0 85.56738248503343
730.0 85.46738248503344
750.0 85.34480524403129
775.0 85.16738248503344
800.0 84.96738248503345
825.0 84.81750512687309
850.0 84.61750512687308
875.0 84.46738248503344
900.0 84.34480524403129
925.0 84.16738248503346
950.0 84.04480524403128
975.0 83.84480524403129
1000.0 83.69518762247232
1030.0 83.39518762247233
1060.0 82.99518762247232
1090.0 82.49518762247232
1120.0 81.97326676370018
1150.0 81.47326676370018
1180.0 81.12448101627548
1220.0 80.95524691035475
1250.0 80.8346031965204
1280.0 80.71433414235298
1320.0 80.51433414235296
1360.0 80.36744570090279
1400.0 80.1674457009028
1450.0 80.02113023428015
1500.0 79.79491959619452
1550.0 79.79491959619452
1600.0 79.81481686839886
1650.0 79.84090805585582
1700.0 79.79491959619452
1750.0 79.6753867711552
1800.0 79.63021419145419
1850.0 79.68561122753367
1900.0 79.8046556169913
1950.0 79.94950251809227
2000.0 80.03021419145418
2060.0 80.03021419145418
2120.0 80.04157646550564
2180.0 80.04157646550564
2240.0 80.17989539907764
2300.0 80.23723059367818
2360.0 80.27772451570776
2400.0 80.27772451570776
2500.0 80.29566333731809
2580.0 80.28920292949812
2650.0 80.38920292949811
2720.0 80.46539452755103
2800.0 80.64448693008046
2900.0 80.8112009667289
3000.0 80.93557578222101
3070.0 81.01666679481824
3150.0 81.04157646550563
3250.0 81.07989539907764
3350.0 81.07989539907764
3450.0 81.03723059367819
3550.0 81.03723059367819
3650.0 81.06064947431405
3750.0 81.01956997669272
3870.0 80.9790466295884
4000.0 80.95546604447321
4120.0 80.93229785830607
4250.0 80.87217304637589
4370.0 80.81260153610621
4500.0 80.7364153719144
4620.0 80.65358577159073
4750.0 80.4951280648856
4870.0 80.4372305936782
5000.0 80.3552051693316
5150.0 80.25520516933157
5300.0 80.17989539907764
5450.0 80.0872470867391
5600.0 79.96865241067117
5800.0 79.7523131572063
6000.0 79.6113461006427
6150.0 79.37093471639919
6300.0 79.17660336230682
6500.0 78.91479501287185
6700.0 78.6771227171598
6900.0 78.39194200377476
7100.0 78.12982814137656
7300.0 77.90723334744926
7500.0 77.66274650842703
7750.0 77.54675809871412
8000.0 77.46482304680778
8250.0 77.42095096922232
8500.0 77.2959223739101
8750.0 77.28582519004273
9000.0 77.26825762170029
9250.0 77.28380572241875
9500.0 77.23907701131421
9750.0 77.21956997669271
10000.0 77.2022874116948
10300.0 77.14448594332195
10600.0 77.12727945712858
10900.0 77.08530885949192
11200.0 76.97772451570776
11500.0 76.8710861264739
11800.0 76.78892141183283
12200.0 76.64935955602095
12500.0 76.49218532076164
12800.0 76.31666679481823
13200.0 76.09810834671002
13600.0 75.81666679481825
14000.0 75.5872480865889
14500.0 75.3305737334689
15000.0 74.89904689092451
15500.0 74.44382206307714
16000.0 73.78445927189757
16500.0 73.08079656912177
17000.0 72.20534214527474
17500.0 71.22660799807217
18000.0 70.2021826568642
18500.0 69.07817984802311
19000.0 67.65459454333097
19500.0 65.29167463098828
