Freq "Front Wall Bounce"
22.4 47.54922977120363
23.0 47.38951949341141
23.6 47.308358091486795
24.0 47.36811207186567
25.0 47.7564925868118
25.8 48.69019196747688
26.5 50.241478975201815
27.2 52.32195292538081
28.0 54.619806345080676
29.0 56.88154879380296
30.0 58.90729732178609
30.7 60.74763896531739
31.5 62.44634764554225
32.5 64.13164470726515
33.5 65.81654758661593
34.5 67.51654758661589
35.5 69.3299906998343
36.5 71.08756564432339
37.5 72.74371904819192
38.7 74.32934263067827
40.0 75.82934263067827
41.2 77.25772239030313
42.5 78.58624897142222
43.7 79.78624897142222
45.0 80.84305797557576
46.2 81.82900719307172
47.5 82.77266200391021
48.7 83.61458191132714
50.0 84.4433847191888
51.5 85.18689596800992
53.0 85.90175092513759
54.5 86.61621881756982
56.0 87.23063867229764
58.0 87.8885359803673
60.0 88.44568697295425
61.5 88.97494879365928
63.0 89.43063867229765
65.0 89.88853598036731
67.0 90.27494879365928
69.0 90.64568697295424
71.0 90.97494879365927
73.0 91.23227769005037
75.0 91.48950609965928
77.5 91.70368505414841
80.0 91.90469735155627
82.5 92.10469735155627
85.0 92.24892990124906
87.5 92.37623163843757
90.0 92.43357319950815
92.5 92.51949164740245
95.0 92.54892990124905
97.5 92.54892990124905
100.0 92.54892990124905
103.0 92.50630866182608
106.0 92.44892990124906
109.0 92.37820086009008
112.0 92.30630866182608
115.0 92.19308553749619
118.0 92.06426349890764
122.0 91.89308553749619
125.0 91.72109747907508
128.0 91.50791937449263
132.0 91.2940772119088
136.0 91.05155742311966
140.0 90.76619321488106
145.0 90.4811190325825
150.0 90.18111903258249
155.0 89.83847156083068
160.0 89.52339819452263
165.0 89.18111903258249
170.0 88.89407721190882
175.0 88.62109747907509
180.0 88.36460397440902
185.0 88.16460397440902
190.0 88.02109747907508
195.0 87.90630866182607
200.0 87.82043295381034
206.0 87.80564186965476
212.0 87.8230334136978
218.0 87.89629806481003
224.0 87.99728900602432
230.0 88.07201325895095
236.0 88.17201325895095
240.0 88.24333179907887
250.0 88.28560961840978
258.0 88.3275644418014
265.0 88.35666096070048
272.0 88.36910654913194
280.0 88.36910654913194
290.0 88.44359049015748
300.0 88.52921364636764
307.0 88.60404931948358
315.0 88.7353383720296
325.0 88.81990212551308
335.0 88.86538234807958
345.0 88.89403956207416
355.0 88.90788184446788
365.0 88.91078323199619
375.0 88.91078323199619
387.0 88.8984566741524
400.0 88.83051296491116
412.0 88.8029385180227
425.0 88.69918900231345
437.0 88.59918900231345
450.0 88.44530035699968
462.0 88.29918900231345
475.0 88.16100357016701
487.0 88.06100357016702
500.0 87.98153513597471
515.0 88.0144802589537
530.0 88.12148351884578
545.0 88.2961132309721
560.0 88.42762503712864
580.0 88.50229070573148
600.0 88.50229070573148
615.0 88.45281243877974
630.0 88.40229070573146
650.0 88.39128481829555
670.0 88.40364999171766
690.0 88.41987285709092
710.0 88.46844160555732
730.0 88.50307349686423
750.0 88.53343666132538
775.0 88.50944637621464
800.0 88.47218918608289
825.0 88.40944637621463
850.0 88.38890966637369
875.0 88.2989537585829
900.0 88.25799659336155
925.0 88.25799659336155
950.0 88.25799659336155
975.0 88.2889096663737
1000.0 88.29679203339956
1030.0 88.21544259415461
1060.0 88.07391418294249
1090.0 87.87391418294247
1120.0 87.71521008635354
1150.0 87.60206445356826
1180.0 87.57033723893225
1220.0 87.56173323967631
1250.0 87.6057540637266
1280.0 87.58524039657085
1320.0 87.50786171056687
1360.0 87.47723873938726
1400.0 87.37606232140159
1450.0 87.26111908474078
1500.0 87.15121790337868
1550.0 87.11490492353269
1600.0 87.09625204866894
1650.0 87.09513627640779
1700.0 87.16838013785666
1750.0 87.21450980425469
1800.0 87.3145098042547
1850.0 87.40443282698484
1900.0 87.46447767796847
1950.0 87.51135530146225
2000.0 87.52330980971367
2060.0 87.53914384300884
2120.0 87.57954653383716
2180.0 87.6689453073075
2240.0 87.74183301811648
2300.0 87.8003643070072
2360.0 87.83468917943098
2400.0 87.87622284794591
2500.0 87.89919296141623
2580.0 87.92595060990976
2650.0 87.99919296141623
2720.0 88.07513892070801
2800.0 88.13392991850704
2900.0 88.18590436710372
3000.0 88.2388556768383
3070.0 88.32879467149155
3150.0 88.401985350126
3250.0 88.43029111783018
3350.0 88.48602502446208
3450.0 88.53541344338184
3550.0 88.56033744248991
3650.0 88.62251288735855
3750.0 88.60252761016625
3870.0 88.56948744996417
4000.0 88.5510680338396
4120.0 88.51647329801244
4250.0 88.47424929074947
4370.0 88.46641010544822
4500.0 88.37163898303636
4620.0 88.31692253482365
4750.0 88.19550931740676
4870.0 88.06519234052858
5000.0 87.9478384812461
5150.0 87.78885596387568
5300.0 87.67617792408468
5450.0 87.54811001343425
5600.0 87.42635395048183
5800.0 87.31858815166494
6000.0 87.10381649655447
6150.0 86.98696461053783
6300.0 86.84877419140207
6500.0 86.68255548230346
6700.0 86.50640707320066
6900.0 86.31124881312513
7100.0 86.12130254844215
7300.0 85.96033730932788
7500.0 85.86870152282872
7750.0 85.84030364491979
8000.0 85.82654492110818
8250.0 85.78307717970078
8500.0 85.76175978727746
8750.0 85.76545907131653
9000.0 85.81321324468
9250.0 85.92165494819352
9500.0 86.0218964637685
9750.0 86.142234218186
10000.0 86.23081342489235
10300.0 86.25600497365947
10600.0 86.18975780753082
10900.0 86.16851726070554
11200.0 86.13986136049597
11500.0 86.09639407986286
11800.0 86.00679113719144
12200.0 85.92647699710476
12500.0 85.79204764286868
12800.0 85.63353847141975
13200.0 85.43952921084944
13600.0 85.22866999197903
14000.0 85.02291925584474
14500.0 84.70950521640361
15000.0 84.3233673185761
15500.0 83.91812224575239
16000.0 83.4955471691858
16500.0 82.83697224613671
17000.0 81.97861885061987
17500.0 80.97122642514573
18000.0 79.87355558819512
18500.0 78.8558113243508
19000.0 77.7746144014949
19500.0 76.3468078395143
