Freq,Floor Bounce,Ceiling Bounce,Front Wall Bounce,Side Wall Bounce,Rear Wall Bounce,Total Early Reflection
22.4,31.232572180465567,30.926116091670096,34.321191154272796,31.022894134818912,32.33771889853905,32.17442193146378
23.0,32.03257218046558,31.726116091670107,35.10864763320096,31.793023610461162,33.137718898539035,32.96573953608838
23.6,32.732572180465596,32.426116091670096,35.80864763320098,32.471255276542465,33.833316045161226,33.66150670522943
24.0,33.13257218046557,32.7765534603207,36.15120494709463,32.822894134818924,34.15315994010324,34.0112515039868
25.0,33.37082970284298,33.02611609167009,36.42119115427279,33.12289413481891,34.44711708602976,34.282555026205316
25.8,33.63257218046557,33.29472217650472,36.70864763320098,33.39302361046113,34.719692646051485,34.55728553625609
26.5,33.932572180465584,33.57655346032068,36.98101273949983,33.63419690546722,34.96494632291056,34.825181107776146
27.2,34.170829702842966,33.8261160916701,37.22119115427277,33.92289413481892,35.247117086029746,35.08255502620533
28.0,36.23257218046557,35.926116091670096,39.30864763320098,35.99302361046115,37.33771889853905,37.16573953608837
29.0,38.33257218046556,38.02611609167009,41.40864763320097,38.093023610461145,39.437718898539046,39.26573953608839
30.0,39.894857058831704,39.52611609167009,42.92119115427279,39.593023610461145,40.88631780083803,40.76934136092366
30.7,41.13257218046557,40.694722176504726,43.93398945663837,40.678463016452795,41.884200517650825,41.851278905286435
31.5,42.860965142371825,42.363822053246665,45.519656082024554,42.27846301645279,43.4315420312267,43.46883309165308
32.5,46.56096514237181,45.9334113978813,49.03306135030677,45.795728917496646,46.86835106283037,47.00960489737243
33.5,48.82349685065982,48.05218761292407,51.146736166538275,47.92972654096455,48.90109121222646,49.138920019793076
34.5,50.42349685065979,49.541652881644964,52.548318939713354,49.34181754163744,50.21894177184602,50.57781698426625
35.5,52.123496850659805,51.2124664126148,54.118971094376846,50.9486486281465,51.7437657887191,52.186678191747134
36.5,55.7234968506598,54.7124664126148,57.54865957364795,54.37823396506404,55.096619783355166,55.64804573806698
37.5,58.052609532022174,56.903638215463914,59.69299163078428,56.50347080828165,57.13936979306963,57.81778106577654
38.7,59.65260953202218,58.37552377260245,61.1084740221507,57.98424620987613,58.491317890513315,59.28092469562672
40.0,60.55260953202219,59.19590903473029,61.86955890952815,58.72490707261052,59.16974342061617,60.06571726829684
41.2,60.81592692226705,59.36552876226149,61.85676271884584,58.81159076910127,59.04700986234049,60.143366057344295
42.5,60.98219967332304,59.436605049030774,61.84497764585578,58.84496783947465,58.92549755530858,60.17761033797602
43.7,61.7457671943847,60.08686427957848,62.416933304310376,59.48401391086274,59.38883496666445,60.80357615419355
45.0,64.91592692226708,63.160240991895094,65.38935125109425,62.476565479265346,62.26910207388907,63.83301683328038
46.2,67.07977745790569,65.21190408638132,67.40673354242419,64.52096803261433,64.12791356060636,65.87668703592996
47.5,68.94576719438471,67.03510672000847,69.05375996573765,66.23398752298671,65.71866383473284,67.61511037538533
48.7,71.64576719438469,69.61147494842764,71.59754347969367,68.82188612147668,68.13500938164984,70.19788116183862
50.0,73.60986628672329,71.4943086981156,73.38936469982747,70.67695659967262,69.81664577219306,72.05015676933377
51.5,75.40986628672329,73.27317063896889,75.06346471944289,72.42136865559955,71.35533914647736,73.7736134283597
53.0,77.54044167945491,75.32821157202717,77.06346471944288,74.46772967378193,73.22632453742001,75.81419742605918
54.5,79.1098662867233,76.81458026313014,78.49437685696526,75.981226411424,74.5329592504639,77.29541216326975
56.0,81.44044167945492,79.09674297331738,80.71297816441539,78.21537763533912,76.62288320815726,79.54866808404317
58.0,83.4404416794549,81.08573915648971,82.615343836903,80.18335375091218,78.44945016198669,81.4991299536953
60.0,84.67150800786938,82.2857391564897,83.81534383690298,81.41163190590518,79.50058078531758,82.69856836108045
61.5,85.34044167945491,82.94391724861637,84.44539792775278,82.10388869172023,80.00472261209914,83.34346194934325
63.0,85.84044167945491,83.46194867563766,84.97262742174496,82.68243703457387,80.4085510336398,83.8568758944831
65.0,86.27150800786937,83.89506458035831,85.40297754211015,83.16589371002291,80.72404695736736,84.28586421068071
67.0,86.70690501035459,84.32179738688895,85.80297754211014,83.59553310248003,81.03420379177945,84.69873988317126
69.0,87.27150800786937,84.92179738688895,86.38475854650171,84.2088934603206,81.50367407051823,85.27379934637622
71.0,87.70690501035459,85.35521969308378,86.91236969084983,84.78911745050488,81.91113169194041,85.75339122073949
73.0,87.27150800786937,84.9552196930838,86.56688011914977,84.48911745050486,81.47329613040547,85.36972454905698
75.0,86.77150800786939,84.45521969308379,86.06688011914979,84.04816350687308,80.89210902150968,84.87287234463598
77.5,86.83821129888742,84.55521969308379,86.20819596697113,84.16167015952637,80.93023121370072,84.97085432393325
80.0,86.63821129888743,84.41592538879983,86.07717379949634,84.06167015952637,80.7113373602108,84.81552947853079
82.5,85.43821129888742,83.21592538879982,84.98426663030601,83.03148885772269,79.51090655104319,83.67322300379577
85.0,85.13821129888744,83.01592538879983,84.78426663030602,82.83492359585273,79.23927484876174,83.43854350744745
87.5,85.6069050103546,83.51592538879983,85.33968362647595,83.3909343956985,79.68968694251579,83.95056784890349
90.0,85.5069050103546,83.45521969308379,85.2922961414132,83.3909343956985,79.57292292189219,83.88865130880765
92.5,85.33821129888743,83.31592538879984,85.19229614141321,83.31415025910566,79.397522640883,83.76031059146935
95.0,85.03821129888742,83.05521969308379,85.00126136965905,83.10111029491154,79.09903804995882,83.51375874783746
97.5,83.83821129888743,81.8552196930838,83.82940676691628,81.91415025910565,77.86612764840645,82.32170809667343
100.0,82.9069050103546,80.95521969308379,82.92693758264846,81.01415025910566,76.89475868309387,81.40706403427147
103.0,82.47150800786939,80.55521969308379,82.55491760385289,80.61415025910564,76.41947640890831,80.99978426825712
106.0,81.77150800786939,79.85521969308378,81.85491760385288,79.96126349421024,75.67343346036832,80.30525925648587
109.0,82.10690501035458,80.18219812790056,82.23924275721991,80.29772752574556,75.92931937598483,80.6479675355683
112.0,82.2069050103546,80.28219812790056,82.28086845464632,80.37442346954761,75.91535401609416,80.71926577959431
115.0,81.84044167945491,79.91592538879982,81.90914589305827,79.97442346954762,75.50057476827233,80.34196665513548
118.0,81.60690501035458,79.71592538879982,81.70914589305828,79.77442346954761,75.22568125953427,80.12763773426619
122.0,82.0404416794549,80.18219812790056,82.13537086618986,80.18784882528037,75.64285594693412,80.5602929260106
125.0,81.74044167945492,79.88219812790055,81.80914589305827,79.88784882528036,75.25992253810344,80.24746364667531
128.0,81.87609175449222,80.04314826109434,81.96394512452713,80.00154406899154,75.37676904695839,80.3880537051315
132.0,81.14044167945491,79.34314826109434,81.23537086618987,79.30154406899153,74.6769671195861,79.66983766920295
136.0,81.50986628672328,79.71592538879982,81.60914589305828,79.61795240374897,75.02617668256111,80.03016368558873
140.0,82.50986628672328,80.74314826109435,82.66394512452713,80.71795240374898,76.10116468015886,81.07406615555361
145.0,83.4098662867233,81.74314826109435,83.59366590096782,81.63186948969388,77.05831508271606,82.00751558924927
150.0,83.87609175449221,82.21592538879982,84.06394512452714,82.13186948969387,77.58953508958429,82.48653437947654
155.0,81.77609175449221,80.18219812790056,82.04865957364794,80.13186948969388,75.59995373945044,80.4491208842414
160.0,80.44576719438469,78.94314826109435,80.77848478147017,78.84854268028113,74.3768928149476,79.16925416511803
165.0,79.9760917544922,78.54314826109434,80.34865957364794,78.40531244059162,73.99562384713278,78.73521755019152
170.0,79.87609175449221,78.48219812790056,80.30489499373621,78.36850389098258,73.95914580169402,78.67505005586587
175.0,81.6457671943847,80.34314826109436,82.10489499373621,80.14854268028114,75.81321565170846,80.47878409355208
180.0,82.3457671943847,81.04314826109434,82.8336698070903,80.89944321219946,76.62490534193984,81.20432373494074
185.0,81.44576719438469,80.34314826109436,82.00489499373622,80.08258008359506,75.88249518897506,80.39063663375441
190.0,81.71592692226706,80.670829702843,82.33366980709032,80.38258008359507,76.24673584124366,80.70149087763568
195.0,82.81592692226707,81.87082970284298,83.50489499373622,81.56268361388638,77.50587742207534,81.86862117342612
200.0,81.71592692226706,80.87082970284298,82.43366980709031,80.48258008359508,76.5289389794941,80.80994159902784
206.0,78.81592692226708,78.10464502318536,79.60489499373621,77.6137446598222,73.78569753664304,77.97559427578412
212.0,80.45260953202217,79.83257218046558,81.30489499373621,79.28258008359506,75.55309026371182,79.66556198720707
218.0,82.55260953202217,82.07082970284297,83.44865957364794,81.4363148970151,77.82427873160803,81.83055063020676
224.0,81.1898285667347,80.87082970284298,82.20489499373623,80.12603606608452,76.63975264092217,80.56096609902069
230.0,81.98982856673473,81.77082970284299,83.01998423401443,80.9685038909826,77.55863432799819,81.40438458859164
236.0,81.96096514237182,81.87082970284298,83.10489499373621,80.94854268028114,77.64973141697294,81.44845916871616
240.0,80.92758719283593,80.87082970284298,82.07848478147015,79.85470389316217,76.6152080621335,80.41371085817536
250.0,79.33752777300028,79.33257218046559,80.51998423401443,78.20430888642649,75.01789604165921,78.83337318671306
258.0,80.66588846059686,80.670829702843,81.80914589305827,79.4744234695476,76.21460337432933,80.13155971205626
265.0,82.49897445130925,82.37082970284297,83.60914589305827,81.1758956804295,77.80883133250124,81.88336135635522
272.0,80.77082970284299,80.54314826109434,81.88336396340041,79.3470956721726,75.82349465474742,80.09706023498629
280.0,81.67082970284298,81.28219812790056,82.71363940606881,80.07057856841648,76.29354938439609,80.87989045245556
290.0,82.73752777300028,82.12179738688896,83.72940676691627,80.97563245143259,76.93563510966008,81.82646821679161
300.0,81.64314826109434,80.82869245367795,82.61363940606881,79.7781651986637,75.37572471759444,80.63748915486585
307.0,81.14314826109434,80.13546263134683,82.02940676691627,79.15183737562104,74.32341266595654,80.01876916455267
315.0,81.44314826109435,80.3094224842602,82.37602210108666,79.44083704463777,74.17612331923199,80.28329070852052
325.0,81.74314826109435,80.50942248426021,82.70433100962667,79.78023241270053,74.01004603334144,80.55737809460494
335.0,81.95521969308379,80.6252645392885,83.00433100962668,80.0057955245465,73.83166180210439,80.76546843506162
345.0,82.05521969308379,80.72526453928849,83.20433100962667,80.23179923712961,73.62196006020183,80.9084882460437
355.0,82.06878033996792,80.80034112939828,83.32940676691626,80.40813774089975,73.36150620465082,80.99018699052677
365.0,82.04293979360189,80.80034112939828,83.40433100962667,80.46972049575591,73.1337273481049,81.01261168630627
375.0,81.98382334167596,80.80034112939828,83.48847217927515,80.55803655984654,72.97586955517711,81.03781834183306
387.0,81.85866027600834,80.87584607527147,83.52940676691628,80.64050225897394,72.87346926100881,81.04775775228903
400.0,81.75866027600833,80.94258273663014,83.5600593685791,80.56833135229778,72.79235660106274,81.03224175302377
412.0,81.50034112939828,80.84258273663015,83.40433100962667,80.39662525672867,72.60157389052364,80.85958539806994
425.0,81.10034112939827,80.71832544184971,83.10433100962668,80.03846546051695,72.27212917221239,80.56113699401838
437.0,80.50034112939827,80.41832544184972,82.65121482311348,79.49083458845793,71.80055936663734,80.09047508377526
450.0,79.94258273663014,80.16136837622764,82.2268345531296,78.83340636636565,71.35168087523721,79.63366629944251
462.0,79.4672655885961,80.0145789575331,81.77455785944566,78.25887311725386,70.91161698243717,79.22798986610887
475.0,79.09237898809802,79.91457895753311,81.52285588808361,77.71289996958966,70.61467425207587,78.9406327051393
487.0,78.79237898809801,79.95865724017871,81.31637105372866,77.23739766790635,70.38251725882145,78.73946209677793
500.0,78.5179278976485,79.9361070797735,81.19343859806334,76.7868815398821,70.191560523789,78.56636190668117
515.0,78.44391724861637,79.88098490550679,81.07091054784844,76.40154398182784,69.98264440416612,78.43575606771692
530.0,78.47641629732152,79.75906263657508,81.12076211162325,76.12684180642536,69.8327699640061,78.38936724253946
545.0,78.67641629732152,79.70473949550548,81.22076211162324,75.99639179389565,69.7155371541382,78.43554089117359
560.0,78.97641629732153,79.48343461029552,81.35366387780148,75.91516270451338,69.58413779397206,78.48176004934983
580.0,79.11792789764851,79.02990957385143,81.32076211162325,75.69175946553946,69.26365960502444,78.35902683729128
600.0,79.12526453928848,78.35648313414828,81.09888657798578,75.32402878537644,68.74638527981661,78.07003897945832
615.0,79.02526453928849,77.5844476236301,80.78147278830733,74.96603608787386,68.2086663087102,77.70772161444333
630.0,79.07584607527146,76.94577223479652,80.58147278830731,74.72423757977324,67.7524829094942,77.48642143401351
650.0,79.20962251076206,76.47625435142636,80.44878181929043,74.54087709086406,67.4850423012371,77.36757297517751
670.0,79.52812100489948,76.3412305303684,80.49888657798577,74.59201861285551,67.44277980316834,77.47068547995669
690.0,80.13921161314461,76.4756958151824,80.87740200741135,74.92745752046163,67.75696430261145,77.88352226312013
710.0,80.91655999317607,76.99533257014983,81.47740200741136,75.5048491771422,68.40923478007697,78.53133936222547
730.0,81.59430925610405,77.48681963215331,82.00748009891589,76.0506032434608,69.02248358212674,79.11096605630325
750.0,81.97245431186856,77.67168531355222,82.25923203800298,76.24982690443629,69.34394249767641,79.39511792711824
775.0,81.99470218621026,77.58681963215334,82.2574120312225,76.20805282603654,69.39853607664936,79.38823717872832
800.0,81.71832676913881,77.1485058811867,81.99064436625221,75.87776870728642,69.12140565068977,79.08936334177334
825.0,80.9752382379475,76.21411392837598,81.39059903313651,75.17044729372178,68.4089034050696,78.38295397590285
850.0,79.86893616304386,74.93209919948374,80.62611266914517,74.19944519770813,67.37999556683165,77.41051795869762
875.0,79.03308937677077,73.90937829065058,80.10092952448636,73.52645324120671,66.5977687145139,76.7040214085896
900.0,78.85218761292407,73.49674297331738,80.28307529951927,73.58850495307261,66.44603633154539,76.68647167219301
925.0,79.24507194826727,73.86023818113064,81.06555628485975,74.23941744633467,66.95208518839995,77.28636402011063
950.0,79.96097559154803,74.67071732495408,82.12161022310963,75.29538005384927,67.83268895752568,78.21289133968726
975.0,80.52698400522294,75.52188682922213,82.89530177164518,76.12107304173774,68.52878966750221,78.93648734952775
1000.0,80.81471033977958,76.2121361197686,83.15955825135795,76.63571525271915,68.8820616717538,79.2762468047717
1030.0,80.97673555651383,77.11627783177747,83.12129057359572,76.98663077023595,69.01650423056851,79.44299110800203
1060.0,80.80721172860906,77.72758719283593,82.53766362204878,76.98041867907766,68.82392049955789,79.20732186902568
1090.0,80.64611403139875,78.3053180676647,81.661276793763,76.7624771642346,68.37605481781888,78.86108743168275
1120.0,80.92402487026023,79.30076749445561,81.12470598260462,77.02095024338946,68.41759733063815,78.98402150320939
1150.0,81.83663575667187,80.81430637862282,81.08879886854658,77.75181688982661,69.06181778684517,79.72575746272504
1180.0,83.0457671943847,82.54680047887705,81.38746863363117,78.78090297007584,69.9986412994415,80.82467337218206
1220.0,83.67383110211924,83.5217959902394,81.08336306542559,79.1202928933207,70.27390945639256,81.32682395956472
1250.0,83.03268615537793,83.07406327003757,79.73537086618988,78.18045474909606,69.27785801962804,80.58669707433076
1280.0,81.20722417372365,81.39470218621025,77.63710061834409,76.16554690259048,67.1683426555568,78.74505543332764
1320.0,80.77182978310016,80.93940447640163,77.28100477061575,75.58740165072989,66.34094276265222,78.29400235542542
1360.0,82.28219812790056,82.27746480000638,79.19452236235968,76.92676125468098,67.41529806464574,79.7858408899972
1400.0,82.99188145404554,82.72312351227033,80.57666594957763,77.5459067218317,67.57658622233578,80.51624538464277
1450.0,82.08623512455237,81.49810190657837,80.51541094484142,76.47174705798076,65.93701515387802,79.67326085620643
1500.0,80.47215664893683,79.39035567273616,79.87297191737703,74.68511219119945,63.413505452628755,78.15725231809175
1550.0,79.86803106656235,78.21303990071539,80.33686017347036,73.9292035258179,61.72243021310571,77.74574977150726
1600.0,79.88098490550679,77.51499726707316,81.30687569495872,73.62815913089078,60.527665746299675,77.9660534640095
1650.0,79.12457993687899,76.11772155339537,81.43027556206941,72.68033256740391,58.80383038028232,77.49657583098892
1700.0,78.20174601124772,74.59944613161132,81.22972931370126,71.50800428729981,57.30434207198401,76.85477901848198
1750.0,78.33308937677076,74.33056676287909,82.00639295083269,71.47530655348524,57.4029972564861,77.30053266983141
1800.0,78.56251322065519,74.4005763762964,82.79011593150959,71.70131590469151,58.0118786477159,77.85198923670123
1850.0,77.65159316859872,73.42424924340368,82.26365434445808,70.66220523720983,57.727071693247225,77.17471688958592
1900.0,75.47873585443175,71.35803839490562,80.4828160784664,68.5864944485415,56.45859749585689,75.27377834659987
1950.0,74.52934077441655,70.54611862155626,79.7261685781945,67.64417436075918,56.43879734622594,74.46717238494074
2000.0,75.05933929981309,71.11950653573557,80.36222556742455,68.23160715663369,57.70604092876384,75.07697803469476
2060.0,74.82429736591519,71.00018474486991,80.25811910446517,68.08218368810299,57.90859524524318,74.9451704346992
2120.0,74.22364704950978,70.24152085796528,79.66092453231023,67.4483891065472,57.25764012408935,74.33278373824356
2180.0,74.4641419384415,70.39658973763315,80.03897092634239,67.7335470094891,57.169732764722895,74.66170104607342
2240.0,75.19939270993117,70.90446348791666,80.73000344317256,68.4929446766042,57.140223092444,75.3482201349148
2300.0,75.35450510839085,70.86428286063024,80.98539737555711,68.70147459593767,56.251402897674794,75.55872054167217
2360.0,75.0509882350122,70.29058914804496,80.59615864826905,68.35648709417943,54.50311600497845,75.17284233894738
2400.0,74.51125159582658,69.65827843981656,80.00714304851292,67.81045104610551,52.43816219825739,74.59031319503983
2500.0,74.4284334334313,69.5163926178215,79.82707501825271,67.65396397229145,50.97372121342063,74.43160867768258
2580.0,74.22347613728206,69.45147543072807,79.55068587507067,67.52664277074302,49.95220644890661,74.1892081214462
2650.0,73.98810962251508,69.48888863538652,79.21090419882793,67.29294915691771,49.408781485936274,73.90137387237289
2720.0,74.20574923004848,70.04331750677855,79.34922943684775,67.57547896006857,49.78572135568656,74.09388817421141
2800.0,74.69856102581366,70.87813636156328,79.7763612827404,68.17506271785267,50.80961570258576,74.57620603509521
2900.0,75.39360996840496,72.058590643836,80.4447123503177,69.0173595376203,52.24358654939225,75.30486959439158
3000.0,75.80785319525343,72.80427244119464,80.87682769427215,69.50037065191381,53.43899909443819,75.76726703496267
3070.0,76.10833704711781,73.48528746757074,81.14996970602549,69.92700772792033,54.45128199463615,76.09713055439987
3150.0,76.31628511153325,74.03174271310297,81.39148067701552,70.28605606951919,55.28815113138451,76.3730559931948
3250.0,76.38888863538652,74.30833704711783,81.51663052606337,70.47955652914354,55.696937337867965,76.50970744889966
3350.0,76.09780984381857,74.20566507474113,81.24221630129195,70.32249724857355,55.680448726404435,76.25947099137719
