Freq "Side Wall Bounce"
22.4 31.26593210950243
23.0 32.03606158514465
23.6 32.71429325122598
24.0 33.06593210950241
25.0 33.365932109502424
25.8 33.636061585144674
26.5 33.87723488015071
27.2 34.165932109502435
28.0 36.23606158514467
29.0 38.33606158514466
30.0 39.83606158514466
30.7 40.92150099113631
31.5 42.52150099113631
32.5 46.03876689218016
33.5 48.17276451564807
34.5 49.58485551632096
35.5 51.19168660283002
36.5 54.62127193974756
37.5 56.74650878296514
38.7 58.22728418455962
40.0 58.967945047294066
41.2 59.05462874378479
42.5 59.08800581415814
43.7 59.727051885546246
45.0 62.719603453948864
46.2 64.76400600729787
47.5 66.47702549767024
48.7 69.06492409616018
50.0 70.91999457435615
51.5 72.66440663028307
53.0 74.71076764846545
54.5 76.2242643861075
56.0 78.45841561002264
58.0 80.4263917255957
60.0 81.65466988058868
61.5 82.34692666640376
63.0 82.9254750092574
65.0 83.40893168470643
67.0 83.83857107716356
69.0 84.45193143500411
71.0 85.03215542518838
73.0 84.7321554251884
75.0 84.29120148155658
77.5 84.40470813420987
80.0 84.30470813420989
82.5 83.27452683240621
85.0 83.07796157053626
87.5 83.633972370382
90.0 83.633972370382
92.5 83.55718823378918
95.0 83.34414826959507
97.5 82.15718823378917
100.0 81.25718823378918
103.0 80.85718823378917
106.0 80.20430146889377
109.0 80.54076550042907
112.0 80.61746144423113
115.0 80.21746144423112
118.0 80.01746144423113
122.0 80.43088679996387
125.0 80.13088679996387
128.0 80.24458204367505
132.0 79.54458204367505
136.0 79.8609903784325
140.0 80.9609903784325
145.0 81.87490746437742
150.0 82.3749074643774
155.0 80.37490746437739
160.0 79.09158065496466
165.0 78.64835041527512
170.0 78.6115418656661
175.0 80.39158065496464
180.0 81.14248118688299
185.0 80.3256180582786
190.0 80.6256180582786
195.0 81.8057215885699
200.0 80.7256180582786
206.0 77.85678263450573
212.0 79.5256180582786
218.0 81.6793528716986
224.0 80.36907404076804
230.0 81.2115418656661
236.0 81.19158065496464
240.0 80.09774186784567
250.0 78.44734686111002
258.0 79.71746144423113
265.0 81.41893365511304
272.0 79.5901336468561
280.0 80.3136165431
290.0 81.21867042611609
300.0 80.02120317334722
307.0 79.39487535030457
315.0 79.68387501932128
325.0 80.02327038738407
335.0 80.24883349923
345.0 80.47483721181314
355.0 80.65117571558325
365.0 80.71275847043941
375.0 80.80107453453007
387.0 80.88354023365746
400.0 80.81136932698129
412.0 80.6396632314122
425.0 80.28150343520045
437.0 79.73387256314146
450.0 79.07644434104917
462.0 78.50191109193736
475.0 77.95593794427317
487.0 77.48043564258988
500.0 77.0299195145656
515.0 76.64458195651135
530.0 76.36987978110888
545.0 76.23942976857916
560.0 76.1582006791969
580.0 75.934797440223
600.0 75.56706676005997
615.0 75.20907406255738
630.0 74.96727555445675
650.0 74.78391506554757
670.0 74.83505658753904
690.0 75.17049549514515
710.0 75.74788715182571
730.0 76.29364121814432
750.0 76.4928648791198
775.0 76.45109080072004
800.0 76.12080668196994
825.0 75.41348526840528
850.0 74.44248317239163
875.0 73.76949121589023
900.0 73.83154292775613
925.0 74.4824554210182
950.0 75.5384180285328
975.0 76.36411101642126
1000.0 76.87875322740265
1030.0 77.22966874491945
1060.0 77.22345665376118
1090.0 77.0055151389181
1120.0 77.263988218073
1150.0 77.99485486451012
1180.0 79.02394094475936
1220.0 79.36333086800423
1250.0 78.42349272377956
1280.0 76.408584877274
1320.0 75.8304396254134
1360.0 77.1697992293645
1400.0 77.78894469651523
1450.0 76.71478503266428
1500.0 74.92815016588297
1550.0 74.17224150050141
1600.0 73.87119710557428
1650.0 72.92337054208743
1700.0 71.75104226198333
1750.0 71.71834452816877
1800.0 71.94435387937502
1850.0 70.90524321189334
1900.0 68.829532423225
1950.0 67.88721233544271
2000.0 68.47464513131722
2060.0 68.3252216627865
2120.0 67.69142708123071
2180.0 67.97658498417262
2240.0 68.7359826512877
2300.0 68.9445125706212
2360.0 68.59952506886293
2400.0 68.05348902078902
2500.0 67.89700194697495
2580.0 67.76968074542653
2650.0 67.53598713160123
2720.0 67.8185169347521
2800.0 68.41810069253619
2900.0 69.26039751230383
3000.0 69.74340862659734
3070.0 70.17004570260384
3150.0 70.5290940442027
3250.0 70.72259450382707
3350.0 70.56553522325707
3450.0 70.1136122759451
3550.0 69.68345132457542
3650.0 68.99293999220642
3750.0 68.861717255421
3870.0 69.2747527081808
4000.0 69.64239107282721
4120.0 70.56841016873828
4250.0 70.77833848301799
4370.0 71.2829323976396
4500.0 71.73214979554754
4620.0 72.13410441662488
4750.0 72.82771240042385
4870.0 72.93279901436442
5000.0 72.5976405981835
5150.0 72.59940622147653
5300.0 72.91680734746238
5450.0 72.3798926041594
5600.0 72.08506516012832
5800.0 72.6589447864188
6000.0 73.01471184757082
6150.0 72.39551306520305
6300.0 71.62367917167056
6500.0 70.95708138450154
6700.0 70.38789005649552
6900.0 70.68499471936178
7100.0 71.04987948875687
7300.0 71.30977911982792
7500.0 71.20763615464612
7750.0 70.73280641767815
8000.0 70.28558569732353
8250.0 70.55602979130295
8500.0 71.18997828040604
8750.0 71.40065110822748
9000.0 71.56684615714764
9250.0 71.36158357598136
9500.0 71.56206308239786
9750.0 71.9406575491083
10000.0 72.30907156053279
10300.0 72.5726371369879
10600.0 72.45504440193284
10900.0 72.14370308282815
11200.0 72.35055213668436
11500.0 73.27831980289868
11800.0 72.31540243764903
12200.0 70.85172047094075
12500.0 68.89357805435932
12800.0 66.29195225529536
13200.0 62.30462264429751
13600.0 65.70300097533887
14000.0 61.782746036730785
14500.0 62.7242393066642
15000.0 61.315614323450845
15500.0 59.48824337028192
16000.0 56.51330845798434
16500.0 52.880634607765145
17000.0 46.32860080145498
17500.0 41.29274614661013
18000.0 42.53376219735368
18500.0 41.83018763684005
19000.0 40.293307879409824
19500.0 38.39772396203348
