Freq "Side Wall Bounce"
22.4 31.022894134818912
23.0 31.793023610461134
23.6 32.471255276542465
24.0 32.822894134818895
25.0 33.12289413481891
25.8 33.39302361046116
26.5 33.63419690546719
27.2 33.92289413481892
28.0 35.99302361046115
29.0 38.093023610461145
30.0 39.593023610461145
30.7 40.678463016452795
31.5 42.27846301645279
32.5 45.795728917496646
33.5 47.92972654096455
34.5 49.34181754163744
35.5 50.9486486281465
36.5 54.37823396506404
37.5 56.50347080828162
38.7 57.984246209876105
40.0 58.72490707261055
41.2 58.81159076910127
42.5 58.84496783947462
43.7 59.48401391086273
45.0 62.476565479265346
46.2 64.52096803261435
47.5 66.23398752298672
48.7 68.82188612147667
50.0 70.67695659967264
51.5 72.42136865559955
53.0 74.46772967378193
54.5 75.98122641142399
56.0 78.21537763533912
58.0 80.18335375091219
60.0 81.41163190590517
61.5 82.10388869172024
63.0 82.68243703457388
65.0 83.16589371002291
67.0 83.59553310248005
69.0 84.2088934603206
71.0 84.78911745050486
73.0 84.48911745050488
75.0 84.04816350687307
77.5 84.16167015952635
80.0 84.06167015952637
82.5 83.03148885772269
85.0 82.83492359585274
87.5 83.39093439569848
90.0 83.39093439569848
92.5 83.31415025910566
95.0 83.10111029491155
97.5 81.91415025910565
100.0 81.01415025910566
103.0 80.61415025910566
106.0 79.96126349421026
109.0 80.29772752574556
112.0 80.37442346954761
115.0 79.9744234695476
118.0 79.77442346954761
122.0 80.18784882528035
125.0 79.88784882528036
128.0 80.00154406899154
132.0 79.30154406899153
136.0 79.61795240374899
140.0 80.71795240374898
145.0 81.6318694896939
150.0 82.13186948969388
155.0 80.13186948969387
160.0 78.84854268028114
165.0 78.4053124405916
170.0 78.36850389098258
175.0 80.14854268028112
180.0 80.89944321219947
185.0 80.08258008359508
190.0 80.38258008359509
195.0 81.56268361388638
200.0 80.48258008359508
206.0 77.61374465982222
212.0 79.28258008359508
218.0 81.43631489701508
224.0 80.12603606608452
230.0 80.96850389098259
236.0 80.94854268028112
240.0 79.85470389316215
250.0 78.2043088864265
258.0 79.47442346954762
265.0 81.17589568042952
272.0 79.34709567217259
280.0 80.07057856841648
290.0 80.97563245143257
300.0 79.7781651986637
307.0 79.15183737562106
315.0 79.44083704463776
325.0 79.78023241270056
335.0 80.00579552454649
345.0 80.23179923712962
355.0 80.40813774089973
365.0 80.4697204957559
375.0 80.55803655984656
387.0 80.64050225897394
400.0 80.56833135229778
412.0 80.39662525672868
425.0 80.03846546051693
437.0 79.49083458845794
450.0 78.83340636636565
462.0 78.25887311725384
475.0 77.71289996958966
487.0 77.23739766790636
500.0 76.78688153988209
515.0 76.40154398182783
530.0 76.12684180642536
545.0 75.99639179389564
560.0 75.91516270451338
580.0 75.69175946553948
600.0 75.32402878537646
615.0 74.96603608787386
630.0 74.72423757977323
650.0 74.54087709086406
670.0 74.59201861285553
690.0 74.92745752046163
710.0 75.50484917714219
730.0 76.0506032434608
750.0 76.24982690443628
775.0 76.20805282603652
800.0 75.87776870728642
825.0 75.17044729372176
850.0 74.19944519770812
875.0 73.52645324120671
900.0 73.58850495307261
925.0 74.23941744633468
950.0 75.29538005384929
975.0 76.12107304173774
1000.0 76.63571525271914
1030.0 76.98663077023593
1060.0 76.98041867907766
1090.0 76.76247716423458
1120.0 77.02095024338948
1150.0 77.7518168898266
1180.0 78.78090297007584
1220.0 79.12029289332071
1250.0 78.18045474909604
1280.0 76.16554690259048
1320.0 75.58740165072989
1360.0 76.92676125468098
1400.0 77.54590672183171
1450.0 76.47174705798076
1500.0 74.68511219119945
1550.0 73.9292035258179
1600.0 73.62815913089077
1650.0 72.68033256740391
1700.0 71.50800428729981
1750.0 71.47530655348525
1800.0 71.7013159046915
1850.0 70.66220523720982
1900.0 68.58649444854149
1950.0 67.6441743607592
2000.0 68.2316071566337
2060.0 68.08218368810299
2120.0 67.4483891065472
2180.0 67.7335470094891
2240.0 68.49294467660418
2300.0 68.70147459593768
2360.0 68.35648709417941
2400.0 67.8104510461055
2500.0 67.65396397229144
2580.0 67.52664277074301
2650.0 67.29294915691771
2720.0 67.57547896006858
2800.0 68.17506271785267
2900.0 69.01735953762031
3000.0 69.50037065191383
3070.0 69.92700772792033
3150.0 70.28605606951918
3250.0 70.47955652914355
3350.0 70.32249724857355
3450.0 69.87057430126158
3550.0 69.4404133498919
3650.0 68.7499020175229
3750.0 68.61867928073748
3870.0 69.03171473349728
4000.0 69.39935309814369
4120.0 70.32537219405476
4250.0 70.53530050833447
4370.0 71.03989442295608
4500.0 71.48911182086403
4620.0 71.89106644194136
4750.0 72.58467442574033
4870.0 72.6897610396809
5000.0 72.35460262349999
5150.0 72.35636824679301
5300.0 72.67376937277886
5450.0 72.13685462947588
5600.0 71.8420271854448
5800.0 72.41590681173528
6000.0 72.7716738728873
6150.0 72.15247509051953
6300.0 71.38064119698704
6500.0 70.71404340981802
6700.0 70.144852081812
6900.0 70.44195674467827
7100.0 70.80684151407335
7300.0 71.0667411451444
7500.0 70.9645981799626
7750.0 70.48976844299463
8000.0 70.04254772264001
8250.0 70.31299181661943
8500.0 70.94694030572252
8750.0 71.15761313354396
9000.0 71.32380818246412
9250.0 71.11854560129784
9500.0 71.31902510771434
9750.0 71.69761957442478
10000.0 72.06603358584927
10300.0 72.32959916230438
10600.0 72.21200642724932
10900.0 71.90066510814464
11200.0 72.10751416200084
11500.0 73.03528182821516
11800.0 72.07236446296551
12200.0 70.60868249625723
12500.0 68.6505400796758
12800.0 66.04891428061184
13200.0 62.06158466961399
13600.0 65.45996300065535
14000.0 61.53970806204727
14500.0 62.481201331980685
15000.0 61.07257634876733
15500.0 59.245205395598404
16000.0 56.27027048330082
16500.0 52.63759663308163
17000.0 46.085562826771465
17500.0 41.04970817192661
18000.0 42.290724222670164
18500.0 41.587149662156534
19000.0 40.050269904726306
19500.0 38.154685987349964
