Freq "Early Reflections"
20.5078 66.61516484622828
21.9727 67.97564825093309
23.4375 69.0569249523193
24.9023 69.92635897653818
26.3672 71.03180677951862
27.832 71.74961146546613
29.2969 72.84766537173762
30.7617 73.5527939691523
32.2266 74.16182424938951
33.6914 75.15227520414194
35.1562 75.78928134506994
36.6211 76.53864919503965
38.0859 77.52918115169189
39.5508 78.16508568480184
41.0156 78.17581466478322
42.4805 78.45851316825598
43.9453 79.414587213969
45.4102 79.59749183314004
46.875 79.74193088756975
48.3398 80.5472052773796
51.2695 80.95638518452097
52.7344 81.16980228775292
54.1992 81.35233709651739
55.6641 81.52890056438817
58.5938 81.82013089631614
60.0586 81.89236374985437
62.9883 82.07456527222598
64.4531 82.28506911426918
67.3828 82.60160677188574
68.8477 82.63262935627249
71.7773 82.59334177803225
74.707 82.57170847649569
77.6367 82.40832623446524
79.1016 82.32963702337155
82.0312 82.49281511633218
84.9609 82.44379308104588
87.8906 82.3621552791411
90.8203 82.58812788776373
95.2148 82.62416757725235
98.1445 82.54489279210843
101.074 82.37118534073721
105.469 82.32774732889719
108.398 82.22948939188788
112.793 81.9552151900941
117.188 81.68734586128386
120.117 81.70068946541386
124.512 82.14945158990703
128.906 81.98994995010925
133.301 81.85437230458852
139.16 81.55131042320852
143.555 81.18744609963173
147.949 81.27968204216552
153.809 82.00266004959128
159.668 81.37398172871703
165.527 81.08721296535337
171.387 81.41951708776865
177.246 81.79061370530135
183.105 81.60221883697176
188.965 81.59595065013482
196.289 81.8120793033554
203.613 81.34836650743203
210.938 82.07724573473793
218.262 82.78494256465626
225.586 82.94648339310677
232.91 83.24684350055074
241.699 83.53060622033159
250.488 82.57713986701185
259.277 82.95524039406912
268.066 83.90961781816662
276.855 82.47860949292168
287.109 82.4420477397273
297.363 83.3781748158491
307.617 84.03843443306464
319.336 83.29673354588735
329.59 82.66900489398101
341.309 82.80858883526854
353.027 82.48718627639315
366.211 82.69302234378941
379.395 82.3570151564753
392.578 82.20444579329941
405.762 82.55653041878043
420.41 82.48249664437056
435.059 82.60257623621722
451.172 82.40474914595842
465.82 82.32216385531379
483.398 82.23210620657962
499.512 81.70414902534765
517.09 82.2593590577298
536.133 82.09027997115494
555.176 82.30058263634257
574.219 81.8978259289131
594.727 82.24175542985522
615.234 82.23600582522938
637.207 81.5789773350788
659.18 81.80292582887594
682.617 81.66383133666652
707.52 81.69525601528709
732.422 80.99757138666082
757.324 81.57429196203239
785.156 81.16183019394354
811.523 81.52303427773133
840.82 80.7433000940069
870.117 80.19470789172027
900.879 80.3084232205227
933.105 82.52033474576423
965.332 81.81313582868404
1000.49 81.12614406603805
1035.64 81.58791071997705
1072.27 81.4003351072361
1108.89 81.13859717486093
1148.44 80.55413765118185
1189.45 81.91981993832893
1230.47 81.05356000217837
1274.41 81.61527230234272
1319.82 81.4531512619585
1366.7 83.10654290060789
1413.57 82.58293902351704
1463.38 81.74380375793267
1516.11 82.25335038796935
1568.85 81.49618285819187
1624.51 82.1823120646493
1681.64 81.78880522794324
1741.7 80.47378763350484
1803.22 80.17075908920778
1866.21 80.01850789661079
1932.13 79.86576105849086
1999.51 79.4291635427236
2069.82 79.49814723392849
2143.07 79.44379059570811
2219.24 79.29925696357465
2296.88 80.3944521605763
2378.91 80.7947521472796
2462.4 80.65526640548251
2548.83 80.77441111232868
2639.65 80.93981089847362
2731.93 80.45714487254008
2828.61 80.67602221080128
2928.22 81.02511463004315
3030.76 80.92069455490095
3137.7 81.06943083777581
3249.02 81.1231759435827
3363.28 81.11437161806137
3481.93 81.37416885284884
3604.98 81.44954877798554
3732.42 81.66345120556713
3864.26 81.88692258425314
4000.49 81.61013982522539
4141.11 81.85518928485912
4287.6 81.69616311427163
4438.48 81.74255664789717
4595.21 81.53906868939785
4756.35 81.20672770886013
4924.8 81.1103402037933
5097.66 80.88334236379653
5277.83 80.89875551834572
5463.87 80.89666545512428
5657.23 80.66231136298883
5856.45 80.76773103983305
6062.99 80.97821633857876
6276.86 80.59356329486367
6498.05 80.32209551526863
6726.56 80.34613583180833
6963.87 80.04597739143094
7209.96 79.8872514543174
7464.84 79.8644277349767
7727.05 79.66121344428302
7999.51 79.6167828398046
8282.23 79.48312956910492
8573.73 79.5236460070601
8876.95 79.36979496214335
9188.96 79.19385211589956
9514.16 78.81355373414469
9849.61 78.12276282804977
10196.8 78.1650642394596
10555.7 78.01318944332606
10927.7 78.12870896254823
11313.0 78.23856383204698
11712.9 78.12461509539014
12126.0 77.90771271952784
12553.7 77.65138645113268
12996.1 77.57028724749297
13454.6 77.47182359498353
13929.2 77.43803101678077
14419.9 77.25557391402717
14928.2 76.97324790683345
15455.6 76.8180159001394
16000.5 76.72266301180433
16564.5 76.87735723185052
17148.9 77.06169867557564
17752.4 77.88233956981999
18379.4 76.04197785839474
19026.9 76.23815466002293
19697.8 76.87646900659978
19999.5 76.93343015871766
