Freq "Sound Power"
20.5078 66.48319310722574
21.9727 67.84093648129883
23.4375 68.95447969222175
24.9023 69.80845066053854
26.3672 70.90415677585797
27.832 71.56544524828952
29.2969 72.64072211092311
30.7617 73.37879494498935
32.2266 73.9606694612839
33.6914 74.7350230504013
35.1562 75.6459841603332
36.6211 76.94746665859081
38.0859 77.18132720437724
39.5508 77.66298644260353
41.0156 78.05777889079043
42.4805 78.34732593616289
43.9453 79.09749040348517
45.4102 79.3552566152646
46.875 79.57978229621745
48.3398 80.32948271468123
51.2695 80.73228413100531
52.7344 80.96719054208016
54.1992 81.17729966896724
55.6641 81.35647271704566
58.5938 81.63992738465922
60.0586 81.69638486623512
62.9883 81.83194989863075
64.4531 82.0375422962865
67.3828 82.29458317278512
68.8477 82.37189803666824
71.7773 82.30795900867834
74.707 82.30375086227299
77.6367 82.25416904582707
79.1016 82.16610978795781
82.0312 82.18725209261365
84.9609 82.12058283863117
87.8906 82.19675581786211
90.8203 82.33858151453944
95.2148 82.24233139968027
98.1445 82.1118253562302
101.074 81.95192135892229
105.469 81.84554580334554
108.398 81.7768428765561
112.793 81.58338438340174
117.188 81.22873123123041
120.117 81.14951312562945
124.512 81.64031217938098
128.906 81.45148856579505
133.301 81.1565983546224
139.16 80.87653538852537
143.555 80.54229468268332
147.949 80.51478813567549
153.809 81.15860313763586
159.668 80.60921577185576
165.527 80.34766956205965
171.387 80.60805883976663
177.246 81.10616078783077
183.105 80.902095616877
188.965 80.96452677190142
196.289 81.22832560581513
203.613 80.49523806310297
210.938 80.40260952557288
218.262 81.09436140655687
225.586 81.43960190401025
232.91 81.66691331872956
241.699 81.69061320978774
250.488 80.96630735222126
259.277 80.93624058838293
268.066 81.81357929988997
276.855 80.82712465938891
287.109 80.49723096864385
297.363 81.3666177033707
307.617 81.99673292991775
319.336 81.31894975827436
329.59 80.76655161727463
341.309 80.52486885526335
353.027 80.29111922782924
366.211 80.38959869373251
379.395 80.06774969941054
392.578 79.84250350003923
405.762 80.2067039185459
420.41 79.76612936043647
435.059 79.87206912276775
451.172 79.3793156791267
465.82 79.43082861454423
483.398 79.61850624646124
499.512 79.26924330216964
517.09 79.12431706549945
536.133 78.86719224773012
555.176 79.26702525623999
574.219 78.82022648219963
594.727 78.68982188945962
615.234 78.9704985482682
637.207 78.22964098056842
659.18 78.5149488971525
682.617 78.59944757524768
707.52 78.40787103588943
732.422 77.74600217797693
757.324 78.24222870031404
785.156 78.512758483755
811.523 78.43665781432941
840.82 77.91408179265683
870.117 76.88735993825522
900.879 77.61454813246336
933.105 80.2147752850386
965.332 79.12200610679186
1000.49 78.32666208171695
1035.64 79.6618488151824
1072.27 78.80481803874885
1108.89 79.60153337392698
1148.44 79.70543030506188
1189.45 80.03976156596876
1230.47 79.09697989799291
1274.41 79.78812830775355
1319.82 79.40818869490258
1366.7 81.37799484978937
1413.57 80.80432504385355
1463.38 80.0996578419106
1516.11 80.16083681694546
1568.85 80.64725953029688
1624.51 79.9444631866752
1681.64 79.83491590400509
1741.7 79.07956039751431
1803.22 78.5207621317087
1866.21 78.34864165556324
1932.13 78.74812940596765
1999.51 78.13218176757638
2069.82 78.1524165086339
2143.07 77.92339946515189
2219.24 77.70121128779756
2296.88 78.7222978616132
2378.91 78.77605791766068
2462.4 78.73784185069874
2548.83 78.90858731133186
2639.65 79.10496017994083
2731.93 79.00531320588921
2828.61 79.16202079958508
2928.22 79.56406153123378
3030.76 79.41426070562902
3137.7 79.26078490555346
3249.02 79.3124837202568
3363.28 78.98712140295062
3481.93 79.23995047854568
3604.98 79.11791597145513
3732.42 79.06301008554654
3864.26 79.00017605903543
4000.49 78.54298941748922
4141.11 78.6474593443818
4287.6 78.59611159128225
4438.48 78.72840911007513
4595.21 78.6558020206563
4756.35 78.13578656117453
4924.8 77.80683606711845
5097.66 77.41633774364146
5277.83 77.18900267790691
5463.87 77.17337057299498
5657.23 77.11054460904013
5856.45 77.32325299954285
6062.99 77.33875092774946
6276.86 77.04935266589196
6498.05 76.87622500184226
6726.56 76.81955211599706
6963.87 76.70683470193546
7209.96 76.82388513419399
7464.84 76.61420917867368
7727.05 76.03765054070706
7999.51 75.73281363073296
8282.23 75.48734308682215
8573.73 75.59666142603233
8876.95 75.41653936315078
9188.96 75.19712464352841
9514.16 74.81350858302311
9849.61 74.52861160971621
10196.8 74.64839407751445
10555.7 74.29299373019676
10927.7 74.20836618186912
11313.0 74.23131258383648
11712.9 73.93029088149476
12126.0 73.50329713591483
12553.7 73.39792966953935
12996.1 73.43730330465162
13454.6 73.09485438035584
13929.2 73.0778810689947
14419.9 72.92573488988448
14928.2 72.69526456127707
15455.6 72.6450380420608
16000.5 72.508085221736
16564.5 72.53531285098335
17148.9 72.69394493462491
17752.4 73.46587379598081
18379.4 71.2053547900714
19026.9 71.6867218313267
19697.8 72.28992209193663
19999.5 72.2555281981763
