Freq "Sound Power"
20.5078 61.13457045182264
21.9727 57.714317548649035
23.4375 60.70010256362599
24.9023 64.97135162658626
26.3672 66.50889227453453
27.832 69.54153527556286
29.2969 71.15017104260284
30.7617 74.28087755870274
32.2266 76.14677189535955
33.6914 78.30881635638822
35.1562 80.31854712585843
36.6211 82.1163888305128
38.0859 83.91770183124085
39.5508 85.64956796350648
41.0156 87.11539431438177
42.4805 88.71914355236798
43.9453 89.56821998371973
45.4102 90.52666953048426
46.875 91.41804953529697
48.3398 92.1277898191216
51.2695 93.23758172326373
52.7344 93.64690458676566
54.1992 94.03436143972651
55.6641 94.30697614759107
58.5938 94.73456472537939
60.0586 94.89187137677425
62.9883 95.02253736258848
64.4531 95.0135232723675
67.3828 95.0523860190415
68.8477 95.05991667901648
71.7773 95.12646451076124
74.707 95.14033857863961
77.6367 95.16625457795332
79.1016 95.15252246731566
82.0312 95.07033331812228
84.9609 95.02121896712912
87.8906 95.01694204007929
90.8203 94.9645593589473
95.2148 94.81946618139841
98.1445 94.77432557161046
101.074 94.71302211925229
105.469 94.71637949579315
108.398 94.76922334629973
112.793 94.86541020666115
117.188 94.89353213231928
120.117 94.90550591229754
124.512 94.88826085192761
128.906 94.88732289261606
133.301 94.89388205937678
139.16 94.81441353361485
143.555 94.7555028495864
147.949 94.74106970724851
153.809 94.62430434801311
159.668 94.64914278492455
165.527 94.98298522637714
171.387 94.90926830021183
177.246 94.71154734359101
183.105 94.58748223844674
188.965 94.47114174652117
196.289 94.57711109332732
203.613 94.42749720132915
210.938 94.51112931324735
218.262 94.48288575500476
225.586 94.50530064522476
232.91 94.34524345324292
241.699 94.3872513073794
250.488 94.2991936717955
259.277 94.58205091826348
268.066 94.47105045018691
276.855 94.20398970424672
287.109 94.23028652246241
297.363 94.19965941228895
307.617 94.2855811412982
319.336 93.92906945798174
329.59 93.77224926545524
341.309 93.75530754935207
353.027 93.55602392636035
366.211 93.73905605860276
379.395 94.28492389115921
392.578 94.55106167889406
405.762 94.36585673586495
420.41 94.23714874372484
435.059 94.1865304912246
451.172 94.1555072493071
465.82 93.96100955010924
483.398 93.06643875110237
499.512 93.2154748819739
517.09 93.25636672307222
536.133 92.77498149844851
555.176 92.553353067316
574.219 92.69106704725759
594.727 92.8954091961568
615.234 93.05095308956695
637.207 92.59593067504099
659.18 92.19942649852476
682.617 92.10438671926264
707.52 91.78200127865519
732.422 91.52657055590666
757.324 91.09406215163287
785.156 90.49346505361736
811.523 90.4249135322336
840.82 90.68747126996172
870.117 91.66611049060629
900.879 91.4960155258243
933.105 91.75523398813613
965.332 91.46993003815867
1000.49 91.76016550640696
1035.64 91.18160884706772
1072.27 90.59963769883718
1108.89 90.45454576684418
1148.44 90.15239153137966
1189.45 90.35526354154011
1230.47 90.20751448291688
1274.41 90.33084770994493
1319.82 90.72730835887015
1366.7 90.99156605397312
1413.57 90.24073857188336
1463.38 89.7905490722269
1516.11 89.75297463060863
1568.85 89.05639718282183
1624.51 89.20853720012356
1681.64 89.87209553368675
1741.7 90.3679266647141
1803.22 90.33244012227443
1866.21 90.01337476990581
1932.13 89.37416080762314
1999.51 89.19456784677092
2069.82 89.1134365555285
2143.07 89.45952109748617
2219.24 89.37978022832954
2296.88 88.73553446511266
2378.91 88.03331002631492
2462.4 88.44543539307553
2548.83 89.3858742793058
2639.65 89.55384145369192
2731.93 88.98762858389387
2828.61 88.82697095805798
2928.22 89.32537273738654
3030.76 89.71901680462037
3137.7 89.46310243931838
3249.02 89.40231649139099
3363.28 89.23157570500142
3481.93 89.3179545933432
3604.98 89.50161772147855
3732.42 89.77959919241984
3864.26 90.14852887489066
4000.49 89.94498546003196
4141.11 90.46994244766131
4287.6 90.77947891744111
4438.48 91.06999315279513
4595.21 91.1948895703901
4756.35 91.41524357814933
4924.8 91.5443803486538
5097.66 91.86751692988418
5277.83 91.40480385982946
5463.87 91.72965991529044
5657.23 91.56087420838703
5856.45 91.44566455857463
6062.99 91.70491666242826
6276.86 91.14407206087255
6498.05 90.57346845807587
6726.56 90.18832225678307
6963.87 89.21078816326494
7209.96 88.72288881749512
7464.84 88.8689153290427
7727.05 88.56835927397417
7999.51 88.3728701916053
8282.23 87.65544782789215
8573.73 87.25059134220767
8876.95 86.90684603567288
9188.96 86.69252075722976
9514.16 86.30812353094001
9849.61 86.46644683761326
10196.8 86.87270689914742
10555.7 86.9754283223133
10927.7 86.81643264230178
11313.0 86.68478366604356
11712.9 86.3896810948913
12126.0 85.88663225764509
12553.7 85.42749687281523
12996.1 85.08761329567386
13454.6 84.72222782732261
13929.2 84.41220898468228
14419.9 83.99932699936672
14928.2 83.69689127673529
15455.6 83.3603207378728
16000.5 83.12605611983008
16564.5 82.91616056836696
17148.9 82.62596661466037
17752.4 82.36371006442863
18379.4 82.08849617103435
19026.9 81.85662625079303
19697.8 81.64788917022209
19999.5 81.69959828073213
