Freq "Sound Power"
22.4 61.6016571240753
23.0 61.35014742737589
23.6 60.680583923370364
24.0 59.675329256755504
25.0 58.51072983091211
25.8 57.331358325557744
26.5 56.30709080364031
27.2 55.50200871546622
28.0 54.87177767647577
29.0 54.4596209073045
30.0 54.14442696956709
30.7 53.957470300698105
31.5 53.908913272627046
32.5 54.033551409200385
33.5 54.42256711734922
34.5 55.10824860376087
35.5 56.138366805784045
36.5 57.40985901933192
37.5 58.774686123159626
38.7 60.03914901223783
40.0 61.07848192105365
41.2 61.90403216726166
42.5 62.594159761992685
43.7 63.28693962074756
45.0 64.14631410582507
46.2 65.16041584415831
47.5 66.35459753242974
48.7 67.68175685080303
50.0 69.1157836501907
51.5 70.58038126373464
53.0 72.02435491909802
54.5 73.37115681010982
56.0 74.45542544529202
58.0 75.25502245841203
60.0 75.72281710964921
61.5 75.98550654591911
63.0 76.20142000415873
65.0 76.49305920988408
67.0 76.94547662646684
69.0 77.5472203847434
71.0 78.17522162766004
73.0 78.77488873737721
75.0 79.33426304680708
77.5 79.78839594567592
80.0 80.21496531910407
82.5 80.63343152965172
85.0 81.10029313342886
87.5 81.58912548496117
90.0 82.11601271166806
92.5 82.5616638477615
95.0 82.93848972656136
97.5 83.20863825125562
100.0 83.4146620360029
103.0 83.55880417553045
106.0 83.70418691414434
109.0 83.8766375151835
112.0 84.0646612079863
115.0 84.25492513658544
118.0 84.39155482538116
122.0 84.48956746983771
125.0 84.47017798727371
128.0 84.31495686054836
132.0 84.10402500475179
136.0 83.86092087311765
140.0 83.7022942602275
145.0 83.61088396878986
150.0 83.60133316643676
155.0 83.6092929589503
160.0 83.5914972651712
165.0 83.56126739021822
170.0 83.44023370949213
175.0 83.34985473150351
180.0 83.22395068745982
185.0 83.15660771750703
190.0 83.09557666794042
195.0 83.04439789047284
200.0 82.98682495268876
206.0 82.8301354473239
212.0 82.57552522211512
218.0 82.23561290419092
224.0 81.87581815400051
230.0 81.6191135209118
236.0 81.52539093946123
240.0 81.59796707962262
250.0 81.746862493097
258.0 81.89816630436292
265.0 81.96993486353878
272.0 81.9473946529107
280.0 81.86906904637524
290.0 81.81362594416397
300.0 81.83090034426809
307.0 81.91506418948867
315.0 82.05185379191283
325.0 82.13109136968048
335.0 82.10447287846279
345.0 81.94012372668732
355.0 81.67329695892622
365.0 81.31276088264293
375.0 80.93516865639363
387.0 80.59286676934346
400.0 80.3229656615823
412.0 80.14310450244668
425.0 80.0153088512167
437.0 79.93428189275
450.0 79.86562023109937
462.0 79.81746140792748
475.0 79.73792396612845
487.0 79.61597636605262
500.0 79.3984175454857
515.0 79.08238774369441
530.0 78.69403725960466
545.0 78.34853085087722
560.0 78.05141515675916
580.0 77.88020513470143
600.0 77.82647271140077
615.0 77.78265914160195
630.0 77.70334837389174
650.0 77.51127910003595
670.0 77.25814637647393
690.0 77.04556805764922
710.0 77.00070814879169
730.0 77.19251791829163
750.0 77.49235627003192
775.0 77.68679174870887
800.0 77.5238708090031
825.0 77.03853456685498
850.0 76.34110830561333
875.0 75.77401286009297
900.0 75.630145152868
925.0 76.07299630924936
950.0 76.97868116019157
975.0 77.96658600893066
1000.0 78.70565181096453
1030.0 79.29833055748765
1060.0 79.8900883229219
1090.0 80.41990896580151
1120.0 80.58645197187326
1150.0 80.2200706649486
1180.0 79.6339505854125
1220.0 78.98362247763984
1250.0 78.361467478784
1280.0 77.72120973300183
1320.0 76.97171721463437
1360.0 76.02100858024642
1400.0 74.77077668320007
1450.0 73.2660864020597
1500.0 72.14028926133842
1550.0 71.85609130110171
1600.0 72.16758612607629
1650.0 72.86756594738192
1700.0 73.83478499457371
1750.0 74.67055077373429
1800.0 75.34753336858023
1850.0 76.07794317217956
1900.0 76.51516373674596
1950.0 76.5828947527324
2000.0 76.56816840865679
2060.0 76.34281351959555
2120.0 76.13011016361936
2180.0 75.9199370475537
2240.0 75.79359978828907
2300.0 75.71318181911768
2360.0 75.51179894946134
2400.0 75.16028048067639
2500.0 74.67010223624688
2580.0 74.27119652295931
2650.0 74.10310638945475
2720.0 74.00948081149232
2800.0 73.80891308474767
2900.0 73.43750857667675
3000.0 72.76132068948532
3070.0 72.09412121260755
3150.0 71.64798612355581
3250.0 71.5443526319284
3350.0 71.73116551280465
3450.0 72.09063823114417
3550.0 72.43849171377595
3650.0 72.71193407522237
3750.0 72.90933594482686
3870.0 72.99664764638031
4000.0 72.97794727424457
4120.0 72.9887384425378
4250.0 73.03955898310426
4370.0 73.22564520096742
4500.0 73.58978107054291
4620.0 73.98262229337556
4750.0 74.29994398512463
4870.0 74.37160785835752
5000.0 74.14373944920142
5150.0 73.85223336025757
5300.0 73.72090462229029
5450.0 73.85258450658866
5600.0 74.2894819076688
5800.0 74.83422216940022
6000.0 75.12747352280634
6150.0 75.07355340012802
6300.0 74.7674619324899
6500.0 74.20490579697514
6700.0 73.72324396607274
6900.0 73.46841767231443
7100.0 73.53687668928845
7300.0 73.94807294393458
7500.0 74.39848907141744
7750.0 74.36010269024739
8000.0 73.71146145950921
8250.0 73.13245159763565
8500.0 73.01156824253162
8750.0 73.57104455927829
9000.0 74.37036832292496
9250.0 74.78794268571295
9500.0 74.48452286160351
9750.0 74.03145026487914
10000.0 73.7316350046031
10300.0 73.72753158469996
10600.0 73.62629911005227
10900.0 73.66716461416088
11200.0 73.7120387567987
11500.0 73.55880654985128
11800.0 73.32146225917995
12200.0 73.59972456277461
12500.0 73.9983138837556
12800.0 74.60558045461784
13200.0 74.98771156427273
13600.0 74.77657516994431
14000.0 74.91011805852474
14500.0 74.55747113453666
15000.0 74.05564279355917
15500.0 73.70350477009244
16000.0 72.26951235210007
16500.0 72.04733068578864
17000.0 72.17805214194607
17500.0 71.56132044514109
18000.0 71.39899246175386
18500.0 70.31372652049285
19000.0 69.20468343559699
19500.0 68.23434799309453
