Freq,On Axis,Listening Window,Sound Power,Early Reflections,Early Reflections DI,Sound Power DI,DI offset
22.4,-2.5,-2.49922654699418,-2.87681408099715,-2.6764668573849235,20.177240310390744,20.37758753400297,20
23.0,-1.0,-1.054758716065919,-1.4356121478726322,-1.2149915755276766,20.160232859461757,20.380853431806713,20
23.6,0.4000000000000341,0.37848434425848154,0.004367226114737832,0.21181968364203385,20.166664660616448,20.374117118143744,20
24.0,1.8000000000000114,1.7900279461921969,1.4114893680268494,1.6157285564489428,20.174299389743254,20.378538578165347,20
25.0,3.1999999999999886,3.211741800636389,2.827005279202808,3.0358784545316553,20.175863346104734,20.38473652143358,20
25.8,4.599999999999994,4.556350601256071,4.17625649528253,4.392787278149626,20.163563323106445,20.38009410597354,20
26.5,5.899999999999977,5.856350601256111,5.478915411521854,5.691858700999262,20.16449190025685,20.377435189734257,20
27.2,7.199999999999989,7.134103475918266,6.7420613761907475,6.96715031411145,20.166953161806816,20.39204209972752,20
28.0,8.399999999999977,8.390027946192163,8.011489368026844,8.215728556448937,20.174299389743226,20.37853857816532,20
29.0,9.699999999999989,9.678484344258493,9.314876412008687,9.521644903113526,20.156839441144967,20.363607932249806,20
30.0,11.099999999999994,11.045241283934104,10.679319956149413,10.890797055237726,20.154444228696377,20.36592132778469,20
30.7,12.5,12.5117418006364,12.124526152711155,12.326473778112046,20.185268022524355,20.387215647925245,20
31.5,14.099999999999994,14.0563506012561,13.693476048418347,13.898632689926245,20.157717911329854,20.362874552837752,20
32.5,15.800000000000011,15.778484344258516,15.404367226114744,15.61181968364204,20.166664660616476,20.374117118143772,20
33.5,17.599999999999994,17.611741800636395,17.237088866154465,17.45927053138186,20.152471269254534,20.37465293448193,20
34.5,19.599999999999994,19.534103475918272,19.14503160219965,19.367150314111456,20.166953161806816,20.38907187371862,20
35.5,21.5,21.50077345300582,21.12318591900285,21.323533142615076,20.177240310390744,20.37758753400297,20
36.5,23.599999999999994,23.5341034759183,23.14503160219965,23.367150314111456,20.166953161806845,20.38907187371865,20
37.5,25.599999999999994,25.545241283934104,25.158423610779494,25.381128012211065,20.16411327172304,20.38681767315461,20
38.7,27.599999999999994,27.545241283934104,27.158423610779494,27.381128012211065,20.16411327172304,20.38681767315461,20
40.0,29.5,29.456350601256105,29.083712049146982,29.294732369481324,20.16161823177478,20.372638552109123,20
41.2,31.400000000000006,31.345241283934115,30.958423610779505,31.181128012211076,20.16411327172304,20.38681767315461,20
42.5,33.099999999999994,33.111741800636395,32.732367309387485,32.936841507091145,20.17490029354525,20.37937449124891,20
43.7,34.80000000000001,34.778484344258516,34.40436722611474,34.61181968364204,20.166664660616476,20.374117118143772,20
45.0,36.400000000000006,36.367431573271745,35.98996323188757,36.200619326092806,20.16681224717894,20.377468341384173,20
46.2,37.900000000000006,37.845241283934115,37.47628520431681,37.68889452572722,20.156346758206894,20.368956079617305,20
47.5,39.19999999999999,39.21174180063639,38.850187637882044,39.065197387670366,20.146544412966023,20.361554162754345,20
48.7,40.5,40.456350601256105,40.09347604841835,40.29863268992625,20.157717911329854,20.362874552837752,20
50.0,41.599999999999994,41.611741800636395,41.237543576077854,41.46022841123903,20.151513389397365,20.37419822455854,20
51.5,42.599999999999994,42.611741800636395,42.251499097457526,42.466153961335635,20.14558783930076,20.36024270317887,20
53.0,43.599999999999994,43.55635060125607,43.17746397575789,43.39375993270991,20.16259066854616,20.378886625498183,20
54.5,44.5,44.43410347591828,44.05438373029773,44.272111381679906,20.16199209423837,20.379719745620548,20
56.0,45.30000000000001,45.27848434425849,44.91487641200871,45.12164490311355,20.15683944114494,20.363607932249778,20
58.0,46.2,46.17848434425849,45.80595892779229,46.01383691985377,20.16464742440472,20.372525416466203,20
60.0,47.2,47.1452412839341,46.75842361077949,46.98112801221106,20.16411327172304,20.38681767315461,20
61.5,48.19999999999999,48.190027946192146,47.81327757096102,48.017743978282624,20.17228396790952,20.376750375231126,20
63.0,49.400000000000006,49.39002794619216,49.01346124442985,49.21765328945523,20.172374656736935,20.376566701762314,20
65.0,50.8,50.75635060125609,50.37625649528253,50.5927872781496,20.163563323106487,20.380094105973555,20
67.0,52.3,52.24524128393409,51.861651906704424,52.08404297098036,20.16119831295373,20.38358937722967,20
69.0,53.900000000000006,53.8452412839341,53.46165190670443,53.68404297098036,20.161198312953744,20.38358937722967,20
71.0,55.5,55.50077345300582,55.11813212312309,55.32353314261508,20.177240310390744,20.38264132988273,20
73.0,57.2,57.156350601256094,56.781929408071235,56.996689345052545,20.15966125620355,20.37442119318486,20
75.0,58.8,58.8117418006364,58.449053661326474,58.66519738767039,20.14654441296601,20.362688139309924,20
77.5,60.400000000000006,60.41174180063639,60.05018763788203,60.26519738767038,20.14654441296601,20.36155416275436,20
80.0,61.900000000000006,61.911741800636406,61.53236730938747,61.73684150709113,20.174900293545278,20.37937449124894,20
82.5,63.3,63.25635060125609,62.897300332715005,63.09863268992625,20.15771791132984,20.359050268541083,20
85.0,64.5,64.5117418006364,64.14360253233684,64.35929233773938,20.152449462897025,20.368139268299558,20
87.5,65.6,65.61174180063637,65.25596844964407,65.46330539424206,20.14843640639431,20.355773350992294,20
90.0,66.6,66.59002794619215,66.21549154539618,66.43007042234126,20.159957523850892,20.374536400795975,20
92.5,67.4,67.41174180063639,67.06792138757143,67.26424060326455,20.147501197371838,20.34382041306496,20
95.0,68.19999999999999,68.1452412839341,67.77033010273394,67.97508703012497,20.17015425380913,20.37491118120016,20
97.5,68.8,68.73410347591829,68.3571680322631,68.57211138167992,20.16199209423837,20.376935443655185,20
100.0,69.20000000000002,69.19002794619217,68.81346124442985,69.01765328945524,20.172374656736935,20.37656670176233,20
103.0,69.6,69.5452412839341,69.15298222289083,69.37758184609895,20.167659437835155,20.392259061043276,20
106.0,69.8,69.76743157327174,69.37293197925969,69.59205971257494,20.1753718606968,20.394499594012046,20
109.0,70.0,69.91148068598392,69.4911496366612,69.72928754025337,20.18219314573055,20.420331049322712,20
112.0,70.0,69.98925841531062,69.54612571536389,69.79610323882565,20.193155176484964,20.44313269994673,20
115.0,70.0,69.97823306508388,69.51916652231357,69.77495665663852,20.20327640844536,20.459066542770316,20
118.0,70.0,69.92267658830113,69.43066288640443,69.69008439314707,20.232592195154055,20.492013701896695,20
122.0,69.9,69.82267658830114,69.31381250932074,69.58813721852704,20.234539369774097,20.508864078980395,20
125.0,69.7,69.67823306508389,69.15513961673847,69.43720605665864,20.24102700842525,20.52309344834542,20
128.0,69.6,69.50076749445562,68.98994905899417,69.26724772210491,20.233519772350704,20.510818435461445,20
132.0,69.4,69.35583957685776,68.81144522413403,69.09537800203603,20.260461574821733,20.544394352723728,20
136.0,69.20000000000002,69.17823306508387,68.62984873312494,68.90697888150338,20.271254183580496,20.54838433195893,20
140.0,69.1,69.00051167804047,68.44376393812165,68.71729646390392,20.283215214136547,20.55674773991882,20
145.0,68.9,68.86717965375995,68.28282185872995,68.57161203586924,20.29556761789071,20.58435779503,20
150.0,68.8,68.71173585711585,68.11981720747872,68.40518783698548,20.30654802013038,20.591918649637137,20
155.0,68.7,68.58951489542682,67.97789563856712,68.27457813648792,20.3149367589389,20.611619256859697,20
160.0,68.6,68.52293110248064,67.86462793009488,68.18256611958668,20.34036498289396,20.658303172385757,20
165.0,68.5,68.46717965375996,67.78153654658396,68.1149463161477,20.35223333761226,20.68564310717599,20
170.0,68.5,68.45635060125608,67.71998008136168,68.0657025770238,20.390648024232277,20.736370519894393,20
175.0,68.6,68.48977136039704,67.67289087209544,68.0575849609142,20.432186399482845,20.816880488301607,20
180.0,68.6,68.53435732133559,67.64443707836318,68.06652475977411,20.46783256156148,20.88992024297241,20
185.0,68.6,68.55635060125609,67.62972227424717,68.08788790102221,20.46846270023387,20.926628327008913,20
190.0,68.7,68.62369469045713,67.62399362227815,68.11473736595626,20.50895732450087,20.99970106817898,20
195.0,68.8,68.67899856337448,67.60781243525633,68.13619774963021,20.542800813744265,21.071186128118143,20
200.0,68.8,68.72394914498047,67.59641968535452,68.1476454144729,20.57630373050756,21.127529459625947,20
206.0,68.8,68.74574189677526,67.56811975209158,68.13382726588699,20.611914630888265,21.17762214468368,20
212.0,68.9,68.75761921152593,67.51920718117078,68.12014503521938,20.637474176306554,21.23841203035515,20
218.0,68.9,68.74725531053346,67.4624388121432,68.08975147951094,20.657503831022524,21.284816498390256,20
224.0,68.8,68.69077385642433,67.3739168128339,68.01925290154009,20.671520954884244,21.31685704359043,20
230.0,68.8,68.64725531053347,67.26152753763746,67.9397458115539,20.70750949897956,21.385727772896004,20
236.0,68.7,68.55835948371906,67.09996917255874,67.80942210546851,20.748937378250545,21.458390311160315,20
240.0,68.6,68.45835948371905,66.92447085416124,67.67127499988484,20.787084483834207,21.533888629557808,20
250.0,68.5,68.33684377609937,66.71486816467768,67.50486923181755,20.83197454428182,21.62197561142169,20
258.0,68.3,68.16969299125256,66.46268951222638,67.29713706804385,20.872555923208708,21.707003479026184,20
265.0,68.19999999999999,67.99279618973183,66.17021091646484,67.06415409104719,20.928642098684648,21.822585273266995,20
272.0,68.0,67.8035348578753,65.84888559450405,66.81687747583061,20.986657382044697,21.954649263371252,20
280.0,67.80000000000001,67.62593872146715,65.54394515499493,66.56083026217811,21.065108459289036,22.08199356647222,20
290.0,67.6,67.43735704045325,65.23157937656075,66.31709538401964,21.120261656433613,22.205777663892505,20
300.0,67.4,67.23735704045326,64.94487062385588,66.10790544766104,21.129451592792222,22.292486416597384,20
307.0,67.3,67.12593872146715,64.68830173564886,65.90611060639165,21.2198281150755,22.437636985818287,20
315.0,67.2,67.02593872146717,64.46583863043652,65.7559820601436,21.269956661323576,22.560100091030648,20
325.0,67.1,66.92593872146716,64.29298326099678,65.62974358022268,21.296195141244482,22.632955460470384,20
335.0,67.0,66.86969299125256,64.16556868178135,65.54495396276067,21.32473902849189,22.70412430947121,20
345.0,67.0,66.86969299125256,64.10095095474954,65.53604560593888,21.333647385313682,22.768742036503028,20
355.0,67.1,66.92619896831792,64.07190196876505,65.5415750096322,21.384623958685722,22.854296999552872,20
365.0,67.1,66.95888210737651,64.07491946550209,65.57137703791881,21.387505069457703,22.88396264187442,20
375.0,67.2,67.0588821073765,64.10882641097217,65.63413712415775,21.42474498321876,22.950055696404334,20
387.0,67.3,67.13715535802844,64.15669282303469,65.70961364798518,21.427541710043258,22.980462534993748,20
400.0,67.4,67.23690167610866,64.23299975341703,65.79505758192008,21.441844094188582,23.003901922691625,20
412.0,67.5,67.35839436855936,64.31954912633496,65.8980393409403,21.46035502761906,23.038845242224397,20
425.0,67.6,67.48156371482702,64.40272664209098,66.0018803515969,21.479683363230123,23.078837072736036,20
437.0,67.80000000000001,67.61479768828609,64.4815097477719,66.09051920682762,21.524278481458467,23.133287940514194,20
450.0,67.9,67.7366593979225,64.54418964892162,66.17792393476827,21.55873546315422,23.192469749000878,20
462.0,68.0,67.83665939792249,64.57022174028234,66.22702194864597,21.60963744927652,23.266437657640154,20
475.0,68.1,67.88257993795769,64.56061684396565,66.24638120288257,21.636198735075112,23.32196309399204,20
487.0,68.1,67.92624529787051,64.5113009948684,66.23624275126512,21.690002546605385,23.414944303002102,20
500.0,68.1,67.9158061654439,64.41643251362224,66.18436880889894,21.73143735654496,23.499373651821656,20
515.0,68.0,67.83766281190367,64.25297252268956,66.08291542946205,21.75474738244162,23.58469028921411,20
530.0,68.0,67.74931528340888,64.04112938247243,65.92944303820693,21.81987224520195,23.708185900936442,20
545.0,67.80000000000001,67.61705225621984,63.829107559858855,65.77846238940514,21.8385898668147,23.78794469636098,20
560.0,67.7,67.49459641742757,63.59252200899046,65.61016721894859,21.884429198478983,23.902074408437116,20
580.0,67.6,67.37376890571903,63.378329052092354,65.44125948158282,21.932509424136214,23.995439853626678,20
600.0,67.5,67.2526051340367,63.18079288135121,65.29373823648059,21.958866897556106,24.07181225268549,20
615.0,67.4,67.14427122889398,63.0154686757851,65.18385492760702,21.96041630128697,24.128802553108883,20
630.0,67.4,67.07892139350312,62.913979978886175,65.11883871906194,21.960082674441182,24.164941414616948,20
650.0,67.4,67.09157580844193,62.87353629153931,65.11856640727666,21.97300940116527,24.21803951690262,20
670.0,67.4,67.13930555443686,62.88703284977262,65.17426564937213,21.965039905064728,24.252272704664236,20
690.0,67.5,67.2008800784902,62.93348131229982,65.26638084707426,21.93449923141594,24.267398766190382,20
710.0,67.6,67.30460155714776,63.023109545665235,65.40797492507025,21.896626632077513,24.281492011482527,20
730.0,67.7,67.41839323684633,63.112013447411684,65.52527702781148,21.893116209034844,24.306379789434644,20
750.0,67.9,67.54605464003997,63.235476958222435,65.68955280284617,21.856501837193804,24.310577681817534,20
775.0,68.0,67.68276402741955,63.35257644922268,65.8488350401449,21.833928987274646,24.33018757819687,20
800.0,68.1,67.80877110601112,63.45683150897206,66.00118308145517,21.807588024555955,24.351939597039063,20
825.0,68.19999999999999,67.90877110601112,63.5144267346889,66.11601513969688,21.792755966314232,24.39434437132222,20
850.0,68.3,67.99964372325053,63.547903298159454,66.20410009200833,21.795543631242197,24.451740425091074,20
875.0,68.4,68.0677429610848,63.54768022137198,66.26520868331443,21.802534277770377,24.520062739712827,20
900.0,68.4,68.0985027242075,63.50679964708701,66.27974876749951,21.818753956707994,24.5917030771205,20
925.0,68.5,68.1304961632181,63.445983988257865,66.29013194220865,21.84036422100945,24.684512174960233,20
950.0,68.5,68.11539606436352,63.362447007530605,66.26144568314335,21.853950381220173,24.752949056832918,20
975.0,68.4,68.06891609870533,63.242660903895725,66.2150916119386,21.853824486766726,24.826255194809605,20
1000.0,68.4,68.02304203570438,63.114552413617844,66.15961392251303,21.863428113191347,24.908489622086535,20
1030.0,68.3,67.9311372917252,62.954458191721926,66.05142919415718,21.879708097568013,24.976679100003267,20
1060.0,68.1,67.78365236853868,62.794412696803306,65.94261386479275,21.841038503745935,24.989239671735376,20
1090.0,68.0,67.68446629914148,62.627670747369194,65.79921370707727,21.885252592064205,25.056795551772282,20
1120.0,67.80000000000001,67.50663736630808,62.46810738844164,65.63024899098822,21.876388375319863,25.038529977866446,20
1150.0,67.6,67.31662824551566,62.31914877959454,65.44740757795456,21.869220667561095,24.997479465921117,20
1180.0,67.4,67.11891636026972,62.15469783474671,65.23644415344538,21.882472206824346,24.96421852552301,20
1220.0,67.2,66.93754507308952,62.00040088196977,64.9909735612625,21.946571511827017,24.937144191119756,20
1250.0,67.0,66.73465825460885,61.83798478172439,64.70346446955847,22.031193785050377,24.89667347288446,20
1280.0,66.9,66.56593340353284,61.679798713221416,64.38131483197229,22.18461857156055,24.886134690311422,20
1320.0,66.70000000000002,66.40929221508713,61.53432835923209,64.03910579003077,22.37018642505636,24.874963855855043,20
1360.0,66.6,66.25142941739324,61.40392287322062,63.70602441883095,22.54540499856229,24.847506544172617,20
1400.0,66.5,66.15498821308303,61.314080156386666,63.392222762640046,22.762765450442984,24.840908056696364,20
1450.0,66.4,66.0353094148275,61.22579244665755,63.092231235530775,22.94307817929672,24.809516968169945,20
1500.0,66.4,66.00124780513207,61.188192807028386,62.86253313686959,23.13871466826248,24.81305499810368,20
1550.0,66.4,66.05051908207159,61.18999842939979,62.71458225019421,23.335936831877376,24.860520652671795,20
1600.0,66.5,66.08800793033765,61.18716796231084,62.63076648253825,23.457241447799404,24.900839968026816,20
1650.0,66.70000000000002,66.24036570164398,61.19512178532641,62.636698727687346,23.603666973956635,25.045243916317574,20
1700.0,67.0,66.41488214448843,61.190459442070065,62.700731490760404,23.714150653728026,25.224422702418366,20
1750.0,67.2,66.61998910159437,61.16541071040119,62.81167757477833,23.80831152681604,25.45457839119318,20
1800.0,67.5,66.8508225300147,61.149496017892886,62.97637766212159,23.874444867893104,25.70132651212181,20
1850.0,67.80000000000001,67.08424893622976,61.12142929801331,63.145000473026485,23.93924846320327,25.962819638216445,20
1900.0,68.1,67.3311214987073,61.09074604747988,63.3141381933321,24.016983305375206,26.240375451227422,20
1950.0,68.3,67.50755581134301,61.02268396402306,63.4478011549954,24.059754656347607,26.48487184731995,20
2000.0,68.4,67.64229771318603,60.94995838353515,63.52752043119811,24.114777281987912,26.692339329650878,20
2060.0,68.5,67.71361814702095,60.837738383320186,63.54768106342186,24.16593708359909,26.875879763700766,20
2120.0,68.5,67.67939042771911,60.68955233307037,63.5051694576716,24.174220970047514,26.989838094648746,20
2180.0,68.5,67.63127677455033,60.53909083137572,63.434769303578264,24.196507470972065,27.092185943174613,20
2240.0,68.4,67.55447295062635,60.391212547537904,63.35257597678637,24.20189697383998,27.163260403088444,20
2300.0,68.19999999999999,67.38830375546887,60.237625011526504,63.227855874578864,24.160447880890004,27.150678743942365,20
2360.0,68.0,67.25935513479452,60.11637973819364,63.14273315756462,24.116621977229897,27.142975396600875,20
2400.0,67.9,67.08434206054079,60.001673406474,63.061194271467656,24.023147789073136,27.082668654066794,20
2500.0,67.7,66.93135239869218,59.91263097023517,63.01533566392881,23.916016734763375,27.018721428457013,20
2580.0,67.5,66.80607811663664,59.8525457161204,63.00593906376449,23.800139052872154,26.953532400516238,20
2650.0,67.3,66.71155392909387,59.81852673583853,63.06258428720045,23.648969641893416,26.893027193255335,20
2720.0,67.2,66.62464993935875,59.79492560045546,63.13685420067617,23.48779573868258,26.82972433890329,20
2800.0,67.1,66.56032191730239,59.8142483178117,63.24861462196765,23.31170729533474,26.746073599490686,20
2900.0,67.0,66.51948349115216,59.83154184302518,63.35975373019802,23.159729760954136,26.68794164812698,20
3000.0,66.9,66.50092666245652,59.85762556645173,63.468048059604044,23.032878602852477,26.64330109600479,20
3070.0,66.9,66.50298423555793,59.86988503808823,63.528368564023225,22.974615671534707,26.633099197469704,20
3150.0,66.9,66.49707801956575,59.838786920007166,63.53307135210713,22.96400666745862,26.658291099558582,20
3250.0,67.0,66.56182841586298,59.78987252471957,63.50610746084496,23.055720955018018,26.771955891143406,20
3350.0,67.1,66.59772773237626,59.67504314255024,63.41708229505757,23.180645437318688,26.92268458982602,20
3450.0,67.3,66.63855533060922,59.532780957458485,63.28292034239543,23.355634988213794,27.105774373150737,20
3550.0,67.5,66.69743743303893,59.38244397296312,63.15896411583492,23.53847331720401,27.31499346007581,20
3650.0,67.6,66.72122823366242,59.22052649453208,63.03170798879579,23.689520244866628,27.500701739130335,20
3750.0,67.80000000000001,66.73178119788724,59.03165473974569,62.90226520102797,23.82951599685927,27.700126458141554,20
3870.0,67.9,66.73657874434497,58.85072172825045,62.76869266623582,23.967886078109146,27.88585701609452,20
4000.0,68.0,66.72267834038163,58.683595192415524,62.66183140582105,24.060846934560587,28.03908314796611,20
4120.0,68.1,66.65172228138876,58.497399779590154,62.53004671941096,24.121675561977796,28.154322501798603,20
