Freq "Estimated In-Room Response"
22.4 53.48987677807257
23.0 54.42418044060476
23.6 55.373008343528696
24.0 56.28224298222101
25.0 57.18973889116013
25.8 58.08224298222099
26.5 58.97300834352869
27.2 59.837754776947946
28.0 60.71157109950893
29.0 61.573008343528684
30.0 62.404777917459555
30.7 63.22418044060477
31.5 64.0481002453775
32.5 64.83775477694795
33.5 65.61569031745475
34.5 66.38973889116014
35.5 67.17300834352868
36.5 67.97300834352869
37.5 68.77300834352869
38.7 69.59343262642129
40.0 70.43775477694795
41.2 71.31971014255474
42.5 72.2139335465996
43.7 73.08224298222099
45.0 73.92377655352426
46.2 74.72645760541512
47.5 75.44810024537749
48.7 76.082242982221
50.0 76.60146976551633
51.5 76.97673693768701
53.0 77.24830588112489
54.5 77.42846553483997
56.0 77.53852090874669
58.0 77.60491068325842
60.0 77.62113340754775
61.5 77.6412491620746
63.0 77.65843096572996
65.0 77.7180989067851
67.0 77.7942814000731
69.0 77.91467713365216
71.0 78.03553341294729
73.0 78.1838627080582
75.0 78.3417653937196
77.5 78.51521145713315
80.0 78.6916581741173
82.5 78.86987126747736
85.0 79.0622593298127
87.5 79.2180186523167
90.0 79.38352666862151
92.5 79.51623639173916
95.0 79.60502253321239
97.5 79.68921790534209
100.0 79.71406480807629
103.0 79.69692061870533
106.0 79.62563643634329
109.0 79.56343783926602
112.0 79.49451369095156
115.0 79.3901201315631
118.0 79.31334515551794
122.0 79.24058136187624
125.0 79.21282601777318
128.0 79.20865329431163
132.0 79.23798879780738
136.0 79.28183254832948
140.0 79.35007373057265
145.0 79.42131162570023
150.0 79.48206668054618
155.0 79.53599862260393
160.0 79.56621075516055
165.0 79.58104235783573
170.0 79.54904565089979
175.0 79.4958532573928
180.0 79.42214438633751
185.0 79.33041670972682
190.0 79.20470532404576
195.0 79.06224475341727
200.0 78.9074450659231
206.0 78.72749239296333
212.0 78.54461916831363
218.0 78.32041994719685
224.0 78.11691507942483
230.0 77.9399775833178
236.0 77.74936881993428
240.0 77.57902366276352
250.0 77.42382089503069
258.0 77.32226260200743
265.0 77.20618473289558
272.0 77.14562727889086
280.0 77.08160269578205
290.0 77.02830731084732
300.0 77.02583503967449
307.0 76.98690160884
315.0 76.96048598782906
325.0 76.90601810311908
335.0 76.8724785372441
345.0 76.83303164457962
355.0 76.8025303539239
365.0 76.75980479847455
375.0 76.69640854904782
387.0 76.63653768920216
400.0 76.56114092943425
412.0 76.49880025099067
425.0 76.41646131709977
437.0 76.3173371608968
450.0 76.2370098435952
462.0 76.18202081868073
475.0 76.09594049209961
487.0 76.05278914415321
500.0 75.99861160578602
515.0 75.95451074645456
530.0 75.92490449289332
545.0 75.86578238639844
560.0 75.81142350491164
580.0 75.74861743740861
600.0 75.64801277736197
615.0 75.5285638286921
630.0 75.38866155359844
650.0 75.23430765112909
670.0 75.08439204519841
690.0 74.91517420951264
710.0 74.77898266567455
730.0 74.66058082284678
750.0 74.57056191025447
775.0 74.49595404399584
800.0 74.44755256891445
825.0 74.43116450855437
850.0 74.41954555779563
875.0 74.45309465865095
900.0 74.4692091217179
925.0 74.54553308854501
950.0 74.57118714976107
975.0 74.60191643347049
1000.0 74.64966804708676
1030.0 74.73842129684522
1060.0 74.78068956764838
1090.0 74.87198858171512
1120.0 74.92163794386914
1150.0 75.0051263990601
1180.0 75.06156139942871
1220.0 75.07878937687256
1250.0 75.13817747202825
1280.0 75.1571518695854
1320.0 75.17346872428304
1360.0 75.18950542224093
1400.0 75.17284223278294
1450.0 75.17615638078883
1500.0 75.15503904159556
1550.0 75.1914936773559
1600.0 75.19272000256349
1650.0 75.20887509981685
1700.0 75.22754689535593
1750.0 75.26793590554674
1800.0 75.30701621840927
1850.0 75.3232427847889
1900.0 75.37002007283621
1950.0 75.39073163492306
2000.0 75.37684478448882
2060.0 75.40770521922835
2120.0 75.36990784974054
2180.0 75.35333593160935
2240.0 75.3300818179034
2300.0 75.32371067716784
2360.0 75.31749823399808
2400.0 75.31850948375006
2500.0 75.3435738610762
2580.0 75.40618348293745
2650.0 75.45904618812231
2720.0 75.55612604085091
2800.0 75.64373154342466
2900.0 75.74200884514893
3000.0 75.85398295366468
3070.0 75.91688245698873
3150.0 75.99900345402041
3250.0 76.02841876239471
3350.0 76.06804291161914
3450.0 76.080652109571
3550.0 76.11881230541947
3650.0 76.1512346997783
3750.0 76.19666936326115
3870.0 76.23694356866915
4000.0 76.28535866767204
4120.0 76.36138276480021
4250.0 76.45292820840187
4370.0 76.54634905868573
4500.0 76.6849421094378
4620.0 76.77916883851483
4750.0 76.8717210326741
4870.0 76.98242106604442
5000.0 77.06813079987579
5150.0 77.14971784191182
5300.0 77.2059622635055
5450.0 77.26430774846209
5600.0 77.29804636842705
5800.0 77.3374716654554
6000.0 77.36349386399263
6150.0 77.41210743276783
6300.0 77.47516632591748
6500.0 77.48569588423346
6700.0 77.54704476505783
6900.0 77.5926593771777
7100.0 77.6528337343944
7300.0 77.68188417153964
7500.0 77.71007770458272
7750.0 77.73344906738659
8000.0 77.76736699041736
8250.0 77.76216025907205
8500.0 77.76807191745073
8750.0 77.7626077360144
9000.0 77.73288292127081
9250.0 77.75023903067097
9500.0 77.73947805301938
9750.0 77.72736327201551
10000.0 77.73118770629118
10300.0 77.7487007600355
10600.0 77.73965742611033
10900.0 77.66502336484248
11200.0 77.64434982888322
11500.0 77.61715638100137
11800.0 77.54797126598622
12200.0 77.4734472049711
12500.0 77.35115278005553
12800.0 77.19239904929238
13200.0 77.06049131918991
13600.0 76.88763142043663
14000.0 76.66049131918992
14500.0 76.41160771353351
15000.0 76.15643421509193
15500.0 75.83668756769966
16000.0 75.48818502504874
16500.0 75.12744857750333
17000.0 74.72744857750332
17500.0 74.28856069303845
18000.0 73.87797199817037
18500.0 73.38629685287985
19000.0 72.88830959782258
19500.0 72.38831168545627
