Freq,Floor Bounce,Ceiling Bounce,Front Wall Bounce,Side Wall Bounce,Rear Wall Bounce,Total Early Reflection
22.4,54.18652064166791,48.98230649956842,55.03142096048346,54.399830779184825,53.62666029580022,53.676373031846495
23.0,55.126997876977256,49.88230649956843,55.960685077598285,55.32247325414757,54.57390663963149,54.608182280929825
23.6,56.086520641667946,50.88230649956843,56.90195831410922,56.2825756194447,55.52666029580023,55.5642647345238
24.0,56.98652064166792,51.782306499568435,57.83142096048347,57.182575619444705,56.426660295800204,56.47230264406751
25.0,57.88652064166793,52.68230649956844,58.73142096048345,58.08257561944471,57.33723069361268,57.37439666498106
25.8,58.786520641667934,53.58230649956842,59.63142096048345,58.9825756194447,58.226660295800215,58.27230264406752
26.5,59.686520641667926,54.48230649956842,60.50195831410922,59.882575619444694,59.12666029580022,59.16426473452378
27.2,60.526997876977234,55.363225047856005,61.38781919063811,60.72247325414757,59.984362804241954,60.023168781857336
28.0,61.426997876977254,56.18230649956841,62.260685077598296,61.59983077918483,60.85291848256064,60.89869317270927
29.0,62.286520641667934,57.08230649956842,63.101958314109226,62.4825756194447,61.726660295800215,61.76426473452379
30.0,63.126997876977256,57.88230649956843,63.93142096048345,63.29983077918483,62.56342523977169,62.592789172690004
30.7,63.926997876977254,58.682306499568426,64.7606850775983,64.12247325414756,63.373906639631485,63.408182280929836
31.5,64.72699787697725,59.58230649956842,65.60195831410924,64.92247325414756,64.20544200302808,64.23253330396288
32.5,65.52699787697726,60.36322504785602,66.38781919063811,65.72247325414757,64.98436280424197,65.02316878185734
33.5,66.32699787697726,61.08230649956842,67.1606850775983,66.49983077918482,65.76342523977168,65.80077451062631
34.5,67.08652064166793,61.88230649956844,67.93142096048345,67.2825756194447,66.53723069361267,66.57439666498105
35.5,67.88652064166793,62.682306499568426,68.70195831410923,68.08257561944471,67.32666029580021,67.36426473452379
36.5,68.68652064166794,63.48230649956842,69.50195831410923,68.88257561944471,68.12666029580019,68.1642647345238
37.5,69.48652064166792,64.28230649956843,70.30195831410923,69.6825756194447,68.92666029580022,68.9642647345238
38.7,70.28652064166793,65.08230649956843,71.13142096048345,70.49983077918483,69.73723069361266,69.77846509154874
40.0,71.12699787697726,65.96322504785603,71.98781919063809,71.32247325414757,70.58436280424198,70.62316878185734
41.2,72.02699787697726,66.78230649956843,72.86068507759829,72.22247325414757,71.46342523977168,71.50610449097798
42.5,72.92699787697727,67.68230649956843,73.7606850775983,73.09983077918483,72.36342523977167,72.40077451062632
43.7,73.7865206416679,68.58230649956842,74.63142096048345,73.9825756194447,73.22666029580022,73.27230264406751
45.0,74.62699787697726,69.46322504785601,75.4606850775983,74.82247325414757,74.06342523977168,74.11160591840535
46.2,75.42699787697727,70.26322504785601,76.26068507759828,75.62247325414758,74.87390663963149,74.91368107861048
47.5,76.12699787697726,70.98230649956842,77.00195831410923,76.32247325414757,75.6054420030281,75.63253330396289
48.7,76.78652064166793,71.58230649956843,77.63142096048345,76.98257561944472,76.2266602958002,76.27230264406751
50.0,77.32699787697726,72.08230649956845,78.13142096048345,77.49983077918482,76.747775426334,76.78968478665293
51.5,77.68652064166791,72.48230649956842,78.50195831410923,77.88257561944471,77.1266602958002,77.1642647345238
53.0,77.92699787697727,72.78230649956843,78.80195831410924,78.12247325414758,77.4054420030281,77.4325333039629
54.5,78.12699787697726,72.96322504785601,78.9606850775983,78.32247325414757,77.57390663963149,77.61368107861047
56.0,78.22699787697725,73.06322504785601,79.08781919063811,78.42247325414756,77.68460605983151,77.7232170012769
58.0,78.32699787697725,73.08230649956842,79.13142096048345,78.49983077918482,77.75829461829285,77.7917704452439
60.0,78.32699787697725,73.16322504785602,79.1606850775983,78.49983077918482,77.76342523977168,77.8062826896712
61.5,78.32699787697725,73.18230649956844,79.18781919063811,78.52247325414756,77.79503652687156,77.82659376881479
63.0,78.36194729184086,73.18230649956844,79.20195831410923,78.54079116945019,77.8160641076579,77.84679150125542
65.0,78.42699787697725,73.18230649956844,79.2606850775983,78.62247325414758,77.86342523977169,77.90610449097798
67.0,78.52699787697726,73.28230649956843,79.33142096048346,78.6825756194447,77.94238624500815,77.98455891021679
69.0,78.62699787697726,73.38230649956843,79.46068507759828,78.82247325414757,78.05291848256064,78.1040257064757
71.0,78.72699787697726,73.48230649956842,79.60195831410924,78.92247325414758,78.18436280424197,78.22156330984726
73.0,78.88652064166793,73.66322504785602,79.73142096048345,79.0825756194447,78.32666029580021,78.37100918484434
75.0,79.02699787697726,73.83209919948374,79.90195831410924,79.22247325414757,78.50568408083001,78.52915821715528
77.5,79.22699787697726,73.98230649956844,80.0606850775983,79.42247325414758,78.65291848256065,78.7040257064757
80.0,79.38652064166793,74.18230649956843,80.23142096048346,79.59983077918483,78.83723069361268,78.87846509154873
82.5,79.58652064166793,74.38230649956843,80.40195831410925,79.76125264727025,79.0160641076579,79.05714119002164
85.0,79.78652064166793,74.58230649956842,80.58781919063811,79.9407911694502,79.2054420030281,79.24637681505338
87.5,79.91152326304966,74.78230649956843,80.73142096048346,80.09983077918484,79.3739066396315,79.39821563660722
90.0,80.08652064166795,74.98230649956842,80.8878191906381,80.26125264727027,79.53723069361267,79.56438625935981
92.5,80.21152326304966,75.08230649956843,81.03142096048346,80.39983077918482,79.66342523977168,79.69613307170512
95.0,80.31152326304965,75.18230649956843,81.10195831410924,80.49983077918482,79.75829461829287,79.78711936825832
97.5,80.38652064166793,75.28230649956842,81.20195831410923,80.59983077918483,79.82666029580021,79.87521480430898
100.0,80.42699787697727,75.18230649956843,81.2606850775983,80.59983077918483,79.86342523977167,79.90077451062632
103.0,80.40265313251614,75.13209919948375,81.2606850775983,80.62247325414758,79.84238624500814,79.893089985465
106.0,80.34391589069239,74.93209919948373,81.23142096048345,80.54398700489602,79.7741504815774,79.82662475042426
109.0,80.29693704381889,74.73209919948374,81.23142096048345,80.50530799974698,79.67938141716078,79.77552385367335
112.0,80.21655999317606,74.56382205324667,81.20195831410923,80.44398700489603,79.62173283393358,79.71296005444866
115.0,80.09430925610404,74.33341139788129,81.14574459001024,80.36692173575643,79.50629485407717,79.61494929498538
118.0,80.01595200332335,74.0849305486431,81.14574459001024,80.28505351870534,79.40629485407716,79.54414691539426
122.0,79.90464912211596,73.8667207368606,81.11637928414997,80.24993160795871,79.32776680217106,79.47515339347854
125.0,79.82924838946488,73.61903234364802,81.14574459001024,80.24993160795871,79.2968733454073,79.4479760101277
128.0,79.74331750677855,73.50137735040873,81.18748929892043,80.29026597263655,79.28691708213027,79.44355862736013
132.0,79.6891593929224,73.3840546157494,81.28748929892042,80.34993160795871,79.29758453661863,79.47292450922721
136.0,79.61628511153324,73.33736534393184,81.35775667464532,80.4499316079587,79.35573061997998,79.51278360558801
140.0,79.56348032238098,73.29124872640115,81.50165212437173,80.52844735789812,79.41390762695077,79.57508065038755
145.0,79.4927276533821,73.24570374002572,81.62979499755905,80.62844735789812,79.47671077107944,79.63643677456356
150.0,79.42330268140095,73.1746684327642,81.74479812098768,80.7284473578981,79.52526628876196,79.6912488858786
155.0,79.30529495129532,73.12057765478032,81.87331062323638,80.80530799974699,79.55215695932958,79.73349683088121
160.0,79.12285985267754,73.09124872640115,81.9447981209877,80.905307999747,79.5741414152039,79.75351715407768
165.0,78.94302103107543,72.97191802906558,82.04479812098769,80.92844735789812,79.56389943704127,79.7555644784699
170.0,78.70489348120857,72.86672073686061,82.08916941195312,80.92844735789812,79.49119447674505,79.71388318460772
175.0,78.38687662824874,72.70348581491062,82.08916941195312,80.92844735789812,79.4033394151304,79.64152081247447
180.0,78.11861981293832,72.57131751433741,82.08916941195312,80.88846767221156,79.25139743145965,79.55749627768687
185.0,77.712106446973,72.3606180908071,82.08916941195312,80.81169669039316,79.12181371006555,79.44768784450282
190.0,77.36049414662605,72.10449239072294,82.03410976023338,80.71169669039317,78.95024081757633,79.31218671089925
195.0,76.92750889663556,71.82618710391505,81.96204375999245,80.61169669039317,78.74040628913491,79.15479412640126
200.0,76.47551113390337,71.50091389014041,81.89177750674625,80.47717554598339,78.52066492456056,78.98593773902552
206.0,76.03307048224222,71.15412591517942,81.79177750674626,80.3010058714601,78.30150180164962,78.79711994143528
212.0,75.507231082588,70.70791075563449,81.69177750674625,80.14052714270638,78.05140969537663,78.5983174008012
218.0,74.97490597170145,70.3079107556345,81.5187186515055,79.9645588560901,77.76492579420352,78.36321259167802
224.0,74.47208533927109,69.9079107556345,81.39177750674627,79.78490892122149,77.48768168928895,78.15330137999185
230.0,73.9756788103666,69.48509485802376,81.29177750674624,79.63082870577779,77.21586631657814,77.96609442330974
236.0,73.40899676225253,69.08509485802377,81.17658977321828,79.45547342646472,76.94862435070529,77.76535215315619
240.0,72.95175093908689,68.73155215291052,81.07658977321829,79.27732080935237,76.69892181841527,77.58554832682805
250.0,72.4973538633012,68.45412591517942,80.9765897732183,79.16959676788261,76.42360765872525,77.42691248140345
258.0,72.08820459345485,68.18509485802375,80.95000634017072,79.06959676788262,76.21348181042032,77.31979551195458
265.0,71.67953548444189,68.00791075563451,80.9048949937362,78.93742784476852,75.98648868930967,77.19649234953356
272.0,71.23014170020856,67.90049345838577,80.9048949937362,78.90235869497555,75.79261643454423,77.1303313922767
280.0,70.85985852243832,67.80049345838577,80.9048949937362,78.83631489701509,75.59578340196127,77.0611788213135
290.0,70.49795038530483,67.77033939633071,80.9048949937362,78.8053124405916,75.38914672320296,77.00535577100398
300.0,70.15398717542614,67.74066805893999,80.97848478147017,78.80154406899153,75.23233664696122,77.00393002878347
307.0,69.88709244753106,67.74066805893999,80.97848478147017,78.78173448818913,75.05695042371498,76.96421368503458
315.0,69.56452694489039,67.68760046288921,81.00489499373622,78.76797653406331,74.8695033659681,76.93620135553248
325.0,69.24599525879286,67.63510672000848,80.97848478147017,78.76797653406331,74.69207112738007,76.88840439359475
335.0,69.00261247566854,67.58107444645536,80.97848478147017,78.75448951060214,74.5441754887031,76.8571809243431
345.0,68.7611173704908,67.55934271306731,80.97848478147017,78.75448951060214,74.33951028538924,76.82537944796904
355.0,68.52154635407234,67.4892806696627,81.00879413841812,78.69093439569848,74.17123113105309,76.79386831964109
365.0,68.30523724037153,67.42698400522295,81.00879413841812,78.64126890037402,73.99354315994934,76.75160709907367
375.0,68.18197279351602,67.3907315663584,80.9830101142699,78.56884502061688,73.81181361122292,76.69212155338114
387.0,68.11544344341651,67.36597134844476,80.9830101142699,78.4397034306344,73.61835831066831,76.63054668321955
400.0,68.0729666769864,67.28120401425274,80.95766424354281,78.29126877160054,73.45824579357351,76.55292913961124
412.0,68.1212983273772,67.28173928668521,80.95766424354281,78.11541918620564,73.2700685341544,76.48428698859682
425.0,68.18205840444084,67.21837380767319,80.92904849392177,77.9052355410798,73.11246035514432,76.39312062893846
437.0,68.30766792180223,67.21814364711209,80.8729181897017,77.68747417784994,72.91743279124101,76.28586232705405
450.0,68.44453229386481,67.18022571487502,80.83275157997822,77.46769085464098,72.74724040971235,76.1907713866125
462.0,68.57096325109015,67.12172998135338,80.83275157997822,77.23169054674324,72.60615519630741,76.11882300395091
475.0,68.69784436525045,67.10099270130729,80.77932296839602,77.02419410351385,72.43336823902321,76.02288718688077
487.0,68.89784436525044,67.0806313433322,80.77932296839602,76.80423479414112,72.28113423386223,75.96241460911811
500.0,69.01456592084493,66.99681273552736,80.75510042083404,76.60725182558454,72.11749210167729,75.88914120693687
515.0,69.17669878874968,66.91330886278799,80.73129800243315,76.4588329152595,72.00066160245801,75.83479357138502
530.0,69.23937186872666,66.84726492503783,80.73129800243315,76.29418276781429,71.81182270101463,75.7829370776896
545.0,69.33937186872664,66.76473473029549,80.67896411215163,76.13811465280416,71.69931392885998,75.70879989298717
560.0,69.36632597758204,66.62049023660605,80.65583275079275,75.96494103536722,71.4772102449227,75.63665910170018
580.0,69.40512613244123,66.45898516336177,80.60432972171141,75.8365676107286,71.27430499563292,75.55880356361408
600.0,69.41171220727222,66.23624153874317,80.52049822821768,75.664810116485,71.01034268245239,75.44421352884326
615.0,69.36438179720037,65.89628374205206,80.42049822821768,75.45686764542417,70.72471110423761,75.30555451776657
630.0,69.33367675969127,65.52081413224276,80.31467853559536,75.24147969519834,70.35810082653245,75.15735899092424
650.0,69.25129383798999,65.1066415492658,80.17612024989526,75.03493945184255,70.00259642679404,74.9880718147064
670.0,69.1486897954667,64.79473218864022,80.0476262481967,74.83628725141189,69.62612104218037,74.82779112466186
690.0,68.95887294614774,64.35477526184494,79.89277225987624,74.67426917406674,69.26413115983193,74.65187863962807
710.0,68.8781516189368,64.07269619418159,79.76438765972678,74.56767831274561,68.96690751675028,74.51806768987827
730.0,68.7367316609521,63.82057197226932,79.66438765972678,74.47861095184773,68.715679324808,74.40704018985815
750.0,68.60752499644373,63.60237277382612,79.56438765972679,74.51433695581945,68.58777928603206,74.329896688124
775.0,68.40846096115679,63.500493458385776,79.48147278830731,74.55945426695459,68.50355867852922,74.26752071754213
800.0,68.2860952288202,63.35865724017869,79.40343598990846,74.66552709124274,68.4548562501509,74.22775460583632
825.0,68.0921623465399,63.21595200332334,79.3814727883073,74.79561316106098,68.46441367528617,74.23108817098878
850.0,67.9629078393669,62.98889049053281,79.34878181929044,74.92944638091224,68.51216774210435,74.23356725766214
875.0,67.83895752123954,62.675063031716704,79.37091054784845,75.1088558577723,68.52782209511966,74.28123837874894
900.0,67.73806994145852,62.331555464068416,79.37091054784845,75.25713235205764,68.5712509456535,74.31087014730537
925.0,67.6429411441418,61.94214978057117,79.45378373474549,75.43326871819136,68.60767437342,74.40136335913205
950.0,67.5710762882939,61.561277112094345,79.45378373474549,75.59752215804109,68.61649048293201,74.43699436266753
975.0,67.57555278790072,61.27532051493634,79.47640057047573,75.70954814612135,68.64659088775294,74.47974086535196
1000.0,67.58366865039733,60.99242058227307,79.50470702014275,75.846461688136,68.67790228115003,74.53363021661589
1030.0,67.61355925305682,60.76753494617817,79.60470702014275,75.9465389628745,68.75571093194796,74.62691884381384
1060.0,67.68214214704348,60.68013829070436,79.62758020744901,76.05359734077533,68.79205949478128,74.67439120805453
1090.0,67.7590240911095,60.60438876291987,79.72758020744904,76.15359734077532,68.88931052023769,74.77195372680185
1120.0,67.82885569273522,60.61688630006816,79.75968554741489,76.23875776029757,68.93713928484759,74.82087211760513
1150.0,67.82190192747866,60.642647718932054,79.85968554741491,76.30768945712073,68.97661610385245,74.90437470248487
1180.0,67.89351125469588,60.628023772499404,79.92758020744903,76.35049360757537,68.95709832046855,74.96045341500663
1220.0,67.78766646944312,60.67168531355222,79.9596855474149,76.36694849891181,68.88989714706543,74.97805276915305
1250.0,67.68766646944313,60.61798740949018,80.0596855474149,76.36040563044095,68.82547425888275,75.03230174803112
1280.0,67.60142062093053,60.5503860982826,80.10470702014275,76.3666783008825,68.61309192037781,75.04921466047088
1320.0,67.42975980388253,60.45447715330634,80.17640057047572,76.31231296242068,68.35385957560986,75.06270012373797
1360.0,67.18214214704348,60.296749676160246,80.23698126844558,76.28801745979112,68.08614499956774,75.07537370471091
1400.0,67.02299570617507,60.08637896901463,80.25378373474547,76.23521792557614,67.82890252366447,75.0560699457849
1450.0,66.78484442271932,59.8770397714101,80.31467853559536,76.1604096329518,67.52462590268847,75.0574794258597
1500.0,66.54028489595063,59.595628709618,80.33156734312868,76.10194423763055,67.24886383652554,75.03564352717386
1550.0,66.3920233819769,59.36873383536248,80.4097463048834,76.07372988252268,67.0839238788355,75.07094632248065
1600.0,66.23301486137184,59.053521650269914,80.44273131524615,76.01703620089033,66.92614009450779,75.06859971921884
1650.0,66.15407849275623,58.72067914588753,80.49326599014053,75.98346138584952,66.8854031595057,75.09036984891674
1700.0,66.12633263903952,58.43781340417853,80.51063265137013,76.00676396305751,66.90021010948217,75.10663311757135
1750.0,66.10561737721414,58.13660504903079,80.57224439796833,76.00569323098078,66.96852419668657,75.14953264144248
1800.0,66.06530863402067,57.84109432205928,80.62360108344741,76.0160435241012,67.09173572973826,75.18954871214426
1850.0,66.00757365249844,57.55477168396807,80.64124799874557,76.04049884850288,67.21642899018529,75.20929257242359
1900.0,65.95299092212623,57.24583147157399,80.70320245471571,76.06538206286764,67.30654427198134,75.25920342595846
1950.0,65.89453702187068,56.97641629732151,80.72093228243581,76.12345715695314,67.39345438726278,75.2862680215169
2000.0,65.74577649534531,56.655219693083794,80.72093228243581,76.06681103640373,67.4426269252428,75.26991695065422
2060.0,65.57811214527464,56.3666855279002,80.77553278001086,76.08540235984178,67.3958993506296,75.30681833112368
2120.0,65.32867869856081,56.05603885002968,80.74124799874556,76.07448682510196,67.31930257518407,75.27162548322435
2180.0,65.0751198307131,55.74935766478275,80.74124799874556,76.04965587174273,67.18665849441906,75.25575170541816
2240.0,64.83062333191391,55.47977745790571,80.74124799874556,76.0072878197339,67.02591822900473,75.23551098825051
2300.0,64.50009898430525,55.20986628672331,80.76193901340312,75.98320674664227,66.88658186200861,75.23401712818718
2360.0,64.16568014262914,54.974493510304384,80.76193901340312,76.01210582087948,66.74126877478587,75.23083314831356
2400.0,63.85466802568986,54.739645319760015,80.7830104260341,76.01210582087948,66.61649874998041,75.23731400780115
2500.0,63.539830411534055,54.5404416794549,80.81063265137014,76.08913701206863,66.47680075647105,75.26712062113236
2580.0,63.24299241091201,54.38623512455236,80.88301042603408,76.18913701206864,66.46436282561852,75.33884617539394
2650.0,63.037165979424614,54.238581192224004,80.93195385844311,76.28913701206865,66.46875880299739,75.39576358942641
2720.0,62.76735612808865,54.17244660678604,81.03195385844312,76.44475814781264,66.49517573170142,75.50327293337844
2800.0,62.49070598577882,54.09066301838193,81.1319538584431,76.55455471349441,66.49207055724428,75.59904138312915
2900.0,62.3172939855713,54.071335494460286,81.21467241741301,76.74475814781265,66.56908544001314,75.70609885854262
3000.0,62.04560403798344,54.04583613335522,81.33646878050928,76.87906554251782,66.60347599185174,75.82531952912478
3070.0,61.865482939798184,53.954775261844944,81.40343598990847,76.97906554251783,66.61526615496261,75.89720707431194
3150.0,61.67573538182968,53.89781355337145,81.48643721525845,77.11345398283422,66.62287276181665,75.98943219889665
3250.0,61.47573538182968,53.7928037056363,81.50888507559837,77.20378952880654,66.59975086433565,76.02677051803038
3350.0,61.275735381829676,53.63543550538809,81.5596855474149,77.26337658880503,66.49359415429562,76.07440645489228
