Freq,Floor Bounce,Ceiling Bounce,Front Wall Bounce,Side Wall Bounce,Rear Wall Bounce,Total Early Reflection
22.4,54.18652064166791,48.98230649956842,55.03142096048346,54.399830779184825,53.62666029580022,53.676373031846495
23.0,55.126997876977256,49.88230649956843,55.960685077598285,55.32247325414757,54.57390663963152,54.608182280929825
23.6,56.08652064166792,50.88230649956843,56.90195831410925,56.2825756194447,55.52666029580023,55.564264734523775
24.0,56.98652064166792,51.782306499568435,57.83142096048347,57.182575619444705,56.426660295800204,56.47230264406751
25.0,57.88652064166796,52.68230649956841,58.73142096048345,58.0825756194447,57.33723069361268,57.37439666498106
25.8,58.786520641667934,53.58230649956842,59.63142096048345,58.9825756194447,58.226660295800215,58.272302644067494
26.5,59.686520641667926,54.48230649956845,60.501958314109245,59.882575619444694,59.12666029580021,59.1642647345238
27.2,60.52699787697726,55.363225047856005,61.38781919063811,60.72247325414757,59.98436280424197,60.023168781857336
28.0,61.42699787697727,56.18230649956841,62.260685077598296,61.59983077918481,60.85291848256064,60.89869317270927
29.0,62.286520641667934,57.08230649956842,63.10195831410921,62.48257561944472,61.726660295800215,61.76426473452379
30.0,63.126997876977256,57.88230649956843,63.93142096048345,63.299830779184816,62.56342523977169,62.59278917268999
30.7,63.926997876977254,58.68230649956841,64.7606850775983,64.12247325414758,63.37390663963147,63.40818228092982
31.5,64.72699787697725,59.58230649956842,65.60195831410924,64.92247325414756,64.2054420030281,64.2325333039629
32.5,65.52699787697726,60.363225047856005,66.38781919063811,65.72247325414757,64.98436280424197,65.02316878185734
33.5,66.32699787697726,61.082306499568446,67.1606850775983,66.49983077918482,65.76342523977168,65.80077451062631
34.5,67.08652064166793,61.88230649956844,67.93142096048345,67.2825756194447,66.53723069361267,66.57439666498105
35.5,67.88652064166793,62.682306499568426,68.70195831410923,68.0825756194447,67.32666029580021,67.36426473452379
36.5,68.68652064166793,63.48230649956842,69.50195831410922,68.8825756194447,68.12666029580022,68.16426473452378
37.5,69.48652064166792,64.28230649956842,70.30195831410923,69.6825756194447,68.92666029580022,68.96426473452378
38.7,70.28652064166793,65.08230649956842,71.13142096048345,70.49983077918482,69.73723069361267,69.77846509154874
40.0,71.12699787697726,65.96322504785601,71.98781919063812,71.32247325414757,70.58436280424198,70.62316878185734
41.2,72.02699787697726,66.78230649956842,72.8606850775983,72.22247325414757,71.46342523977167,71.50610449097796
42.5,72.92699787697725,67.68230649956844,73.7606850775983,73.09983077918483,72.36342523977169,72.4007745106263
43.7,73.78652064166793,68.58230649956842,74.63142096048345,73.9825756194447,73.22666029580022,73.2723026440675
45.0,74.62699787697726,69.46322504785601,75.4606850775983,74.82247325414758,74.06342523977168,74.11160591840536
46.2,75.42699787697725,70.26322504785601,76.2606850775983,75.62247325414756,74.8739066396315,74.91368107861048
47.5,76.12699787697726,70.98230649956842,77.00195831410922,76.32247325414757,75.6054420030281,75.63253330396289
48.7,76.78652064166793,71.58230649956843,77.63142096048345,76.9825756194447,76.2266602958002,76.27230264406751
50.0,77.32699787697725,72.08230649956842,78.13142096048345,77.49983077918482,76.747775426334,76.78968478665293
51.5,77.68652064166794,72.48230649956842,78.50195831410923,77.88257561944471,77.12666029580022,77.1642647345238
53.0,77.92699787697725,72.78230649956842,78.80195831410923,78.12247325414756,77.4054420030281,77.43253330396288
54.5,78.12699787697726,72.96322504785603,78.9606850775983,78.32247325414757,77.57390663963147,77.61368107861048
56.0,78.22699787697725,73.06322504785601,79.08781919063811,78.42247325414758,77.6846060598315,77.72321700127688
58.0,78.32699787697727,73.08230649956843,79.13142096048345,78.49983077918482,77.75829461829287,77.79177044524391
60.0,78.32699787697727,73.16322504785602,79.16068507759829,78.49983077918482,77.76342523977168,77.80628268967122
61.5,78.32699787697727,73.18230649956843,79.18781919063811,78.52247325414756,77.79503652687157,77.82659376881479
63.0,78.36194729184085,73.18230649956843,79.20195831410923,78.54079116945019,77.81606410765791,77.84679150125542
65.0,78.42699787697724,73.18230649956843,79.26068507759831,78.62247325414758,77.86342523977167,77.90610449097797
67.0,78.52699787697726,73.28230649956843,79.33142096048346,78.6825756194447,77.94238624500815,77.98455891021679
69.0,78.62699787697726,73.38230649956843,79.4606850775983,78.82247325414757,78.05291848256064,78.1040257064757
71.0,78.72699787697725,73.48230649956842,79.60195831410924,78.92247325414756,78.18436280424197,78.22156330984724
73.0,78.88652064166793,73.66322504785603,79.73142096048346,79.08257561944471,78.32666029580021,78.37100918484435
75.0,79.02699787697726,73.83209919948374,79.90195831410924,79.22247325414756,78.50568408083002,78.52915821715528
77.5,79.22699787697725,73.98230649956842,80.0606850775983,79.42247325414758,78.65291848256065,78.70402570647568
80.0,79.38652064166793,74.18230649956843,80.23142096048345,79.59983077918483,78.83723069361268,78.87846509154873
82.5,79.58652064166793,74.38230649956843,80.40195831410924,79.76125264727025,79.0160641076579,79.05714119002164
85.0,79.78652064166792,74.58230649956842,80.58781919063811,79.9407911694502,79.2054420030281,79.24637681505338
87.5,79.91152326304966,74.78230649956843,80.73142096048346,80.09983077918484,79.3739066396315,79.39821563660722
90.0,80.08652064166793,74.98230649956842,80.8878191906381,80.26125264727025,79.53723069361268,79.56438625935981
92.5,80.21152326304966,75.08230649956842,81.03142096048346,80.39983077918482,79.66342523977168,79.69613307170512
95.0,80.31152326304965,75.18230649956844,81.10195831410924,80.49983077918482,79.75829461829287,79.7871193682583
97.5,80.38652064166793,75.28230649956842,81.20195831410923,80.59983077918483,79.82666029580021,79.87521480430897
100.0,80.42699787697725,75.18230649956844,81.2606850775983,80.59983077918483,79.86342523977169,79.9007745106263
103.0,80.40265313251614,75.13209919948375,81.2606850775983,80.62247325414756,79.84238624500814,79.893089985465
106.0,80.34391589069239,74.93209919948374,81.23142096048345,80.54398700489602,79.7741504815774,79.82662475042424
109.0,80.29693704381889,74.73209919948373,81.23142096048345,80.50530799974698,79.67938141716078,79.77552385367335
112.0,80.21655999317606,74.56382205324667,81.20195831410923,80.44398700489603,79.62173283393358,79.71296005444867
115.0,80.09430925610405,74.33341139788129,81.14574459001024,80.36692173575642,79.50629485407715,79.6149492949854
118.0,80.01595200332335,74.08493054864311,81.14574459001024,80.28505351870533,79.40629485407716,79.54414691539425
122.0,79.90464912211596,73.8667207368606,81.11637928414997,80.2499316079587,79.32776680217107,79.47515339347854
125.0,79.82924838946487,73.619032343648,81.14574459001024,80.2499316079587,79.29687334540732,79.4479760101277
128.0,79.74331750677855,73.50137735040872,81.18748929892043,80.29026597263656,79.28691708213027,79.44355862736015
132.0,79.68915939292242,73.3840546157494,81.28748929892039,80.34993160795871,79.29758453661863,79.47292450922721
136.0,79.61628511153324,73.33736534393184,81.35775667464532,80.4499316079587,79.35573061997997,79.512783605588
140.0,79.563480322381,73.29124872640115,81.50165212437172,80.52844735789812,79.41390762695076,79.57508065038755
145.0,79.4927276533821,73.24570374002572,81.62979499755905,80.62844735789812,79.47671077107945,79.63643677456358
150.0,79.42330268140094,73.17466843276418,81.7447981209877,80.72844735789812,79.52526628876196,79.69124888587861
155.0,79.30529495129531,73.12057765478032,81.87331062323638,80.80530799974699,79.55215695932958,79.73349683088121
160.0,79.12285985267755,73.09124872640115,81.9447981209877,80.90530799974698,79.5741414152039,79.75351715407767
165.0,78.94302103107543,72.9719180290656,82.04479812098769,80.92844735789812,79.56389943704127,79.7555644784699
170.0,78.70489348120857,72.8667207368606,82.08916941195314,80.92844735789812,79.49119447674504,79.71388318460772
175.0,78.38687662824874,72.70348581491061,82.08916941195314,80.92844735789812,79.40333941513042,79.64152081247447
180.0,78.11861981293832,72.57131751433742,82.08916941195314,80.88846767221155,79.25139743145967,79.5574962776869
185.0,77.712106446973,72.36061809080708,82.08916941195314,80.81169669039316,79.12181371006555,79.44768784450282
190.0,77.36049414662605,72.10449239072297,82.03410976023338,80.71169669039317,78.95024081757633,79.31218671089925
195.0,76.92750889663554,71.82618710391505,81.96204375999247,80.61169669039317,78.7404062891349,79.15479412640126
200.0,76.47551113390337,71.50091389014041,81.89177750674625,80.47717554598339,78.52066492456058,78.98593773902552
206.0,76.03307048224221,71.15412591517942,81.79177750674624,80.3010058714601,78.3015018016496,78.79711994143528
212.0,75.507231082588,70.7079107556345,81.69177750674625,80.14052714270638,78.05140969537665,78.59831740080122
218.0,74.97490597170145,70.30791075563451,81.5187186515055,79.96455885609008,77.76492579420352,78.363212591678
224.0,74.47208533927108,69.90791075563449,81.39177750674627,79.78490892122149,77.48768168928895,78.15330137999185
230.0,73.9756788103666,69.48509485802377,81.29177750674626,79.63082870577777,77.21586631657816,77.96609442330974
236.0,73.40899676225253,69.08509485802377,81.17658977321828,79.45547342646472,76.94862435070529,77.76535215315617
240.0,72.9517509390869,68.73155215291052,81.07658977321829,79.27732080935236,76.69892181841527,77.58554832682803
250.0,72.4973538633012,68.45412591517943,80.9765897732183,79.16959676788262,76.42360765872523,77.42691248140343
258.0,72.08820459345485,68.18509485802376,80.95000634017072,79.0695967678826,76.21348181042032,77.31979551195458
265.0,71.67953548444187,68.0079107556345,80.9048949937362,78.93742784476852,75.98648868930968,77.19649234953356
272.0,71.23014170020859,67.90049345838577,80.9048949937362,78.90235869497555,75.79261643454423,77.1303313922767
280.0,70.85985852243832,67.80049345838576,80.9048949937362,78.83631489701509,75.59578340196128,77.0611788213135
290.0,70.49795038530483,67.7703393963307,80.9048949937362,78.8053124405916,75.38914672320296,77.00535577100398
300.0,70.15398717542614,67.74066805894002,80.97848478147017,78.80154406899153,75.2323366469612,77.00393002878347
307.0,69.88709244753107,67.74066805894002,80.97848478147017,78.78173448818912,75.05695042371497,76.96421368503458
315.0,69.56452694489039,67.68760046288922,81.00489499373622,78.76797653406331,74.86950336596813,76.93620135553249
325.0,69.24599525879285,67.6351067200085,80.97848478147017,78.76797653406331,74.69207112738007,76.88840439359475
335.0,69.00261247566854,67.58107444645536,80.97848478147017,78.75448951060214,74.54417548870312,76.8571809243431
345.0,68.7611173704908,67.55934271306731,80.97848478147017,78.75448951060214,74.33951028538924,76.82537944796903
355.0,68.52154635407234,67.48928066966269,81.00879413841812,78.69093439569848,74.17123113105309,76.79386831964108
365.0,68.30523724037153,67.42698400522295,81.00879413841812,78.64126890037402,73.99354315994934,76.75160709907367
375.0,68.18197279351602,67.39073156635841,80.9830101142699,78.56884502061686,73.81181361122292,76.69212155338113
387.0,68.11544344341651,67.36597134844476,80.9830101142699,78.43970343063441,73.61835831066831,76.63054668321955
400.0,68.0729666769864,67.28120401425274,80.9576642435428,78.29126877160054,73.45824579357351,76.55292913961127
412.0,68.12129832737722,67.28173928668521,80.9576642435428,78.11541918620564,73.27006853415439,76.48428698859682
425.0,68.18205840444087,67.21837380767319,80.92904849392177,77.90523554107982,73.11246035514432,76.39312062893846
437.0,68.30766792180223,67.2181436471121,80.87291818970169,77.68747417784992,72.91743279124101,76.28586232705405
450.0,68.44453229386481,67.18022571487504,80.83275157997822,77.46769085464098,72.74724040971233,76.1907713866125
462.0,68.57096325109015,67.1217299813534,80.83275157997822,77.23169054674324,72.60615519630741,76.11882300395091
475.0,68.69784436525045,67.1009927013073,80.77932296839602,77.02419410351385,72.43336823902321,76.02288718688077
487.0,68.89784436525044,67.08063134333223,80.77932296839602,76.80423479414112,72.28113423386223,75.9624146091181
500.0,69.01456592084493,66.99681273552736,80.75510042083404,76.60725182558454,72.11749210167729,75.88914120693686
515.0,69.17669878874968,66.91330886278799,80.73129800243315,76.45883291525952,72.00066160245801,75.83479357138502
530.0,69.23937186872666,66.84726492503783,80.73129800243315,76.2941827678143,71.81182270101463,75.7829370776896
545.0,69.33937186872666,66.76473473029549,80.67896411215163,76.13811465280416,71.69931392885997,75.70879989298719
560.0,69.36632597758202,66.62049023660605,80.65583275079274,75.96494103536723,71.47721024492269,75.63665910170019
580.0,69.40512613244121,66.45898516336177,80.6043297217114,75.83656761072858,71.27430499563292,75.55880356361408
600.0,69.41171220727223,66.23624153874319,80.52049822821768,75.664810116485,71.0103426824524,75.44421352884325
615.0,69.36438179720038,65.89628374205206,80.42049822821768,75.45686764542417,70.72471110423761,75.30555451776657
630.0,69.3336767596913,65.52081413224276,80.31467853559538,75.24147969519835,70.35810082653245,75.15735899092427
650.0,69.25129383798999,65.1066415492658,80.17612024989526,75.03493945184255,70.00259642679404,74.9880718147064
670.0,69.1486897954667,64.79473218864022,80.0476262481967,74.83628725141189,69.62612104218036,74.82779112466186
690.0,68.95887294614775,64.35477526184494,79.89277225987624,74.67426917406677,69.26413115983192,74.65187863962807
710.0,68.87815161893681,64.07269619418157,79.76438765972678,74.5676783127456,68.96690751675028,74.51806768987827
730.0,68.7367316609521,63.82057197226932,79.66438765972678,74.47861095184773,68.715679324808,74.40704018985815
750.0,68.60752499644373,63.60237277382612,79.5643876597268,74.51433695581945,68.58777928603206,74.32989668812401
775.0,68.40846096115679,63.500493458385776,79.48147278830733,74.55945426695459,68.50355867852922,74.26752071754215
800.0,68.2860952288202,63.358657240178715,79.40343598990846,74.66552709124274,68.4548562501509,74.22775460583632
825.0,68.09216234653991,63.21595200332334,79.3814727883073,74.79561316106098,68.4644136752862,74.23108817098877
850.0,67.9629078393669,62.98889049053281,79.34878181929044,74.92944638091224,68.51216774210437,74.23356725766214
875.0,67.83895752123952,62.67506303171669,79.37091054784845,75.10885585777228,68.52782209511966,74.28123837874894
900.0,67.73806994145853,62.331555464068416,79.37091054784845,75.25713235205764,68.5712509456535,74.31087014730535
925.0,67.6429411441418,61.94214978057116,79.45378373474549,75.43326871819136,68.60767437342,74.40136335913205
950.0,67.5710762882939,61.56127711209433,79.45378373474549,75.59752215804107,68.616490482932,74.43699436266752
975.0,67.57555278790072,61.27532051493634,79.47640057047573,75.70954814612134,68.64659088775294,74.47974086535194
1000.0,67.58366865039731,60.99242058227307,79.50470702014275,75.846461688136,68.67790228115003,74.53363021661589
1030.0,67.61355925305682,60.76753494617817,79.60470702014274,75.94653896287451,68.75571093194796,74.62691884381383
1060.0,67.68214214704348,60.68013829070435,79.62758020744903,76.05359734077533,68.79205949478128,74.67439120805454
1090.0,67.7590240911095,60.604388762919896,79.72758020744902,76.15359734077532,68.88931052023769,74.77195372680184
1120.0,67.82885569273522,60.61688630006816,79.75968554741492,76.23875776029757,68.93713928484759,74.82087211760513
1150.0,67.82190192747866,60.64264771893204,79.85968554741491,76.30768945712073,68.97661610385245,74.90437470248487
1180.0,67.89351125469588,60.62802377249942,79.92758020744903,76.35049360757537,68.95709832046855,74.96045341500663
1220.0,67.78766646944312,60.67168531355223,79.9596855474149,76.36694849891181,68.88989714706543,74.97805276915305
1250.0,67.68766646944312,60.61798740949018,80.0596855474149,76.36040563044098,68.82547425888274,75.03230174803114
1280.0,67.60142062093051,60.5503860982826,80.10470702014273,76.3666783008825,68.61309192037783,75.04921466047088
1320.0,67.42975980388253,60.45447715330634,80.17640057047574,76.3123129624207,68.35385957560985,75.06270012373798
1360.0,67.18214214704348,60.296749676160246,80.23698126844558,76.28801745979112,68.08614499956772,75.07537370471091
1400.0,67.02299570617507,60.08637896901463,80.25378373474548,76.23521792557614,67.8289025236645,75.05606994578493
1450.0,66.78484442271933,59.87703977141008,80.31467853559538,76.1604096329518,67.52462590268846,75.05747942585971
1500.0,66.54028489595062,59.59562870961801,80.33156734312867,76.10194423763055,67.24886383652556,75.03564352717386
1550.0,66.39202338197688,59.36873383536248,80.40974630488343,76.0737298825227,67.0839238788355,75.07094632248065
1600.0,66.23301486137187,59.053521650269914,80.44273131524616,76.01703620089033,66.92614009450777,75.06859971921885
1650.0,66.15407849275624,58.720679145887516,80.49326599014054,75.98346138584952,66.88540315950569,75.09036984891675
1700.0,66.12633263903952,58.43781340417853,80.51063265137014,76.00676396305751,66.90021010948217,75.10663311757135
1750.0,66.10561737721414,58.13660504903078,80.57224439796835,76.00569323098078,66.96852419668656,75.14953264144248
1800.0,66.06530863402067,57.84109432205925,80.62360108344741,76.01604352410119,67.09173572973826,75.18954871214426
1850.0,66.00757365249844,57.55477168396807,80.64124799874558,76.04049884850288,67.21642899018529,75.20929257242359
1900.0,65.95299092212623,57.245831471573965,80.70320245471571,76.06538206286764,67.30654427198134,75.25920342595846
1950.0,65.89453702187068,56.97641629732151,80.72093228243583,76.12345715695314,67.39345438726278,75.2862680215169
2000.0,65.7457764953453,56.655219693083794,80.72093228243583,76.06681103640373,67.44262692524282,75.26991695065423
2060.0,65.57811214527464,56.36668552790023,80.77553278001086,76.08540235984177,67.39589935062962,75.30681833112367
2120.0,65.32867869856081,56.05603885002968,80.74124799874558,76.07448682510194,67.31930257518407,75.27162548322434
2180.0,65.07511983071309,55.74935766478272,80.74124799874558,76.04965587174273,67.18665849441906,75.25575170541818
2240.0,64.83062333191391,55.47977745790568,80.74124799874558,76.0072878197339,67.02591822900472,75.23551098825051
2300.0,64.50009898430525,55.20986628672331,80.76193901340312,75.98320674664227,66.88658186200861,75.23401712818718
2360.0,64.16568014262914,54.974493510304384,80.76193901340312,76.01210582087948,66.74126877478588,75.23083314831356
2400.0,63.85466802568986,54.739645319760015,80.7830104260341,76.01210582087948,66.61649874998041,75.23731400780115
2500.0,63.539830411534055,54.5404416794549,80.81063265137014,76.08913701206866,66.47680075647105,75.26712062113238
2580.0,63.24299241091201,54.38623512455236,80.88301042603409,76.18913701206863,66.46436282561854,75.33884617539395
2650.0,63.03716597942463,54.238581192224004,80.9319538584431,76.28913701206865,66.46875880299739,75.39576358942641
2720.0,62.767356128088664,54.17244660678604,81.03195385844312,76.44475814781264,66.49517573170141,75.50327293337843
2800.0,62.49070598577882,54.09066301838193,81.13195385844311,76.5545547134944,66.49207055724428,75.59904138312915
2900.0,62.3172939855713,54.071335494460286,81.21467241741301,76.74475814781265,66.56908544001314,75.70609885854262
3000.0,62.045604037983466,54.04583613335525,81.33646878050928,76.87906554251784,66.60347599185174,75.82531952912478
3070.0,61.865482939798184,53.954775261844915,81.40343598990847,76.97906554251783,66.61526615496264,75.89720707431194
3150.0,61.67573538182968,53.89781355337145,81.48643721525845,77.11345398283422,66.62287276181665,75.98943219889665
3250.0,61.47573538182969,53.7928037056363,81.50888507559837,77.20378952880655,66.59975086433565,76.02677051803038
3350.0,61.275735381829676,53.63543550538809,81.5596855474149,77.26337658880504,66.49359415429562,76.0744064548923
