Freq "Front Wall Bounce"
22.4 55.03142096048346
23.0 55.960685077598285
23.6 56.90195831410922
24.0 57.83142096048347
25.0 58.73142096048345
25.8 59.63142096048345
26.5 60.50195831410922
27.2 61.38781919063811
28.0 62.260685077598296
29.0 63.101958314109226
30.0 63.93142096048345
30.7 64.7606850775983
31.5 65.60195831410924
32.5 66.38781919063811
33.5 67.1606850775983
34.5 67.93142096048345
35.5 68.70195831410923
36.5 69.50195831410923
37.5 70.30195831410923
38.7 71.13142096048345
40.0 71.98781919063809
41.2 72.86068507759829
42.5 73.7606850775983
43.7 74.63142096048345
45.0 75.4606850775983
46.2 76.26068507759828
47.5 77.00195831410923
48.7 77.63142096048345
50.0 78.13142096048345
51.5 78.50195831410923
53.0 78.80195831410924
54.5 78.9606850775983
56.0 79.08781919063811
58.0 79.13142096048345
60.0 79.1606850775983
61.5 79.18781919063811
63.0 79.20195831410923
65.0 79.2606850775983
67.0 79.33142096048346
69.0 79.46068507759828
71.0 79.60195831410924
73.0 79.73142096048345
75.0 79.90195831410924
77.5 80.0606850775983
80.0 80.23142096048346
82.5 80.40195831410925
85.0 80.58781919063811
87.5 80.73142096048346
90.0 80.8878191906381
92.5 81.03142096048346
95.0 81.10195831410924
97.5 81.20195831410923
100.0 81.2606850775983
103.0 81.2606850775983
106.0 81.23142096048345
109.0 81.23142096048345
112.0 81.20195831410923
115.0 81.14574459001024
118.0 81.14574459001024
122.0 81.11637928414997
125.0 81.14574459001024
128.0 81.18748929892043
132.0 81.28748929892042
136.0 81.35775667464532
140.0 81.50165212437173
145.0 81.62979499755905
150.0 81.74479812098768
155.0 81.87331062323638
160.0 81.9447981209877
165.0 82.04479812098769
170.0 82.08916941195312
175.0 82.08916941195312
180.0 82.08916941195312
185.0 82.08916941195312
190.0 82.03410976023338
195.0 81.96204375999245
200.0 81.89177750674625
206.0 81.79177750674626
212.0 81.69177750674625
218.0 81.5187186515055
224.0 81.39177750674627
230.0 81.29177750674624
236.0 81.17658977321828
240.0 81.07658977321829
250.0 80.9765897732183
258.0 80.95000634017072
265.0 80.9048949937362
272.0 80.9048949937362
280.0 80.9048949937362
290.0 80.9048949937362
300.0 80.97848478147017
307.0 80.97848478147017
315.0 81.00489499373622
325.0 80.97848478147017
335.0 80.97848478147017
345.0 80.97848478147017
355.0 81.00879413841812
365.0 81.00879413841812
375.0 80.9830101142699
387.0 80.9830101142699
400.0 80.95766424354281
412.0 80.95766424354281
425.0 80.92904849392177
437.0 80.8729181897017
450.0 80.83275157997822
462.0 80.83275157997822
475.0 80.77932296839602
487.0 80.77932296839602
500.0 80.75510042083404
515.0 80.73129800243315
530.0 80.73129800243315
545.0 80.67896411215163
560.0 80.65583275079275
580.0 80.60432972171141
600.0 80.52049822821768
615.0 80.42049822821768
630.0 80.31467853559536
650.0 80.17612024989526
670.0 80.0476262481967
690.0 79.89277225987624
710.0 79.76438765972678
730.0 79.66438765972678
750.0 79.56438765972679
775.0 79.48147278830731
800.0 79.40343598990846
825.0 79.3814727883073
850.0 79.34878181929044
875.0 79.37091054784845
900.0 79.37091054784845
925.0 79.45378373474549
950.0 79.45378373474549
975.0 79.47640057047573
1000.0 79.50470702014275
1030.0 79.60470702014275
1060.0 79.62758020744901
1090.0 79.72758020744904
1120.0 79.75968554741489
1150.0 79.85968554741491
1180.0 79.92758020744903
1220.0 79.9596855474149
1250.0 80.0596855474149
1280.0 80.10470702014275
1320.0 80.17640057047572
1360.0 80.23698126844558
1400.0 80.25378373474547
1450.0 80.31467853559536
1500.0 80.33156734312868
1550.0 80.4097463048834
1600.0 80.44273131524615
1650.0 80.49326599014053
1700.0 80.51063265137013
1750.0 80.57224439796833
1800.0 80.62360108344741
1850.0 80.64124799874557
1900.0 80.70320245471571
1950.0 80.72093228243581
2000.0 80.72093228243581
2060.0 80.77553278001086
2120.0 80.74124799874556
2180.0 80.74124799874556
2240.0 80.74124799874556
2300.0 80.76193901340312
2360.0 80.76193901340312
2400.0 80.7830104260341
2500.0 80.81063265137014
2580.0 80.88301042603408
2650.0 80.93195385844311
2720.0 81.03195385844312
2800.0 81.1319538584431
2900.0 81.21467241741301
3000.0 81.33646878050928
3070.0 81.40343598990847
3150.0 81.48643721525845
3250.0 81.50888507559837
3350.0 81.5596855474149
3450.0 81.58279645161535
3550.0 81.63443179205895
3650.0 81.68242230727826
3750.0 81.7351604799582
3870.0 81.78847217927515
4000.0 81.8423565312714
4120.0 81.9269946725239
4250.0 82.02251496369489
4370.0 82.12251496369491
4500.0 82.26291882559813
4620.0 82.36291882559813
4750.0 82.46291882559811
4870.0 82.57814647891836
5000.0 82.67814647891835
5150.0 82.77814647891834
5300.0 82.83787692169066
5450.0 82.90845818874695
5600.0 82.9639294920729
5800.0 83.00845818874694
6000.0 83.03787692169067
6150.0 83.10845818874695
6300.0 83.17814647891836
6500.0 83.19264660232008
6700.0 83.26291882559815
6900.0 83.30422246482465
7100.0 83.3778081500117
7300.0 83.4193140378802
7500.0 83.46394512452713
7750.0 83.52492954673289
8000.0 83.59675502454563
8250.0 83.64548235428292
8500.0 83.70888636216345
8750.0 83.76346945585213
9000.0 83.78878541806104
9250.0 83.86570644684825
9500.0 83.89320444173501
9750.0 83.92219201319985
10000.0 83.94636972502741
10300.0 83.97983775130113
10600.0 83.97983775130113
10900.0 83.89807735841964
11200.0 83.87983775130111
11500.0 83.85265356895384
11800.0 83.77983775130112
12200.0 83.70082270929394
12500.0 83.56751662947582
12800.0 83.40082270929393
13200.0 83.26751662947582
13600.0 83.10082270929394
14000.0 82.86751662947582
14500.0 82.62219201319986
15000.0 82.36751662947582
15500.0 82.04956693475489
16000.0 81.70082270929393
16500.0 81.34636972502742
17000.0 80.94636972502741
17500.0 80.50082270929394
18000.0 80.10082270929392
18500.0 79.60082270929392
19000.0 79.10082270929394
19500.0 78.60082270929392
