Freq "Rear Wall Bounce"
20.5078 75.39548527925639
23.4375 79.58748694199599
26.3672 82.50110955397226
29.2969 85.00176179061636
32.2266 86.59710344975694
35.1562 88.29728488291666
38.0859 89.43722696269039
41.0156 90.34353754345503
43.9453 90.91211977828978
46.875 91.07248070359033
49.8047 90.90044741566071
55.6641 90.2070921737767
58.5938 89.68124391328456
61.5234 89.21711210969022
67.3828 88.35647173609375
73.2422 88.14401343797199
76.1719 88.31248092959754
82.0312 88.66123811324663
87.8906 89.37673712949659
93.75 89.99967273672843
102.539 90.58722124258551
108.398 90.75256803573167
117.188 90.8667348170029
125.977 90.46397822592587
134.766 89.6658135699704
143.555 88.81726251735525
155.273 88.34982001003145
164.062 88.48733598788577
175.781 88.43688905589764
190.43 87.90103157666675
202.148 87.59176284725483
216.797 87.66408631958707
234.375 87.80168739204318
249.023 87.6754281436052
266.602 87.67468962882737
287.109 87.84514316996925
307.617 88.09454123493835
331.055 87.8403628484423
354.492 87.9500800186598
377.93 88.03060771322588
407.227 87.71219200054954
436.523 86.88318786593051
465.82 86.15870268989191
500.977 85.20022897334562
536.133 84.57096348599143
574.219 84.38648343970591
615.234 84.522974617266
659.18 84.70696764668334
706.055 85.22759838858586
758.789 85.46959775993656
811.523 86.67506945956552
870.117 86.56765903301375
931.641 86.7181862571997
999.023 87.51109055257923
1072.27 85.60877806671755
1148.44 86.19877924344252
1230.47 88.64408216375608
1318.36 89.23216665565363
1415.04 89.88999536484458
1514.65 88.65476778043202
1623.05 87.04538951097118
1740.23 86.01303928624765
1866.21 84.65126079839243
2000.98 84.22449418301574
2144.53 85.22387366170871
2296.88 82.85951715997537
2460.94 84.3730687321749
2639.65 83.81973556748946
2827.15 80.84661657344664
3032.23 81.49742112304496
3249.02 82.40080393058223
3483.4 83.72343160030799
3732.42 83.24914901628951
3999.02 82.26959218751722
4286.13 82.98583724919878
4593.75 81.46895161953425
4924.8 81.40400243869456
5279.3 83.38008257999246
5657.23 83.82585777502263
6061.52 82.27513237047292
6498.05 79.77929359768258
6963.87 81.24986519327541
7464.84 83.14967854576037
8000.98 80.93964653251206
8575.2 80.12680819747912
9190.43 79.15630455287922
9849.61 78.79715328587876
10555.7 81.1340495636908
11314.5 82.64750057664064
12126.0 83.20366115860823
12996.1 86.21276242947228
13927.7 83.98695034051805
14929.7 83.83445773619552
15999.0 78.57859202301711
17147.5 78.70713289966659
18377.9 76.74051671893942
19699.2 66.62585012345806
19998.0 59.760642342502976
