Freq,On Axis,Listening Window,Sound Power,Early Reflections,Early Reflections DI,Sound Power DI,DI offset
20.5078,55.76447424242426,55.862913149385435,59.72807235509666,58.13485900890885,37.72805414047659,36.13484079428878,40
21.9727,59.42467424242426,59.55539832223357,62.79415818665433,61.43457292656235,38.12082539567122,36.76124013557924,40
23.4375,64.24407424242425,64.34246310218836,66.51664759476682,65.54477322609564,38.79768987609272,37.82581550742154,40
24.9023,67.88407424242425,67.9504661706267,69.51149911581945,68.77686385597038,39.17360231465632,38.43896705480725,40
26.3672,70.47987424242424,70.53788103358801,71.88104269464273,71.23522444159104,39.302656591996964,38.65683833894528,40
27.832,72.00907424242425,72.05860536448293,73.19040957845488,72.64009948850895,39.41850587597398,38.86819578602805,40
29.2969,74.65877424242424,74.69878318219244,75.57751881832806,75.14036697811021,39.558416204082235,39.121264363864384,40
30.7617,76.41207424242427,76.44642618894399,77.18033648970504,76.8103397426188,39.636086446325194,39.26608969923895,40
32.2266,77.95167424242425,77.97810438969695,78.53295895067326,78.24695893464764,39.731145455049315,39.44514543902369,40
33.6914,79.17977424242426,79.20161235852194,79.64781245238129,79.41276393473102,39.788848423790924,39.553799906140654,40
35.1562,79.93167424242424,79.94993411292435,80.31425924376194,80.11872324766806,39.831210865256296,39.635674869162415,40
36.6211,80.52617424242425,80.54187741729363,80.85891465682046,80.68365766412666,39.85821975316698,39.682962760473174,40
38.0859,80.91237424242425,80.92351318359624,81.14027133030612,81.01468570825642,39.90882747533982,39.78324185329012,40
39.5508,81.20107424242426,81.20974582689024,81.37916384575692,81.27476456758409,39.934981259306156,39.83058198113332,40
41.0156,81.57657424242424,81.58305782097048,81.69990908609833,81.62061954675363,39.96243827421685,39.88314873487215,40
42.4805,81.68687424242425,81.6922151603674,81.79009100831996,81.72060593947712,39.97160922089027,39.902124152047435,40
43.9453,81.99287424242425,81.997565794942,82.07110591594598,82.01224615754397,39.985319637398035,39.92645987899603,40
45.4102,81.98697424242425,81.98805792672239,82.00490735895094,81.97242528787132,40.01563263885107,39.983150567771446,40
46.875,82.38897424242427,82.39107282382953,82.44588253675151,82.39286868355441,39.99820414027512,39.94519028707802,40
48.3398,82.15997424242425,82.16085044201078,82.20782412914525,82.15342659092286,40.00742385108792,39.95302631286553,40
51.2695,82.08467424242426,82.08019387642628,82.00795764768435,82.01921427683553,40.06097959959075,40.07223622874193,40
52.7344,82.27917424242425,82.27287899582805,82.15538944748131,82.18923648615262,40.08364250967543,40.11748954834674,40
54.1992,82.39017424242425,82.38301713811751,82.23965193342693,82.28774931137784,40.09526782673967,40.14336520469058,40
55.6641,82.45627424242423,82.45134284130486,82.38013635908402,82.38691147699598,40.06443136430889,40.071206482220845,40
58.5938,82.50067424242425,82.49145413746743,82.3276706145959,82.38428930173674,40.107164835730686,40.163783522871526,40
60.0586,82.49917424242425,82.48903983956487,82.30753799099938,82.37275990850169,40.116279931063175,40.18150184856549,40
62.9883,82.62307424242425,82.6130411609,82.45890214319422,82.50904327630857,40.10399788459142,40.15413901770577,40
64.4531,82.64297424242423,82.63114682853035,82.4571579161092,82.5164334240369,40.11471340449344,40.17398891242115,40
67.3828,82.84607424242427,82.83224025779697,82.6187913887034,82.69616684645449,40.13607341134248,40.21344886909357,40
68.8477,82.79617424242424,82.78275273329692,82.57803037771465,82.6503834364747,40.13236929682222,40.20472235558226,40
71.7773,82.72117424242427,82.70595639159845,82.49188489460343,82.56745677126813,40.13849962033032,40.21407149699502,40
74.707,82.70067424242426,82.68122998313983,82.3988835502195,82.50794351547971,40.17328646766012,40.282346432920335,40
77.6367,82.80157424242425,82.78130303400317,82.47369761398052,82.59675083776442,40.184552196238755,40.307605420022654,40
79.1016,82.75187424242425,82.73074085558329,82.42169976743098,82.54479797630324,40.18594287928005,40.30904108815231,40
82.0312,82.80357424242425,82.78073452060205,82.43093180154102,82.57593094971374,40.204803570888316,40.34980271906103,40
84.9609,82.76207424242423,82.73797741186783,82.39616216294188,82.53362160300719,40.20435580886064,40.341815248925954,40
87.8906,82.73057424242427,82.70471239592396,82.33902950839384,82.48879687731542,40.21591551860854,40.36568288753013,40
90.8203,82.69357424242423,82.6651922595664,82.27004024877291,82.43426637013431,40.230925889432086,40.39515201079348,40
95.2148,82.66227424242425,82.63207052992016,82.22762745746654,82.39250190213886,40.239568627781296,40.40444307245362,40
98.1445,82.57767424242425,82.54410060074613,82.08751682645061,82.28071345625081,40.263387144495326,40.456583774295524,40
101.074,82.60287424242425,82.56857290726067,82.12335410363312,82.30784913928528,40.26072376797539,40.445218803627554,40
105.469,82.52637424242425,82.48579414507752,81.94952407517523,82.17819295776307,40.30760118731445,40.53627006990229,40
108.398,82.49057424242426,82.44796405483753,81.87350586909247,82.11994040044529,40.32802365439224,40.57445818574506,40
112.793,82.53397424242425,82.48787344657887,81.85058053413579,82.12942002830452,40.35845341827435,40.63729291244309,40
117.188,82.53297424242425,82.48619631979375,81.84619273492969,82.12866828177258,40.35752803802117,40.64000358486406,40
120.117,82.55777424242424,82.5102974508363,81.856506726362,82.14629030373479,40.36400714710152,40.653790724474305,40
124.512,82.44757424242425,82.39820812119657,81.7622976685026,82.03626617887494,40.361941942321636,40.63591045269398,40
128.906,82.34557424242425,82.29239621543428,81.60281550843513,81.90493691164794,40.38745930378634,40.68958070699915,40
133.301,82.31927424242426,82.26338289663111,81.54161792546864,81.85945738820918,40.403925508421935,40.72176497116247,40
139.16,82.27747424242426,82.21812230024025,81.48742534686241,81.80348692182301,40.414635378417245,40.730696953377844,40
143.555,82.21087424242425,82.146385930263,81.3798086286211,81.71075232079124,40.43563360947175,40.76657730164189,40
147.949,82.19007424242425,82.11922786082513,81.25435625273059,81.63353040135355,40.48569745947158,40.864871608094546,40
153.809,82.23377424242423,82.15593261088237,81.15179348298406,81.59882738587986,40.557105225002516,41.00413912789831,40
159.668,82.38547424242425,82.30561143574045,81.19500475209789,81.70180053107757,40.60381090466288,41.11060668364256,40
165.527,82.35857424242425,82.28082917664693,81.20071109822973,81.69402136467069,40.58680781197624,41.0801180784172,40
171.387,82.26577424242424,82.1855377525756,81.10962729040281,81.59580112438931,40.58973662818629,41.075910462172786,40
177.246,82.17657424242425,82.0913670782964,80.96573931854195,81.4768126441666,40.6145544341298,41.12562775975445,40
183.105,82.13207424242425,82.04135630081126,80.82010172043826,81.38230251347147,40.659053787339786,41.221254580373,40
188.965,82.11317424242426,82.01994838574427,80.74847590302662,81.33602944309362,40.68391894265065,41.271472482717655,40
196.289,82.04977424242423,81.95067622346247,80.61428394993678,81.23539778056897,40.71527844289349,41.33639227352569,40
203.613,82.02407424242426,81.91841032884756,80.47045619663248,81.15238417912853,40.766026149719025,41.447954132215074,40
210.938,82.02777424242424,81.91686960241415,80.39389776118865,81.11277279632709,40.80409680608706,41.5229718412255,40
218.262,81.99997424242424,81.88590974265065,80.2783098369979,81.04289600662693,40.84301373602372,41.60759990565275,40
225.586,82.02707424242425,81.90586513674384,80.19041674083415,81.01162609378655,40.894239042957295,41.71544839590969,40
232.91,82.16817424242424,82.03895284807813,80.11498525621441,81.05350123696887,40.985451611109255,41.923967591863715,40
241.699,82.36487424242425,82.23030072117271,80.02624238840319,81.12391731814634,41.10638340302637,42.20405833276952,40
250.488,82.68037424242425,82.5590417022668,80.37583007660447,81.4711152976379,41.0879264046289,42.183211625662324,40
259.277,82.46367424242425,82.33977377417966,80.28217415211671,81.29849032541817,41.04128344876149,42.05759962206295,40
268.066,82.48377424242425,82.36351167187478,80.24601288571782,81.30572037878858,41.0577912930862,42.11749878615696,40
276.855,82.26487424242426,82.13876293669523,80.02632121403161,81.07254152832007,41.066221408375156,42.11244172266362,40
287.109,82.35467424242424,82.235433903771,80.03785625707933,81.16151457980601,41.07391932396499,42.19757764669167,40
297.363,82.25627424242425,82.12609086026941,79.97549605668036,81.05142753346027,41.074663326809144,42.15059480358906,40
307.617,82.34277424242426,82.20702710249938,79.92681641230382,81.06698328640394,41.14004381609544,42.28021069019556,40
319.336,82.29207424242425,82.16311774658195,79.76828271284052,80.98667690451995,41.17644084206199,42.39483503374143,40
329.59,82.33497424242424,82.19165263693492,79.64862227876694,80.95674278424532,41.2349098526896,42.54303035816798,40
341.309,82.69767424242426,82.55168001580495,79.83155734933044,81.23164597096735,41.3200340448376,42.72012266647451,40
353.027,82.79747424242424,82.66385197473106,80.0682470351414,81.3864126918856,41.277439282845464,42.59560493958966,40
366.211,82.68117424242425,82.54022891318175,79.96711624010507,81.26124950481667,41.278979408365075,42.57311267307668,40
379.395,82.83667424242427,82.70878058740159,79.94188496951536,81.36725275207593,41.341527835325664,42.766895617886235,40
392.578,82.85317424242425,82.72682127034746,79.96661652865673,81.3933271832899,41.33349408705756,42.76020474169073,40
405.762,82.39407424242424,82.2485036670314,79.71461260893419,80.99444756038825,41.25405610664315,42.53389105809721,40
420.41,82.56747424242425,82.38715501519671,79.47844214679752,80.92056667835483,41.46658833684188,42.90871286839919,40
435.059,82.78527424242425,82.61604875668527,79.54574727637164,81.07855952874051,41.53748922794476,43.07030148031363,40
451.172,82.90837424242424,82.74529219973785,79.59370086098514,81.15306830146443,41.59222389827342,43.15159133875271,40
465.82,82.90067424242426,82.7372642664722,79.50895185867543,81.12054849453322,41.61671577193897,43.228312407796764,40
483.398,82.64127424242425,82.46138798195943,79.33774976360544,80.88478103047576,41.57660695148367,43.12363821835399,40
499.512,82.46817424242425,82.25672032209123,79.13009383386063,80.65573196404239,41.60098835804884,43.1266264882306,40
517.09,82.48887424242425,82.24596767247417,78.90558452805976,80.50053796780006,41.74542970467411,43.3403831444144,40
536.133,82.60217424242425,82.30536588478185,78.53044648781638,80.2202999560695,42.08506592871235,43.77491939696547,40
555.176,82.76657424242424,82.5095003813765,78.51341066231166,80.44428293343883,42.06521744793767,43.99608971906484,40
574.219,82.56127424242425,82.2808967050174,78.42202722716033,80.37112922202425,41.909767482993146,43.85886947785707,40
594.727,82.39617424242425,82.06546384224542,78.08714745734234,80.04697988523522,42.018483957010204,43.97831638490308,40
615.234,82.64757424242426,82.20639709610091,77.85361087243784,80.01153196689518,42.19486512920574,44.352786223663074,40
637.207,83.32257424242425,82.79036697724513,77.87127368863644,80.32852126932742,42.4618457079177,44.91909328860869,40
659.18,83.31527424242427,82.8873794448065,77.58883339609785,80.33533853600693,42.55204090879957,45.298546048708644,40
682.617,83.55527424242425,83.16841537259452,77.8144938432475,80.56485563248125,42.60355974011327,45.35392152934702,40
707.52,82.43347424242424,82.11513683770077,76.8917222871073,79.67002258937234,42.44511424832844,45.223414550593475,40
732.422,82.40307424242425,82.16389215417138,77.04840463432217,79.74914234239841,42.414749811772964,45.11548751984921,40
757.324,81.73777424242425,81.50986312187563,76.74107874789914,79.24581414349703,42.2640489783786,44.76878437397649,40
785.156,82.41107424242423,82.11199589770082,76.83393434882744,79.53850547471852,42.5734904229823,45.27806154887338,40
811.523,82.90397424242425,82.45780946573493,76.69295734122561,79.48347738838777,42.97433207734716,45.76485212450932,40
840.82,83.96267424242427,83.40067097544366,76.88896221233483,79.87609503358078,43.52457594186288,46.51170876310883,40
870.117,83.66467424242424,83.18027093195943,76.58972172149271,79.69340105159245,43.48686988036698,46.59054921046672,40
900.879,83.45087424242425,82.99251676214635,76.30829846646682,79.47582293828074,43.51669382386561,46.68421829567953,40
933.105,83.72297424242424,83.2851301930296,76.36981298389358,79.64636131676711,43.63876887626249,46.91531720913602,40
965.332,83.10357424242424,82.76680040917051,76.19464319377462,79.37179276066234,43.39500764850817,46.57215721539589,40
1000.49,83.24197424242425,82.79634441390863,75.97278752682419,79.18897277895756,43.607371634951065,46.823556887084436,40
1035.64,83.12087424242425,82.55347057627709,75.59120602943457,78.87430881489291,43.67916176138418,46.96226454684252,40
1072.27,82.53507424242423,82.12514545446821,75.39088693465301,78.58745570000768,43.53768975446053,46.7342585198152,40
1108.89,82.38567424242424,81.84634516795595,75.16398883788914,78.25191891476538,43.59442625319056,46.68235633006681,40
1148.44,82.56617424242425,81.95748499985412,75.09400036167453,78.24218362828778,43.71530137156634,46.863484638179585,40
1189.45,82.28587424242426,81.82969616067035,75.38166548179791,78.29457912256011,43.53511703811024,46.44803067887244,40
1230.47,83.32987424242425,82.56748203305705,75.42951544211994,78.47772031407371,44.08976171898334,47.13796659093711,40
1274.41,83.25697424242425,82.80706424085085,75.89798366490845,78.72760925059791,44.07945499025294,46.9090805759424,40
1319.82,83.42917424242424,82.6708168799728,75.7122398345252,78.63765461414813,44.03316226582467,46.9585770454476,40
1366.7,83.37487424242426,82.80585612785437,75.97998565540364,78.75364903316375,44.052207094690615,46.82587047245073,40
1413.57,82.84047424242425,82.11342585530365,75.79698278282169,78.39566809132305,43.7177577639806,46.31644307248196,40
1463.38,82.72427424242426,82.12782363326426,75.53031738739853,78.32759206783811,43.800231565426145,46.59750624586573,40
1516.11,82.49707424242425,81.70995948559101,75.13654648272542,78.09663994475093,43.61331954084008,46.57341300286559,40
1568.85,82.54607424242425,81.84462708777602,75.28787944330261,78.32334889243043,43.52127819534559,46.556747644473404,40
1624.51,83.29307424242424,82.24549981067287,75.60020453588905,78.49760808886884,43.747891721804024,46.64529527478382,40
1681.64,82.98227424242425,82.4225946800807,75.78647799793983,78.52174548181598,43.90084919826472,46.63611668214088,40
1741.7,83.92617424242425,82.94895952820917,75.78439180041093,78.76517903043643,44.183780497772744,47.16456772779824,40
1803.22,83.23627424242424,82.48274470789131,75.59589255815447,78.58638270463945,43.896362003251866,46.88685214973684,40
1866.21,82.71137424242426,81.97510187508956,75.25264844715858,78.2420963271368,43.73300554795276,46.722453427930986,40
1932.13,82.54777424242425,81.36770616056232,74.88882963601088,78.04932685827374,43.31837930228858,46.47887652455144,40
1999.51,81.66887424242425,80.92172777162793,74.42906258870208,77.70639242225214,43.21533534937579,46.49266518292585,40
2069.82,82.28437424242424,81.50333242574526,74.56064571490819,77.7672633275975,43.73606909814775,46.942686710837066,40
2143.07,82.13967424242425,81.53326225727153,74.48545934413387,77.72754973732512,43.80571251994641,47.04780291313766,40
2219.24,82.29417424242425,81.61920339108215,74.75203901637758,77.86888302270799,43.75032036837416,46.86716437470457,40
2296.88,81.94587424242425,81.51185399617265,74.88748983333416,78.03896487424495,43.47288912192769,46.62436416283849,40
2378.91,82.50087424242426,81.74156476317523,74.85119824697364,78.16926552559363,43.5722992375816,46.890366516201595,40
2462.4,82.60727424242425,82.00157801957097,74.80964124857898,78.3476293551787,43.653948664392274,47.19193677099199,40
2548.83,82.42957424242425,81.88089055943927,74.69716968166995,78.14442258063066,43.736467978808605,47.18372087776932,40
2639.65,82.12637424242425,81.51541827320935,74.56746999859052,77.8770933099511,43.63832496325824,46.947948274618824,40
2731.93,82.13557424242427,81.44496305308114,74.55720212256536,77.97718177131168,43.46778128176946,46.88776093051578,40
2828.61,83.11907424242425,82.21335468181283,74.84431481787323,78.41278104213609,43.80057363967674,47.369039863939605,40
2928.22,83.22237424242425,82.6294317613347,75.18307561610723,78.62949556911836,43.99993619221634,47.44635614522747,40
3030.76,82.32107424242423,81.72589245467316,74.65009087604167,78.1877827191667,43.53810973550645,47.075801578631484,40
3137.7,81.24717424242425,80.79954618553946,74.03664636152278,77.79376767355456,43.0057785119849,46.76289982401667,40
3249.02,83.11427424242424,82.34730927000965,74.65552450838025,78.39736086288332,43.94994840712633,47.69178476162939,40
3363.28,83.26227424242425,82.80347146688923,74.74888612406791,78.43679268743236,44.366678779456876,48.054585342821326,40
3481.93,81.96207424242425,81.5012924415941,74.01099612196012,77.88042160131444,43.620870840279665,47.490296319633984,40
3604.98,82.19347424242423,81.32568543871179,73.7080242071469,77.7879043599904,43.53778107872138,47.61766123156488,40
3732.42,82.83737424242425,82.01717575138983,74.0243555515654,78.06671440453667,43.95046134685316,47.99282019982442,40
3864.26,82.28837424242425,81.4660028649014,73.68575398909431,77.58028959178003,43.88571327312137,47.78024887580709,40
4000.49,82.50117424242426,81.47274993496569,73.73150356740153,77.65645481461686,43.816295120348826,47.74124636756416,40
4141.11,81.84617424242425,80.97881652581586,73.2377990117299,77.17357423628468,43.80524228953118,47.741017514085954,40
4287.6,81.59637424242425,80.71635063765198,73.35644028685668,77.11923125059562,43.59711938705637,47.3599103507953,40
4438.48,82.77207424242425,81.71286367191871,73.99145242891896,77.63013687507134,44.08272679684737,47.72141124299975,40
4595.21,81.71547424242425,80.70314359056124,73.18644870316459,77.02303959490813,43.68010399565311,47.51669488739665,40
4756.35,82.69617424242425,81.38700763691472,73.70181064000465,77.45336419390439,43.933643443010325,47.685196996910065,40
4924.8,82.94697424242423,81.65984231140384,73.60545436876548,77.63034188872673,44.0295004226771,48.05438794263836,40
5097.66,83.34987424242425,81.94970896127228,73.89154433275687,78.01295881978054,43.93675014149174,48.058164628515414,40
5277.83,83.20197424242426,81.81777830069099,73.74242358848859,77.96312059595411,43.85465770473688,48.0753547122024,40
5463.87,84.12057424242425,82.61241850264824,74.18074704441236,78.4674588859237,44.144959616724535,48.43167145823588,40
5657.23,83.48417424242425,82.16433512219352,73.70973772060816,78.02534826765725,44.13898685453627,48.45459740158536,40
5856.45,82.84977424242425,81.65570784464137,73.49932286096728,77.74292305097376,43.91278479366761,48.15638498367409,40
6062.99,83.06017424242425,81.91247462508102,73.64076062772159,77.87263425770938,44.03984036737164,48.27171399735943,40
6276.86,81.88847424242425,81.0649086791637,73.2005796629022,77.40062524353434,43.66428343562936,47.86432901626149,40
6498.05,81.84227424242425,81.25265335506438,73.33340561581103,77.58098038887522,43.67167296618916,47.91924773925335,40
6726.56,81.80847424242424,81.48859490695645,73.58633955042097,77.76127292921677,43.72732197773968,47.90225535653548,40
6963.87,81.77717424242425,81.43942296245018,73.4911509324416,77.87861248668514,43.56081047576504,47.94827203000858,40
7209.96,82.49567424242423,82.13338970189727,74.06200571616313,78.29578387249616,43.83760582940111,48.071383985734144,40
7464.84,81.39267424242425,81.48045666967441,73.74785742695789,78.05784675920916,43.422609910465255,47.73259924271652,40
7727.05,82.96047424242425,82.63669809523455,74.39375350602432,78.6607031448674,43.97599495036715,48.242944589210225,40
7999.51,81.42757424242426,81.6071074477978,73.74820576367497,78.0977081870496,43.5093992607482,47.85890168412283,40
