Freq,On Axis,Listening Window,Sound Power,Early Reflections,Early Reflections DI,Sound Power DI,DI offset
20.5078,55.96810000000001,56.066538906961185,59.93169811267241,58.3384847664846,37.72805414047659,36.13484079428878,40
21.9727,59.62830000000001,59.75902407980932,62.99778394423008,61.6381986841381,38.12082539567122,36.76124013557924,40
23.4375,64.4477,64.54608885976411,66.72027335234257,65.7483989836714,38.79768987609272,37.82581550742154,40
24.9023,68.0877,68.15409192820245,69.7151248733952,68.98048961354613,39.17360231465632,38.43896705480725,40
26.3672,70.6835,70.74150679116376,72.08466845221848,71.4388501991668,39.302656591996964,38.65683833894528,40
27.832,72.2127,72.26223112205868,73.39403533603063,72.8437252460847,39.41850587597398,38.86819578602805,40
29.2969,74.8624,74.9024089397682,75.78114457590381,75.34399273568596,39.558416204082235,39.121264363864384,40
30.7617,76.61570000000002,76.65005194651974,77.38396224728079,77.01396550019454,39.636086446325194,39.26608969923895,40
32.2266,78.1553,78.1817301472727,78.73658470824901,78.45058469222339,39.731145455049315,39.44514543902369,40
33.6914,79.38340000000001,79.40523811609769,79.85143820995704,79.61638969230677,39.788848423790924,39.553799906140654,40
35.1562,80.13529999999999,80.1535598705001,80.51788500133769,80.32234900524381,39.831210865256296,39.635674869162415,40
36.6211,80.7298,80.74550317486938,81.06254041439621,80.8872834217024,39.85821975316698,39.682962760473174,40
38.0859,81.116,81.12713894117199,81.34389708788187,81.21831146583217,39.90882747533982,39.78324185329012,40
39.5508,81.4047,81.41337158446599,81.58278960333267,81.47839032515984,39.934981259306156,39.83058198113332,40
41.0156,81.7802,81.78668357854623,81.90353484367408,81.82424530432938,39.96243827421685,39.88314873487215,40
42.4805,81.8905,81.89584091794315,81.99371676589571,81.92423169705287,39.97160922089027,39.902124152047435,40
43.9453,82.1965,82.20119155251776,82.27473167352173,82.21587191511972,39.985319637398035,39.92645987899603,40
45.4102,82.1906,82.19168368429814,82.2085331165267,82.17605104544707,40.01563263885107,39.983150567771446,40
46.875,82.59260000000002,82.59469858140528,82.64950829432726,82.59649444113016,39.99820414027512,39.94519028707802,40
48.3398,82.3636,82.36447619958653,82.411449886721,82.35705234849861,40.00742385108792,39.95302631286553,40
51.2695,82.2883,82.28381963400203,82.2115834052601,82.22284003441128,40.06097959959075,40.07223622874193,40
52.7344,82.4828,82.4765047534038,82.35901520505706,82.39286224372837,40.08364250967543,40.11748954834674,40
54.1992,82.5938,82.58664289569326,82.44327769100268,82.49137506895359,40.09526782673967,40.14336520469058,40
55.6641,82.65989999999998,82.65496859888061,82.58376211665977,82.59053723457173,40.06443136430889,40.071206482220845,40
58.5938,82.7043,82.69507989504318,82.53129637217165,82.5879150593125,40.107164835730686,40.163783522871526,40
60.0586,82.7028,82.69266559714062,82.51116374857513,82.57638566607744,40.116279931063175,40.18150184856549,40
62.9883,82.8267,82.81666691847575,82.66252790076997,82.71266903388432,40.10399788459142,40.15413901770577,40
64.4531,82.84659999999998,82.8347725861061,82.66078367368495,82.72005918161265,40.11471340449344,40.17398891242115,40
67.3828,83.04970000000002,83.03586601537272,82.82241714627915,82.89979260403024,40.13607341134248,40.21344886909357,40
68.8477,82.9998,82.98637849087267,82.7816561352904,82.85400919405045,40.13236929682222,40.20472235558226,40
71.7773,82.92480000000002,82.9095821491742,82.69551065217918,82.77108252884388,40.13849962033032,40.21407149699502,40
74.707,82.9043,82.88485574071558,82.60250930779524,82.71156927305546,40.17328646766012,40.282346432920335,40
77.6367,83.0052,82.98492879157892,82.67732337155627,82.80037659534017,40.184552196238755,40.307605420022654,40
79.1016,82.9555,82.93436661315904,82.62532552500673,82.748423733879,40.18594287928005,40.30904108815231,40
82.0312,83.0072,82.9843602781778,82.63455755911677,82.77955670728949,40.204803570888316,40.34980271906103,40
84.9609,82.96569999999998,82.94160316944358,82.59978792051763,82.73724736058294,40.20435580886064,40.341815248925954,40
87.8906,82.93420000000002,82.90833815349971,82.54265526596959,82.69242263489117,40.21591551860854,40.36568288753013,40
90.8203,82.89719999999998,82.86881801714215,82.47366600634867,82.63789212771006,40.230925889432086,40.39515201079348,40
95.2148,82.8659,82.8356962874959,82.43125321504229,82.59612765971461,40.239568627781296,40.40444307245362,40
98.1445,82.7813,82.74772635832188,82.29114258402636,82.48433921382656,40.263387144495326,40.456583774295524,40
101.074,82.8065,82.77219866483642,82.32697986120887,82.51147489686103,40.26072376797539,40.445218803627554,40
105.469,82.73,82.68941990265327,82.15314983275098,82.38181871533882,40.30760118731445,40.53627006990229,40
108.398,82.69420000000001,82.65158981241328,82.07713162666822,82.32356615802104,40.32802365439224,40.57445818574506,40
112.793,82.7376,82.69149920415462,82.05420629171154,82.33304578588027,40.35845341827435,40.63729291244309,40
117.188,82.7366,82.6898220773695,82.04981849250544,82.33229403934833,40.35752803802117,40.64000358486406,40
120.117,82.7614,82.71392320841206,82.06013248393775,82.34991606131054,40.36400714710152,40.653790724474305,40
124.512,82.6512,82.60183387877233,81.96592342607835,82.23989193645069,40.361941942321636,40.63591045269398,40
128.906,82.5492,82.49602197301003,81.80644126601088,82.10856266922369,40.38745930378634,40.68958070699915,40
133.301,82.5229,82.46700865420686,81.7452436830444,82.06308314578493,40.403925508421935,40.72176497116247,40
139.16,82.48110000000001,82.421748057816,81.69105110443816,82.00711267939876,40.414635378417245,40.730696953377844,40
143.555,82.4145,82.35001168783874,81.58343438619686,81.914378078367,40.43563360947175,40.76657730164189,40
147.949,82.3937,82.32285361840088,81.45798201030634,81.8371561589293,40.48569745947158,40.864871608094546,40
153.809,82.43739999999998,82.35955836845812,81.35541924055981,81.80245314345561,40.557105225002516,41.00413912789831,40
159.668,82.5891,82.5092371933162,81.39863050967364,81.90542628865332,40.60381090466288,41.11060668364256,40
165.527,82.5622,82.48445493422268,81.40433685580548,81.89764712224644,40.58680781197624,41.0801180784172,40
171.387,82.4694,82.38916351015135,81.31325304797856,81.79942688196506,40.58973662818629,41.075910462172786,40
177.246,82.3802,82.29499283587215,81.1693650761177,81.68043840174235,40.6145544341298,41.12562775975445,40
183.105,82.3357,82.24498205838701,81.02372747801401,81.58592827104722,40.659053787339786,41.221254580373,40
188.965,82.31680000000001,82.22357414332002,80.95210166060237,81.53965520066937,40.68391894265065,41.271472482717655,40
196.289,82.25339999999998,82.15430198103822,80.81790970751253,81.43902353814472,40.71527844289349,41.33639227352569,40
203.613,82.22770000000001,82.12203608642331,80.67408195420823,81.35600993670428,40.766026149719025,41.447954132215074,40
210.938,82.2314,82.1204953599899,80.5975235187644,81.31639855390284,40.80409680608706,41.5229718412255,40
218.262,82.2036,82.0895355002264,80.48193559457366,81.24652176420268,40.84301373602372,41.60759990565275,40
225.586,82.2307,82.10949089431959,80.3940424984099,81.2152518513623,40.894239042957295,41.71544839590969,40
232.91,82.3718,82.24257860565388,80.31861101379016,81.25712699454462,40.985451611109255,41.923967591863715,40
241.699,82.5685,82.43392647874846,80.22986814597894,81.32754307572209,41.10638340302637,42.20405833276952,40
250.488,82.884,82.76266745984255,80.57945583418022,81.67474105521364,41.0879264046289,42.183211625662324,40
259.277,82.6673,82.54339953175541,80.48579990969246,81.50211608299392,41.04128344876149,42.05759962206295,40
268.066,82.6874,82.56713742945053,80.44963864329357,81.50934613636433,41.0577912930862,42.11749878615696,40
276.855,82.4685,82.34238869427098,80.22994697160736,81.27616728589582,41.066221408375156,42.11244172266362,40
287.109,82.55829999999999,82.43905966134675,80.24148201465508,81.36514033738176,41.07391932396499,42.19757764669167,40
297.363,82.4599,82.32971661784516,80.1791218142561,81.25505329103602,41.074663326809144,42.15059480358906,40
307.617,82.5464,82.41065286007513,80.13044216987957,81.27060904397969,41.14004381609544,42.28021069019556,40
319.336,82.4957,82.3667435041577,79.97190847041627,81.1903026620957,41.17644084206199,42.39483503374143,40
329.59,82.53859999999999,82.39527839451067,79.85224803634269,81.16036854182107,41.2349098526896,42.54303035816798,40
341.309,82.9013,82.7553057733807,80.03518310690619,81.4352717285431,41.3200340448376,42.72012266647451,40
353.027,83.0011,82.86747773230681,80.27187279271715,81.59003844946135,41.277439282845464,42.59560493958966,40
366.211,82.8848,82.7438546707575,80.17074199768082,81.46487526239243,41.278979408365075,42.57311267307668,40
379.395,83.04030000000002,82.91240634497734,80.14551072709111,81.57087850965168,41.341527835325664,42.766895617886235,40
392.578,83.0568,82.93044702792321,80.17024228623248,81.59695294086565,41.33349408705756,42.76020474169073,40
405.762,82.59769999999999,82.45212942460715,79.91823836650994,81.198073317964,41.25405610664315,42.53389105809721,40
420.41,82.7711,82.59078077277246,79.68206790437327,81.12419243593058,41.46658833684188,42.90871286839919,40
435.059,82.9889,82.81967451426102,79.74937303394739,81.28218528631626,41.53748922794476,43.07030148031363,40
451.172,83.112,82.9489179573136,79.79732661856089,81.35669405904018,41.59222389827342,43.15159133875271,40
465.82,83.10430000000001,82.94089002404795,79.71257761625118,81.32417425210897,41.61671577193897,43.228312407796764,40
483.398,82.8449,82.66501373953518,79.5413755211812,81.08840678805151,41.57660695148367,43.12363821835399,40
499.512,82.6718,82.46034607966698,79.33371959143638,80.85935772161814,41.60098835804884,43.1266264882306,40
517.09,82.6925,82.44959343004992,79.10921028563551,80.7041637253758,41.74542970467411,43.3403831444144,40
536.133,82.8058,82.5089916423576,78.73407224539213,80.42392571364525,42.08506592871235,43.77491939696547,40
555.176,82.97019999999999,82.71312613895225,78.7170364198874,80.64790869101458,42.06521744793767,43.99608971906484,40
574.219,82.7649,82.48452246259315,78.62565298473608,80.5747549796,41.909767482993146,43.85886947785707,40
594.727,82.5998,82.26908959982117,78.29077321491809,80.25060564281097,42.018483957010204,43.97831638490308,40
615.234,82.8512,82.41002285367667,78.05723663001359,80.21515772447093,42.19486512920574,44.352786223663074,40
637.207,83.5262,82.99399273482088,78.07489944621219,80.53214702690317,42.4618457079177,44.91909328860869,40
659.18,83.51890000000002,83.09100520238225,77.7924591536736,80.53896429358268,42.55204090879957,45.298546048708644,40
682.617,83.7589,83.37204113017027,78.01811960082325,80.768481390057,42.60355974011327,45.35392152934702,40
707.52,82.63709999999999,82.31876259527652,77.09534804468305,79.87364834694809,42.44511424832844,45.223414550593475,40
732.422,82.6067,82.36751791174713,77.25203039189792,79.95276809997416,42.414749811772964,45.11548751984921,40
757.324,81.9414,81.71348887945138,76.94470450547489,79.44943990107278,42.2640489783786,44.76878437397649,40
785.156,82.61469999999998,82.31562165527657,77.03756010640319,79.74213123229427,42.5734904229823,45.27806154887338,40
811.523,83.1076,82.66143522331068,76.89658309880136,79.68710314596352,42.97433207734716,45.76485212450932,40
840.82,84.16630000000002,83.60429673301941,77.09258796991058,80.07972079115653,43.52457594186288,46.51170876310883,40
870.117,83.86829999999999,83.38389668953518,76.79334747906846,79.8970268091682,43.48686988036698,46.59054921046672,40
900.879,83.6545,83.1961425197221,76.51192422404257,79.6794486958565,43.51669382386561,46.68421829567953,40
933.105,83.9266,83.48875595060535,76.57343874146933,79.84998707434286,43.63876887626249,46.91531720913602,40
965.332,83.3072,82.97042616674626,76.39826895135037,79.5754185182381,43.39500764850817,46.57215721539589,40
1000.49,83.4456,82.99997017148438,76.17641328439994,79.39259853653331,43.607371634951065,46.823556887084436,40
1035.64,83.3245,82.75709633385284,75.79483178701032,79.07793457246866,43.67916176138418,46.96226454684252,40
1072.27,82.73869999999998,82.32877121204396,75.59451269222876,78.79108145758343,43.53768975446053,46.7342585198152,40
1108.89,82.5893,82.0499709255317,75.36761459546489,78.45554467234113,43.59442625319056,46.68235633006681,40
1148.44,82.7698,82.16111075742987,75.29762611925028,78.44580938586353,43.71530137156634,46.863484638179585,40
1189.45,82.4895,82.0333219182461,75.58529123937366,78.49820488013586,43.53511703811024,46.44803067887244,40
1230.47,83.5335,82.7711077906328,75.63314119969569,78.68134607164946,44.08976171898334,47.13796659093711,40
1274.41,83.4606,83.0106899984266,76.1016094224842,78.93123500817366,44.07945499025294,46.9090805759424,40
1319.82,83.63279999999999,82.87444263754855,75.91586559210096,78.84128037172388,44.03316226582467,46.9585770454476,40
1366.7,83.5785,83.00948188543012,76.18361141297939,78.9572747907395,44.052207094690615,46.82587047245073,40
1413.57,83.0441,82.3170516128794,76.00060854039744,78.5992938488988,43.7177577639806,46.31644307248196,40
1463.38,82.92790000000001,82.33144939084,75.73394314497428,78.53121782541386,43.800231565426145,46.59750624586573,40
1516.11,82.7007,81.91358524316676,75.34017224030117,78.30026570232668,43.61331954084008,46.57341300286559,40
1568.85,82.7497,82.04825284535177,75.49150520087836,78.52697465000618,43.52127819534559,46.556747644473404,40
1624.51,83.49669999999999,82.44912556824862,75.8038302934648,78.7012338464446,43.747891721804024,46.64529527478382,40
1681.64,83.1859,82.62622043765646,75.99010375551558,78.72537123939173,43.90084919826472,46.63611668214088,40
1741.7,84.1298,83.15258528578492,75.98801755798668,78.96880478801218,44.183780497772744,47.16456772779824,40
1803.22,83.4399,82.68637046546706,75.79951831573023,78.7900084622152,43.896362003251866,46.88685214973684,40
1866.21,82.915,82.17872763266531,75.45627420473433,78.44572208471256,43.73300554795276,46.722453427930986,40
1932.13,82.7514,81.57133191813807,75.09245539358663,78.2529526158495,43.31837930228858,46.47887652455144,40
1999.51,81.8725,81.12535352920368,74.63268834627783,77.91001817982789,43.21533534937579,46.49266518292585,40
2069.82,82.48799999999999,81.706958183321,74.76427147248394,77.97088908517325,43.73606909814775,46.942686710837066,40
2143.07,82.3433,81.73688801484728,74.68908510170962,77.93117549490087,43.80571251994641,47.04780291313766,40
2219.24,82.4978,81.8228291486579,74.95566477395333,78.07250878028374,43.75032036837416,46.86716437470457,40
2296.88,82.1495,81.7154797537484,75.09111559090991,78.2425906318207,43.47288912192769,46.62436416283849,40
2378.91,82.70450000000001,81.94519052075098,75.05482400454939,78.37289128316938,43.5722992375816,46.890366516201595,40
2462.4,82.8109,82.20520377714672,75.01326700615473,78.55125511275445,43.653948664392274,47.19193677099199,40
2548.83,82.6332,82.08451631701502,74.9007954392457,78.34804833820641,43.736467978808605,47.18372087776932,40
2639.65,82.33,81.7190440307851,74.77109575616628,78.08071906752686,43.63832496325824,46.947948274618824,40
2731.93,82.33920000000002,81.64858881065689,74.76082788014111,78.18080752888743,43.46778128176946,46.88776093051578,40
2828.61,83.3227,82.41698043938858,75.04794057544898,78.61640679971184,43.80057363967674,47.369039863939605,40
2928.22,83.426,82.83305751891045,75.38670137368298,78.83312132669411,43.99993619221634,47.44635614522747,40
3030.76,82.52469999999998,81.92951821224891,74.85371663361742,78.39140847674246,43.53810973550645,47.075801578631484,40
3137.7,81.4508,81.0031719431152,74.24027211909853,77.9973934311303,43.0057785119849,46.76289982401667,40
3249.02,83.3179,82.5509350275854,74.859150265956,78.60098662045907,43.94994840712633,47.69178476162939,40
3363.28,83.4659,83.00709722446499,74.95251188164366,78.64041844500811,44.366678779456876,48.054585342821326,40
3481.93,82.1657,81.70491819916985,74.21462187953587,78.08404735889019,43.620870840279665,47.490296319633984,40
3604.98,82.39709999999998,81.52931119628754,73.91164996472266,77.99153011756616,43.53778107872138,47.61766123156488,40
3732.42,83.041,82.22080150896558,74.22798130914116,78.27034016211242,43.95046134685316,47.99282019982442,40
3864.26,82.492,81.66962862247715,73.88937974667006,77.78391534935578,43.88571327312137,47.78024887580709,40
4000.49,82.7048,81.67637569254144,73.93512932497728,77.86008057219262,43.816295120348826,47.74124636756416,40
4141.11,82.0498,81.18244228339161,73.44142476930566,77.37719999386043,43.80524228953118,47.741017514085954,40
4287.6,81.8,80.91997639522774,73.56006604443243,77.32285700817137,43.59711938705637,47.3599103507953,40
4438.48,82.9757,81.91648942949446,74.19507818649471,77.8337626326471,44.08272679684737,47.72141124299975,40
4595.21,81.9191,80.90676934813699,73.39007446074034,77.22666535248388,43.68010399565311,47.51669488739665,40
4756.35,82.8998,81.59063339449047,73.9054363975804,77.65698995148014,43.933643443010325,47.685196996910065,40
4924.8,83.15059999999998,81.86346806897959,73.80908012634123,77.83396764630248,44.0295004226771,48.05438794263836,40
5097.66,83.5535,82.15333471884803,74.09517009033262,78.21658457735629,43.93675014149174,48.058164628515414,40
5277.83,83.4056,82.02140405826674,73.94604934606434,78.16674635352986,43.85465770473688,48.0753547122024,40
5463.87,84.3242,82.81604426022399,74.3843728019881,78.67108464349946,44.144959616724535,48.43167145823588,40
5657.23,83.6878,82.36796087976927,73.91336347818391,78.228974025233,44.13898685453627,48.45459740158536,40
5856.45,83.0534,81.85933360221712,73.70294861854303,77.94654880854951,43.91278479366761,48.15638498367409,40
6062.99,83.2638,82.11610038265677,73.84438638529734,78.07626001528513,44.03984036737164,48.27171399735943,40
6276.86,82.0921,81.26853443673944,73.40420542047795,77.60425100111009,43.66428343562936,47.86432901626149,40
6498.05,82.0459,81.45627911264013,73.53703137338678,77.78460614645097,43.67167296618916,47.91924773925335,40
6726.56,82.01209999999999,81.6922206645322,73.78996530799672,77.96489868679252,43.72732197773968,47.90225535653548,40
6963.87,81.9808,81.64304872002593,73.69477669001735,78.08223824426089,43.56081047576504,47.94827203000858,40
7209.96,82.69929999999998,82.33701545947302,74.26563147373888,78.49940963007191,43.83760582940111,48.071383985734144,40
7464.84,81.5963,81.68408242725016,73.95148318453364,78.2614725167849,43.422609910465255,47.73259924271652,40
7727.05,83.1641,82.8403238528103,74.59737926360008,78.86432890244315,43.97599495036715,48.242944589210225,40
7999.51,81.6312,81.81073320537355,73.95183152125072,78.30133394462536,43.5093992607482,47.85890168412283,40
8282.23,81.5473,82.02129762338492,74.22528388424175,78.48348942888607,43.53780819449885,47.79601373914318,40
8573.73,81.0491,81.62227270513235,73.837736684763,78.16756081448854,43.45471189064381,47.784536020369345,40
8876.95,81.81850000000001,82.13672720776962,74.15054770827722,78.50430774762168,43.63241946014794,47.98617949949241,40
9188.96,81.2854,81.8043868877202,73.99264715855502,78.31161462989405,43.49277225782615,47.81173972916518,40
9514.16,81.03249999999998,81.78175226029417,74.05474798647526,78.28230019245788,43.49945206783629,47.727004273818906,40
9849.61,81.71749999999999,82.07942996395501,74.14721671810467,78.38576270604183,43.69366725791318,47.932213245850335,40
10196.8,80.9721,81.31878460651502,73.55194437365755,77.77064280808177,43.54814179843325,47.766840232857476,40
10555.7,81.1958,81.19719384550477,73.53784589656037,77.71464253165284,43.48255131385193,47.6593479489444,40
10927.7,81.5639,81.31785610999417,73.73613875731739,77.89158246749133,43.426273642502835,47.581717352676776,40
11313.0,81.17560000000002,80.88248535817202,73.54065257817473,77.68185571163606,43.20062964653596,47.34183277999729,40
11712.9,81.1501,80.80341096052393,73.51933371332647,77.62626634775488,43.177144612769055,47.28407724719746,40
