Freq,On Axis,Listening Window,Sound Power,Early Reflections,Early Reflections DI,Sound Power DI,DI offset
22.4,17.10000000000001,16.890958860602595,17.222597377284202,17.263557164194182,29.627401696408413,29.668361483318392,30
23.0,18.500000000000014,18.2909588606026,18.61627918465659,18.659019495216924,29.631939365385676,29.67467967594601,30
23.6,19.89999999999999,19.6477724517366,19.959419236275423,20.019052327144507,29.628720124592093,29.688353215461177,30
24.0,21.60000000000001,21.363091213997436,21.673605520193846,21.732890906124524,29.63020030787291,29.68948569380359,30
25.0,23.10000000000001,22.890958860602595,23.20386538522864,23.253756627770443,29.637202232832152,29.687093475373956,30
25.8,24.39999999999999,24.1820027607569,24.48522057910789,24.53927338817978,29.642729372577122,29.696782181649013,30
26.5,25.60000000000001,25.398925456858805,25.70633046801946,25.754518482613534,29.64440697424527,29.692594988839346,30
27.2,27.299999999999997,27.060228116397425,27.359373337004442,27.418181004712366,29.64204711168506,29.700854779392984,30
28.0,28.799999999999997,28.569609478944713,28.871055514151195,28.935053130833907,29.634556348110806,29.69855396479352,30
29.0,30.10000000000001,29.88200276075689,30.173054793057716,30.230559281680442,29.65144347907645,29.708947967699174,30
30.0,31.39999999999999,31.205243151281664,31.500763521944762,31.553769185423405,29.65147396585826,29.704479629336902,30
30.7,33.000000000000014,32.80524315128169,33.09577322305195,33.15189186285498,29.653351288426705,29.709469928229737,30
31.5,34.39999999999999,34.1820027607569,34.47481050126318,34.53201444219424,29.649988318562663,29.707192259493723,30
32.5,35.7,35.46675067671812,35.76699690785087,35.82597938098398,29.64077129573414,29.699753768867254,30
33.5,37.3,37.10524315128167,37.39274047744921,37.451129547061086,29.654113604220584,29.71250267383246,30
34.5,38.8,38.5753858375253,38.86629157433596,38.92490937027712,29.650476467248183,29.709094263189343,30
35.5,40.10000000000001,39.90524315128165,40.19326790842835,40.25112954706107,29.654113604220584,29.7119752428533,30
36.5,41.7,41.505243151281675,41.79953769138724,41.85225704733962,29.652986103942055,29.705705459894432,30
37.5,43.2,42.92357059924892,43.24128978644849,43.302847509358045,29.620723089890873,29.68228081280043,30
38.7,44.500000000000014,44.31184875395725,44.602662003900875,44.6547211728773,29.657127581079948,29.709186750056375,30
40.0,46.10000000000001,45.823570599248896,46.13320774379001,46.19181485273141,29.631755746517484,29.690362855458886,30
41.2,47.39999999999999,47.211848753957256,47.464037160538524,47.53196865710626,29.679880096850994,29.74781159341873,30
42.5,48.8,48.61184875395726,48.89218753320688,48.95618318394109,29.65566557001617,29.719661220750382,30
43.7,50.2,50.01184875395724,50.293888082658114,50.35769794987942,29.654150804077815,29.717960671299124,30
45.0,51.60000000000001,51.329998787336436,51.595101614631176,51.66403334431939,29.665965443017043,29.73489717270526,30
46.2,52.999999999999986,52.72999878733644,53.008824311947095,53.07388967575886,29.656109111577578,29.721174475389347,30
47.5,54.2,54.018294302624994,54.2664468706041,54.33225821198148,29.686036090643512,29.751847432020895,30
48.7,55.499999999999986,55.285738397911885,55.55911940121766,55.616092398173876,29.66964599973801,29.726618996694228,30
50.0,56.8,56.53807789113853,56.7738688827112,56.85249361953929,29.68558427159924,29.76420900842733,30
51.5,57.999999999999986,57.77277134041965,58.02608138768498,58.08927815132823,29.683493189091422,29.74668995273467,30
53.0,59.2,58.912429188468124,59.1681957258118,59.24339449401771,29.669034694450417,29.744233462656325,30
54.5,60.2,59.98775472859697,60.2549915190515,60.324451214566366,29.663303514030602,29.732763209545467,30
56.0,61.2,60.98775472859697,61.249212116335585,61.31452074825886,29.67323398033811,29.738542612261384,30
58.0,62.2,61.987754728596954,62.2315620626496,62.296710458346794,29.69104427025016,29.756192665947353,30
60.0,63.10000000000001,62.88775472859696,63.12702458935249,63.19568466315175,29.692070065445208,29.760730139244473,30
61.5,64.00000000000001,63.734991036618126,63.98130676204305,64.0530562149372,29.681934821680926,29.75368427457508,30
63.0,64.8,64.53499103661812,64.76548209283692,64.84282024022569,29.692170796392432,29.769508943781204,30
65.0,65.49999999999999,65.30352539011908,65.51647046923972,65.59165266855338,29.711872721565697,29.787054920879356,30
67.0,66.2,65.94994915835657,66.17718871489349,66.25098247647189,29.698966681884684,29.772760443463085,30
69.0,66.8,66.57857490917964,66.79224902897407,66.87046024009588,29.708114669083756,29.786325880205567,30
71.0,67.4,67.13717268964905,67.33806097590524,67.41065261394995,29.7265200756991,29.799111713743812,30
73.0,67.90000000000002,67.68537585792576,67.8720090009182,67.95666405945937,29.728711798466392,29.813366857007566,30
75.0,68.4,68.13660607888242,68.32170659574619,68.40443364645799,29.732172432424434,29.81489948313623,30
77.5,68.8,68.5125762866863,68.6660489506118,68.75365372828355,29.758922558402745,29.8465273360745,30
80.0,69.09999999999998,68.82877853358968,69.00087617295787,69.08569849085643,29.743080042733254,29.82790236063181,30
82.5,69.39999999999999,69.16606189256696,69.32160688509656,69.41093742332953,29.75512446923743,29.8444550074704,30
85.0,69.8,69.52072578084325,69.64729043854372,69.73669828489115,29.784027495952103,29.87343534229953,30
87.5,70.10000000000001,69.85144377008312,69.97347948578484,70.06689039589442,29.784553374188704,29.877964284298287,30
90.0,70.40000000000002,70.15144377008313,70.26596564774972,70.36438717710307,29.787056592980065,29.88547812233341,30
92.5,70.7,70.42245479366166,70.53493525056781,70.63757728384678,29.784877509814876,29.887519543093845,30
95.0,71.0,70.69177844421527,70.77225685006394,70.87695212532068,29.81482631889459,29.919521594151334,30
97.5,71.2,70.94081580948149,71.01977580361738,71.13122339956432,29.809592409917173,29.921040005864114,30
100.0,71.4,71.1681082559036,71.24681809436109,71.35780136296852,29.81030689293509,29.921290161542515,30
103.0,71.7,71.43960568767345,71.48515534291647,71.60367921519153,29.835926472481916,29.954450344756978,30
106.0,71.89999999999999,71.63960568767344,71.66677917377201,71.78538102519984,29.854224662473598,29.972826513901424,30
109.0,72.1,71.86362217422908,71.86391971128047,71.99341317389198,29.8702090003371,29.999702462948605,30
112.0,72.4,72.07118704669678,72.06340934822781,72.1993175778006,29.87186946889618,30.00777769846897,30
115.0,72.5,72.2314144983301,72.21605735447754,72.34730753323119,29.88410696509891,30.015357143852555,30
118.0,72.7,72.39238828341679,72.3471845864442,72.49061400407257,29.901774279344224,30.045203696972592,30
122.0,72.8,72.54236261154342,72.49385481486115,72.6393782712243,29.902984340319122,30.048507796682273,30
125.0,72.99999999999999,72.70268518252315,72.58916471373055,72.74859706813594,29.95408811438722,30.1135204687926,30
128.0,72.99999999999999,72.76207531348048,72.65845277324804,72.8158842223658,29.946191091114684,30.103622540232436,30
132.0,73.2,72.89009888838677,72.7260126375052,72.90320044119768,29.98689844718909,30.164086250881567,30
136.0,73.2,72.93810865070184,72.78785055243371,72.95895500690467,29.97915364379716,30.150258098268125,30
140.0,73.3,73.06422468130243,72.8455940638358,73.03110953797268,30.033115143329752,30.21863061746663,30
145.0,73.4,73.13652479214161,72.90240749215582,73.10375085983975,30.032773932301865,30.234117299985797,30
150.0,73.5,73.20682434809456,72.9465829433704,73.14184682308503,30.064977525009525,30.260241404724155,30
155.0,73.6,73.288284736292,72.97153678945674,73.19499268439316,30.093292051898842,30.316747946835264,30
160.0,73.6,73.32591700458839,72.98260998309001,73.21827532882565,30.107641675762736,30.343307021498376,30
165.0,73.6,73.36589860010504,72.98031378113134,73.21959913613796,30.146299463967082,30.385584818973697,30
170.0,73.6,73.32654359143345,72.9280714180603,73.1772088760115,30.149334715421944,30.39847217337315,30
175.0,73.6,73.314276943138,72.83309138608124,73.09975251219994,30.214524430938056,30.48118555705676,30
180.0,73.5,73.21824485492563,72.69892947842689,72.9774249781364,30.24081987678923,30.51931537649874,30
185.0,73.3,73.06911022367001,72.50645667622611,72.80757482113526,30.261535402534747,30.5626535474439,30
190.0,73.1,72.85221455589782,72.2423869618555,72.55761872133606,30.29459583456176,30.609827594042315,30
195.0,72.90000000000002,72.60482394140372,71.94074189262196,72.27458639335059,30.330237548053134,30.664082048781765,30
200.0,72.60000000000001,72.31294760626129,71.57958791757603,71.93166994839511,30.38127765786618,30.733359688685255,30
206.0,72.2,71.95516612929909,71.1543133000619,71.52562581406924,30.429540315229843,30.800852829237186,30
212.0,71.8,71.57610495232906,70.7271252407741,71.12172831886517,30.454376633463895,30.84897971155496,30
218.0,71.4,71.20586536812255,70.29798756069209,70.70556433893165,30.500301029190894,30.907877807430452,30
224.0,71.1,70.89411267331779,69.92241272023603,70.35889131670804,30.535221356609753,30.971699953081767,30
230.0,70.9,70.71606108256488,69.65981614939231,70.12778507612084,30.588276006444033,31.056244933172565,30
236.0,70.8,70.63816429903024,69.54051177217742,70.03872366121608,30.599440637814155,31.097652526852812,30
240.0,70.9,70.77148481940971,69.56669847311487,70.09453758034216,30.676947239067545,31.20478634629484,30
250.0,71.2,71.00558035687787,69.72233631636307,70.27956215416708,30.72601820271079,31.283244040514802,30
258.0,71.4,71.3073522964546,69.95276172813602,70.54502417094749,30.76232812550711,31.35459056831857,30
265.0,71.8,71.63251640858523,70.1953998179111,70.82540351001519,30.80711289857004,31.437116590674137,30
272.0,72.0,71.94620645248308,70.41121990954703,71.08497492348057,30.86123152900251,31.534986542936053,30
280.0,72.3,72.20316276868999,70.59442769256263,71.3118639499729,30.89129881871709,31.60873507612736,30
290.0,72.5,72.4046118428894,70.69985031057197,71.47584213759441,30.928769705294982,31.70476153231742,30
300.0,72.60000000000001,72.54235100280776,70.73179191838669,71.5480040196074,30.99434698320036,31.810559084421072,30
307.0,72.60000000000001,72.5855764172319,70.68124819336559,71.5469490184491,31.038627398782808,31.904328223866315,30
315.0,72.60000000000001,72.59060472282624,70.58419259689052,71.51092871393782,31.079676008888427,32.006412125935725,30
325.0,72.5,72.54364538036418,70.46308998777269,71.44658980976548,31.097055570598698,32.08055539259149,30
335.0,72.5,72.51468420795554,70.32681037818695,71.35995546036389,31.154728747591648,32.18787382976859,30
345.0,72.4,72.48011498369817,70.20597925143994,71.29881995873737,31.181295024960804,32.27413573225823,30
355.0,72.4,72.44710775003064,70.1147420189992,71.26797937878185,31.179128371248794,32.332365731031445,30
365.0,72.5,72.48733781382857,70.06398993850246,71.29014974992792,31.197188063900654,32.423347875326115,30
375.0,72.5,72.55362144671443,70.04050802795922,71.33066999479578,31.222951451918647,32.51311341875521,30
387.0,72.5,72.5388502853159,69.97900554262743,71.3342673825865,31.2045829027294,32.55984474268847,30
400.0,72.5,72.52844144384407,69.88601188673542,71.30099233675845,31.22744910708562,32.642429557108656,30
412.0,72.4,72.40309435367867,69.72399569116725,71.19315025249531,31.209944101183353,32.67909866251142,30
425.0,72.3,72.23344755728704,69.49084343002089,71.00424006883557,31.229207488451465,32.74260412726615,30
437.0,72.0,71.96630414257442,69.19412491278815,70.73591703891222,31.230387103662196,32.77217922978626,30
450.0,71.8,71.65443265823527,68.86879963692228,70.43509026584427,31.219342392391,32.78563302131299,30
462.0,71.50000000000001,71.37735991913179,68.56659507888023,70.14720696514125,31.23015295399054,32.810764840251565,30
475.0,71.4,71.20875294623274,68.37424841007454,69.97835000041293,31.230402945819804,32.83450453615819,30
487.0,71.3,71.15376080245744,68.28452653045849,69.8846701752475,31.269090627209934,32.86923427199895,30
500.0,71.3,71.07677336059771,68.20697046826693,69.81255086442032,31.264222496177396,32.86980289233078,30
515.0,71.2,70.99757550006515,68.09127377182905,69.69086943301147,31.306706067053682,32.9063017282361,30
530.0,71.1,70.88681635933241,67.91980602984312,69.52554472388458,31.361271635447835,32.9670103294893,30
545.0,71.0,70.76714458426827,67.73939504123709,69.36045998056407,31.406684603704193,33.02774954303118,30
560.0,70.9,70.64752376817378,67.51302711523849,69.16255367119993,31.484970096973854,33.1344966529353,30
580.0,70.7,70.48029859145691,67.25721261463515,68.94575556877551,31.534543022681405,33.223085976821764,30
600.0,70.6,70.33616107668121,66.97814029828328,68.69854311947874,31.637617957202465,33.35802077839793,30
615.0,70.40000000000002,70.19106891239024,66.6970446618454,68.47475887545158,31.71631003693865,33.49402425054484,30
630.0,70.3,70.05523844676304,66.40959711666181,68.27222867423173,31.783009772531315,33.64564133010123,30
650.0,70.2,69.978120609702,66.13449379922328,68.08041704212172,31.89770356758028,33.843626810478725,30
670.0,70.10000000000001,69.91089225155946,65.87810294366193,67.90964191577508,32.00125033578438,34.03278930789753,30
690.0,70.10000000000001,69.89128487257251,65.65890525622056,67.78861241398793,32.10267245858458,34.23237961635195,30
710.0,70.2,69.8745551343942,65.42502422400509,67.64191487334843,32.23264026104577,34.449530910389115,30
730.0,70.2,69.84397761579771,65.22726602929464,67.51829115401677,32.32568646178095,34.61671158650307,30
750.0,70.2,69.83636129346803,65.04883153058485,67.39225499718357,32.44410629628446,34.78752976288318,30
775.0,70.2,69.77352176913313,64.91061889729725,67.26552206641142,32.507999702721705,34.86290287183587,30
800.0,70.2,69.74633759801536,64.84758419555958,67.18598025399231,32.560357344023046,34.89875340245578,30
825.0,70.10000000000001,69.67697621033908,64.82818357425573,67.14109207320732,32.53588413713176,34.848792636083346,30
850.0,70.10000000000001,69.62233988943747,64.87968386685635,67.1398086171456,32.482531272291865,34.742656022581116,30
875.0,70.0,69.56799577606232,65.00489021154324,67.20586640249309,32.36212937356923,34.56310556451908,30
900.0,69.9,69.55217377088861,65.18163425898115,67.35400162556869,32.19817214531993,34.37053951190747,30
925.0,69.8,69.52263565610205,65.3668563493859,67.51511438181109,32.007521274290966,34.155779306716155,30
950.0,69.7,69.48114308564243,65.55420462919558,67.71769017784213,31.7634529078003,33.92693845644685,30
975.0,69.6,69.43666955610753,65.67059410789714,67.86912993820954,31.567539617897992,33.76607544821039,30
1000.0,69.6,69.39465123009712,65.70737390247166,67.99360800801988,31.40104322207725,33.687277327625466,30
1030.0,69.5,69.32098293009153,65.57508579484006,67.99533186824014,31.32565106185139,33.74589713525147,30
1060.0,69.5,69.24029208765207,65.26454469963367,67.84136849719955,31.39892359045251,33.97574738801839,30
1090.0,69.5,69.13267362383455,64.77107282894747,67.53144635951226,31.60122726432229,34.36160079488708,30
1120.0,69.5,68.97875253313198,64.16038823712219,67.1067212560345,31.872031277097477,34.81836429600979,30
1150.0,69.5,68.87354651760181,63.51422030226051,66.66045664164017,32.21308987596164,35.3593262153413,30
1180.0,69.5,68.78826736742435,62.95290944185112,66.26969237230281,32.51857499512154,35.835357925573234,30
1220.0,69.6,68.78978852083,62.55297382565122,66.0212143396555,32.7685741811745,36.23681469517878,30
1250.0,69.7,68.83787757414167,62.34642782798423,65.93724398326005,32.900633590881625,36.49144974615744,30
1280.0,69.8,68.96376905299074,62.34605041771529,66.04107541700299,32.922693635987756,36.61771863527545,30
1320.0,69.9,69.12112326390088,62.47147859435164,66.28766710810736,32.83345615579353,36.64964466954925,30
1360.0,70.0,69.29557429627734,62.64306264641033,66.5626178103104,32.73295648596694,36.65251164986701,30
1400.0,70.10000000000001,69.4765328128077,62.76822697782461,66.79203209707335,32.68450071573436,36.70830583498309,30
1450.0,70.2,69.63216164388312,62.737761471376075,66.83583300141669,32.796328642466435,36.89440017250705,30
1500.0,70.40000000000002,69.79025471530163,62.654179810761704,66.75991397848112,33.030340736820506,37.136074904539925,30
1550.0,70.49999999999999,69.94442811686064,62.58316442503107,66.6053755512791,33.33905256558154,37.36126369182956,30
1600.0,70.6,70.04200947262504,62.57762927799425,66.40461976159476,33.63738971103028,37.46438019463079,30
1650.0,70.7,70.14703968127331,62.73345457104263,66.30537936402581,33.8416603172475,37.413585110230684,30
1700.0,70.8,70.20116835838668,62.890724094089606,66.21992416600018,33.9812441923865,37.310444264297075,30
1750.0,70.9,70.122893734695,62.842977617757384,66.06045505484111,34.062438679853884,37.27991611693761,30
1800.0,70.9,69.96472603496908,62.47267395106239,65.77177144997508,34.192954584994,37.492052083906685,30
1850.0,70.9,69.83517795257488,61.9950693940044,65.44240540566899,34.39277254690589,37.84010855857048,30
1900.0,70.8,69.68974585100483,61.590186591178266,65.1063344013444,34.58341144966043,38.09955925982656,30
1950.0,70.6,69.55765085208871,61.37938017719371,64.86970003188192,34.687950820206794,38.178270674895,30
2000.0,70.40000000000002,69.37737250754235,61.28169899504496,64.6848689234843,34.692503584058045,38.095673512497385,30
2060.0,70.10000000000001,69.09641336105007,61.209037764792654,64.48658791816311,34.60982544288696,37.887375596257414,30
2120.0,69.7,68.7436017065095,61.10545057019428,64.27579708961963,34.467804616889865,37.638151136315216,30
2180.0,69.3,68.27510627206229,60.85307054251409,63.93990332159744,34.33520295046485,37.4220357295482,30
2240.0,68.8,67.74275365617227,60.58710553555994,63.58046464173192,34.16228901444035,37.15564812061233,30
2300.0,68.2,67.2555621451102,60.49189812400921,63.36747582956454,33.888086315545664,36.76366402110099,30
2360.0,67.7,66.85306524972081,60.61575936920026,63.48248110400833,33.370584145712485,36.23730588052055,30
2400.0,67.2,66.46418479161336,60.60249471686488,63.616339843200436,32.84784494841293,35.86169007474848,30
2500.0,66.8,66.11947535359695,60.342910781294094,63.53069673548576,32.58877861811119,35.77656457230286,30
2580.0,66.7,66.17318901854811,60.23610839659584,63.47756298367163,32.69562603487648,35.937080621952276,30
2650.0,66.89999999999999,66.54094831118618,60.4438936238987,63.73092966380371,32.81001864738248,36.09705468728748,30
2720.0,67.3,66.76183110326248,60.41618235411461,63.88109929040725,32.88073181285523,36.34564874914787,30
2800.0,67.90000000000002,66.93099628552088,60.25650437750262,63.939342089375444,32.99165419614543,36.674491908018254,30
2900.0,68.6,67.19095127636959,60.17841001424138,64.08957965487106,33.10137162149853,37.01254126212821,30
3000.0,69.3,67.51479695368813,60.26193626477749,64.44272854301855,33.07206841066959,37.252860688910644,30
3070.0,69.9,67.93835173709232,60.61135849547465,65.0450072163028,32.89334452078951,37.32699324161767,30
3150.0,70.40000000000002,68.42940153446014,61.02105966687692,65.62717619948374,32.8022253349764,37.40834186758322,30
3250.0,70.7,68.88006731180131,61.23073426385672,65.91852104621468,32.961546265586634,37.649333047944594,30
3350.0,70.9,69.25392712088289,61.24713561184875,66.03425502235771,33.21967209852518,38.006791509034144,30
3450.0,70.9,69.25033339361026,61.18732950743427,66.09277748409582,33.15755590951444,38.06300388617599,30
3550.0,71.0,69.15602614501495,61.2348368837722,66.24060335742921,32.91542278758574,37.921189261242745,30
3650.0,71.1,69.16370989187028,61.42280629307264,66.44363301155803,32.72007688031225,37.740903598797644,30
3750.0,71.4,69.32133031639954,61.625976062157505,66.65816098048806,32.663169335911476,37.695354254242034,30
3870.0,71.8,70.03078513717922,62.1174350955239,66.9223442249273,33.10844091225192,37.91335004165532,30
4000.0,72.2,70.78563063403102,62.42054489722739,66.97080981224396,33.814820821787066,38.365085736803636,30
4120.0,72.7,70.79761384114538,61.94405639034362,66.69651760120232,34.10109623994306,38.85355745080176,30
4250.0,72.99999999999999,70.55158259725168,61.83963015596321,66.60624236409119,33.94534023316049,38.711952441288474,30
