Freq "Sound Power"
22.4 17.222597377284202
23.0 18.61627918465659
23.6 19.959419236275423
24.0 21.673605520193846
25.0 23.20386538522864
25.8 24.48522057910789
26.5 25.70633046801946
27.2 27.359373337004442
28.0 28.871055514151195
29.0 30.173054793057716
30.0 31.500763521944762
30.7 33.09577322305195
31.5 34.47481050126318
32.5 35.76699690785087
33.5 37.39274047744921
34.5 38.86629157433596
35.5 40.19326790842835
36.5 41.79953769138724
37.5 43.24128978644849
38.7 44.602662003900875
40.0 46.13320774379001
41.2 47.464037160538524
42.5 48.89218753320688
43.7 50.293888082658114
45.0 51.595101614631176
46.2 53.008824311947095
47.5 54.2664468706041
48.7 55.55911940121766
50.0 56.7738688827112
51.5 58.02608138768498
53.0 59.1681957258118
54.5 60.2549915190515
56.0 61.249212116335585
58.0 62.2315620626496
60.0 63.12702458935249
61.5 63.98130676204305
63.0 64.76548209283692
65.0 65.51647046923972
67.0 66.17718871489349
69.0 66.79224902897407
71.0 67.33806097590524
73.0 67.8720090009182
75.0 68.32170659574619
77.5 68.6660489506118
80.0 69.00087617295787
82.5 69.32160688509656
85.0 69.64729043854372
87.5 69.97347948578484
90.0 70.26596564774972
92.5 70.53493525056781
95.0 70.77225685006394
97.5 71.01977580361738
100.0 71.24681809436109
103.0 71.48515534291647
106.0 71.66677917377201
109.0 71.86391971128047
112.0 72.06340934822781
115.0 72.21605735447754
118.0 72.3471845864442
122.0 72.49385481486115
125.0 72.58916471373055
128.0 72.65845277324804
132.0 72.7260126375052
136.0 72.78785055243371
140.0 72.8455940638358
145.0 72.90240749215582
150.0 72.9465829433704
155.0 72.97153678945674
160.0 72.98260998309001
165.0 72.98031378113134
170.0 72.9280714180603
175.0 72.83309138608124
180.0 72.69892947842689
185.0 72.50645667622611
190.0 72.2423869618555
195.0 71.94074189262196
200.0 71.57958791757603
206.0 71.1543133000619
212.0 70.7271252407741
218.0 70.29798756069209
224.0 69.92241272023603
230.0 69.65981614939231
236.0 69.54051177217742
240.0 69.56669847311487
250.0 69.72233631636307
258.0 69.95276172813602
265.0 70.1953998179111
272.0 70.41121990954703
280.0 70.59442769256263
290.0 70.69985031057197
300.0 70.73179191838669
307.0 70.68124819336559
315.0 70.58419259689052
325.0 70.46308998777269
335.0 70.32681037818695
345.0 70.20597925143994
355.0 70.1147420189992
365.0 70.06398993850246
375.0 70.04050802795922
387.0 69.97900554262743
400.0 69.88601188673542
412.0 69.72399569116725
425.0 69.49084343002089
437.0 69.19412491278815
450.0 68.86879963692228
462.0 68.56659507888023
475.0 68.37424841007454
487.0 68.28452653045849
500.0 68.20697046826693
515.0 68.09127377182905
530.0 67.91980602984312
545.0 67.73939504123709
560.0 67.51302711523849
580.0 67.25721261463515
600.0 66.97814029828328
615.0 66.6970446618454
630.0 66.40959711666181
650.0 66.13449379922328
670.0 65.87810294366193
690.0 65.65890525622056
710.0 65.42502422400509
730.0 65.22726602929464
750.0 65.04883153058485
775.0 64.91061889729725
800.0 64.84758419555958
825.0 64.82818357425573
850.0 64.87968386685635
875.0 65.00489021154324
900.0 65.18163425898115
925.0 65.3668563493859
950.0 65.55420462919558
975.0 65.67059410789714
1000.0 65.70737390247166
1030.0 65.57508579484006
1060.0 65.26454469963367
1090.0 64.77107282894747
1120.0 64.16038823712219
1150.0 63.51422030226051
1180.0 62.95290944185112
1220.0 62.55297382565122
1250.0 62.34642782798423
1280.0 62.34605041771529
1320.0 62.47147859435164
1360.0 62.64306264641033
1400.0 62.76822697782461
1450.0 62.737761471376075
1500.0 62.654179810761704
1550.0 62.58316442503107
1600.0 62.57762927799425
1650.0 62.73345457104263
1700.0 62.890724094089606
1750.0 62.842977617757384
1800.0 62.47267395106239
1850.0 61.9950693940044
1900.0 61.590186591178266
1950.0 61.37938017719371
2000.0 61.28169899504496
2060.0 61.209037764792654
2120.0 61.10545057019428
2180.0 60.85307054251409
2240.0 60.58710553555994
2300.0 60.49189812400921
2360.0 60.61575936920026
2400.0 60.60249471686488
2500.0 60.342910781294094
2580.0 60.23610839659584
2650.0 60.4438936238987
2720.0 60.41618235411461
2800.0 60.25650437750262
2900.0 60.17841001424138
3000.0 60.26193626477749
3070.0 60.61135849547465
3150.0 61.02105966687692
3250.0 61.23073426385672
3350.0 61.24713561184875
3450.0 61.18732950743427
3550.0 61.2348368837722
3650.0 61.42280629307264
3750.0 61.625976062157505
3870.0 62.1174350955239
4000.0 62.42054489722739
4120.0 61.94405639034362
4250.0 61.83963015596321
4370.0 62.62875456165527
4500.0 63.344303844633586
4620.0 63.55347823851308
4750.0 63.622261016583494
4870.0 63.85627574152528
5000.0 64.34173680983973
5150.0 64.05466944474702
5300.0 62.92794535077492
5450.0 62.450776323138484
5600.0 62.350997190503094
5800.0 62.15122946711102
6000.0 62.18084479556123
6150.0 62.84426703301261
6300.0 64.6175791964746
6500.0 65.33236155695512
6700.0 65.23957906230939
6900.0 65.46940973980269
7100.0 65.2554896617952
7300.0 64.09714061040575
7500.0 63.43925288465158
7750.0 63.488128741148685
8000.0 63.408132326314046
8250.0 62.969834095746435
8500.0 62.613866759711485
8750.0 62.537843285907954
9000.0 62.812599672283
9250.0 63.524253190025206
9500.0 63.738213065978115
9750.0 64.13784932483662
10000.0 63.805935651122
10300.0 63.06964207056167
10600.0 62.96158879565189
10900.0 63.238894467466494
11200.0 63.73834160278089
11500.0 63.9652408971218
11800.0 64.63718056287908
12200.0 63.735203761625044
12500.0 62.865728630097024
12800.0 62.3020264325158
13200.0 62.322437135909425
13600.0 61.98977286357267
14000.0 60.61125351367164
14500.0 58.712391457038805
15000.0 59.01651274821239
15500.0 59.936138143899456
16000.0 59.720467114751415
16500.0 58.71934305073637
17000.0 58.04516245480575
17500.0 58.436397388277996
18000.0 58.94989997534502
18500.0 58.47380785481694
19000.0 58.57428495699382
19500.0 58.68006768959418
