Freq "Side Wall Bounce"
20.0 60.60908320194237
20.2909 61.08322028079256
20.586 61.59108489544178
20.8855 62.10427571900992
21.1893 62.64361564892168
21.4975 63.194410166979424
21.8102 63.75034726560776
22.1274 64.30728889325626
22.4492 64.8631771250138
22.7758 65.41607474544438
23.1071 65.96690545048949
23.4432 66.51582846032393
23.7841 67.12802566343197
24.1301 67.73792893180658
24.4811 68.34604803812033
24.8372 68.95123486680704
25.1984 69.55433663435683
25.5649 70.15451791790791
25.9368 70.75169781128152
26.3141 71.34515727282088
26.6968 71.95911420147904
27.0851 72.57236069853884
27.4791 73.18058291822997
27.8788 73.78331227668231
28.2843 74.37939004582252
28.6957 74.9679923945873
29.1131 75.54877163163063
29.5365 76.12345231189379
29.9661 76.69046797137459
30.402 77.24643894290345
30.8442 77.78963742972368
31.2929 78.31969813737712
31.748 78.83536838820686
32.2098 79.33584239904118
32.6783 79.81358925041921
33.1536 80.27417998368882
33.6359 80.71716010918419
34.1251 81.140185008409
34.6215 81.54240733391771
35.125 81.92563059522517
35.6359 82.27735780084352
36.1543 82.6094834999662
36.6802 82.92240503023709
37.2137 83.214744527381
37.755 83.49011522922109
38.3041 83.74189496198098
38.8613 83.9703454742913
39.4265 84.18279474048687
40.0 84.38166798431457
40.5818 84.56773975933866
41.1721 84.73864767139587
41.771 84.89123114190433
42.3785 85.0336198856896
42.9949 85.16862871111795
43.6203 85.29663464094007
44.2548 85.41388955641528
44.8985 85.52103474071332
45.5515 85.62376949259271
46.2141 85.72331766952178
46.8863 85.8198799631452
47.5683 85.90637868458838
48.2602 85.99149151196157
48.9621 86.0756029979675
49.6743 86.15871379511239
50.3968 86.23854821707506
51.1299 86.31678685633169
51.8736 86.39464533605353
52.6281 86.46590752059991
53.3936 86.54864172275275
54.1702 86.62579926657865
54.9581 86.70436927535461
55.7575 86.78332655247138
56.5685 86.86210371123302
57.3914 86.94125989642001
58.2261 87.02042516735435
59.073 87.10116623484834
59.9323 87.18303442035206
60.804 87.26629453224642
61.6884 87.35176067598604
62.5857 87.43787459850752
63.496 87.52417248589283
64.4196 87.61067317415545
65.3566 87.69816540132999
66.3073 87.786080506049
67.2717 87.87514353022661
68.2502 87.96427758155399
69.2429 88.05498297985257
70.2501 88.14649170498957
71.2719 88.23587709372345
72.3086 88.32628807600427
73.3603 88.41687050722672
74.4274 88.50503212951891
75.5099 88.59340905910034
76.6083 88.68020307993972
77.7226 88.76500771466559
78.8531 88.85083475205765
80.0 88.93328993104701
81.1636 89.01522718144729
82.3442 89.09634165498922
83.5419 89.17472124994866
84.757 89.25393266488108
85.9899 89.33017265392702
87.2406 89.405631287465
88.5096 89.47994486631355
89.797 89.55305529844443
91.1031 89.6257750611579
92.4282 89.6967284804558
93.7726 89.76826636632269
95.1366 89.83664365603363
96.5204 89.90501575820868
97.9243 89.9710065056919
99.3486 90.0364050745185
100.794 90.09724722250947
102.26 90.1565226828627
103.747 90.21742385180652
105.256 90.27834133179806
106.787 90.3381110438779
108.34 90.39650173053273
109.916 90.451360350534
111.515 90.50626235158776
113.137 90.55778453506831
114.783 90.60774127395737
116.452 90.65491409559299
118.146 90.69950283864453
119.865 90.741304028158
121.608 90.77930140121558
123.377 90.81452151525384
125.171 90.84531705855134
126.992 90.87170629630197
128.839 90.89407864614049
130.713 90.90980806756143
132.615 90.92275310644828
134.543 90.92886718403197
136.5 90.92757628607582
138.486 90.9305105458043
140.5 90.92320729670867
142.544 90.9025115267097
144.617 90.88580533338471
146.721 90.86635141802113
148.855 90.8344779718184
151.02 90.80005468853714
153.217 90.76326141944476
155.445 90.72491267324467
157.706 90.6830099569439
160.0 90.63822045403788
162.327 90.59136103138287
164.688 90.55054187240778
167.084 90.50130177706212
169.514 90.44380986091267
171.98 90.38264410772041
174.481 90.32575652099919
177.019 90.26516127113457
179.594 90.19236877042088
182.206 90.10745272690788
184.856 90.01495305255027
187.545 89.91815970336975
190.273 89.80203294420645
193.041 89.67282818858742
195.849 89.53218292619601
198.697 89.37958024127256
201.587 89.22696963149289
204.52 89.08186709531425
207.494 88.9485161282454
210.512 88.82533126286813
213.574 88.71751061603361
216.681 88.62298640524183
219.833 88.53006024404212
223.03 88.43221686424292
226.274 88.33143325340761
229.565 88.22670394675536
232.905 88.11875875751535
236.292 88.0111087187661
239.729 87.90349880237208
243.216 87.80254998522476
246.754 87.70755019523816
250.343 87.61790962233582
253.984 87.53703177195268
257.678 87.4682182560713
261.426 87.41960906073272
265.229 87.39517417762288
269.087 87.38898365995962
273.001 87.38671797390535
276.972 87.36707173770957
281.0 87.32301572846924
285.088 87.25354480577018
289.234 87.17450098243467
293.441 87.09555605956791
297.709 87.0058228027334
302.04 86.89403471567891
306.433 86.77539085566808
310.89 86.68556990443149
315.412 86.57949908465274
320.0 86.4620914191233
324.655 86.3253321115136
329.377 86.15566913129787
334.168 85.93951633912125
339.028 85.66153883649895
343.959 85.35006923095703
348.962 85.05953021596132
354.038 84.8678788965366
359.188 84.82451521569405
364.412 84.91117940821589
369.713 85.06515072736137
375.09 85.20275036176768
380.546 85.24740499441398
386.081 85.17946709425465
391.697 85.03035318365517
397.394 84.85630348368471
403.175 84.70274057655156
409.039 84.58266223508103
414.989 84.49502865922808
421.025 84.44267530104374
427.149 84.42646015915147
433.362 84.4398155838603
439.665 84.47197970499205
446.06 84.52442048384117
452.548 84.60022500679474
459.131 84.6930447693733
465.809 84.7926563108284
472.584 84.89952464074466
479.458 85.01936703848189
486.432 85.14547925273936
493.507 85.26073228904924
500.686 85.3518514394377
507.968 85.41930372204821
515.357 85.43610650237484
522.853 85.47517021192112
530.458 85.56030077711324
538.174 85.71940739979907
546.002 85.93484510121282
553.943 86.1476918578344
562.001 86.29277509131987
570.175 86.36086280889761
578.469 86.4217401090592
586.883 86.58413348983716
595.419 86.88952313316194
604.08 87.30503606328877
612.866 87.75045306681436
621.78 88.1252602492298
630.824 88.33694140880628
640.0 88.4018426031633
649.309 88.40478225840484
658.753 88.4349026069025
668.335 88.53996326187466
678.056 88.7134156691831
687.919 88.93212059850647
697.925 89.17147518428804
708.077 89.39800507240723
718.376 89.52105744496875
728.825 89.57726690261019
739.426 89.57912973362514
750.181 89.5681619974775
761.093 89.53340052841077
772.163 89.4019446501398
783.394 89.12769099754917
794.789 88.7424645123467
806.349 88.31104257245103
818.078 87.83792468542454
829.977 87.26377449413835
842.05 86.58655923754948
854.298 85.92578077320871
866.724 85.42161275137948
879.33 85.12138753300398
892.12 84.98680732223787
905.097 84.99430215756772
918.262 85.21590820102196
931.618 85.6312381635924
945.169 86.1827321026807
958.917 86.69766055672072
972.864 87.12374883687205
987.015 87.55554083071883
1001.37 88.05013360962194
1015.94 88.5185409650268
1030.71 88.84746672282779
1045.71 89.0148510444262
1060.92 89.03307206913969
1076.35 88.879481238567
1092.0 88.64017809611916
1107.89 88.47078097623114
1124.0 88.3106460767164
1140.35 88.05172519657111
1156.94 87.81598804290105
1173.77 87.79796176905866
1190.84 88.01672105967296
1208.16 88.26468672226228
1225.73 88.45280626647767
1243.56 88.6203842632895
1261.65 88.69848502740982
1280.0 88.72844107071997
1298.62 88.95258645733914
1317.51 89.23999860727086
1336.67 89.14939647081347
1356.11 88.62892108229592
1375.84 88.1589298229066
1395.85 87.86856429279948
1416.15 87.40419950789085
1436.75 86.83237326213317
1457.65 86.51450567720984
1478.85 86.24813718730817
1500.36 85.79699814992009
1522.19 85.345119867545
1544.33 84.99134404635623
1566.79 84.55184255714697
1589.58 84.36629964340797
1612.7 84.23347106843022
1636.16 83.43298655680074
1659.95 82.3378595849412
1684.1 81.53803490854428
1708.6 80.91633691435275
1733.45 80.4342651918702
1758.66 80.17127311489557
1784.24 80.62295831055214
1810.19 81.7277268592759
1836.52 82.75129581266296
1863.24 83.23479194698804
1890.34 83.09467078031592
1917.83 82.86917483127154
1945.73 82.97134867974016
1974.03 83.20386575407572
2002.74 83.59353202677467
2031.87 84.31464764365542
2061.43 85.16366417138813
2091.41 85.63754561123828
2121.83 85.7037019168272
2152.69 85.56970786175063
2184.01 85.30078212555027
2215.77 85.15788332969368
2248.0 85.05409614207653
2280.7 84.96370932006288
2313.87 85.0464709820412
2347.53 85.0832320371382
2381.68 85.13984423259016
2416.32 85.37047592276429
2451.46 85.63173676895194
2487.12 86.03367597704288
2523.3 86.82792710725867
2560.0 87.76503962804011
2597.24 88.55848814914336
2635.01 89.12712013156668
2673.34 89.30729601088804
2712.23 89.08462506635826
2751.68 88.62754570272965
2791.7 88.17077168821906
2832.31 87.82539145028294
2873.5 87.63156662344726
2915.3 87.41702083477412
2957.7 87.41715216488092
3000.72 87.66465924873151
3044.37 87.8819940840397
3088.65 87.83732179304775
3133.58 87.46004237242762
3179.16 86.94548200373487
3225.4 86.39889148364037
3272.31 86.07278366540588
3319.91 85.91454038725855
3368.2 85.59260568203321
3417.19 85.35467232254027
3466.89 85.10245976952505
3517.32 84.7953709328443
3568.48 84.54387693538192
3620.39 84.39041190022031
3673.05 84.39420096373463
3726.47 84.38511873928594
3780.67 84.44163394159159
3835.67 84.42383083543056
3891.46 84.26799083037808
3948.06 83.92489702973205
4005.49 83.36683784118794
4063.75 83.17880603863105
4122.86 83.22263049113455
4182.82 83.22662273980552
4243.66 83.10452869829867
4305.39 82.39825721544597
4368.01 81.27504647172962
4431.55 80.37915495203163
4496.01 80.2986479945654
4561.4 80.3235162671634
4627.75 80.08023307394734
4695.06 80.24345613681112
4763.35 80.88859056860703
4832.64 81.3846577231694
4902.93 81.49548118517873
4974.24 81.81770664096402
5046.6 82.35352982580964
5120.0 82.96184483457046
5194.47 83.68847900957147
5270.03 84.67279584971054
5346.68 86.02948023612004
5424.45 87.10469087398596
5503.35 87.5246284630794
5583.4 87.71035703298284
5664.61 87.88429600383478
5747.01 87.82280788664896
5830.6 87.63575236297929
5915.41 87.33007549462411
6001.45 86.96015413126482
6088.74 86.80657619375326
6177.3 86.76957250238301
6267.15 86.44638965188048
6358.31 85.88650940258695
6450.8 85.66111635879548
6544.62 86.05908121799969
6639.82 86.7482020459166
6736.4 87.28913236762534
6834.38 87.7985384203098
6933.79 88.33502643040366
7034.64 88.75771614751135
7136.96 88.91756875367058
7240.77 88.78966612344955
7346.09 88.73491172526191
7452.94 88.34624942481459
7561.35 87.09450409880196
7671.33 85.29273996394326
7782.91 83.63819388841645
7896.12 82.9251999359653
8010.97 82.96822159395903
8127.49 82.63190770378829
8245.71 81.94163891769732
8365.65 81.1483840994474
8487.33 80.88014776577036
8610.78 81.54163490926467
8736.03 82.80696701208022
8863.09 83.51895304626287
8992.01 84.322743558788
9122.8 86.38318124644474
9255.5 87.69931579892199
9390.12 86.97795665733535
9526.7 85.1788645463765
9665.27 84.08632042690893
9805.86 83.91458108941974
9948.49 83.58128179971115
10093.2 82.60642510200536
10240.0 82.56739317723388
10388.9 83.6972667771629
10540.1 84.60915262171345
10693.4 85.28139017803643
10848.9 85.49671877608317
11006.7 84.40133599607594
11166.8 81.86452043602402
11329.2 79.4181551094413
11494.0 78.05690233491443
11661.2 76.64994405975601
11830.8 75.87532324646479
12002.9 75.8358048173606
12177.5 76.19186196689802
12354.6 77.2398771152631
12534.3 78.11730867197628
12716.6 78.35478483681077
12901.6 77.93475858797574
13089.2 77.70784139843728
13279.6 79.54326815910385
13472.8 80.91002063807818
13668.8 81.7110311609625
13867.6 82.29732132576142
14069.3 82.44039656523316
14273.9 81.82603368143383
14481.5 79.57182463127673
14692.2 77.39418787316428
14905.9 76.92036179616605
15122.7 76.25266586213823
15342.7 73.64999895834508
15565.8 71.87330887147402
15792.2 72.1135129701661
16021.9 73.2402193423601
16255.0 73.5771016469779
16491.4 73.79188816429532
16731.3 73.85050080839561
16974.7 73.21860577914696
17221.6 72.9154261943617
17472.1 72.73451148681735
17726.2 70.9639095932433
17984.0 69.25862318975807
18245.6 68.72854258316569
18511.0 68.32119837600739
18780.2 67.55214286887418
19053.4 65.77347992273955
19330.5 64.42354166864396
19611.7 64.6521257551742
19897.0 65.85536709800377
