Freq "Ceiling Bounce"
22.4 32.660882782403604
23.0 34.12611859779079
23.6 39.0876778314624
24.0 42.65312832698663
25.0 45.30852154755419
25.8 47.13691450946044
26.5 48.26577793382333
27.2 48.86218449164099
28.0 48.792228767925025
29.0 49.153780173034335
30.0 49.98529598605248
30.7 51.5498289793168
31.5 53.747457374957975
32.5 56.250442877393
33.5 58.750442877393
34.5 60.952041121580834
35.5 62.88822115024479
36.5 64.68822115024477
37.5 66.25523669316294
38.7 67.72275920229676
40.0 69.22275920229677
41.2 70.55378017303431
42.5 71.91731087132447
43.7 73.6537801730343
45.0 74.81731087132448
46.2 75.71731087132449
47.5 76.98137337441523
48.7 78.18137337441524
50.0 79.28137337441524
51.5 80.38137337441523
53.0 81.48137337441523
54.5 82.48137337441523
56.0 83.41416066597604
58.0 84.25204112158083
60.0 85.28822115024481
61.5 86.15814904041166
63.0 86.82855889911079
65.0 87.53691450946043
67.0 88.23691450946043
69.0 88.87492381839786
71.0 89.43691450946045
73.0 89.99944621774841
75.0 90.56577793382333
77.5 91.02855889911078
80.0 91.42855889911078
82.5 91.6217165614733
85.0 91.75814904041167
87.5 91.75814904041167
90.0 91.65814904041167
92.5 91.3882211502448
95.0 90.98822115024481
97.5 90.65814904041164
100.0 90.45814904041166
103.0 90.35814904041166
106.0 90.39511642211615
109.0 90.52493451588413
112.0 90.65814904041164
115.0 90.69511642211616
118.0 90.69511642211616
122.0 90.79511642211615
125.0 90.79511642211615
128.0 90.69511642211616
132.0 90.66577793382334
136.0 90.53262192638911
140.0 90.39511642211615
145.0 90.30353655992454
150.0 90.26577793382333
155.0 90.16577793382334
160.0 90.10353655992454
165.0 90.27492381839787
170.0 90.50353655992453
175.0 90.67492381839786
180.0 90.60353655992455
185.0 90.10353655992454
190.0 89.37492381839787
195.0 88.87492381839786
200.0 88.91347714008889
206.0 89.3855819339048
212.0 90.01347714008888
218.0 90.48558193390483
224.0 90.48558193390483
230.0 90.29774675397758
236.0 89.9710139474469
240.0 89.67101394744691
250.0 89.31141199843545
258.0 89.05236566441013
265.0 88.82657064719226
272.0 88.56832835518661
280.0 88.46832835518661
290.0 88.34321495568473
300.0 88.14321495568473
307.0 87.91853210371876
315.0 87.71853210371876
325.0 87.61853210371876
335.0 87.49427480893831
345.0 87.38092605385668
355.0 87.20197389065554
365.0 86.8569342725954
375.0 86.2806888625941
387.0 85.88068886259408
400.0 86.0806888625941
412.0 86.25938397738415
425.0 86.52693760210082
437.0 86.94840185916506
450.0 86.98068886259408
462.0 86.8269376021008
475.0 86.60052930396759
487.0 86.28027848958718
500.0 85.98918511111995
515.0 86.02147269877386
530.0 86.3525028274093
545.0 86.8204459612857
560.0 87.30903874385939
580.0 87.72869930923221
600.0 87.76912424215752
615.0 87.74872611197549
630.0 87.52726696289687
650.0 87.03977142033528
670.0 86.70351570854552
690.0 87.13500529090174
710.0 87.85546414992712
730.0 88.37847910531619
750.0 88.82894736587014
775.0 88.51508905667808
800.0 88.07732828985922
825.0 87.84712544996019
850.0 87.78843548581717
875.0 88.09834094141321
900.0 88.66354860393079
925.0 88.9269376021008
950.0 88.75290712323778
975.0 88.32869930923222
1000.0 88.00804856657236
1030.0 87.92726696289688
1060.0 88.41766889039837
1090.0 88.41766889039837
1120.0 87.91766889039837
1150.0 87.61766889039836
1180.0 87.54215926098078
1220.0 88.02446952167668
1250.0 88.17025681253527
1280.0 87.58989879621467
1320.0 86.90779146088049
1360.0 86.78532765773917
1400.0 86.70197389065552
1450.0 86.97925320537792
1500.0 87.09233707021869
1550.0 86.91152282754702
1600.0 86.73455897880892
1650.0 86.24805962508198
1700.0 85.40132639786172
1750.0 83.9310264106325
1800.0 83.45922165440292
1850.0 81.67036381681066
1900.0 81.00559997338023
1950.0 82.316541711213
2000.0 82.47626998913458
2060.0 81.47036381681067
2120.0 80.48156674430274
2180.0 82.13575321040281
2240.0 82.24268147470008
2300.0 80.04987648744995
2360.0 80.24092907600561
2400.0 80.86114492038806
2500.0 80.26065583706429
2580.0 79.00843942044973
2650.0 80.96087991573172
2720.0 81.698812975854
2800.0 80.20733840802954
2900.0 82.01877967180836
3000.0 81.3255891482862
3070.0 80.9608827824036
3150.0 80.43618592175926
3250.0 77.83130843854912
3350.0 74.24440020514294
3450.0 75.79697551672368
3550.0 78.59187475588843
3650.0 79.10197711221846
3750.0 78.97008010459176
3870.0 79.04827323099082
4000.0 79.91313673950961
4120.0 79.79563672975131
4250.0 77.70122386788005
4370.0 76.74674312397323
4500.0 76.14956998564628
4620.0 78.98439376359542
4750.0 77.76860692199858
4870.0 79.53877159048533
5000.0 79.70726678264614
5150.0 78.12580087395558
5300.0 77.44278542806454
5450.0 76.31958485554357
5600.0 76.28141833651495
5800.0 76.27629508720551
6000.0 78.19695119636276
6150.0 78.29957556711533
6300.0 78.07853138447211
6500.0 78.18259091635441
6700.0 78.86653851513358
6900.0 79.12123930577107
7100.0 80.57943937182282
7300.0 80.57341117189108
7500.0 77.95064970439617
7750.0 75.25249947909057
8000.0 75.86266069927203
8250.0 76.01868234133374
8500.0 78.67288641090751
8750.0 71.99025574571144
9000.0 74.87287405140322
9250.0 78.03970849641759
9500.0 81.44810601602543
9750.0 85.62347455453354
10000.0 81.59490570476686
10300.0 76.84235916834928
10600.0 77.0501832020797
10900.0 78.52832578215292
11200.0 83.93266472920372
11500.0 88.3759898763432
11800.0 85.52337105375429
12200.0 85.89427993884064
12500.0 82.70640799606784
12800.0 77.86200267103348
13200.0 81.26168388662319
13600.0 83.2822861840686
14000.0 78.60313376348721
14500.0 75.5557268249943
15000.0 78.0126414043297
15500.0 76.40256876358328
16000.0 74.65961800757732
16500.0 73.47152882386004
17000.0 73.32422054729693
17500.0 69.03599559715201
18000.0 68.23968664664665
18500.0 69.21457659281438
19000.0 64.6832852591989
19500.0 62.46158375899273
