Freq "Ceiling Bounce"
22.4 31.384933415315004
23.0 32.85016923070222
23.6 37.81172846437377
24.0 41.37717895989803
25.0 44.032572180465564
25.8 45.86096514237181
26.5 46.98982856673473
27.2 47.58623512455236
28.0 47.516279400836424
29.0 47.877830805945706
30.0 48.70934661896388
30.7 50.27387961222817
31.5 52.471508007869375
32.5 54.97449351030437
33.5 57.47449351030437
34.5 59.676091754492205
35.5 61.61227178315619
36.5 63.41227178315617
37.5 64.97928732607431
38.7 66.44680983520814
40.0 67.94680983520814
41.2 69.27783080594571
42.5 70.64136150423587
43.7 72.37783080594569
45.0 73.54136150423587
46.2 74.44136150423587
47.5 75.70542400732661
48.7 76.90542400732662
50.0 78.00542400732661
51.5 79.10542400732663
53.0 80.20542400732663
54.5 81.20542400732661
56.0 82.13821129888743
58.0 82.97609175449222
60.0 84.0122717831562
61.5 84.88219967332304
63.0 85.55260953202216
65.0 86.26096514237182
67.0 86.96096514237182
69.0 87.59897445130926
71.0 88.16096514237182
73.0 88.72349685065979
75.0 89.28982856673473
77.5 89.75260953202218
80.0 90.15260953202217
82.5 90.34576719438469
85.0 90.48219967332304
87.5 90.48219967332304
90.0 90.38219967332304
92.5 90.11227178315619
95.0 89.71227178315618
97.5 89.38219967332304
100.0 89.18219967332304
103.0 89.08219967332303
106.0 89.11916705502753
109.0 89.24898514879551
112.0 89.38219967332304
115.0 89.41916705502754
118.0 89.41916705502754
122.0 89.51916705502754
125.0 89.51916705502754
128.0 89.41916705502754
132.0 89.38982856673474
136.0 89.25667255930051
140.0 89.11916705502753
145.0 89.02758719283591
150.0 88.98982856673472
155.0 88.88982856673472
160.0 88.82758719283594
165.0 88.99897445130925
170.0 89.22758719283593
175.0 89.39897445130926
180.0 89.32758719283592
185.0 88.82758719283594
190.0 88.09897445130926
195.0 87.59897445130926
200.0 87.63752777300027
206.0 88.10963256681619
212.0 88.73752777300028
218.0 89.2096325668162
224.0 89.2096325668162
230.0 89.02179738688895
236.0 88.69506458035829
240.0 88.3950645803583
250.0 88.03546263134683
258.0 87.77641629732153
265.0 87.55062128010364
272.0 87.292378988098
280.0 87.192378988098
290.0 87.06726558859611
300.0 86.86726558859611
307.0 86.64258273663015
315.0 86.44258273663014
325.0 86.34258273663015
335.0 86.21832544184971
345.0 86.10497668676807
355.0 85.92602452356692
365.0 85.5809849055068
375.0 85.00473949550548
387.0 84.60473949550547
400.0 84.80473949550549
412.0 84.98343461029552
425.0 85.25098823501219
437.0 85.67245249207645
450.0 85.70473949550546
462.0 85.55098823501218
475.0 85.32457993687898
487.0 85.00432912249856
500.0 84.71323574403132
515.0 84.74552333168526
530.0 85.0765534603207
545.0 85.54449659419708
560.0 86.03308937677077
580.0 86.4527499421436
600.0 86.49317487506892
615.0 86.47277674488686
630.0 86.25131759580826
650.0 85.76382205324666
670.0 85.42756634145692
690.0 85.85905592381312
710.0 86.5795147828385
730.0 87.10252973822756
750.0 87.55299799878154
775.0 87.23913968958946
800.0 86.80137892277061
825.0 86.57117608287159
850.0 86.51248611872856
875.0 86.82239157432461
900.0 87.38759923684219
925.0 87.65098823501219
950.0 87.47695775614916
975.0 87.0527499421436
1000.0 86.73209919948374
1030.0 86.65131759580825
1060.0 87.14171952330975
1090.0 87.14171952330975
1120.0 86.64171952330976
1150.0 86.34171952330976
1180.0 86.26620989389217
1220.0 86.74852015458805
1250.0 86.89430744544666
1280.0 86.31394942912605
1320.0 85.63184209379187
1360.0 85.50937829065056
1400.0 85.42602452356691
1450.0 85.70330383828929
1500.0 85.81638770313008
1550.0 85.63557346045842
1600.0 85.4586096117203
1650.0 84.97211025799336
1700.0 84.12537703077312
1750.0 82.65507704354388
1800.0 82.18327228731432
1850.0 80.39441444972205
1900.0 79.72965060629161
1950.0 81.0405923441244
2000.0 81.20032062204595
2060.0 80.19441444972205
2120.0 79.20561737721414
2180.0 80.8598038433142
2240.0 80.96673210761146
2300.0 78.77392712036134
2360.0 78.964979708917
2400.0 79.58519555329944
2500.0 78.98470646997568
2580.0 77.73249005336113
2650.0 79.68493054864311
2720.0 80.42286360876538
2800.0 78.93138904094094
2900.0 80.74283030471975
3000.0 80.04963978119758
3070.0 79.684933415315
3150.0 79.16023655467065
3250.0 76.55535907146051
3350.0 72.96845083805434
3450.0 74.52102614963506
3550.0 77.31592538879983
3650.0 77.82602774512984
3750.0 77.69413073750316
3870.0 77.77232386390219
4000.0 78.63718737242098
4120.0 78.5196873626627
4250.0 76.42527450079143
4370.0 75.47079375688462
4500.0 74.87362061855765
4620.0 77.70844439650682
4750.0 76.49265755490995
4870.0 78.26282222339671
5000.0 78.43131741555754
5150.0 76.84985150686698
5300.0 76.16683606097592
5450.0 75.04363548845495
5600.0 75.00546896942632
5800.0 75.00034572011691
6000.0 76.92100182927416
6150.0 77.02362620002671
6300.0 76.80258201738349
6500.0 76.9066415492658
6700.0 77.59058914804497
6900.0 77.84528993868244
7100.0 79.3034900047342
7300.0 79.29746180480245
7500.0 76.67470033730757
7750.0 73.97655011200197
8000.0 74.5867113321834
8250.0 74.74273297424511
8500.0 77.3969370438189
8750.0 70.71430637862281
9000.0 73.5969246843146
9250.0 76.76375912932897
9500.0 80.17215664893682
9750.0 84.34752518744494
10000.0 80.31895633767824
10300.0 75.56640980126065
10600.0 75.77423383499108
10900.0 77.2523764150643
11200.0 82.65671536211511
11500.0 87.10004050925457
11800.0 84.24742168666567
12200.0 84.61833057175201
12500.0 81.43045862897921
12800.0 76.58605330394488
13200.0 79.98573451953456
13600.0 82.00633681697997
14000.0 77.3271843963986
14500.0 74.2797774579057
15000.0 76.7366920372411
15500.0 75.12661939649465
16000.0 73.38366864048872
16500.0 72.19557945677141
17000.0 72.04827118020832
17500.0 67.76004623006338
18000.0 66.96373727955803
18500.0 67.93862722572577
19000.0 63.40733589211027
19500.0 61.1856343919041
