Freq "Floor Bounce"
22.4 33.262184491640994
23.0 34.82493451588411
23.6 39.82493451588411
24.0 43.458149040411655
25.0 46.1882211502448
25.8 48.02171656147331
26.5 49.2217165614733
27.2 49.8858156538119
28.0 49.82010711643713
29.0 50.220107116437134
30.0 51.08501366724843
30.7 52.615594686848624
31.5 54.81559468684861
32.5 57.316391046543515
33.5 59.71639104654352
34.5 61.91639104654351
35.5 63.847457374958
36.5 65.5828543774432
37.5 67.11416066597604
38.7 68.61416066597604
40.0 70.01416066597605
41.2 71.31416066597603
42.5 72.71416066597604
43.7 74.47901893813113
45.0 75.64745737495798
46.2 76.547457374958
47.5 77.84745737495798
48.7 79.047457374958
50.0 80.147457374958
51.5 81.34745737495798
53.0 82.44745737495799
54.5 83.44745737495799
56.0 84.447457374958
58.0 85.24745737495799
60.0 86.31416066597603
61.5 87.14745737495798
63.0 87.81416066597603
65.0 88.44745737495799
67.0 89.147457374958
69.0 89.71416066597605
71.0 90.27901893813114
73.0 90.847457374958
75.0 91.34745737495798
77.5 91.87901893813114
80.0 92.247457374958
82.5 92.44745737495799
85.0 92.647457374958
87.5 92.67901893813112
90.0 92.61639104654351
92.5 92.347457374958
95.0 91.947457374958
97.5 91.5828543774432
100.0 91.38285437744321
103.0 91.28285437744321
106.0 91.28285437744321
109.0 91.41639104654352
112.0 91.51639104654352
115.0 91.5828543774432
118.0 91.61639104654353
122.0 91.68285437744322
125.0 91.68285437744322
128.0 91.61639104654353
132.0 91.55204112158083
136.0 91.45204112158082
140.0 91.25204112158082
145.0 91.15204112158082
150.0 91.08822115024479
155.0 90.98822115024481
160.0 90.9217165614733
165.0 91.05814904041166
170.0 91.2285588991108
175.0 91.29511642211614
180.0 91.1285588991108
185.0 90.56577793382333
190.0 89.76577793382334
195.0 89.30353655992454
200.0 89.27492381839785
206.0 89.74677906993159
212.0 90.3467790699316
218.0 90.71347714008888
224.0 90.78558193390481
230.0 90.58558193390482
236.0 90.35814749498917
240.0 90.09774675397757
250.0 89.87101394744691
258.0 89.59774675397756
265.0 89.47101394744692
272.0 89.21141199843545
280.0 89.04472970705652
290.0 88.81141199843543
300.0 88.5853718513488
307.0 88.32657064719226
315.0 88.04321495568472
325.0 87.87629049648687
335.0 87.9012139063771
345.0 87.87629049648687
355.0 87.81853210371877
365.0 87.84321495568472
375.0 87.82657064719226
387.0 87.78537185134881
400.0 88.01141199843543
412.0 88.21141199843544
425.0 88.31141199843545
437.0 88.42657064719225
450.0 88.16133647174759
462.0 87.78092605385669
475.0 87.32446952167666
487.0 86.79499386494203
500.0 86.32115452808243
515.0 86.06912424215753
530.0 86.10213647100366
545.0 86.02422489548117
560.0 86.14628876341932
580.0 86.0702580652042
600.0 85.74471876600032
615.0 85.16787724661916
630.0 84.50778818054177
650.0 83.80356292452417
670.0 83.466409968009
690.0 83.36159377225974
710.0 82.92047009390646
730.0 82.0847427858157
750.0 82.04777102609944
775.0 82.66810444574597
800.0 83.64920281978824
825.0 85.14481042418231
850.0 86.5164528254629
875.0 87.55816941273272
900.0 88.24107847917443
925.0 88.38711939306093
950.0 88.13040785234925
975.0 87.54415563120011
1000.0 86.87726764660974
1030.0 86.51877967180836
1060.0 86.91242349099277
1090.0 87.40464182076657
1120.0 87.56832835518662
1150.0 87.32273656358711
1180.0 87.05147313969105
1220.0 86.70103595459346
1250.0 85.9268483632635
1280.0 84.80328425956517
1320.0 84.38076483616852
1360.0 85.30996055112158
1400.0 85.4550124627521
1450.0 85.08960701631383
1500.0 84.28949048525602
1550.0 82.98270747068588
1600.0 82.9361956787267
1650.0 83.18662365683792
1700.0 83.27462938341773
1750.0 83.01344101569367
1800.0 82.73455897880892
1850.0 82.70160968138694
1900.0 83.3024512671755
1950.0 83.29343416512222
2000.0 83.1637656471141
2060.0 84.36726925802742
2120.0 84.7086393231917
2180.0 84.05802795262508
2240.0 82.90559432064425
2300.0 82.12400601464478
2360.0 83.07043805641152
2400.0 82.5871990743062
2500.0 81.60233400615135
2580.0 82.86675553298906
2650.0 84.23251951512717
2720.0 84.2562660087283
2800.0 83.80805744913846
2900.0 82.77545599962596
3000.0 84.01913438361814
3070.0 84.66841494715665
3150.0 83.89673151820938
3250.0 82.96306816110807
3350.0 84.0121909058318
3450.0 82.8201072540299
3550.0 79.92303705734093
3650.0 80.57359276111576
3750.0 78.28181762552009
3870.0 80.56310156180103
4000.0 83.69744022096012
4120.0 83.37420396346226
4250.0 83.11473021984021
4370.0 83.48562543703174
4500.0 82.66562403149373
4620.0 83.62131532231567
4750.0 83.63735712570501
4870.0 83.13282461877849
5000.0 83.23056077935958
5150.0 83.49150602196408
5300.0 85.02431671771285
5450.0 85.70738762176555
5600.0 86.01214365014071
5800.0 84.32442725685874
6000.0 84.34541809572524
6150.0 84.25094672828857
6300.0 84.2507430685808
6500.0 83.75354349458654
6700.0 84.14334917426106
6900.0 82.7254646235271
7100.0 81.26523732748096
7300.0 83.33821306858414
7500.0 84.6801149899084
7750.0 82.88465326346838
8000.0 81.24312791250823
8250.0 80.42701822517304
8500.0 83.07057374073023
8750.0 81.62597854094764
9000.0 79.63782925538479
9250.0 81.87722520455502
9500.0 84.56819577482646
9750.0 85.15768865377383
10000.0 80.01504144534813
10300.0 78.86976340885946
10600.0 84.15072173526983
10900.0 86.61403258060581
11200.0 88.6098813238607
11500.0 92.6437003035395
11800.0 94.07953286158575
12200.0 93.32204912611681
12500.0 89.54805962508198
12800.0 85.01309884882808
13200.0 87.25940098682399
13600.0 88.01913438361814
14000.0 85.75978070621288
14500.0 84.27168165093143
15000.0 84.41663908016523
15500.0 83.18914464197854
16000.0 80.86096591169866
16500.0 80.02533755575391
17000.0 76.21197533294779
17500.0 75.82840380493211
18000.0 74.3597309370581
18500.0 72.32794324784277
19000.0 71.26883008376362
19500.0 67.90206545875873
