Freq "Rear Wall Bounce"
22.4 29.843190003351623
23.0 31.341960743104806
23.6 36.30505375147763
24.0 39.869443698286204
25.0 42.58257232107417
25.8 44.40582866927147
26.5 45.56957071180608
27.2 46.17910136601404
28.0 46.155638204698846
29.0 46.52234684273006
30.0 47.464912689872904
30.7 49.060830798785304
31.5 51.35241401926868
32.5 53.93597324248336
33.5 56.49850348000183
34.5 58.83998962474672
35.5 60.84733337859532
36.5 62.75642623234123
37.5 64.3516519923501
38.7 65.8849142840294
40.0 67.33251383436162
41.2 68.69705199612437
42.5 70.04442959175103
43.7 71.73440794819085
45.0 72.8626501990084
46.2 73.65289798046108
47.5 74.866048213522
48.7 75.94295223650461
50.0 76.96881609152993
51.5 77.98132943884247
53.0 78.97713018122117
54.5 79.84092338982563
56.0 80.65505143233194
58.0 81.43477290629377
60.0 82.39133126129306
61.5 83.24595958121955
63.0 83.93011396706547
65.0 84.7158213896949
67.0 85.55857190824253
69.0 86.31111100876188
71.0 86.99809672186406
73.0 87.62721026084387
75.0 88.18619345197065
77.5 88.68619345197067
80.0 89.0028126778397
82.5 89.1364349886372
85.0 89.20278484737943
87.5 89.12818417415087
90.0 88.94171691282621
92.5 88.59502005867638
95.0 88.14171691282621
97.5 87.81879706692094
100.0 87.65210663456833
103.0 87.58592965075121
106.0 87.67622962535307
109.0 87.8052649470892
112.0 87.8859296507512
115.0 87.87622962535308
118.0 87.78961370729886
122.0 87.70576504484893
125.0 87.62643482503144
128.0 87.50576504484894
132.0 87.42501242801451
136.0 87.32766201650162
140.0 87.18346960968992
145.0 87.04809595602269
150.0 86.91664612021826
155.0 86.75340030939299
160.0 86.60137968103732
165.0 86.64886600707754
170.0 86.83267231355427
175.0 86.88908962452254
180.0 86.74795174063327
185.0 86.17478532343257
190.0 85.3805289425432
195.0 84.85883356583714
200.0 84.86712169767549
206.0 85.25982238899458
212.0 85.78719886051323
218.0 86.07950714126515
224.0 85.99794421964407
230.0 85.72053212444858
236.0 85.2854968317618
240.0 84.80150582962595
250.0 84.20718605026184
258.0 83.63525104048776
265.0 83.12567694270015
272.0 82.64261956059244
280.0 82.26100876891712
290.0 81.89104095546169
300.0 81.48893976058774
307.0 80.99301358736327
315.0 80.5931184968614
325.0 80.36577440845683
335.0 80.2414207786467
345.0 80.07801462828738
355.0 79.87182236646846
365.0 79.65539344775948
375.0 79.4750433792438
387.0 79.36414419409324
400.0 79.37721248200008
412.0 79.50870883708701
425.0 79.81764254665288
437.0 79.95192498659185
450.0 79.80938450226549
462.0 79.53455593265195
475.0 79.20145535872196
487.0 78.71877782409973
500.0 78.0696490731544
515.0 77.79882917671205
530.0 77.49841650974793
545.0 77.50908091524201
560.0 77.40305820748898
580.0 77.3030886275398
600.0 76.84598363856851
615.0 76.71258777654165
630.0 76.40730966863563
650.0 75.97572384314938
670.0 75.3455069784242
690.0 75.03580217224793
710.0 74.3565674441929
730.0 73.66693366893716
750.0 73.17084625566059
775.0 72.6257509623806
800.0 71.79714266970402
825.0 71.35569806252727
850.0 70.62868282224184
875.0 69.92123365129467
900.0 69.77859155824511
925.0 70.13566637776165
950.0 69.649613430363
975.0 68.69003390966449
1000.0 67.60922392403124
1030.0 67.52418325371298
1060.0 68.28699936616731
1090.0 68.57685168216044
1120.0 68.71696257224437
1150.0 69.26128391082577
1180.0 69.49479549192748
1220.0 69.48810213986675
1250.0 69.66055989293551
1280.0 68.65085098676452
1320.0 67.4766775292581
1360.0 67.79432868915138
1400.0 67.79846863601898
1450.0 68.44539673632846
1500.0 69.42598790370434
1550.0 69.61278384196743
1600.0 69.88085773451104
1650.0 70.18680275817295
1700.0 69.19234812932436
1750.0 66.14952858484392
1800.0 63.685273234100606
1850.0 64.57631839222535
1900.0 66.94028863034592
1950.0 65.64796828306001
2000.0 67.15098351434293
2060.0 66.20360960566958
2120.0 66.19872593503104
2180.0 65.59859295603042
2240.0 64.8000685727325
2300.0 66.07819452199212
2360.0 64.60669782626732
2400.0 64.33869141018013
2500.0 66.16971301368778
2580.0 67.08333414199949
2650.0 67.8149661906918
2720.0 67.46251437581657
2800.0 65.42153337532685
2900.0 64.21659457943963
3000.0 65.08869991414252
3070.0 65.58933183106296
3150.0 67.08991472112544
3250.0 65.82289950564768
3350.0 64.94727083621927
3450.0 64.43273684959127
3550.0 64.08987686856707
3650.0 63.97897821498512
3750.0 63.615567332889896
3870.0 64.5415802980217
4000.0 63.716600451462114
4120.0 63.187075655327504
4250.0 63.77591125972222
4370.0 63.612434715374036
4500.0 63.83493094298518
4620.0 63.08640835646182
4750.0 60.13686088394647
4870.0 60.98635092498719
5000.0 62.79309073732256
5150.0 61.77007199773752
5300.0 60.50044455883639
5450.0 61.07051793721601
5600.0 64.24699878166933
5800.0 63.61964440900064
6000.0 62.56513965646474
6150.0 60.90631733462348
6300.0 62.11718221087668
6500.0 62.29670096425292
6700.0 63.10632715025935
6900.0 63.476879775844594
7100.0 64.2928777770457
7300.0 64.95239030176913
7500.0 61.527448137292225
7750.0 61.755261288181345
8000.0 60.96555943918372
8250.0 62.728489044483695
8500.0 61.69770963662805
8750.0 56.8163533389957
9000.0 57.283930885657725
9250.0 61.866215305195624
9500.0 63.53822179886245
9750.0 63.862006202143476
10000.0 58.74413896975389
10300.0 60.453460542062345
10600.0 61.32734060514579
10900.0 59.28113033956714
11200.0 62.29142154653641
11500.0 68.9740173847673
11800.0 70.18521271378974
12200.0 67.5136279931584
12500.0 59.56814752912524
12800.0 58.96189358469971
13200.0 60.47129453666295
13600.0 57.787173197244186
14000.0 57.18003969780156
14500.0 59.473290937265546
15000.0 59.506898693984425
15500.0 59.29046286560717
16000.0 57.41149532251305
16500.0 56.23654122374873
17000.0 56.76608476357367
17500.0 54.066689202776075
18000.0 51.944838713813084
18500.0 49.55106696196421
19000.0 50.72473021429994
19500.0 50.54920450296689
