Freq "Early Reflections DI"
22.4 38.1999064133887
23.0 38.10937758487407
23.6 37.960049142176956
24.0 37.730783731982115
25.0 37.3910495863081
25.8 37.04920077583887
26.5 36.56452299743344
27.2 36.143773218256
28.0 35.693033533197166
29.0 35.571223101543225
30.0 35.79086276475563
30.7 36.66345805366197
31.5 37.89084399176835
32.5 39.21166660531328
33.5 40.06836224217284
34.5 40.54490073410733
35.5 40.70086146847902
36.5 40.75922567132814
37.5 40.806871480630704
38.7 40.88778786354959
40.0 41.06956041897169
41.2 41.185285572310065
42.5 41.307621672905526
43.7 41.419440212505435
45.0 41.5577355136419
46.2 41.73066294711137
47.5 41.88832567667181
48.7 42.15542740429679
50.0 42.388064632051325
51.5 42.660646946093806
53.0 42.91785685741044
54.5 43.16301651055828
56.0 43.3687919166548
58.0 43.57647744697685
60.0 43.801678517495176
61.5 43.97240610994346
63.0 44.11555371053386
65.0 44.26913974747137
67.0 44.354816541914204
69.0 44.35498545378286
71.0 44.27965078937204
73.0 44.150482645461636
75.0 43.93512633632858
77.5 43.61458522708409
80.0 43.27606610961972
82.5 42.88832926006069
85.0 42.4696318056759
87.5 42.166709007210386
90.0 41.787987651389585
92.5 41.443491769798854
95.0 41.13231384551297
97.5 40.95333513273401
100.0 40.63965191601565
103.0 40.3261007341211
106.0 40.015175192987655
109.0 39.70463803320396
112.0 39.4498605340947
115.0 39.26099526384226
118.0 39.16659057064152
122.0 39.20387687049869
125.0 39.293860668620624
128.0 39.416598635206
132.0 39.60363790269855
136.0 39.805912815478706
140.0 39.98143294294289
145.0 40.14823074341383
150.0 40.30452146281135
155.0 40.442493648560145
160.0 40.569697049298085
165.0 40.69292274535263
170.0 40.83007301112126
175.0 40.9484568294489
180.0 41.04352081227928
185.0 41.152420205636204
190.0 41.236867842725275
195.0 41.30593949880766
200.0 41.360440559455526
206.0 41.37501154789017
212.0 41.44483637138005
218.0 41.445991083037725
224.0 41.480815305827235
230.0 41.50859904157845
236.0 41.51863937326331
240.0 41.528327700095474
250.0 41.538285420314736
258.0 41.53796404487518
265.0 41.54083962802632
272.0 41.54527613409488
280.0 41.52828092034923
290.0 41.50547890031197
300.0 41.49859762359844
307.0 41.46982826896512
315.0 41.448471055737286
325.0 41.43132207134717
335.0 41.45834052063894
345.0 41.45801491018062
355.0 41.48326448552997
365.0 41.51521867588255
375.0 41.62321604386422
387.0 41.72053879772086
400.0 41.85082740621469
412.0 41.97945942158367
425.0 42.123175525366875
437.0 42.24664130962438
450.0 42.354084718409354
462.0 42.450452744534985
475.0 42.5367613011165
487.0 42.59682540818142
500.0 42.67967935279141
515.0 42.70381048425027
530.0 42.713329017154464
545.0 42.701131344997734
560.0 42.66246442824121
580.0 42.583422875910614
600.0 42.504523659495135
615.0 42.4417968915852
630.0 42.45851369432468
650.0 42.557233779463445
670.0 42.74484139527004
690.0 43.002067114513196
710.0 43.205692857636464
730.0 43.30424239462599
750.0 43.287360025909834
775.0 43.13808710087909
800.0 42.83713054306507
825.0 42.49980265719215
850.0 42.178196579867176
875.0 42.038014464642
900.0 42.25742631675132
925.0 42.684997646246075
950.0 43.21200878669805
975.0 43.61192239250323
1000.0 43.85584052901709
1030.0 43.98910449540327
1060.0 43.95043638640571
1090.0 43.8686678766156
1120.0 43.70970778686956
1150.0 43.59557088537083
1180.0 43.581997048876104
1220.0 43.593345115931925
1250.0 43.577735146001714
1280.0 43.434380874520414
1320.0 43.25634392877345
1360.0 43.24934714187833
1400.0 43.53247701411131
1450.0 43.995906028548035
1500.0 44.305734879695905
1550.0 44.333489095541296
1600.0 44.12272413753888
1650.0 43.915619428656285
1700.0 43.83208802091575
1750.0 43.889054379662355
1800.0 44.12196772017681
1850.0 44.36593981144043
1900.0 44.24596207499829
1950.0 43.82517649890447
2000.0 43.597097622352535
2060.0 43.779595866405046
2120.0 43.93113338398132
2180.0 43.80288430875481
2240.0 43.64000818602932
2300.0 43.620923843237605
2360.0 43.70996339836343
2400.0 43.82580590106589
2500.0 43.999001781655906
2580.0 44.15177701705885
2650.0 44.327992119122
2720.0 44.47322421237874
2800.0 44.504920503358875
2900.0 44.59114584797527
3000.0 44.70848166602161
3070.0 44.64930274883686
3150.0 44.55974777868079
3250.0 44.455539896173605
3350.0 44.32673228336304
3450.0 44.219963027934384
3550.0 44.288514723784644
3650.0 44.35086796473027
3750.0 44.54279924916058
3870.0 44.62471462227789
4000.0 44.64003666287019
4120.0 44.57444466612674
4250.0 44.45119314350954
4370.0 44.36902498652182
4500.0 44.33226333233635
4620.0 44.41299190545955
4750.0 44.64273307292102
4870.0 44.76714811255016
5000.0 44.79000806702065
5150.0 44.71815196388013
5300.0 44.76820998965857
5450.0 44.7771905244625
5600.0 44.652439905057264
5800.0 44.50886949792363
6000.0 44.45629481357042
6150.0 44.54825169902769
6300.0 44.74322412533262
6500.0 44.90820422740815
6700.0 44.81689213565414
6900.0 44.303845555888174
7100.0 43.74027984147699
7300.0 43.88816784646053
7500.0 44.63054634614363
7750.0 44.93686777653026
8000.0 44.421470372084585
8250.0 43.536492179676316
8500.0 43.36372560568239
8750.0 44.045613206401356
9000.0 44.38955668269554
9250.0 43.4349757345303
9500.0 43.054866109466246
9750.0 43.39781220512218
10000.0 44.324698306630935
10300.0 45.18219175186242
10600.0 44.596782638516586
10900.0 43.9051123980813
11200.0 44.600506941886536
11500.0 45.534586004473
11800.0 44.74587121092
12200.0 43.16413079492999
12500.0 44.100358878818795
12800.0 43.24154853914074
13200.0 44.277919435773256
13600.0 43.75328979670864
14000.0 44.46780981465706
14500.0 45.098255883124
15000.0 44.99204822756742
15500.0 45.71149346178217
16000.0 45.97937859339832
16500.0 45.70203276843861
17000.0 45.85118722260921
17500.0 46.065543148950795
18000.0 45.725251960032594
18500.0 46.11231177374725
19000.0 46.09266088856255
19500.0 45.9711898234944
