Freq "On Axis"
22.4 54.98987341772154
23.0 55.089873417721535
23.6 55.18987341772153
24.0 55.389873417721546
25.0 55.68987341772153
25.8 55.98987341772154
26.5 56.28987341772155
27.2 56.68987341772153
28.0 56.98987341772154
29.0 57.089873417721535
30.0 57.089873417721535
30.7 56.68987341772153
31.5 56.18987341772153
32.5 55.78987341772155
33.5 55.589873417721535
34.5 55.68987341772153
35.5 56.18987341772153
36.5 56.889873417721546
37.5 57.68987341772153
38.7 58.68987341772153
40.0 59.78987341772155
41.2 60.98987341772154
42.5 61.98987341772154
43.7 63.089873417721535
45.0 64.08987341772153
46.2 65.08987341772153
47.5 66.28987341772152
48.7 67.38987341772152
50.0 68.58987341772153
51.5 69.68987341772154
53.0 70.88987341772155
54.5 71.88987341772153
56.0 72.98987341772154
58.0 74.08987341772153
60.0 75.18987341772153
61.5 75.88987341772155
63.0 76.38987341772153
65.0 76.98987341772154
67.0 77.38987341772152
69.0 77.78987341772154
71.0 78.08987341772153
73.0 78.28987341772154
75.0 78.58987341772153
77.5 78.98987341772154
80.0 79.28987341772154
82.5 79.68987341772154
85.0 80.28987341772154
87.5 80.78987341772154
90.0 81.28987341772152
92.5 81.78987341772154
95.0 82.18987341772154
97.5 82.48987341772154
100.0 82.88987341772153
103.0 83.28987341772154
106.0 83.78987341772152
109.0 84.28987341772154
112.0 84.78987341772155
115.0 85.28987341772154
118.0 85.68987341772154
122.0 86.08987341772153
125.0 86.28987341772152
128.0 86.48987341772154
132.0 86.68987341772154
136.0 86.88987341772153
140.0 86.88987341772153
145.0 86.78987341772154
150.0 86.48987341772154
155.0 86.28987341772152
160.0 86.08987341772153
165.0 85.78987341772154
170.0 85.58987341772153
175.0 85.38987341772153
180.0 85.18987341772153
185.0 85.08987341772153
190.0 85.08987341772153
195.0 85.08987341772153
200.0 84.98987341772154
206.0 85.08987341772153
212.0 85.18987341772153
218.0 85.18987341772153
224.0 85.28987341772154
230.0 85.48987341772154
236.0 85.58987341772153
240.0 85.68987341772154
250.0 85.88987341772155
258.0 85.98987341772154
265.0 86.08987341772153
272.0 86.08987341772153
280.0 86.18987341772156
290.0 86.28987341772152
300.0 86.38987341772153
307.0 86.38987341772153
315.0 86.38987341772153
325.0 85.98987341772154
335.0 85.18987341772153
345.0 84.08987341772153
355.0 82.38987341772152
365.0 81.18987341772156
375.0 81.68987341772154
387.0 82.98987341772154
400.0 84.48987341772154
412.0 85.98987341772154
425.0 87.08987341772153
437.0 87.58987341772153
450.0 87.68987341772153
462.0 87.58987341772153
475.0 87.18987341772154
487.0 86.68987341772154
500.0 86.28987341772152
515.0 85.68987341772154
530.0 85.18987341772153
545.0 84.48987341772154
560.0 83.78987341772152
580.0 83.18987341772154
600.0 83.08987341772153
615.0 83.58987341772153
630.0 84.58987341772153
650.0 85.58987341772153
670.0 86.38987341772153
690.0 86.88987341772153
710.0 86.68987341772154
730.0 86.18987341772156
750.0 85.48987341772154
775.0 84.88987341772152
800.0 84.18987341772154
825.0 83.68987341772156
850.0 83.08987341772153
875.0 82.58987341772153
900.0 82.58987341772153
925.0 82.88987341772153
950.0 83.08987341772153
975.0 83.28987341772154
1000.0 83.18987341772154
1030.0 82.78987341772154
1060.0 82.28987341772155
1090.0 81.98987341772154
1120.0 81.98987341772154
1150.0 82.48987341772154
1180.0 83.68987341772156
1220.0 84.78987341772155
1250.0 85.98987341772154
1280.0 86.78987341772154
1320.0 87.28987341772155
1360.0 87.38987341772152
1400.0 87.48987341772154
1450.0 87.58987341772153
1500.0 87.28987341772155
1550.0 86.78987341772154
1600.0 86.08987341772153
1650.0 85.18987341772153
1700.0 84.18987341772154
1750.0 83.18987341772154
1800.0 83.18987341772154
1850.0 83.88987341772153
1900.0 84.08987341772153
1950.0 83.28987341772154
2000.0 82.88987341772153
2060.0 83.58987341772153
2120.0 84.38987341772153
2180.0 84.38987341772153
2240.0 84.28987341772154
2300.0 84.58987341772153
2360.0 85.58987341772153
2400.0 86.48987341772154
2500.0 87.08987341772153
2580.0 87.38987341772152
2650.0 87.48987341772154
2720.0 87.18987341772154
2800.0 86.88987341772153
2900.0 86.68987341772154
3000.0 86.28987341772152
3070.0 86.38987341772153
3150.0 86.68987341772154
3250.0 86.38987341772153
3350.0 85.58987341772153
3450.0 85.08987341772153
3550.0 85.28987341772154
3650.0 85.78987341772154
3750.0 86.18987341772156
3870.0 86.48987341772154
4000.0 86.88987341772153
4120.0 87.18987341772154
4250.0 87.38987341772152
4370.0 87.38987341772152
4500.0 87.08987341772153
4620.0 86.58987341772153
4750.0 86.48987341772154
4870.0 86.38987341772153
5000.0 85.88987341772155
5150.0 85.18987341772153
5300.0 84.48987341772154
5450.0 84.68987341772154
5600.0 85.08987341772153
5800.0 84.98987341772154
6000.0 84.88987341772152
6150.0 85.08987341772153
6300.0 84.48987341772154
6500.0 84.68987341772154
6700.0 84.88987341772152
6900.0 83.08987341772153
7100.0 80.38987341772153
7300.0 81.48987341772154
7500.0 84.28987341772154
7750.0 84.58987341772153
8000.0 82.38987341772152
8250.0 77.48987341772154
8500.0 76.28987341772152
8750.0 78.68987341772156
9000.0 82.28987341772155
9250.0 81.38987341772153
9500.0 76.78987341772154
9750.0 77.78987341772154
10000.0 81.38987341772153
10300.0 81.88987341772153
10600.0 76.28987341772152
10900.0 74.28987341772154
11200.0 79.88987341772152
11500.0 83.18987341772154
11800.0 79.98987341772154
12200.0 73.88987341772153
12500.0 76.58987341772153
12800.0 77.88987341772153
13200.0 79.68987341772154
13600.0 76.08987341772153
14000.0 78.58987341772153
14500.0 81.28987341772152
15000.0 79.08987341772153
15500.0 79.88987341772152
16000.0 83.18987341772154
16500.0 78.58987341772153
17000.0 79.78987341772155
17500.0 77.88987341772153
18000.0 75.98987341772154
18500.0 74.88987341772152
19000.0 69.48987341772154
19500.0 68.78987341772152
