Freq "Early Reflections"
20.5078 49.83291522934512
21.9727 44.80463240903488
23.4375 51.570213471314574
24.9023 57.40139409097013
26.3672 61.63296575371051
27.832 65.78815500589883
29.2969 68.77110671130403
30.7617 71.88098253161627
32.2266 74.54957948602119
33.6914 76.92024380122787
35.1562 79.22003576384361
36.6211 80.98994714314573
38.0859 82.13980613148223
39.5508 83.66896479266974
41.0156 84.70090827746695
42.4805 85.4574742162729
43.9453 86.20155875681137
45.4102 86.62693378597677
46.875 86.99874398568956
48.3398 87.25260011946459
51.2695 87.5879933214905
52.7344 87.81154815500982
54.1992 87.93862243818386
55.6641 87.89939900677528
58.5938 88.11908072961782
60.0586 88.1535334487802
62.9883 88.1931020399689
64.4531 88.24720711890517
67.3828 88.41092662268875
68.8477 88.46582287418157
71.7773 88.53548663478607
74.707 88.43897922298686
77.6367 88.45192239847951
79.1016 88.48588155575541
82.0312 88.4459786657358
84.9609 88.32185200494108
87.8906 88.32078437032166
90.8203 88.4842345310969
95.2148 88.40940672329857
98.1445 88.31828039795384
101.074 88.20976351431757
105.469 88.08910780303435
108.398 87.98147016517676
112.793 87.71564380831659
117.188 87.34947628799306
120.117 87.49566990687966
124.512 87.60332733657033
128.906 87.4750498134122
133.301 87.34037865190729
139.16 87.04898412324106
143.555 86.65841970863394
147.949 86.86003587085457
153.809 86.80717204913829
159.668 85.97877180370655
165.527 85.55507241742126
171.387 85.39039320719301
177.246 87.12524490762341
183.105 86.97773492673686
188.965 86.80662099937295
196.289 87.04392737851639
203.613 86.84942437338233
210.938 87.22875328194185
218.262 87.64003401533499
225.586 87.6973229294703
232.91 87.49346799850073
241.699 88.04387804113892
250.488 87.73423821101362
259.277 87.95065431650774
268.066 88.38615079592485
276.855 87.2965364280257
287.109 86.837446296805
297.363 86.71379979029052
307.617 85.98924993935482
319.336 85.29784917395214
329.59 85.28776915836394
341.309 85.38727764168347
353.027 85.76123835528702
366.211 86.10896036643027
379.395 85.59275501656413
392.578 86.10587235686506
405.762 86.61855894599395
420.41 86.72524475993325
435.059 86.55422927798215
451.172 86.82948987516754
465.82 86.85790505009724
483.398 86.96151249623112
499.512 86.42305855777803
517.09 86.79330412277174
536.133 86.91063923709015
555.176 86.95699041285597
574.219 86.64862510097849
594.727 86.94959483151457
615.234 86.54670008548081
637.207 87.01862986154823
659.18 86.46796910115091
682.617 86.75427599852766
707.52 86.55190820055152
732.422 86.34316996395822
757.324 86.44397334304857
785.156 86.19298251278427
811.523 86.44882592459082
840.82 86.70748876943652
870.117 86.99824070921025
900.879 86.6313416869114
933.105 86.45211339716046
965.332 86.17701150238712
1000.49 86.52994105326441
1035.64 86.87106037738529
1072.27 86.97031390361634
1108.89 86.59274013771254
1148.44 86.8197608732104
1189.45 87.05567511451669
1230.47 86.80286125279302
1274.41 86.60015477004319
1319.82 86.66072747240416
1366.7 86.05102933597287
1413.57 86.08186585185051
1463.38 85.55082193264234
1516.11 85.29767252309917
1568.85 85.32613386275266
1624.51 85.16413401030567
1681.64 84.92985331181156
1741.7 84.61963060063975
1803.22 85.36725367350141
1866.21 85.45080992606897
1932.13 85.12093566828493
1999.51 85.07867154455269
2069.82 85.34212997320792
2143.07 85.95013187582613
2219.24 86.13874762547034
2296.88 85.76940219168564
2378.91 85.55239527517445
2462.4 85.48865799069118
2548.83 85.03274941393435
2639.65 84.89292859433554
2731.93 84.69013677452278
2828.61 84.65648384223016
2928.22 84.20181635570515
3030.76 84.12585904838477
3137.7 84.02340648613215
3249.02 83.75752778613494
3363.28 83.75263729675034
3481.93 83.54172994671279
3604.98 83.83358830086276
3732.42 83.77181742782128
3864.26 84.223014129122
4000.49 84.28606531647955
4141.11 84.99085181819572
4287.6 85.43546462514375
4438.48 85.8554896615128
4595.21 85.79554488799577
4756.35 85.18825105728222
4924.8 84.26119600597993
5097.66 83.32388376661811
5277.83 82.63720994864669
5463.87 83.15110758435871
5657.23 83.93503480898356
5856.45 84.70694247584514
6062.99 85.03341345486533
6276.86 85.32196214648619
6498.05 85.11663911928689
6726.56 85.42530560193381
6963.87 85.55887576398008
7209.96 85.94153025181362
7464.84 86.20017486428473
7727.05 86.26503114604465
7999.51 85.92478488150957
8282.23 85.28696845181479
8573.73 84.70911665504691
8876.95 84.2136334294369
9188.96 83.93183960706365
9514.16 83.79352070428656
9849.61 83.80028798532973
10196.8 84.17842664457412
10555.7 84.31603943412638
10927.7 84.50711696859584
11313.0 84.7846232885857
11712.9 84.9313951868023
12126.0 84.93903059746307
12553.7 85.3303496727495
12996.1 86.33534687003998
13454.6 87.06916179511025
13929.2 87.03506721227838
14419.9 86.7142545445886
14928.2 85.97167875863467
15455.6 84.87555384542253
16000.5 83.86226707600675
16564.5 83.06874263689465
17148.9 82.17999640743419
17752.4 81.11209513594297
18379.4 80.49695132290078
19026.9 79.79633762197619
19697.8 78.87461308341052
19999.5 78.24113788478809
