Freq "Sound Power"
20.5078 47.67805358169092
21.9727 47.412148835858815
23.4375 52.29518031249948
24.9023 57.64124154044684
26.3672 61.813109009209526
27.832 65.9212158311178
29.2969 68.79521783136458
30.7617 71.88294865549817
32.2266 74.54656015536443
33.6914 76.91056831452643
35.1562 79.18468944967302
36.6211 80.98549984533985
38.0859 82.1093788352197
39.5508 83.61519102939977
41.0156 84.62791487783964
42.4805 85.3676227211327
43.9453 86.07884371520723
45.4102 86.49450130021087
46.875 86.85244754164877
48.3398 87.13862827232263
51.2695 87.49208162787255
52.7344 87.61467888316287
54.1992 87.75090391679187
55.6641 87.79438846903643
58.5938 87.93969447817621
60.0586 87.9768273964507
62.9883 87.99578038243723
64.4531 88.05033975258935
67.3828 88.20090095813177
68.8477 88.2678814676867
71.7773 88.2975396180879
74.707 88.21424456989267
77.6367 88.23344759456302
79.1016 88.25319630030049
82.0312 88.22204440759043
84.9609 88.16134865443219
87.8906 88.1973405981798
90.8203 88.2861677080093
95.2148 88.1433867777766
98.1445 88.02713991065123
101.074 87.85318968619599
105.469 87.72120548154403
108.398 87.61930375306277
112.793 87.40566143653439
117.188 86.93928749492831
120.117 86.95582864706154
124.512 87.21720541458483
128.906 87.125707931071
133.301 86.85635351309553
139.16 86.58358149811154
143.555 86.20629100578012
147.949 86.266234892067
153.809 86.31960653361942
159.668 85.52285295517916
165.527 85.00184607208624
171.387 84.6266152088731
177.246 86.2343491785019
183.105 86.22949859269953
188.965 86.08727015105777
196.289 86.19945934675172
203.613 85.92501123720776
210.938 86.14629617388593
218.262 86.51830674181303
225.586 86.8182497448406
232.91 86.35114211704061
241.699 86.70759931416184
250.488 86.44271510094845
259.277 86.50988630817955
268.066 87.01955307514133
276.855 86.089198018851
287.109 85.47868230906404
297.363 85.08498879863139
307.617 84.65172919432437
319.336 83.74678874477566
329.59 83.80148397344996
341.309 83.57707664921047
353.027 84.04116835340153
366.211 84.3724370432691
379.395 83.94783264095764
392.578 84.39378278388249
405.762 84.87679071427347
420.41 84.72711128985513
435.059 84.87907496707378
451.172 84.84908691396026
465.82 84.95260691678946
483.398 85.18332144649197
499.512 84.64706357944505
517.09 84.52291088051702
536.133 84.74728462919103
555.176 84.88912493385804
574.219 84.40962863490284
594.727 84.33777372673693
615.234 84.48865818301027
637.207 84.44770867659443
659.18 84.10087733459648
682.617 84.2276746758418
707.52 83.8703238516455
732.422 83.74642555105267
757.324 84.08730874885933
785.156 83.83959977959235
811.523 84.1221003850338
840.82 84.28323664197204
870.117 84.17857152794338
900.879 83.94522370954111
933.105 83.68632515715045
965.332 83.54125172520395
1000.49 83.5421892196887
1035.64 83.96597900088153
1072.27 84.26181495250347
1108.89 83.86409471769265
1148.44 83.99342665063287
1189.45 84.08725858284977
1230.47 83.92915703597991
1274.41 83.72618689278588
1319.82 83.77981428954367
1366.7 83.35465602052814
1413.57 83.04886884856272
1463.38 82.9487423362719
1516.11 82.30768553661616
1568.85 82.27037366843885
1624.51 82.07563483746846
1681.64 81.79818328531682
1741.7 81.70932884605732
1803.22 82.2063225040508
1866.21 82.55271995450029
1932.13 82.04662913275591
1999.51 82.01951939753542
2069.82 82.04613401682222
2143.07 82.8311478079891
2219.24 82.84773152965708
2296.88 82.50274151802854
2378.91 82.26746460771221
2462.4 82.03284260393231
2548.83 81.57285306557309
2639.65 81.31570433969692
2731.93 81.17285576920348
2828.61 80.99256947862652
2928.22 80.44085257852606
3030.76 80.36217087635741
3137.7 80.32500209165543
3249.02 79.91269413583207
3363.28 79.93725502126448
3481.93 79.72778134689152
3604.98 80.0338345529408
3732.42 80.04739170179228
3864.26 80.41011832384113
4000.49 80.25802955902336
4141.11 80.62631749863802
4287.6 80.90464383901111
4438.48 81.38430629292209
4595.21 81.43937077669634
4756.35 81.16058236562642
4924.8 80.42383499602323
5097.66 79.63433856181642
5277.83 78.89557281707111
5463.87 79.15695017978736
5657.23 79.8527654665538
5856.45 80.62080892215718
6062.99 80.90822490544736
6276.86 81.1414786738146
6498.05 80.87285800409106
6726.56 81.04490945766854
6963.87 81.1252150533799
7209.96 81.51018803763006
7464.84 81.73259867224878
7727.05 81.91175465863775
7999.51 81.7319921498457
8282.23 81.27942333139738
8573.73 80.7803703639571
8876.95 80.29457202419769
9188.96 79.96292015491728
9514.16 79.85066472069391
9849.61 79.77258291425159
10196.8 80.055294765601
10555.7 80.42766628923869
10927.7 80.83800696604732
11313.0 81.0579384466156
11712.9 80.91129572215924
12126.0 80.82888171141306
12553.7 81.08975290043936
12996.1 81.77946676052487
13454.6 82.26409803546382
13929.2 82.11930505474882
14419.9 81.58208723053856
14928.2 80.69557065649558
15455.6 79.5312618082077
16000.5 78.4025789775012
16564.5 77.44800355020571
17148.9 76.413976063479
17752.4 75.21593155057708
18379.4 74.46574416838365
19026.9 73.90567018023927
19697.8 73.23193663395968
19999.5 72.75501451056356
