Freq "Floor Bounce"
22.4 24.926582278480993
23.0 26.493504129641508
23.6 27.86017210536096
24.0 29.326582278481
25.0 30.62658227848098
25.8 32.026582278481015
26.5 33.260172105360965
27.2 34.526582278481015
28.0 35.6935041296415
29.0 36.893504129641514
30.0 37.96017210536098
30.7 39.026582278481015
31.5 40.026582278481015
32.5 40.92658227848099
33.5 41.826582278481
34.5 42.62658227848098
35.5 43.36017210536099
36.5 44.026582278481015
37.5 44.626582278480996
38.7 45.226582278481004
40.0 45.660172105360985
41.2 46.06017210536098
42.5 46.46017210536098
43.7 46.826582278481
45.0 47.226582278481004
46.2 47.6935041296415
47.5 48.226582278481004
48.7 48.92658227848099
50.0 49.826582278481
51.5 50.826582278481
53.0 51.96017210536097
54.5 53.126582278480996
56.0 54.326582278481
58.0 55.52658227848099
60.0 56.726582278481004
61.5 57.826582278481
63.0 58.893504129641485
65.0 59.92658227848099
67.0 60.826582278481
69.0 61.6935041296415
71.0 62.460172105360954
73.0 63.160172105360985
75.0 63.826582278481
77.5 64.326582278481
80.0 64.76017210536098
82.5 65.12658227848101
85.0 65.42658227848099
87.5 65.56017210536096
90.0 65.626582278481
92.5 65.626582278481
95.0 65.42658227848099
97.5 65.226582278481
100.0 64.92658227848099
103.0 64.526582278481
106.0 64.02658227848102
109.0 63.626582278480996
112.0 63.19350412964151
115.0 62.826582278481
118.0 62.5935041296415
122.0 62.42658227848099
125.0 62.42658227848099
128.0 62.460172105360954
132.0 62.5935041296415
136.0 62.726582278481004
140.0 62.860172105360974
145.0 63.02658227848099
150.0 63.19350412964151
155.0 63.293504129641505
160.0 63.326582278481
165.0 63.293504129641505
170.0 63.19350412964151
175.0 62.993504129641494
180.0 62.826582278481
185.0 62.826582278481
190.0 62.993504129641494
195.0 63.293504129641505
200.0 63.62734977293661
206.0 63.760933687166016
212.0 63.69503311653531
218.0 63.295033116535336
224.0 62.829651849523515
230.0 62.29809028635037
236.0 62.19809028635038
240.0 62.267023957935905
250.0 62.302674032973215
258.0 62.10267403297321
265.0 61.73348728883559
272.0 61.76702395793592
280.0 62.49809028635039
290.0 63.39809028635037
300.0 63.89809028635038
307.0 63.998090286350376
315.0 63.73348728883559
325.0 63.87234947286569
335.0 64.77919181050316
345.0 65.77919181050318
355.0 66.11641084521571
365.0 65.55416947131692
375.0 64.68754742085284
387.0 64.65416947131692
400.0 65.19741198132398
412.0 65.26411005148128
425.0 64.79741198132398
437.0 64.66411005148127
450.0 65.09741198132399
462.0 65.03621484529721
475.0 64.54837966536995
487.0 64.3216468588393
500.0 64.3360047627412
515.0 64.42692340787927
530.0 64.51196938313997
545.0 64.15533837976415
560.0 63.75533837976414
580.0 63.879537646358784
600.0 64.07953764635877
615.0 64.00416178308812
630.0 63.961280012089986
650.0 63.54451017612949
670.0 62.61232143497071
690.0 62.165133109901475
710.0 62.87266689514776
730.0 63.56171287026082
750.0 64.60586960455532
775.0 66.58754742085281
800.0 67.69326780638121
825.0 67.91314874159346
850.0 68.70107578878537
875.0 68.99809028635038
900.0 69.02890222437874
925.0 68.3334872888356
950.0 68.60555217368214
975.0 68.24680538172353
1000.0 68.07593994326372
1030.0 67.47675303060672
1060.0 67.51896790064204
1090.0 68.03831074285479
1120.0 67.38885147505823
1150.0 66.2193099318631
1180.0 65.22462207603905
1220.0 64.85226273163032
1250.0 63.916758098418555
1280.0 63.10800016386683
1320.0 62.09647176363413
1360.0 61.03858011727098
1400.0 59.73428493892098
1450.0 58.70180458510407
1500.0 58.22893646095213
1550.0 57.5098377753891
1600.0 56.95866268711792
1650.0 56.12819158279879
1700.0 55.749442131158546
1750.0 54.77470325699997
1800.0 53.96658632144431
1850.0 54.246634925689904
1900.0 55.67787521575971
1950.0 57.339079515125746
2000.0 58.19796708734003
2060.0 59.04894444807928
2120.0 59.18078526883481
2180.0 60.36786339717972
2240.0 62.14287241930231
2300.0 63.110810494812014
2360.0 64.82483229210186
2400.0 66.21314874159347
2500.0 67.24846910770313
2580.0 68.06204490982782
2650.0 67.65842109193414
2720.0 66.92381910288024
2800.0 66.1360047627412
2900.0 65.75592305289756
3000.0 65.19693421635452
3070.0 64.46724484139428
3150.0 63.82532865395389
3250.0 63.924125992831804
3350.0 64.2493506004651
3450.0 64.77192822831896
3550.0 65.82638858719511
3650.0 65.71515758723325
3750.0 64.93723283915035
3870.0 64.2107787844499
4000.0 62.51735831236704
4120.0 62.091390513513474
4250.0 62.433609197070425
4370.0 62.12875978956082
4500.0 62.391068879604234
4620.0 62.44550895576327
4750.0 62.319712536610155
4870.0 61.69632236645326
5000.0 61.883069157650084
5150.0 62.53573537380048
5300.0 63.35090382611921
5450.0 62.8467057831179
5600.0 63.230747901300774
5800.0 63.283995134386785
6000.0 62.00354003463016
6150.0 61.76197226702257
6300.0 61.85771143442015
6500.0 62.03126419763302
6700.0 63.879335509117965
6900.0 62.88015523904593
7100.0 61.657272059267996
7300.0 60.81831454243891
7500.0 60.51646464397916
7750.0 58.73225123058131
8000.0 57.08469148864948
8250.0 56.37999607678016
8500.0 56.68297101319362
8750.0 58.74807739584713
9000.0 58.24039570590712
9250.0 55.99447386326156
9500.0 55.81774360768638
9750.0 57.332257444410146
10000.0 57.012350264659645
10300.0 55.365279389934216
10600.0 55.06232621625354
10900.0 55.114031435932134
11200.0 56.894184535339264
11500.0 55.95771695536982
11800.0 56.6941966480353
12200.0 55.5904007035256
12500.0 55.72154095958622
12800.0 56.26741569597371
13200.0 51.342803084381416
13600.0 55.0307479013008
14000.0 54.87074002782953
14500.0 55.7388540616372
15000.0 57.43600303958377
15500.0 56.84972810548781
16000.0 52.87468115920254
16500.0 57.269091634882045
17000.0 53.739971046370556
17500.0 52.28926784122379
18000.0 49.18597121744554
18500.0 51.45974504242028
19000.0 52.96459100996519
19500.0 46.65087817620413
