Freq "Front Wall Bounce"
22.4 24.826582278481
23.0 26.426582278480993
23.6 27.826582278481
24.0 29.226582278481004
25.0 30.526582278481015
25.8 31.926582278480993
26.5 33.226582278481004
27.2 34.42658227848099
28.0 35.62658227848098
29.0 36.826582278481
30.0 37.92658227848099
30.7 38.92658227848099
31.5 39.92658227848099
32.5 40.826582278481
33.5 41.726582278481004
34.5 42.526582278481015
35.5 43.326582278481
36.5 44.01243676758338
37.5 44.626582278480996
38.7 45.12658227848101
40.0 45.626582278480996
41.2 46.026582278481
42.5 46.42658227848099
43.7 46.826582278481
45.0 47.212436767583384
46.2 47.62658227848101
47.5 48.226582278481004
48.7 48.92658227848099
50.0 49.726582278481004
51.5 50.826582278481
53.0 51.92658227848099
54.5 53.02658227848099
56.0 54.226582278481004
58.0 55.42658227848099
60.0 56.62658227848098
61.5 57.726582278481004
63.0 58.826582278481
65.0 59.826582278481
67.0 60.726582278481004
69.0 61.569721673818805
71.0 62.326582278481
73.0 63.02658227848099
75.0 63.65538943522628
77.5 64.19824503239991
80.0 64.626582278481
82.5 64.99824503239991
85.0 65.26972167381882
87.5 65.42658227848099
90.0 65.4982450323999
92.5 65.45538943522628
95.0 65.2982450323999
97.5 65.09824503239992
100.0 64.76972167381882
103.0 64.36972167381882
106.0 63.8982450323999
109.0 63.46972167381881
112.0 63.02724013917525
115.0 62.66972167381883
118.0 62.44166542091985
122.0 62.341665420919824
125.0 62.327240139175245
128.0 62.341665420919824
132.0 62.49824503239991
136.0 62.641665420919836
140.0 62.798245032399905
145.0 62.94166542091983
150.0 63.0982450323999
155.0 63.19824503239991
160.0 63.19824503239991
165.0 63.14166542091985
170.0 62.94166542091983
175.0 62.741665420919844
180.0 62.54166542091984
185.0 62.54166542091984
190.0 62.71407157740141
195.0 63.01407157740141
200.0 63.31407157740141
206.0 63.528877045417914
212.0 63.45833741710007
218.0 63.17333378223455
224.0 62.673333782234536
230.0 62.273333782234545
236.0 62.231477272217205
240.0 62.34656651249543
250.0 62.44656651249542
258.0 62.246566512495434
265.0 61.87333378223454
272.0 61.93147727221722
280.0 62.58693539671296
290.0 63.44363221176967
300.0 63.999554195858025
307.0 64.1140715774014
315.0 63.98693539671295
325.0 64.27333378223454
335.0 65.32024817944882
345.0 66.42024817944882
355.0 66.82024817944882
365.0 66.3918694384765
375.0 65.66195314467086
387.0 65.74656651249543
400.0 66.34656651249543
412.0 66.5031720516993
425.0 65.95045213944313
437.0 65.66582503570092
450.0 65.9402216845498
462.0 65.84599631090298
475.0 65.4617427584392
487.0 65.53091328810768
500.0 65.83727194150731
515.0 66.2372719415073
530.0 66.57779710159448
545.0 66.4534168316106
560.0 66.18479936667597
580.0 66.37744441236285
600.0 66.52600521030298
615.0 66.30298284895672
630.0 66.05416248593002
650.0 65.55416248593002
670.0 65.06101407053995
690.0 65.38479936667599
710.0 66.03727194150731
730.0 66.03727194150731
750.0 66.10260437956765
775.0 66.74022168454981
800.0 66.75045213944313
825.0 66.42475772938803
850.0 66.74022168454981
875.0 66.54022168454982
900.0 66.42475772938803
925.0 65.92475772938803
950.0 66.41505445775616
975.0 66.33091328810768
1000.0 66.50260437956766
1030.0 66.029458561485
1060.0 65.79419336382284
1090.0 66.21779812813115
1120.0 66.229458561485
1150.0 66.10900458575925
1180.0 65.85416248593002
1220.0 65.96356354692657
1250.0 65.66101407053995
1280.0 65.48626782589591
1320.0 65.60805506678831
1360.0 66.0080550667883
1400.0 66.15814962160967
1450.0 66.48648396244097
1500.0 66.91935453835724
1550.0 67.18036601322648
1600.0 67.45814962160966
1650.0 67.55491451181985
1700.0 67.56783027722658
1750.0 67.33721492985114
1800.0 67.08852129188412
1850.0 66.88581431648399
1900.0 67.07129545187196
1950.0 67.18789708125666
2000.0 67.4686332391552
2060.0 66.81809307244957
2120.0 66.1444244292075
2180.0 66.01239022612755
2240.0 66.48718427242193
2300.0 66.72455791836856
2360.0 67.64599631090297
2400.0 68.0736453510031
2500.0 68.65409711991876
2580.0 69.06926913914234
2650.0 68.69559512726309
2720.0 68.11230827472585
2800.0 67.48604827301591
2900.0 67.30373913410473
3000.0 67.4192414118193
3070.0 66.73215949184006
3150.0 65.84058484632156
3250.0 65.44356900559478
3350.0 64.97053304239745
3450.0 65.00398428589233
3550.0 65.19173117046921
3650.0 65.86755229725138
3750.0 66.23682683430627
3870.0 66.1431392970394
4000.0 64.81999728834893
4120.0 64.36882434839029
4250.0 64.97670057808423
4370.0 64.98601966697532
4500.0 65.1783352742549
4620.0 65.33879575589265
4750.0 66.11118221155947
4870.0 66.12821071495868
5000.0 65.96161844878722
5150.0 65.32518383527005
5300.0 65.99004438764987
5450.0 66.5087456700596
5600.0 66.95459224240972
5800.0 67.29412678753617
6000.0 67.07048747972634
6150.0 66.37468750388247
6300.0 65.88759908031325
6500.0 65.68145241468108
6700.0 67.18282450535821
6900.0 67.59585986196657
7100.0 66.98702354871077
7300.0 65.99151318010598
7500.0 65.2285335772665
7750.0 63.656001481258784
8000.0 62.403756077977334
8250.0 62.784606522529415
8500.0 63.765390119432965
8750.0 64.3832045583573
9000.0 64.17788609236592
9250.0 63.45974686688412
9500.0 62.32654154265934
9750.0 62.1028792081604
10000.0 62.700900160085
10300.0 63.561635820761126
10600.0 64.26787323447545
10900.0 63.80200801035778
11200.0 65.11434552216149
11500.0 65.13775585402182
11800.0 64.46443724049796
12200.0 63.831527276062076
12500.0 63.79198111582586
12800.0 64.13566678192606
13200.0 64.6513738515198
13600.0 63.297426102570256
14000.0 61.47569660639084
14500.0 61.49757772876238
15000.0 61.65764647697293
15500.0 59.76074446451992
16000.0 59.891257733424624
16500.0 61.999355377252584
17000.0 60.67984350212802
17500.0 60.55925768024838
18000.0 61.2279936980173
18500.0 59.235733319088666
19000.0 55.902262927359914
19500.0 51.01739054666068
