Freq,On Axis,Listening Window,Sound Power,Early Reflections,Early Reflections DI,Sound Power DI,DI offset
20.5078,68.46162121212122,68.46329357452709,65.8188267114956,67.62888952741636,40.83440404711072,42.64446686303148,40
21.9727,69.76512121212122,69.7671722829314,67.12255013848103,68.9322461081962,40.8349261747352,42.644622144450366,40
23.4375,70.75132121212121,70.75303398375998,68.10523980749186,69.9164464002605,40.83658758349948,42.64779417626812,40
24.9023,71.67762121212121,71.67901156774539,69.02861769677574,70.84122215396388,40.83778941378151,42.65039387096965,40
26.3672,72.55202121212122,72.55346839339698,69.90206828058655,71.71457346588306,40.83889492751392,42.651400112810435,40
27.832,73.40542121212121,73.4068801938779,70.75426628812625,72.56723587958226,40.83964431429564,42.65261390575165,40
29.2969,74.25872121212123,74.26010182187164,71.60570916274509,73.419625189849,40.84047663202264,42.65439265912656,40
30.7617,75.0473212121212,75.04843577443732,72.3917104111271,74.20639784442847,40.84203793000886,42.65672536331023,40
32.2266,75.84972121212121,75.85062360437017,73.19158379688739,75.0071237696663,40.84349983470388,42.659039807482785,40
33.6914,76.54052121212122,76.54120046096429,73.87978606871381,75.69566111277948,40.845539348184815,42.66141439225048,40
35.1562,77.23682121212121,77.2376890135187,74.5754766331964,76.39311732839604,40.84457168512266,42.6622123803223,40
36.6211,77.90302121212122,77.90341029300453,75.23712411173624,77.05571446444162,40.847695828562905,42.66628618126829,40
38.0859,78.50632121212121,78.50692146362184,75.84020653768903,77.6590741884708,40.84784727515104,42.66671492593281,40
39.5508,79.17242121212122,79.17269084392012,76.50323217886826,78.32398708706472,40.8487037568554,42.66945866505186,40
41.0156,79.82082121212122,79.8209920261501,77.14896223972639,78.97094085984398,40.850051166306116,42.67202978642371,40
42.4805,80.36032121212122,80.3600912067219,77.6861492296245,79.51042510364663,40.84966610307528,42.6739419770974,40
43.9453,80.94812121212121,80.9466490764328,78.27118443626685,80.09721631424017,40.849432762192635,42.675464640165956,40
45.4102,81.55362121212121,81.55377444972885,78.87829149120185,80.69967624678,40.85409820294885,42.675482958527,40
46.875,82.03082121212121,82.03173439885956,79.3553520367422,81.17422269546586,40.8575117033937,42.67638236211735,40
48.3398,82.55512121212122,82.55496307935044,79.86619260478638,81.69164281518599,40.86332026416446,42.688770474564066,40
51.2695,82.98072121212121,82.9813348069386,80.29539628365812,82.11806301217351,40.8632717947651,42.685938523280484,40
52.7344,83.08222121212121,83.08176445518508,80.38576491555594,82.21442183324659,40.86734262193849,42.69599953962914,40
54.1992,83.35552121212122,83.35463615368243,80.65782469368528,82.49300166528282,40.861634488399616,42.69681145999715,40
55.6641,84.08102121212121,84.08042516654235,81.38414675185237,83.21801680990049,40.862408356641865,42.696278414689985,40
58.5938,84.83422121212121,84.83333539329958,82.13082475671538,83.96669061609032,40.86664477720926,42.70251063658419,40
60.0586,85.19042121212124,85.18927949452221,82.48355278839449,84.32087330156848,40.86840619295373,42.70572670612772,40
62.9883,85.73172121212122,85.73010210694643,83.01680623984481,84.8568512021578,40.873250904788634,42.71329586710162,40
64.4531,85.9736212121212,85.97182488144743,83.25507824701735,85.09649647529785,40.87532840614958,42.71674663443008,40
67.3828,86.43502121212123,86.43286922758622,83.7091889959822,85.55315076665035,40.87971846093588,42.72368023160402,40
68.8477,86.64782121212122,86.64545747796714,83.9182171492291,85.76339244408175,40.8820650338854,42.72724032873805,40
71.7773,86.99602121212124,86.99318976867157,84.25799048838817,86.10614594218131,40.887043826490256,42.735199280283396,40
74.707,87.2536212121212,87.25030060737802,84.50667933863461,86.35782520549623,40.892475401881796,42.74362126874341,40
77.6367,87.43452121212121,87.43092255422037,84.6792266126107,86.53319720243076,40.89772535178962,42.75169594160967,40
79.1016,87.50632121212122,87.50254466621476,84.74666836990524,86.60191736227941,40.90062730393535,42.75587629630952,40
82.0312,87.62792121212121,87.62366667462,84.85919906584367,86.716215912621,40.907450761999,42.76446760877633,40
84.9609,87.71962121212121,87.71433008375514,84.94041878222376,86.79548742118183,40.91884266257331,42.773911301531385,40
87.8906,87.80452121212122,87.79782476877844,85.01080023269361,86.8757175076185,40.92210726115994,42.78702453608483,40
90.8203,87.87212121212121,87.86573600528209,85.07125552302708,86.94284511119174,40.922890894090344,42.79448048225501,40
95.2148,87.84892121212121,87.84191405270074,85.03231269208746,86.90975157867913,40.93216247402161,42.809601360613286,40
98.1445,87.83152121212122,87.82390330908751,85.00363350143775,86.88512230956044,40.93878099952707,42.820269807649765,40
101.074,87.81382121212121,87.80573762363102,84.9743246709564,86.86063397615101,40.94510364748001,42.83141295267461,40
105.469,87.68282121212121,87.67417159296149,84.8247903114183,86.7177159114014,40.95645568156009,42.84938128154319,40
108.398,87.62322121212122,87.6139155992633,84.75389633072824,86.64973920556122,40.964176393702076,42.860019268535055,40
112.793,87.51342121212122,87.50319444642814,84.62548801971546,86.5278955393082,40.975298907119935,42.87770642671268,40
117.188,87.39282121212122,87.38159502617606,84.48522380435216,86.39434953270876,40.9872454934673,42.8963712218239,40
120.117,87.32552121212123,87.31360736731673,84.404614055933,86.31841796512948,40.99518940218725,42.90899331138374,40
124.512,87.23082121212121,87.2177232825256,84.28844496164531,86.20983356714308,41.00788971538252,42.929278320880286,40
128.906,87.12282121212121,87.10837704769493,84.15734915457494,86.08693449420856,41.02144255348637,42.951027893119985,40
133.301,87.04602121212122,87.03011858002793,84.05744519708666,85.99491986376778,41.035198716260155,42.97267338294127,40
139.16,86.98862121212122,86.97099145402484,83.97010832513327,85.91898548359426,41.052005970430585,43.00088312889157,40
143.555,86.90002121212122,86.88180614252778,83.86151517279824,85.81757961445115,41.06422652807663,43.020290969729544,40
147.949,86.87022121212121,86.84976649415619,83.80220236516703,85.76959449052171,41.08017200363447,43.04756412898915,40
153.809,86.70902121212123,86.68668360135285,83.60727619556503,85.58577435767205,41.1009092436808,43.07940740578782,40
159.668,86.54002121212122,86.5158773211549,83.40264595960195,85.3931793542571,41.1226979668978,43.11323136155295,40
165.527,86.67932121212121,86.65108199249151,83.51107976359896,85.51136341879558,41.13971857369593,43.140002228892556,40
171.387,86.63152121212121,86.60172466720095,83.42435043138893,85.44171379074649,41.160010876454464,43.177374235812024,40
177.246,86.46882121212121,86.43616410997028,83.21610604390898,85.24896177398362,41.187202335986655,43.2200580660613,40
183.105,86.4128212121212,86.37667580611651,83.11445131659136,85.16248222083976,41.214193585276746,43.26222448952515,40
188.965,86.22252121212122,86.18338672281043,82.8758756679703,84.94153013028952,41.241856592520904,43.30751105484012,40
196.289,85.94372121212122,85.90273796171905,82.55134169832148,84.62917652062677,41.27356144109228,43.351396263397575,40
203.613,86.1952212121212,86.14662020843741,82.73743093382456,84.8342176307513,41.312402577686115,43.40918927461286,40
210.938,86.17122121212121,86.11681880293474,82.64229755877415,84.77049205251234,41.346326750422406,43.4745212441606,40
218.262,86.05162121212122,86.0006057199782,82.50048646636415,84.63723120586909,41.36337451410911,43.500119253614045,40
225.586,85.98312121212122,85.92758431849396,82.36510908234334,84.52639330638547,41.401191012108484,43.56247523615062,40
232.91,85.70782121212122,85.65348866288863,82.04203420802774,84.21872049336457,41.43476816952406,43.61145445486089,40
241.699,85.44032121212122,85.39047646052626,81.74166936839686,83.92953634297433,41.46094011755193,43.6488070921294,40
250.488,84.68712121212121,84.65669792299181,81.01541046705324,83.19058629066038,41.46611163233143,43.64128745593857,40
259.277,83.96022121212121,83.94638905592875,80.33833358578448,82.48795548890226,41.45843356702649,43.608055470144265,40
268.066,87.14472121212121,87.00018192105998,83.03700342852161,85.36484948676099,41.63533243429899,43.96317849253836,40
276.855,87.22962121212122,87.0944492482304,83.04108497869099,85.40425838890872,41.69019085932169,44.053364269539415,40
287.109,86.97862121212121,86.85154074286956,82.75227246502222,85.12728990200164,41.724250840867924,44.099268277847344,40
297.363,86.95312121212122,86.82349371578064,82.66205079958922,85.06116517517479,41.76232854060585,44.16144291619142,40
307.617,87.21582121212123,87.09078261246546,82.96306444514954,85.3509359546806,41.73984665778487,44.12771816731592,40
319.336,88.51832121212122,88.3605137444614,84.09740924413504,86.54678567380483,41.813728070656566,44.263104500326364,40
329.59,88.01192121212121,87.84313742805519,83.43129900036303,85.92061410086689,41.9225233271883,44.41183842769216,40
341.309,87.92362121212122,87.77204706161126,83.3580159579704,85.83286523225559,41.939181829355675,44.414031103640866,40
353.027,87.40332121212121,87.26194801813764,82.79882305018666,85.28540341594119,41.976544602196455,44.46312496795099,40
366.211,87.44162121212122,87.29346419038328,82.80355316785239,85.30076031134587,41.99270387903741,44.48991102253089,40
379.395,87.93432121212122,87.76977363142151,83.149316756387,85.69418432041748,42.07558931100404,44.62045687503452,40
392.578,87.87452121212121,87.71725971172711,83.08107203925147,85.61691754898169,42.10034216274542,44.63618767247564,40
405.762,87.83812121212122,87.67677956655885,82.9535866846294,85.51672899730961,42.160050569249236,44.72319288192945,40
420.41,87.83272121212121,87.65483966129328,82.80481790738337,85.42421904288734,42.230620618405936,44.850021753909914,40
435.059,87.47992121212121,87.29324260962149,82.34007029088262,84.98590434537508,42.30733826424641,44.953172318738865,40
451.172,87.61352121212121,87.4039220224877,82.26321681428233,84.98065245730268,42.423269565185024,45.140705208205375,40
465.82,87.25482121212121,87.04603232704582,81.85295679649728,84.57205294438909,42.47397938265674,45.19307553054854,40
483.398,87.97872121212123,87.72510229223494,82.33403082827195,85.12908986343832,42.59601242879661,45.39107146396299,40
499.512,87.80352121212121,87.57380178299046,82.23493319977558,84.95523974513483,42.618562037855625,45.338868583214875,40
517.09,87.98952121212122,87.73553461146574,82.27073959074916,85.0219566772231,42.713577934242636,45.46479502071658,40
536.133,87.9762212121212,87.7325183714549,82.22399152030371,84.93489393371217,42.797624437742726,45.50852685115119,40
555.176,87.56672121212121,87.34089813206386,81.92687858006995,84.5866138246781,42.75428430738576,45.4140195519939,40
574.219,87.4788212121212,87.26068610967091,81.74902653743348,84.4441407683787,42.81654534129221,45.511659572237434,40
594.727,87.67152121212122,87.40850292387066,81.8200435865617,84.53730862124591,42.871194302624744,45.58845933730896,40
615.234,87.46932121212122,87.21373180479702,81.62082539113148,84.34037704423943,42.87335476055759,45.592906413665546,40
637.207,87.99882121212121,87.69990480337769,81.8879840849381,84.70522022249303,42.994684580884666,45.811920718439595,40
659.18,87.34822121212122,87.09913677464843,81.56182593120874,84.18603446055333,42.9131023140951,45.537310843439684,40
682.617,87.26732121212123,86.9986111464146,81.47077847539815,84.11250627895222,42.88610486746238,45.527832671016455,40
707.52,88.03962121212123,87.67469163907901,81.68742461165473,84.56099108759199,43.11370055148703,45.98726702742428,40
732.422,87.56202121212121,87.25208065543865,81.63280655732837,84.28789290708505,42.964187748353595,45.61927409811028,40
757.324,87.54432121212122,87.26373337443111,81.6850896603801,84.31349767947826,42.95023569495285,45.57864371405101,40
785.156,88.04212121212122,87.66906366333109,81.75623946880219,84.64461185066472,43.02445181266637,45.912824194528895,40
811.523,86.9617212121212,86.82229652821954,81.5203559622478,84.10615758968547,42.71613893853407,45.301940565971734,40
840.82,87.39292121212121,87.18447988968067,81.74750958182004,84.40306010399928,42.78141978568139,45.43697030786063,40
870.117,87.01342121212122,86.89764914581451,81.76033239028052,84.30190294703812,42.595746198776396,45.13731675553399,40
900.879,87.12232121212122,87.02503047924321,81.96791173432554,84.49067775256484,42.53435272667838,45.05711874491767,40
933.105,87.36092121212121,87.21427494790976,82.19020299317636,84.79982548579304,42.41444946211672,45.0240719547334,40
965.332,87.18102121212121,87.14297177239548,81.99233483801795,84.5208994718232,42.622072300572285,45.15063693437753,40
1000.49,86.66642121212122,86.75261981074446,82.03180501160934,84.54493205732149,42.207687753422974,44.72081479913513,40
1035.64,87.13952121212121,87.02815694387988,81.60566356904152,84.3717417001,42.656415243779875,45.42249337483835,40
1072.27,85.65182121212122,85.83111651705792,81.15879356405603,83.67466462798536,42.15645188907256,44.672322953001895,40
1108.89,85.54822121212122,85.62723547927624,80.75841148750872,83.47422465385958,42.15301082541666,44.86882399176751,40
1148.44,85.84142121212122,85.94016625477985,81.15040009519095,83.72886466361076,42.21130159116909,44.78976615958891,40
1189.45,86.29132121212123,86.35468713862596,81.1748764692744,83.82271577114346,42.5319713674825,45.17981066935157,40
1230.47,87.32692121212122,87.14773319577064,82.05828688898951,84.63089688652087,42.51683630924977,45.08944630678113,40
1274.41,87.63252121212122,87.42631196595487,81.8309454158363,84.49215810350753,42.93415386244733,45.59536655011857,40
1319.82,87.64362121212122,87.34067946716155,81.95196944757521,84.68161503135124,42.65906443581031,45.38871001958634,40
1366.7,86.96052121212122,86.71279888738167,81.46217088049995,84.03496901773981,42.677829869641855,45.25062800688171,40
1413.57,87.38482121212121,86.7246840302036,81.0505339954212,83.85627474884424,42.86840928135936,45.6741500347824,40
1463.38,88.13342121212122,87.26035464248278,81.53641621195015,84.18995496729048,43.070399675192306,45.72393843053263,40
1516.11,88.28082121212121,87.6443815860841,81.72588145694093,84.44323025451925,43.201151331564844,45.91850012914317,40
1568.85,89.0283212121212,88.20785614308657,81.85664588384242,84.80355817268158,43.404297970405,46.351210259244155,40
1624.51,88.02252121212122,87.29777018037484,81.30429992670759,84.16037843162508,43.137391748749764,45.993470253667255,40
1681.64,87.67922121212123,86.8692546421315,80.8029990923382,83.87877917049637,42.99047547163512,46.0662555497933,40
1741.7,88.31562121212121,87.40816006098342,80.99506558425492,84.19752986449974,43.21063019648368,46.4130944767285,40
1803.22,88.9428212121212,88.06853923986776,81.30735248356538,84.54506833033666,43.5234709095311,46.76118675630238,40
1866.21,88.68242121212121,87.8482250650575,81.33616243018534,84.55054548046917,43.29767958458834,46.512062634872166,40
1932.13,87.95412121212124,87.16563868502605,80.8976063431308,84.08912190260904,43.076516782417016,46.26803234189525,40
1999.51,87.55742121212123,86.821104431361,80.47752486561993,83.92436267554008,42.89674175582091,46.34357956574107,40
2069.82,87.6270212121212,86.89033112737117,80.36222139350534,83.90248393215487,42.987847195216304,46.52810973386583,40
2143.07,87.18452121212121,86.58892905478834,79.98270220856011,83.5479027628327,43.04102629195563,46.606226846228225,40
2219.24,86.1746212121212,85.65413998043076,79.33758027574343,82.92745310718982,42.726686873240936,46.31655970468732,40
2296.88,86.50042121212121,85.8592154248159,79.43631055768185,83.00038185985855,42.85883356495735,46.42290486713405,40
2378.91,87.21252121212122,86.4771186027815,79.79557916831543,83.3619940504961,43.11512455228541,46.681539434466075,40
2462.4,86.5234212121212,85.90258583799483,79.67603673403619,83.33857469297176,42.56401114502307,46.22654910395865,40
2548.83,86.51442121212122,85.76999758399937,79.81892765573176,83.39171463455801,42.378282949441356,45.951069928267614,40
2639.65,87.38682121212122,86.8232422268504,80.4782765382933,83.96330100546459,42.85994122138581,46.344965688557096,40
2731.93,87.10562121212122,86.70512953245566,80.43029812968354,83.93569570289245,42.76943382956321,46.27483140277212,40
2828.61,86.8811212121212,86.50142797567507,80.47049367216356,84.09974800183602,42.40167997383905,46.030934303511515,40
2928.22,87.76992121212122,87.16555537248041,80.75673319423248,84.38920792584142,42.776347446638994,46.40882217824793,40
3030.76,87.79792121212121,87.37511993757313,80.7116309170907,84.3907779127169,42.98434202485623,46.66348902048243,40
3137.7,87.3512212121212,86.88294790826073,80.1054598426072,84.01488322390156,42.86806468435917,46.77748806565353,40
3249.02,86.99462121212122,86.54082473902079,79.63113537429976,83.57770163494057,42.963123104080225,46.90968936472103,40
3363.28,87.08352121212121,86.61213686619301,79.49866675502,83.42595127946221,43.1861855867308,47.113470111173015,40
3481.93,86.65432121212122,86.34581888376525,79.21898889903565,83.13861901887228,43.20719986489297,47.126829984729596,40
3604.98,86.6971212121212,86.39479912742502,79.13172530635407,83.08755734616,43.30724178126502,47.26307382107095,40
3732.42,86.61492121212122,86.41691621639235,79.08791934709015,82.91405381131995,43.502862405072406,47.3289968693022,40
3864.26,86.61572121212122,86.52842921899597,79.00613984643827,82.94505770824,43.58337151075597,47.522289372557694,40
4000.49,86.84762121212121,86.37116233935924,78.88447605602525,82.92634245959606,43.44481987976319,47.486686283333995,40
4141.11,87.29582121212121,86.78673340427832,79.0313941109395,83.07332917738843,43.71340422688989,47.75533929333882,40
4287.6,87.25972121212124,86.6620512384652,78.97656735296071,83.12978322024443,43.53226801822076,47.68548388550448,40
4438.48,87.07702121212122,86.44059748098974,78.6277469065116,82.78787444042493,43.65272304056481,47.812850574478134,40
4595.21,87.36182121212121,86.71836627998862,78.83460562001281,82.98458879694309,43.73377748304553,47.883760659975806,40
4756.35,86.93432121212122,86.33880442053022,78.69407390632868,82.81215236845861,43.52665205207161,47.64473051420154,40
4924.8,87.5522212121212,86.9000468036815,79.03042770755594,83.15277921866581,43.74726758501569,47.86961909612556,40
5097.66,87.03462121212121,86.34325218105445,78.61649176119909,82.8096234830295,43.533628698024955,47.72676041985537,40
5277.83,87.78432121212121,87.0256841364458,78.92389263849624,83.11993325504582,43.90575088139998,48.10179149794956,40
5463.87,87.20792121212122,86.5074304391365,78.7048884103161,82.85769165577022,43.649738783366274,47.8025420288204,40
5657.23,86.77982121212122,86.31693281745503,78.54795730322422,82.71864613870692,43.59828667874811,47.7689755142308,40
5856.45,86.3904212121212,85.99474687918934,78.47094447541016,82.53675481617695,43.457992063012384,47.52380240377917,40
6062.99,86.47452121212122,85.91705244172846,78.29771337535524,82.34187154350163,43.57518089822683,47.619339066373215,40
6276.86,86.43532121212121,85.7275528396722,77.75111518485426,82.05119107825288,43.676361761419315,47.97643765481794,40
6498.05,86.85072121212121,86.19250201279915,77.98138291780181,82.36824592387057,43.82425608892858,48.21111909499734,40
6726.56,87.06252121212121,86.51024770554247,78.37651276826887,82.70295568101034,43.80729202453213,48.1337349372736,40
6963.87,86.92642121212121,86.28982509531605,78.54613380036926,82.766684422642,43.523140672674046,47.743691294946785,40
7209.96,86.8005212121212,86.15597803552647,78.52839358119898,82.56523411126469,43.59074392426179,47.62758445432749,40
7464.84,86.71712121212121,86.1511917948631,78.33050012477204,82.43383415387865,43.717357640984446,47.82069167009105,40
7727.05,86.61422121212122,86.07948619305697,78.20836317876389,82.35164805242766,43.7278381406293,47.871123014293076,40
7999.51,86.76952121212122,86.26891759108867,78.2875781981912,82.39711437084867,43.87180322024,47.98133939289747,40
