Freq,On Axis,Listening Window,Sound Power,Early Reflections,Early Reflections DI,Sound Power DI,DI offset
22.4,48.7,48.57958613187891,47.69855409517906,48.200750465978686,30.378835665900226,30.88103203669985,30
23.0,49.7,49.51359460825354,48.64571150802574,49.15094892249358,30.362645685759958,30.8678831002278,30
23.6,50.60000000000001,50.47958613187892,49.588437779940804,50.08746400448639,30.392122127392525,30.891148351938114,30
24.0,51.499999999999986,51.37958613187892,50.49316166846695,50.9874640044864,30.392122127392525,30.88642446341197,30
25.0,52.39999999999999,52.2795861318789,51.39867953520063,51.90191768560085,30.37766844627805,30.880906596678273,30
25.8,53.3,53.179586131878935,52.29151497721533,52.78746400448641,30.392122127392525,30.888071154663606,30
26.5,54.2,54.059409582063026,53.18567153479658,53.681794976963616,30.37761460509941,30.873738047266443,30
27.2,55.10000000000001,54.9497421883397,54.05800642767339,54.56131412165401,30.38842806668569,30.891735760666307,30
28.0,55.89999999999999,55.77958613187893,54.92729499438228,55.429638905927945,30.349947225950984,30.85229113749665,30
29.0,56.8,56.65940958206305,55.78567153479658,56.28179497696361,30.37761460509944,30.87373804726647,30
30.0,57.60000000000001,57.47958613187892,56.610928675623896,57.11082790648358,30.36875822539534,30.868657456255022,30
30.7,58.5,58.31359460825354,57.443852946565926,57.94443039760236,30.369164210651178,30.869741661687613,30
31.5,59.3,59.14974218833969,58.262184030001094,58.76751533717237,30.382226851167317,30.887558158338592,30
32.5,60.10000000000001,59.9497421883397,59.05800642767339,59.56131412165402,30.388428066685677,30.891735760666307,30
33.5,60.8,60.70211355980126,59.835297658633564,60.33592952063675,30.36618403916451,30.866815901167698,30
34.5,61.60000000000001,61.47958613187893,60.60366554748812,61.10865349411446,30.37093263776447,30.875920584390812,30
35.5,62.39999999999999,62.25940958206304,61.38567153479657,61.881794976963604,30.37761460509944,30.87373804726647,30
36.5,63.2,63.05940958206304,62.18567153479658,62.681794976963616,30.377614605099424,30.873738047266457,30
37.5,64.00000000000001,63.85940958206304,62.98567153479658,63.48179497696361,30.377614605099424,30.873738047266457,30
38.7,64.8,64.6795861318789,63.79867953520062,64.30191768560084,30.377668446278065,30.880906596678287,30
40.0,65.7,65.54974218833969,64.6580064276734,65.161314121654,30.38842806668569,30.891735760666293,30
41.2,66.59999999999998,66.39112680950585,65.53167993940134,66.03465723843071,30.356469571075138,30.859446870104506,30
42.5,67.4,67.27958613187892,66.4109286756239,66.91082790648358,30.36875822539534,30.868657456255022,30
43.7,68.3,68.17958613187893,67.29151497721531,67.78746400448641,30.392122127392525,30.88807115466362,30
45.0,69.2,69.03754098167484,68.14775368549464,68.65573584168548,30.381805139989353,30.889787296180202,30
46.2,70.0,69.81359460825355,68.93568820405119,69.44094059369844,30.37265401455511,30.877906404202363,30
47.5,70.7,70.54974218833969,69.66358802819256,70.16751533717236,30.38222685116733,30.88615416014713,30
48.7,71.3,71.17958613187892,70.28728984051055,70.78584349862298,30.39374263325594,30.892296291368368,30
50.0,71.8,71.67958613187892,70.80366554748814,71.30865349411447,30.370932637764454,30.875920584390784,30
51.5,72.2,72.07958613187891,71.19867953520063,71.70191768560085,30.377668446278065,30.880906596678287,30
53.0,72.5,72.35940958206304,71.46955422276706,71.96956396003696,30.389845622026073,30.88985535929598,30
54.5,72.7,72.54974218833969,71.66358802819258,72.16751533717236,30.38222685116733,30.886154160147115,30
56.0,72.8,72.64974218833969,71.7743438174597,72.27424001239986,30.37550217593983,30.875398370879992,30
58.0,72.8,72.67958613187892,71.82399327568316,72.31470212919756,30.364884002681364,30.855592856195756,30
60.0,72.90000000000002,72.71359460825353,71.85211753046353,72.35305326230204,30.36054134595149,30.86147707779,30
61.5,72.90000000000002,72.74974218833968,71.86358802819257,72.36751533717236,30.382226851167317,30.886154160147115,30
63.0,72.90000000000002,72.75940958206304,71.86902409241263,72.37143148411064,30.3879780979524,30.890385489650413,30
65.0,72.90000000000002,72.77958613187892,71.92711135624697,72.42963890592794,30.34994722595097,30.852474775631947,30
67.0,72.99999999999999,72.87958613187892,71.990085638149,72.4874640044864,30.392122127392525,30.889500493729926,30
69.0,73.1,72.97958613187892,72.08826618642088,72.5874640044864,30.39212212739251,30.891319945458036,30
71.0,73.2,73.07958613187891,72.20058831770417,72.70865349411447,30.37093263776444,30.87899781417474,30
73.0,73.4,73.23754098167484,72.3513684827988,72.86541799488366,30.372122986791183,30.886172498876036,30
75.0,73.6,73.39112680950583,72.52531189543579,73.03285861524033,30.358268194265506,30.865814914070043,30
77.5,73.7,73.57958613187891,72.69684059002103,73.20075046597866,30.378835665900255,30.882745541857886,30
80.0,73.9,73.77958613187892,72.89862962435576,73.40191768560085,30.377668446278065,30.880956507523152,30
82.5,74.09999999999998,73.97958613187893,73.1222734335686,73.62337776799392,30.356208363885017,30.857312698310338,30
85.0,74.39999999999999,74.24974218833968,73.37760303584368,73.87424001239985,30.37550217593983,30.872139152496004,30
87.5,74.6,74.45940958206305,73.61122119908812,74.09844812701037,30.360961455052674,30.848188382974925,30
90.0,74.8,74.71441456305311,73.8865011114734,74.36679513588047,30.347619427172646,30.827913451579718,30
92.5,75.10000000000001,74.97958613187892,74.13841409490887,74.6234554371976,30.356130694681312,30.84117203697005,30
95.0,75.40000000000002,75.24974218833968,74.39540704373546,74.89035712413927,30.35938506420041,30.85433514460422,30
97.5,75.6,75.51441456305311,74.66361895543079,75.15140895704553,30.363005606007576,30.850795607622317,30
100.0,75.9,75.77958613187893,74.90736856681089,75.4040954722046,30.375490659674327,30.87221756506804,30
103.0,76.2,76.07958613187891,75.15878551319263,75.67704504418624,30.40254108769267,30.920800618686286,30
106.0,76.50000000000001,76.36746859898822,75.39539449766868,75.93520717877786,30.432261420210367,30.97207410131955,30
109.0,76.8,76.62201814070242,75.60816644698703,76.17533926462086,30.446678876081563,31.013851693715395,30
112.0,77.1,76.88780716405343,75.82156256475416,76.41675838913392,30.47104877491951,31.066244599299267,30
115.0,77.4,77.15252438764429,75.96595227889092,76.60522572563059,30.547298662013702,31.186572108753367,30
118.0,77.60000000000001,77.3525243876443,76.12130329630874,76.78609578226799,30.566428605376302,31.231221091335556,30
122.0,77.8,77.54114592875872,76.22136182127284,76.91297231457709,30.628173614181634,31.319784107485887,30
125.0,77.99999999999999,77.67421586909354,76.27052457327295,77.00862871537323,30.66558715372031,31.403691295820593,30
128.0,77.99999999999999,77.7611547871038,76.28974070090408,77.06000344092719,30.701151346176616,31.47141408619973,30
132.0,78.1,77.77301407212184,76.25911006433303,77.05024046513601,30.722773606985825,31.51390400778881,30
136.0,78.1,77.78308251146873,76.1971723670528,77.01731510773662,30.765767403732113,31.585910144415934,30
140.0,78.1,77.75992744307256,76.10867917886141,76.96383363368896,30.796093809383592,31.651248264211148,30
145.0,78.1,77.74908026958819,76.0054723044142,76.89285075339122,30.856229516196976,31.743607965173993,30
150.0,77.99999999999999,77.69182335066746,75.89317349286914,76.80748778030005,30.884335570367412,31.798649857798324,30
155.0,77.99999999999999,77.63668936467566,75.75904566820351,76.70689870820091,30.92979065647475,31.87764369647215,30
160.0,77.99999999999999,77.61434103439049,75.6324863375224,76.6241582896845,30.99018274470599,31.981854696868098,30
165.0,77.90000000000002,77.59056469391147,75.51134198162029,76.5490416745062,31.041523019405275,32.079222712291184,30
170.0,77.90000000000002,77.56899626128238,75.38676110294769,76.46779414077959,31.10120212050279,32.18223515833469,30
175.0,77.90000000000002,77.5579192859252,75.27383276218872,76.39743631488506,31.16048297104014,32.28408652373648,30
180.0,77.90000000000002,77.5579192859252,75.17010262649195,76.35203080358089,31.205888482344307,32.38781665943324,30
185.0,77.90000000000002,77.56925394077533,75.05297116998901,76.29702724756271,31.272226693212616,32.51628277078632,30
190.0,77.90000000000002,77.61329641458346,74.95244171918132,76.24648979171346,31.36680662287,32.660854695402136,30
195.0,77.90000000000002,77.635650107205,74.85285838867462,76.21530085153407,31.420349255670928,32.782791718530376,30
200.0,77.99999999999999,77.64757914694526,74.75188283719908,76.17604269374127,31.471536453203996,32.895696309746185,30
206.0,77.99999999999999,77.71329641458347,74.66037855101247,76.14865503087564,31.564641383707823,33.052917863571,30
212.0,77.99999999999999,77.71329641458347,74.55736436208782,76.11199811153763,31.601298303045837,33.15593205249564,30
218.0,78.1,77.73644734062965,74.45074524146251,76.06413079776978,31.672316542859875,33.28570209916714,30
224.0,78.1,77.75817762346647,74.31664021948104,76.00528144511144,31.75289617835503,33.44153740398542,30
230.0,78.1,77.72502662649408,74.17760683665435,75.91492595249362,31.810100674000466,33.547419789839736,30
236.0,78.1,77.72502662649408,74.02078839068804,75.81984644665145,31.90518017984263,33.704238235806045,30
240.0,77.99999999999999,77.66899626128237,73.8277406384655,75.67416687979734,31.994829381485033,33.841255622816874,30
250.0,77.99999999999999,77.5708245313428,73.60408435931932,75.4835736542776,32.08725087706519,33.96674017202348,30
258.0,77.8,77.44757914694524,73.33755302485152,75.25583540238263,32.191743744562615,34.11002612209373,30
265.0,77.7,77.30388471893524,73.05685804223657,75.01991958091168,32.28396513802356,34.24702667669867,30
272.0,77.5,77.14807373055383,72.75604164972269,74.74967758999237,32.39839614056146,34.39203208083114,30
280.0,77.4,76.99440509420647,72.45724220431653,74.48459383806308,32.509811256143394,34.53716288988994,30
290.0,77.2,76.85007506104326,72.16843553719723,74.2381284153133,32.61194664572996,34.68163952384603,30
300.0,77.1,76.75085156565544,71.91940336227852,74.02365904884154,32.7271925168139,34.83144820337692,30
307.0,77.0,76.66364398351502,71.66998589011963,73.83740167872173,32.82624230479328,34.99365809339538,30
315.0,77.0,76.63054076386274,71.45324698435877,73.68892629363161,32.94161447023113,35.17729377950397,30
325.0,77.0,76.65280610027918,71.31249217710457,73.62025389176178,33.0325522085174,35.340313923174605,30
335.0,77.0,76.72099834042187,71.18916198117724,73.5760942144899,33.14490412593197,35.531836359244636,30
345.0,77.1,76.82099834042188,71.11422000131867,73.57558233648685,33.245416003935034,35.70677833910321,30
355.0,77.3,76.95626650723655,71.0756049060151,73.61873461832428,33.33753188891227,35.88066160122145,30
365.0,77.4,77.10146964125477,71.05458789106821,73.65724023979759,33.44422940145718,36.04688175018656,30
375.0,77.60000000000001,77.25626650723655,71.06322729551242,73.7188692153382,33.537397291898344,36.19303921172413,30
387.0,77.8,77.43689610721152,71.07540717496019,73.77822905352814,33.65866705368339,36.36148893225133,30
400.0,77.99999999999999,77.59100058894906,71.09833526388338,73.83196558678148,33.75903500216758,36.49266532506567,30
412.0,78.1,77.71452508159898,71.12776692730942,73.87439157164665,33.840133509952324,36.586758154289555,30
425.0,78.2,77.81452508159899,71.14455254037051,73.88311691378104,33.93140816781795,36.669972541228475,30
437.0,78.4,77.93744607092471,71.18031259956201,73.90443346415047,34.033012606774236,36.75713347136269,30
450.0,78.5,78.03928161202539,71.19553431691482,73.92273862036112,34.116542991664275,36.843747295110575,30
462.0,78.6,78.09623675443304,71.18656787293075,73.90102348404263,34.19521327039041,36.909668881502284,30
475.0,78.7,78.20907666964345,71.19629208564125,73.92454850934318,34.28452816030027,37.012784584002205,30
487.0,78.8,78.30882715434639,71.15934218657245,73.91606502410117,34.39276213024522,37.149484967773944,30
500.0,79.00000000000001,78.39200807347524,71.09023639745156,73.90840379575168,34.48360427772356,37.30177167602368,30
515.0,79.09999999999998,78.49200807347525,70.9922112823274,73.88523356264483,34.60677451083042,37.499796791147844,30
530.0,79.2,78.57416061215214,70.87189299483164,73.85554307212819,34.718617540023956,37.7022676173205,30
545.0,79.39999999999999,78.6881153517561,70.7926415333822,73.8670421920266,34.821073159729494,37.8954738183739,30
560.0,79.5,78.78960331917175,70.68881752015926,73.8572883245373,34.93231499463445,38.100785799012485,30
580.0,79.6,78.9081701528883,70.60782356667706,73.86174205458461,35.04642809830369,38.30034658621125,30
600.0,79.8,79.01157861813836,70.5587524698918,73.89248947354282,35.119089144595534,38.45282614824656,30
615.0,79.9,79.0619307853765,70.48527424155147,73.87716873079147,35.184762054585036,38.57665654382504,30
630.0,80.0,79.11012276000703,70.45318692704406,73.87367351375586,35.23644924625117,38.65693583296297,30
650.0,80.0,79.14742216837928,70.43388602454993,73.87058296772598,35.2768392006533,38.713536143829344,30
670.0,80.0,79.1446936308724,70.44169227025718,73.86583452161196,35.27885910926044,38.70300136061522,30
690.0,80.0,79.1446936308724,70.45760599820778,73.8600500899128,35.28464354095959,38.687087632664614,30
710.0,80.0,79.11038802276244,70.48837827531041,73.855299298258,35.25508872450443,38.622009747452026,30
730.0,80.0,79.0986304946419,70.55256207527532,73.87827999689227,35.22035049774962,38.54606841936658,30
750.0,80.0,79.08710976608405,70.63033994086416,73.90557134139468,35.18153842468938,38.456769825219894,30
775.0,80.0,79.04255815176509,70.70318659472291,73.92227774643209,35.120280405333006,38.339371557042185,30
800.0,80.0,79.00596854775021,70.78999470379004,73.93545918180202,35.0705093659482,38.21597384396017,30
825.0,79.9,78.98137036950529,70.85996147788933,73.94996771118785,35.03140265831743,38.12140889161596,30
850.0,79.9,78.95059990864716,70.91936349314562,73.97427800763708,34.97632190101008,38.03123641550154,30
875.0,79.9,78.94045579278698,70.99870504942017,74.01038493605294,34.930070856734034,37.94175074336681,30
900.0,79.9,78.93893489380007,71.08866128641415,74.06003779618133,34.87889709761873,37.850273607385915,30
925.0,79.9,78.97803049583744,71.16625203715431,74.12563064548995,34.852399850347496,37.811778458683136,30
950.0,79.9,78.99635690539814,71.23698026257496,74.16511016135313,34.83124674404502,37.759376642823185,30
975.0,79.9,79.01000153367491,71.31767387686722,74.22028830454619,34.78971322912872,37.69232765680769,30
1000.0,80.0,79.06840950257642,71.40792102387654,74.30100531208309,34.76740419049332,37.660488478699875,30
1030.0,80.0,79.10129741007124,71.4853011200506,74.36453470237097,34.736762707700265,37.61599629002065,30
1060.0,80.0,79.1689754938974,71.56675352205013,74.43451979192807,34.73445570196934,37.60222197184727,30
1090.0,80.10000000000001,79.22762132500573,71.64804772818093,74.51403522270247,34.71358610230325,37.5795735968248,30
1120.0,80.2,79.29256621220371,71.72673991297005,74.58577964495444,34.70678656724927,37.56582629923366,30
1150.0,80.2,79.32824133292723,71.76153063993037,74.61885832383786,34.70938300908938,37.566710692996864,30
1180.0,80.3,79.41894294228106,71.82026113477413,74.6959698139163,34.72297312836476,37.598681807506935,30
1220.0,80.40000000000002,79.48401676833167,71.85025248449831,74.7420559041218,34.74196086420987,37.63376428383336,30
1250.0,80.40000000000002,79.51044531648598,71.8327298755025,74.75341573171,34.75702958477598,37.67771544098349,30
1280.0,80.49999999999999,79.61044531648598,71.82953585315492,74.79739157303754,34.813053743448435,37.78090946333106,30
1320.0,80.6,79.64756420838697,71.78779577363596,74.80020495117643,34.84735925721054,37.859768434751004,30
1360.0,80.6,79.66522410418476,71.71537950915413,74.78597214717801,34.879251957006744,37.949844595030626,30
1400.0,80.7,79.74818741441294,71.67050359061847,74.81224262975341,34.935944784659526,38.07768382379447,30
1450.0,80.8,79.76215912465874,71.61801391870995,74.79847610007411,34.963683024584626,38.14414520594879,30
1500.0,80.8,79.78078156951479,71.53979507285476,74.77941920358974,35.00136236592505,38.24098649666003,30
1550.0,80.9,79.83804589837435,71.5220328553314,74.81420308304163,35.02384281533271,38.31601304304294,30
1600.0,81.0,79.85237588544062,71.49774583075897,74.81277489320203,35.03960099223859,38.35463005468165,30
1650.0,81.0,79.88024769436278,71.47716540632203,74.81922168750118,35.061026006861596,38.40308228804075,30
1700.0,81.1,79.93883930395312,71.50731760138437,74.87437032669486,35.06446897725826,38.431521702568745,30
1750.0,81.2,79.95349984239634,71.53034249854335,74.89303017516887,35.060469667227466,38.42315734385299,30
1800.0,81.3,79.98959620401405,71.54595326988824,74.92854564676576,35.061050557248294,38.443642934125805,30
1850.0,81.3,80.03487566682789,71.592031789724,74.97958931221916,35.055286354608725,38.44284387710388,30
1900.0,81.4,80.04989077779324,71.61819006777337,74.9998370073115,35.05005377048174,38.43170071001987,30
1950.0,81.4,80.07227757821212,71.65012887934581,75.03115897771222,35.0411186004999,38.42214869886631,30
2000.0,81.4,80.05776637278989,71.63400745897233,75.02408357450304,35.03368279828685,38.42375891381755,30
2060.0,81.50000000000001,80.05887216187205,71.61450049583371,75.02467702693684,35.0341951349352,38.444371666038336,30
2120.0,81.50000000000001,80.05136881572867,71.58850524232383,75.01388261465264,35.03748620107602,38.46286357340483,30
2180.0,81.4,80.02220723006347,71.55358513197845,74.98619653193413,35.036010698129346,38.46862209808502,30
2240.0,81.4,79.97900106061456,71.50435012123496,74.9440964324026,35.03490462821196,38.4746509393796,30
2300.0,81.4,79.98360855870267,71.47782441964763,74.94152897789583,35.04207958080684,38.50578413905504,30
2360.0,81.4,79.9698315899805,71.4629178622789,74.93877194748734,35.03105964249316,38.5069137277016,30
2400.0,81.4,80.00567406744649,71.48916032881384,74.97573379450058,35.02994027294591,38.51651373863265,30
2500.0,81.4,80.01157174424459,71.49894825187197,74.98866810272992,35.022903641514674,38.512623492372626,30
2580.0,81.50000000000001,80.06862785927417,71.55043019020785,75.06053483835805,35.00809302091612,38.518197669066325,30
2650.0,81.59999999999998,80.12674191844047,71.62884351292264,75.1388031491701,34.98793876927037,38.49789840551783,30
2720.0,81.59999999999998,80.15906495781243,71.72345007740347,75.20586431035639,34.95320064745604,38.43561488040896,30
2800.0,81.7,80.24272160501799,71.84972380845295,75.32129925838008,34.92142234663791,38.39299779656504,30
2900.0,81.8,80.33590014161,71.9579978450615,75.43654275627254,34.89935738533745,38.3779022965485,30
3000.0,81.89999999999999,80.41645325746252,72.06655746492233,75.54279449631203,34.873658761150494,38.349895792540195,30
3070.0,81.89999999999999,80.47715080626419,72.17671318434257,75.63976796899607,34.83738283726812,38.30043762192162,30
3150.0,82.0,80.52452062998101,72.25996583058198,75.71741285836367,34.80710777161734,38.264554799399036,30
3250.0,82.0,80.58743504453058,72.3185042554756,75.79092866621285,34.79650637831773,38.26893078905498,30
3350.0,82.0,80.61207852359172,72.36672120690422,75.83732643837361,34.77475208521811,38.2453573166875,30
3450.0,82.0,80.6430781896713,72.38904997958468,75.87598616153143,34.76709202813987,38.25402821008662,30
3550.0,82.0,80.62022145544508,72.41378814346089,75.88576572713602,34.73445572830906,38.206433311984185,30
3650.0,82.0,80.65021426967758,72.45034946042338,75.93275717033386,34.71745709934372,38.199864809254194,30
3750.0,81.89999999999999,80.64429334932423,72.44266892175082,75.93291424442329,34.71137910490094,38.20162442757341,30
3870.0,81.89999999999999,80.67762939462617,72.48939500580384,75.98400819037447,34.6936212042517,38.18823438882232,30
4000.0,81.89999999999999,80.74748205013398,72.54425790443403,76.0552058775805,34.69227617255348,38.20322414569995,30
4120.0,82.0,80.83101868520797,72.64528410314047,76.15203892525369,34.678979759954274,38.1857345820675,30
4250.0,82.0,80.90794650787487,72.71881637373923,76.22985077416398,34.67809573371089,38.18913013413564,30
