Freq "Ceiling Bounce"
22.4 55.05466699508999
23.0 56.01952526724507
23.6 56.954666995089966
24.0 58.05466699508999
25.0 59.08647057877731
25.8 60.21952526724506
26.5 61.31952526724507
27.2 62.58647057877732
28.0 63.719525267245075
29.0 65.01952526724507
30.0 66.21952526724507
30.7 67.41952526724506
31.5 68.68647057877732
32.5 69.91952526724506
33.5 71.11952526724508
34.5 72.31952526724507
35.5 73.4864705787773
36.5 74.68647057877732
37.5 75.81952526724507
38.7 76.91952526724506
40.0 78.01952526724507
41.2 79.05466699508999
42.5 80.11952526724507
43.7 81.05466699508997
45.0 82.01952526724507
46.2 82.88647057877732
47.5 83.71952526724507
48.7 84.51952526724507
50.0 85.21952526724507
51.5 85.85466699508999
53.0 86.41952526724508
54.5 86.91952526724506
56.0 87.35466699508999
58.0 87.71952526724507
60.0 87.95466699508997
61.5 88.15466699508998
63.0 88.25466699508998
65.0 88.25466699508998
67.0 88.25466699508998
69.0 88.15466699508998
71.0 88.05466699508999
73.0 87.92336070655715
75.0 87.79033530843073
77.5 87.69033530843073
80.0 87.55928600092231
82.5 87.49033530843073
85.0 87.39033530843072
87.5 87.32336070655714
90.0 87.2592860009223
92.5 87.1592860009223
95.0 87.0592860009223
97.5 86.95928600092229
100.0 86.79574302227687
103.0 86.69574302227687
106.0 86.59574302227686
109.0 86.43273509703896
112.0 86.23273509703895
115.0 85.99574302227687
118.0 85.63273509703895
122.0 85.23273509703897
125.0 84.73273509703895
128.0 84.24048056646278
132.0 83.74048056646278
136.0 83.24048056646278
140.0 82.57881312562334
145.0 81.72859181597117
150.0 80.81369252060179
155.0 80.04457803295092
160.0 79.45038227097498
165.0 78.82436645183704
170.0 78.22583398685312
175.0 77.69964198649772
180.0 77.20729518735159
185.0 76.6372746417431
190.0 75.99892322766583
195.0 75.48317643306315
200.0 75.10051031195196
206.0 74.63703335098288
212.0 73.97485986345232
218.0 73.17485986345234
224.0 72.39112412896675
230.0 71.62460564558386
236.0 71.13884727052715
240.0 71.03957604019635
250.0 71.09528251851133
258.0 71.18208838581243
265.0 71.44048056646278
272.0 72.45928600092229
280.0 73.85689737565745
290.0 75.12177376386725
300.0 75.89094920650695
307.0 76.46061344555108
315.0 77.16061344555105
325.0 77.6323826184696
335.0 77.53995254686234
345.0 77.02608826301874
355.0 76.35191832754937
365.0 75.65115342981153
375.0 75.66941106408034
387.0 76.28914714942852
400.0 76.53365044055614
412.0 75.92436645183705
425.0 74.61836135422965
437.0 73.58068884571583
450.0 73.23087914985985
462.0 72.63978422988053
475.0 72.16442013349551
487.0 71.53881786580085
500.0 70.49636984782438
515.0 69.34418578284786
530.0 69.0382530830915
545.0 70.32872747935873
560.0 71.56544084499807
580.0 72.27026543979703
600.0 73.770265439797
615.0 75.31777397572368
630.0 75.93052409147256
650.0 75.30481516442411
670.0 73.69578936130242
690.0 72.01639076457965
710.0 69.25970838196022
730.0 66.40714587630686
750.0 69.6400962803564
775.0 71.57449091770518
800.0 70.24222243973895
825.0 69.28783659697255
850.0 69.02711667363583
875.0 64.9374719511364
900.0 64.87976697921897
925.0 65.39789895495726
950.0 64.54244015044513
975.0 69.90652454645063
1000.0 72.9304507773638
1030.0 70.68674908089663
1060.0 71.69518566374042
1090.0 71.04914185158047
1120.0 71.31970181672959
1150.0 67.86796785627936
1180.0 62.95732871549434
1220.0 66.06438386810918
1250.0 68.34725635813749
1280.0 69.91769142246895
1320.0 74.35059285471523
1360.0 76.73238108500237
1400.0 76.51977119548903
1450.0 75.67090151426243
1500.0 72.11732665844153
1550.0 76.66813707588724
1600.0 76.71502927064768
1650.0 76.9349820475027
1700.0 71.70041809303557
1750.0 68.56432802576492
1800.0 69.66497585079061
1850.0 69.36941106408032
1900.0 70.66943849432845
1950.0 74.3423744194084
2000.0 74.55306074523334
2060.0 71.60109214137573
2120.0 72.97804957958243
2180.0 75.19505820951407
2240.0 74.56041746090192
2300.0 74.52313400551819
2360.0 71.49723575345433
2400.0 69.73144658261053
2500.0 70.27334077713324
2580.0 67.48539185924642
2650.0 70.61205191146968
2720.0 70.27865112628989
2800.0 74.04172023549104
2900.0 70.88094346524271
3000.0 68.81909920700397
3070.0 71.54874046459832
3150.0 72.6366773023655
3250.0 67.0321419065298
3350.0 68.80712209663652
3450.0 66.20138911151756
3550.0 72.98142743948675
3650.0 72.37932296884338
3750.0 72.93648472243684
3870.0 70.4520374209563
4000.0 72.24016301659441
4120.0 69.97709585454245
4250.0 70.39771812215756
4370.0 72.92663256472622
4500.0 76.86580647001308
4620.0 75.33727464174312
4750.0 74.44562368960796
4870.0 75.46470492249351
5000.0 76.685613582682
5150.0 81.17485986345233
5300.0 84.4540453850975
5450.0 83.1247370825463
5600.0 83.31038829076586
5800.0 87.43258340196219
6000.0 90.49798692801438
6150.0 89.33312624140692
6300.0 88.74022020551223
6500.0 87.23931930496792
6700.0 85.3493593061198
6900.0 83.46798223495757
7100.0 84.0226438517402
7300.0 84.26616283120582
7500.0 82.76835550404279
7750.0 81.73813199175147
8000.0 78.26725931381962
8250.0 78.6385345082311
8500.0 79.04364765869241
8750.0 74.38843092445049
9000.0 72.29198245819613
9250.0 72.08691151863142
9500.0 68.98033232592341
9750.0 71.31641673827208
10000.0 70.72711433998028
10300.0 72.78045021836036
10600.0 75.06740497924382
10900.0 79.05787203068711
11200.0 75.58344047386488
11500.0 76.34818494938081
11800.0 83.34642964302982
12200.0 83.62994626010982
12500.0 82.74668082328121
12800.0 82.61921054717541
13200.0 81.88952229036359
13600.0 82.14580833390109
14000.0 84.1233318275503
14500.0 83.35069435072583
15000.0 83.93380909620932
15500.0 82.2333520233191
16000.0 81.50315574735014
16500.0 79.88098264109293
17000.0 79.29300580820451
17500.0 81.48522509511426
18000.0 67.32409830104832
18500.0 56.159480484053134
19000.0 60.061151627592764
19500.0 44.72708686633949
