Freq "Front Wall Bounce"
22.4 55.10000000000001
23.0 56.0431393953378
23.6 56.999999999999986
24.0 58.10000000000001
25.0 59.10000000000001
25.8 60.24313939533782
26.5 61.3716627539189
27.2 62.60000000000001
28.0 63.74313939533782
29.0 65.0
30.0 66.2
30.7 67.44313939533782
31.5 68.7
32.5 69.89999999999999
33.5 71.14313939533781
34.5 72.34313939533781
35.5 73.54313939533782
36.5 74.71442746339747
37.5 75.90000000000002
38.7 77.00000000000001
40.0 78.10000000000001
41.2 79.17166275391891
42.5 80.21442746339747
43.7 81.24313939533782
45.0 82.17166275391891
46.2 83.07166275391891
47.5 83.9716627539189
48.7 84.74313939533782
50.0 85.4861845050195
51.5 86.17166275391891
53.0 86.7716627539189
54.5 87.34313939533781
56.0 87.77166275391892
58.0 88.17166275391891
60.0 88.47166275391889
61.5 88.67166275391891
63.0 88.87166275391891
65.0 88.94313939533782
67.0 88.94313939533782
69.0 88.94313939533782
71.0 88.87166275391891
73.0 88.7716627539189
75.0 88.74313939533782
77.5 88.67166275391891
80.0 88.64313939533781
82.5 88.64313939533781
85.0 88.64313939533781
87.5 88.64313939533781
90.0 88.64313939533781
92.5 88.64313939533781
95.0 88.6
97.5 88.64313939533781
100.0 88.6
103.0 88.67166275391891
106.0 88.6
109.0 88.6
112.0 88.6
115.0 88.49999999999999
118.0 88.3
122.0 88.08585448910237
125.0 87.8
128.0 87.5
132.0 87.3
136.0 87.09999999999998
140.0 86.9
145.0 86.52880715674529
150.0 86.24313939533782
155.0 86.11508314243885
160.0 86.01508314243883
165.0 85.94379075419728
170.0 85.7861845050195
175.0 85.61508314243883
180.0 85.4861845050195
185.0 85.4
190.0 85.27166275391892
195.0 85.27166275391892
200.0 85.4
206.0 85.5
212.0 85.4
218.0 85.15742449135816
224.0 84.82880715674528
230.0 84.50000000000001
236.0 84.3
240.0 84.32880715674528
250.0 84.32880715674528
258.0 84.08651449586095
265.0 83.78651449586096
272.0 84.01608174351878
280.0 84.51608174351878
290.0 84.77463452918082
300.0 84.49147828382367
307.0 83.95105825681372
315.0 83.62239880304931
325.0 83.2223988030493
335.0 82.43579562115
345.0 81.6441315667916
355.0 80.97166275391889
365.0 80.20165212437172
375.0 79.81871865150548
387.0 79.90726421930293
400.0 79.90126136965907
412.0 79.66346945585214
425.0 79.52579638388721
437.0 79.85366387780147
450.0 80.26193901340311
462.0 80.11155865308227
475.0 80.54422812821551
487.0 81.3446225855877
500.0 81.72611266914517
515.0 81.62611266914517
530.0 81.22611266914517
545.0 81.10669169661841
560.0 81.33377777961884
580.0 81.55268458216538
600.0 82.08049974400133
615.0 82.48519702833981
630.0 82.6563032996247
650.0 82.51467853559537
670.0 82.06373611801398
690.0 81.90743452896757
710.0 81.89177750674625
730.0 82.31998423401444
750.0 81.68585448910237
775.0 81.16200235493231
800.0 81.264828691265
825.0 81.70037240417695
850.0 82.13869405832325
875.0 80.0731360565236
900.0 79.31787145777737
925.0 80.37738113455762
950.0 81.25711220530395
975.0 82.6448919258981
1000.0 83.30834649607145
1030.0 82.75865901682592
1060.0 82.28672376202965
1090.0 83.57991623921068
1120.0 84.12806478420042
1150.0 84.86915009595424
1180.0 86.29326599014053
1220.0 86.76373611801398
1250.0 86.68534427065696
1280.0 86.33135726789301
1320.0 85.79459250918227
1360.0 83.98661721096327
1400.0 84.1154787045946
1450.0 83.78449465631121
1500.0 83.96403471254025
1550.0 85.06846766589874
1600.0 85.92949199429974
1650.0 85.77314062201694
1700.0 85.83709684383804
1750.0 84.59029087398125
1800.0 84.53277699399139
1850.0 82.94021829886682
1900.0 81.96761373233359
1950.0 81.9342708187737
2000.0 83.79073916918517
2060.0 83.15827291973169
2120.0 83.14466681922245
2180.0 84.4154550636253
2240.0 84.9806965495011
2300.0 85.85424635625807
2360.0 84.88290340222883
2400.0 83.61154006365709
2500.0 82.70091907661063
2580.0 82.64238303194846
2650.0 81.60506444367373
2720.0 82.62143472781929
2800.0 83.31522914983823
2900.0 83.28315276339474
3000.0 83.57381515345708
3070.0 83.80258263830711
3150.0 83.63285339061237
3250.0 83.32691607490808
3350.0 83.65923203800297
3450.0 83.21821932681938
3550.0 83.67628239368614
3650.0 83.64215858898943
3750.0 83.81694795427912
3870.0 84.81760973107583
4000.0 84.81864534227593
4120.0 83.99693296038281
4250.0 84.24474948833044
4370.0 85.19597469427741
4500.0 84.39830886570768
4620.0 83.2468901650911
4750.0 84.17685659781057
4870.0 85.18470815246553
5000.0 84.51453763407362
5150.0 84.08482684589886
5300.0 84.92713743963161
5450.0 82.64475835749525
5600.0 82.35392156565099
5800.0 83.98890625749682
6000.0 82.75391504499522
6150.0 80.45283947925122
6300.0 82.96197857206458
6500.0 81.02094103662027
6700.0 85.49016016712515
6900.0 87.2234773005731
7100.0 84.5082029410769
7300.0 83.95283598247389
7500.0 85.08483541741639
7750.0 83.40979434087215
8000.0 82.92719481155639
8250.0 86.11349956008239
8500.0 84.94421422244498
8750.0 81.40661867382964
9000.0 79.9795383713888
9250.0 81.2481477516954
9500.0 82.06775936940825
9750.0 79.55851727761323
10000.0 77.6280423590322
10300.0 80.68814842972641
10600.0 84.86854713876767
10900.0 83.76710995896362
11200.0 86.15431419230973
11500.0 83.32152965784478
11800.0 82.00439760936722
12200.0 78.91205800772595
12500.0 75.72924821528
12800.0 79.27666619252534
13200.0 82.4400962600003
13600.0 85.64263923716413
14000.0 81.02500441578566
14500.0 87.86225681085625
15000.0 87.61035710076432
15500.0 86.26084832715468
16000.0 83.70855859238357
16500.0 82.0443625527531
17000.0 86.49072951207253
17500.0 85.58910769436523
18000.0 82.60934870108474
18500.0 76.64967854095902
19000.0 71.04010201861985
19500.0 60.02391135694164
