Freq "Floor Bounce"
22.4 45.80190565802711
23.0 46.08126242595502
23.6 46.17131751433742
24.0 45.99272765338212
25.0 45.26512911208583
25.8 44.685098204791856
26.5 44.51903234364802
27.2 44.735578467459376
28.0 45.50791437232611
29.0 46.527746311277966
30.0 47.36024099189508
30.7 48.35477168396808
31.5 49.434697733608985
32.5 50.66878033996791
33.5 51.87383110211924
34.5 53.06336865784944
35.5 54.3210416629875
36.5 55.5526095320222
37.5 56.81627940083642
38.7 58.08407839372548
40.0 59.45237800738083
41.2 60.88335937246298
42.5 62.084078393725505
43.7 63.34680983520816
45.0 64.51627940083641
46.2 65.64898514879552
47.5 66.8489851487955
48.7 68.04898514879551
50.0 69.08219967332303
51.5 70.01592692226706
53.0 70.88219967332304
54.5 71.71592692226706
56.0 72.5457671943847
58.0 73.51592692226706
60.0 74.47977745790568
61.5 75.3457671943847
63.0 76.27977745790568
65.0 77.40986628672329
67.0 78.47449351030437
69.0 79.5098662867233
71.0 80.5053180676647
73.0 81.27449351030438
75.0 81.9053180676647
77.5 82.8053180676647
80.0 83.70531806766472
82.5 84.37150800786937
85.0 84.77150800786939
87.5 84.90531806766471
90.0 85.43663575667186
92.5 86.13663575667186
95.0 86.87150800786937
97.5 87.47150800786937
100.0 88.17150800786938
103.0 88.77150800786939
106.0 89.17150800786938
109.0 89.37150800786937
112.0 89.57150800786937
115.0 89.67150800786938
118.0 89.70306957104252
122.0 89.77150800786939
125.0 89.80306957104251
128.0 89.73821129888744
132.0 89.67150800786938
136.0 89.5069050103546
140.0 89.30690501035458
145.0 89.17150800786938
150.0 89.10690501035458
155.0 89.10690501035458
160.0 88.9760917544922
165.0 88.87609175449222
170.0 88.9760917544922
175.0 89.01227178315618
180.0 89.08219967332305
185.0 89.18219967332304
190.0 89.28219967332305
195.0 89.28219967332305
200.0 89.28219967332305
206.0 89.21916705502754
212.0 89.01916705502754
218.0 88.75260953202218
224.0 88.58982856673472
230.0 88.42758719283592
236.0 88.32758719283592
240.0 88.19897445130924
250.0 88.13752777300027
258.0 88.03752777300028
265.0 87.97662798253906
272.0 87.94898359150842
280.0 87.81627783177747
290.0 87.64898359150843
300.0 87.48888547155002
307.0 87.32934077441656
315.0 87.24391724861637
325.0 87.24391724861637
335.0 87.11792789764851
345.0 86.82812233674836
355.0 86.44583147157398
365.0 86.22102614963507
375.0 86.08573603864205
387.0 85.78573603864204
400.0 85.35412591517942
412.0 84.92618710391504
425.0 84.75291140018436
437.0 84.71065864377773
450.0 84.5849305486431
462.0 84.59124872640115
475.0 84.53749164860504
487.0 84.58397949702585
500.0 84.77138676754205
515.0 85.13908938702468
530.0 85.42790007353129
545.0 85.6527499421436
560.0 85.77245249207645
580.0 85.5491520399883
600.0 85.10982855556756
615.0 84.82526453928848
630.0 84.83546263134681
650.0 85.1950645803583
670.0 85.68219812790056
690.0 86.18219812790056
710.0 86.3552196930838
730.0 86.26878033996792
750.0 85.82526453928848
775.0 85.24258273663015
800.0 84.80497668676807
825.0 84.64915203998831
850.0 84.8260245235669
875.0 84.97100612011482
900.0 85.02643297742507
925.0 84.92990957385143
950.0 84.65648313414827
975.0 84.62457993687899
1000.0 84.95098823501219
1030.0 85.40497668676808
1060.0 85.74293979360189
1090.0 85.98915630129642
1120.0 85.93696012594368
1150.0 85.6517743753474
1180.0 85.2809849055068
1220.0 84.98343461029552
1250.0 84.90473949550547
1280.0 84.89179815677407
1320.0 85.08573781157956
1360.0 85.40265313251614
1400.0 85.60265313251615
1450.0 85.50265313251613
1500.0 85.26803106656234
1550.0 85.12812100489948
1600.0 84.74743899086734
1650.0 83.93638088039144
1700.0 83.14552333168525
1750.0 82.81498382011472
1800.0 83.54577223479653
1850.0 84.90833704711783
1900.0 85.60704003632972
1950.0 85.11657677405326
2000.0 83.80252973822758
2060.0 82.96061809080707
2120.0 83.45477168396808
2180.0 84.14066681957173
2240.0 84.12457993687897
2300.0 83.57269145322597
2360.0 82.68064061661163
2400.0 81.86585727595255
2500.0 81.67552377260243
2580.0 81.77991415162184
2650.0 82.04215501561148
2720.0 82.14465953615895
2800.0 81.6427329742451
2900.0 81.30410916638598
3000.0 81.4137899675559
3070.0 80.7392112832295
3150.0 79.42515007718615
3250.0 79.31678155938054
3350.0 79.81326997082844
3450.0 79.66688340325047
3550.0 79.88436225521608
3650.0 80.3670591773177
3750.0 80.61498382011472
3870.0 81.99727311966744
4000.0 83.03898164121286
4120.0 83.8844476236301
4250.0 83.59723594431541
4370.0 82.78681963215332
4500.0 82.0233091781901
4620.0 81.2296506062916
4750.0 80.16789158478055
4870.0 79.65547666300512
5000.0 79.42733489247657
5150.0 79.68701308799668
5300.0 80.55840416724979
5450.0 81.54302103107543
5600.0 82.26949218884523
5800.0 81.99500059240538
6000.0 81.11206543822881
6150.0 80.00857942301256
6300.0 79.1646544214929
6500.0 78.89168843870094
6700.0 79.512106446973
6900.0 79.71755713588665
7100.0 79.03955252761749
7300.0 78.10524403428
7500.0 77.67423383499109
7750.0 77.44690436719605
8000.0 78.26673210761147
8250.0 78.72320753866266
8500.0 77.8085396844211
8750.0 76.93992498584227
9000.0 76.83550260909037
9250.0 77.53657123656858
9500.0 77.56739147265058
9750.0 77.7078531952534
10000.0 76.7573014965793
10300.0 74.2526660385529
10600.0 74.81356132206156
10900.0 75.12429589772313
11200.0 73.94972392340529
11500.0 73.50828138634374
11800.0 74.8606401583399
12200.0 76.85254418009572
12500.0 76.88062611782794
12800.0 75.0728705232515
13200.0 75.1235437362302
13600.0 74.22933777391695
14000.0 74.06111575043927
14500.0 71.80264021206413
15000.0 70.99542938949466
15500.0 69.03051385117168
16000.0 67.46161385426421
16500.0 66.41040128164686
17000.0 66.07964689524705
17500.0 65.8379368095225
18000.0 65.9669284180737
18500.0 64.31339185077105
19000.0 61.48400567330155
19500.0 57.58558171302572
