Freq "Sound Power"
20.5078 73.18673184232043
21.9727 75.94225537212503
23.4375 78.22144670606492
24.9023 79.74504391900678
26.3672 81.07203622304641
27.832 81.83174584400442
29.2969 82.26046183624388
30.7617 82.5201094052613
32.2266 82.74948985238099
33.6914 82.91888885896452
35.1562 82.84192743236831
36.6211 82.97490021686995
38.0859 83.13163696228985
39.5508 83.36255374820321
41.0156 83.48470885087119
42.4805 83.77507920893851
43.9453 83.89861936219522
45.4102 84.19511222494042
46.875 84.49062295168201
48.3398 84.74645577924953
51.2695 85.19516574640656
52.7344 85.39496156649004
54.1992 85.63579067068996
55.6641 85.9166634752438
58.5938 86.35764008145229
60.0586 86.56562208850063
62.9883 86.92985042255367
64.4531 87.07529915312438
67.3828 87.42760681303875
68.8477 87.611242872327
71.7773 87.91732778893889
74.707 88.25356424551134
77.6367 88.61240679025937
79.1016 88.74421347406864
82.0312 88.91232249347746
84.9609 89.08790323912268
87.8906 89.06830479453295
90.8203 89.19644389373823
95.2148 89.37365586511451
98.1445 89.10033497988682
101.074 88.91435853816326
105.469 88.99507523280222
108.398 89.1040110906563
112.793 89.176292278269
117.188 88.98886685671934
120.117 88.99295751513559
124.512 88.991713161034
128.906 88.86864764623907
133.301 88.75085761408333
139.16 88.43059006783253
143.555 88.12845762596152
147.949 87.89947064867927
153.809 87.78342625664799
159.668 87.86513365414287
165.527 87.86660604565908
171.387 87.7391516817125
177.246 87.45517749196868
183.105 87.2006439758192
188.965 87.17218595722407
196.289 87.44815997831407
203.613 86.87690410813974
210.938 86.26527379253814
218.262 85.96685883365573
225.586 86.1715754541546
232.91 86.2919498867222
241.699 86.44320435769048
250.488 86.08576675147135
259.277 86.6294532892454
268.066 86.36429923100687
276.855 85.89534044096223
287.109 86.0426898255434
297.363 85.58948578655492
307.617 85.45932077528389
319.336 85.02686446456438
329.59 84.65500201594448
341.309 84.73491508885604
353.027 84.77489844464887
366.211 84.63657293688992
379.395 84.32909988070021
392.578 84.23352789450134
405.762 83.94404716734248
420.41 83.78818511499472
435.059 84.41813402400672
451.172 84.88385855436886
465.82 84.76377532800421
483.398 84.39567646130885
499.512 84.20693745007803
517.09 83.90277659104048
536.133 84.84531325033242
555.176 85.04885695363767
574.219 85.00896776439393
594.727 84.6315915646402
615.234 84.2881378376243
637.207 84.76405558164114
659.18 84.68101750861878
682.617 83.97032227234682
707.52 83.83145639092521
732.422 84.45623800263664
757.324 84.94346210834173
785.156 84.9788679343222
811.523 85.04001736114706
840.82 85.34608483588879
870.117 84.34230395003674
900.879 85.10247562900601
933.105 84.0752371729557
965.332 84.03446153159076
1000.49 84.3766381680245
1035.64 83.98784687304173
1072.27 84.54445457215468
1108.89 83.92290287545903
1148.44 84.17607447278105
1189.45 84.03592262245245
1230.47 84.07880607455196
1274.41 84.09146064540731
1319.82 84.30641060011143
1366.7 84.7931535053465
1413.57 84.60993184311941
1463.38 84.00674553743012
1516.11 83.49984281876324
1568.85 82.56429605515471
1624.51 82.3652108019878
1681.64 83.05721768705816
1741.7 83.3501739328744
1803.22 83.63975854307746
1866.21 83.13174154748326
1932.13 82.6492371863747
1999.51 82.81725381477128
2069.82 83.32370700120192
2143.07 83.5850097252197
2219.24 83.37467115908768
2296.88 82.82462573700437
2378.91 82.79074757243863
2462.4 83.67760409167174
2548.83 83.7416051063178
2639.65 83.39706890022858
2731.93 82.55390572569158
2828.61 82.45983881767457
2928.22 82.91887222447139
3030.76 83.14940037345856
3137.7 82.97088837058065
3249.02 82.4394891617165
3363.28 81.9255205449871
3481.93 82.1882387880228
3604.98 82.18417678766487
3732.42 82.40538579322742
3864.26 82.37475099803994
4000.49 82.21189978658617
4141.11 82.38279484410401
4287.6 82.60440309292507
4438.48 82.24577585381918
4595.21 81.7009754920606
4756.35 81.95121632531401
4924.8 81.6887708002411
5097.66 81.83275953767074
5277.83 81.6867001211842
5463.87 81.94192439782962
5657.23 81.71976392908176
5856.45 81.51511713903817
6062.99 81.74327410808546
6276.86 81.41678685402057
6498.05 81.20902236565834
6726.56 81.36304111490405
6963.87 80.8752764747921
7209.96 81.10197504049582
7464.84 80.94753824182051
7727.05 80.88869533464288
7999.51 80.82288342469215
8282.23 80.68115878206906
8573.73 80.449599246116
8876.95 80.1750214590756
9188.96 80.0169323462747
9514.16 79.98145571980916
9849.61 79.82108385625766
10196.8 79.84449429340391
10555.7 79.6345938090134
10927.7 79.6088766624237
11313.0 79.50227152041211
11712.9 79.29158363619197
12126.0 79.1972572998612
12553.7 78.90064906906333
12996.1 78.59124413625783
13454.6 78.2816648644714
13929.2 77.99129216486371
14419.9 77.60889227508312
14928.2 77.11071109874139
15455.6 76.5005538986204
16000.5 75.762575082516
16564.5 74.8843921047905
17148.9 74.30008867456391
17752.4 73.35279738372452
18379.4 72.28915573881561
19026.9 71.30373083028711
19697.8 70.36538909156131
19999.5 70.0571616847257
