Freq,On Axis,Listening Window,Sound Power,Early Reflections,Early Reflections DI,Sound Power DI,DI offset
20.0,68.199,67.76484758291488,66.74401628070423,67.16092802445763,40.60391955845725,41.02083130221065,40
20.2909,68.44800000000001,68.03336786308634,67.01377706021674,67.43043139904316,40.60293646404318,41.0195908028696,40
20.586,68.768,68.41878983857521,67.39828688095861,67.81787170271541,40.6009181358598,41.0205029576166,40
20.8855,69.06199999999998,68.7615634272427,67.71969574276964,68.14743732563784,40.61412610160487,41.04186768447306,40
21.1893,69.351,69.06100614665425,68.03017956971615,68.45553156426226,40.60547458239199,41.0308265769381,40
21.4975,69.59699999999998,69.29994132659718,68.2844877470283,68.70651515259577,40.59342617400141,41.015453579568884,40
21.8102,69.823,69.55196507436132,68.54333950786054,68.96282296419238,40.589142110168936,41.00862556650078,40
22.1274,70.001,69.76274827178099,68.75432285377553,69.17447353008194,40.58827474169905,41.00842541800546,40
22.4492,70.179,69.95927006787751,68.94842993580889,69.3700373049445,40.58923276293301,41.01084013206862,40
22.7758,70.40900000000002,70.20777829341705,69.19177934418978,69.61183867533732,40.595939618079726,41.01599894922727,40
23.1071,70.585,70.40149336372116,69.37895958518679,69.79992055083062,40.60157281289054,41.02253377853437,40
23.4432,70.776,70.60433103883723,69.5884086901619,70.0094821755886,40.59484886324863,41.01592234867533,40
23.7841,71.026,70.85433103883724,69.8505273509294,70.26163521164801,40.59269582718923,41.00380368790785,40
24.1301,71.303,71.15002793356905,70.13631683537662,70.54595610078903,40.60407183278002,41.01371109819243,40
24.4811,71.491,71.32899225395192,70.33425678014429,70.74645853845553,40.582533715496396,40.99473547380764,40
24.8372,71.769,71.69490261154347,70.6980242794489,71.115234324885,40.579668286658475,40.99687833209457,40
25.1984,71.978,71.94097171046147,70.93019940060972,71.3575845223042,40.583387188157275,41.010772309851745,40
25.5649,72.15100000000001,72.1181220796231,71.11171935873399,71.53603845048201,40.582083629141096,41.00640272088911,40
25.9368,72.374,72.33101827181069,71.34204157860847,71.76517873855124,40.56583953325945,40.98897669320222,40
26.3141,72.525,72.4799696712463,71.48993515291333,71.91295076370916,40.56701890753713,40.99003451833296,40
26.6968,72.678,72.63296967124629,71.64001523217763,72.05214540257386,40.58082426867243,40.992954439068654,40
27.0851,72.867,72.8219696712463,71.82764649174399,72.23883584536779,40.583133825878505,40.9943231795023,40
27.4791,73.091,73.02649633498646,72.0474918064377,72.46216071322844,40.56433562175802,40.97900452854876,40
27.8788,73.251,73.25861728628848,72.29243368331115,72.7166571762029,40.54196011008558,40.96618360297734,40
28.2843,73.413,73.41016057765842,72.4481008818444,72.87210721574425,40.538053361914166,40.96205969581402,40
28.6957,73.577,73.57416057765842,72.5990139187511,73.017878609565,40.556281968093415,40.97514665890732,40
29.1131,73.844,73.83480973520741,72.84772452563998,73.26946507775052,40.56534465745689,40.98708520956744,40
29.5365,74.02799999999999,74.06336591289748,73.0717560229221,73.49361700033103,40.56974891256645,40.99160988997538,40
29.9661,74.286,74.32998939227583,73.33250337615529,73.75303415445343,40.5769552378224,40.99748601612055,40
30.402,74.521,74.50528353169655,73.53500162631067,73.94213991303303,40.56314361866352,40.970281905385875,40
30.8442,74.737,74.72924025560299,73.75727545609328,74.17517339784656,40.554066857756425,40.971964799509706,40
31.2929,74.933,74.97938474423808,73.99068222716474,74.41711621010411,40.56226853413396,40.988702517073335,40
31.748,75.198,75.1877463709661,74.21827931818615,74.63921953169678,40.548526839269314,40.96946705277995,40
32.2098,75.467,75.5123415493608,74.53521481706257,74.95536954926666,40.556972000094135,40.97712673229823,40
32.6783,75.67000000000002,75.69925194354511,74.72037721691623,75.1429077199405,40.55634422360461,40.978874726628874,40
33.1536,75.861,75.91378609031902,74.94258428108185,75.36574483173855,40.54804125858047,40.97120180923717,40
33.6359,76.053,76.04374995175641,75.07818193180985,75.49661829226599,40.54713165949042,40.96556801994656,40
34.1251,76.299,76.35209643882622,75.36662004801353,75.79542563459269,40.55667080423353,40.98547639081269,40
34.6215,76.548,76.59156148143413,75.6091036308809,76.03031715021731,40.56124433121681,40.98245785055323,40
35.125,76.749,76.77732225214432,75.78988041228526,76.2136824101483,40.56363984199602,40.98744183985906,40
35.6359,76.953,77.00166445254456,76.02646361623539,76.44850121139127,40.553163241153285,40.97520083630917,40
36.1543,77.161,77.20193330210425,76.2281409056986,76.65094264744681,40.55099065465744,40.973792396405656,40
36.6802,77.443,77.46212027528813,76.47596718498951,76.90277180484584,40.55934847044229,40.986153090298615,40
37.2137,77.685,77.67693106585082,76.71613874660244,77.13813666390561,40.53879440194521,40.960792319248384,40
37.755,77.901,77.94807298469033,76.95794209459586,77.3785060699464,40.56956691474393,40.99013089009446,40
38.3041,78.09899999999999,78.11884948897418,77.14869241064025,77.5730526455662,40.545796843407985,40.970157078333926,40
38.8613,78.244,78.28092206842851,77.2977876764991,77.71885013817236,40.56207193025615,40.98313439192941,40
39.4265,78.47,78.50161274566182,77.51488538439452,77.94313616858301,40.55847657707881,40.9867273612673,40
40.0,78.699,78.72805349933861,77.75568771256425,78.17597715708511,40.5520763422535,40.97236578677436,40
40.5818,78.93200000000002,78.95989184915632,77.95540000802146,78.3867070940723,40.573184755084014,41.004491841134865,40
41.1721,79.068,79.0917184022586,78.11764290126763,78.54516008029441,40.5465583219642,40.97407550099098,40
41.771,79.207,79.22871298278127,78.27990181813644,78.70147528216847,40.5272377006128,40.94881116464484,40
42.3785,79.35,79.36470853161401,78.36935268524502,78.80021538209846,40.564493149515556,40.995355846368994,40
42.9949,79.499,79.5227184022586,78.54367000597813,78.96835804162134,40.55436036063726,40.979048396280476,40
43.6203,79.699,79.71779967325237,78.75898937200463,79.17721532512108,40.54058434813129,40.95881030124774,40
44.2548,79.90099999999998,79.88025578640905,78.8990162179692,79.33418154161994,40.54607424478911,40.98123956843985,40
44.8985,80.099,80.10648000782152,79.1240285689552,79.55799666617727,40.54848334164424,40.98245143886632,40
45.5515,80.32,80.33199695642736,79.3548924651996,79.78296190397695,40.54903505245041,40.97710449122776,40
46.2141,80.485,80.49699695642735,79.54173786218969,79.95904723390143,40.53794972252592,40.95525909423766,40
46.8863,80.699,80.71099695642738,79.758534680582,80.17471517891443,40.536281777512954,40.95246227584538,40
47.5683,80.899,80.93087808167104,79.96626445313507,80.38305459356677,40.54782348810427,40.96461362853597,40
48.2602,81.099,81.1333573213356,80.1730594610243,80.58682016338628,40.54653715794932,40.9602978603113,40
48.9621,81.199,81.23335732133559,80.26884963566536,80.6847801361511,40.548577185184485,40.96450768567023,40
49.6743,81.369,81.38877764294098,80.42553742761346,80.84708682097394,40.54169082196704,40.96324021532752,40
50.3968,81.55799999999999,81.55877345300581,80.60103712666631,81.02125694423164,40.537516508774175,40.9577363263395,40
51.1299,81.751,81.75177345300582,80.78039509694145,81.19955266793175,40.55222078507407,40.97137835606438,40
51.8736,81.948,81.9231904183826,80.95808431935095,81.38307961101805,40.540110807364556,40.96510609903166,40
52.6281,82.15,82.11768347817137,81.13801975345329,81.57415462302818,40.543528855143194,40.97966372471808,40
53.3936,82.399,82.4044064492175,81.42871035593728,81.85183191161246,40.55257453760504,40.97569609328022,40
54.1702,82.667,82.65625841531062,81.6831479313781,82.10777057660844,40.54848783870217,40.973110483932516,40
54.9581,82.882,82.84733397543951,81.85401415166098,82.28583707686127,40.56149689857824,40.993319823778535,40
55.7575,83.102,83.09125841531062,82.1289223257502,82.54388197105168,40.547376444258944,40.962336089560424,40
56.5685,83.326,83.28844746302147,82.30475801629379,82.73446214748977,40.553985315531705,40.98368944672768,40
57.3914,83.556,83.55151169317242,82.57210088078776,82.99820496240551,40.553306730766906,40.97941081238466,40
58.2261,83.799,83.74423538608282,82.7578747133795,83.19618803495241,40.54804735113041,40.98636067270333,40
59.073,84.02799999999999,83.98868166401276,83.01496808675323,83.43877757722159,40.54990408679117,40.97371357725953,40
59.9323,84.19899999999998,84.18159762308561,83.21392488789517,83.63318139151613,40.548416231569476,40.96767273519043,40
60.804,84.421,84.43096286147144,83.46151048636531,83.88369964660218,40.54726321486926,40.96945237510613,40
61.6884,84.599,84.56397553456962,83.59104768104145,84.02192572350054,40.54204981106908,40.97292785352818,40
62.5857,84.799,84.74533611153916,83.75698785091134,84.1835577399394,40.56177837159976,40.988348260627816,40
63.496,84.997,84.96810953719488,83.99593444495295,84.42338850400893,40.54472103318595,40.972175092241926,40
64.4196,85.167,85.11322593747022,84.12717558558109,84.5569284814556,40.55629745601462,40.98605035188913,40
65.3566,85.34199999999998,85.29751173099865,84.32865547096478,84.75649664790983,40.54101508308882,40.968856260033874,40
66.3073,85.52199999999999,85.50926923952008,84.54071558859367,84.9645775976515,40.54469164186858,40.96855365092641,40
67.2717,85.708,85.65393168085936,84.67890178349091,85.10851585134455,40.54541582951481,40.975029897368444,40
68.2502,85.899,85.84292195257517,84.86890808285116,85.29629854816505,40.54662340441011,40.974013869724004,40
69.2429,86.099,86.00395741813504,85.03298336724743,85.4645255369912,40.53943188114384,40.97097405088762,40
70.2501,86.299,86.24610796236527,85.26972885461399,85.70098213635167,40.5451258260136,40.976379107751285,40
71.2719,86.499,86.45109636737584,85.49077459088701,85.91878449344588,40.532311873929956,40.960321776488826,40
72.3086,86.69899999999998,86.60655238230473,85.65470017627045,86.08012170440875,40.52643067789597,40.951852206034275,40
73.3603,86.899,86.85176496635378,85.8806390150645,86.3111884913648,40.54057647498898,40.97112595128928,40
74.4274,87.099,87.05265770925271,86.10068016698966,86.52587952989079,40.526778179361926,40.95197754226305,40
75.5099,87.203,87.08751126873504,86.1327064381027,86.55734288665036,40.53016838208468,40.95480483063234,40
76.6083,87.399,87.31998521006216,86.3319202155248,86.76409617029645,40.5558890397657,40.98806499453735,40
77.7226,87.499,87.40442342811332,86.43639023716887,86.8601526393867,40.54427078872662,40.96803319094445,40
78.8531,87.599,87.49145644276331,86.53073838243122,86.95656269735066,40.534893745412646,40.960718060332084,40
80.0,87.69900000000001,87.62554838463507,86.67344536037834,87.09787436820923,40.527674016425834,40.95210302425673,40
81.1636,87.799,87.75534471847234,86.7969208158618,87.21964466665109,40.53570005182125,40.95842390261055,40
82.3442,87.899,87.85534471847234,86.87805862906441,87.30356311567684,40.5517816027955,40.977286089407926,40
83.5419,87.999,87.9271218802175,86.94912058904838,87.37937576698133,40.54774611323617,40.97800129116912,40
84.757,88.09899999999999,88.02620939153599,87.07496749166194,87.49953907059466,40.52667032094132,40.95124189987405,40
85.9899,88.199,88.15534471847234,87.18011088390386,87.60544983181612,40.54989488665622,40.97523383456847,40
87.2406,88.299,88.20564306249267,87.23463949461532,87.67023798171503,40.535405080777636,40.97100356787735,40
88.5096,88.40299999999999,88.35934471847234,87.38913651940581,87.80986822949926,40.549476488973085,40.97020819906653,40
89.797,88.599,88.50052320950181,87.52542093165741,87.95691403780363,40.54360917169818,40.9751022778444,40
91.1031,88.682,88.60593742620861,87.64310135473563,88.0718111676767,40.53412625853191,40.96283607147298,40
92.4282,88.799,88.75534471847234,87.7941929143187,88.22132783957788,40.53401687889446,40.961151804153644,40
93.7726,88.899,88.8005232095018,87.80822185689252,88.24110772406732,40.559415485434485,40.99230135260929,40
95.1366,88.96600000000001,88.8675232095018,87.88748915533739,88.31462973348101,40.552893476020785,40.980034054164406,40
96.5204,89.019,88.92052320950181,87.94961046427322,88.3787365644295,40.54178664507231,40.97091274522859,40
97.9243,89.09900000000002,89.0005232095018,88.029901170545,88.45761408192664,40.54290912757516,40.97062203895679,40
99.3486,88.999,88.9005232095018,87.93177319537577,88.35761408192664,40.54290912757516,40.96875001412603,40
100.794,88.982,88.8835232095018,87.89155655522431,88.3303407693111,40.553182440190696,40.99196665427749,40
102.26,88.899,88.8454955888219,87.88062922474361,88.30847285548333,40.537022733338574,40.96486636407829,40
103.747,88.899,88.8005232095018,87.84484827090242,88.27380855626953,40.526714653232276,40.95567493859939,40
105.256,88.899,88.8005232095018,87.80249323993843,88.24180761895062,40.55871559055119,40.998029969563376,40
106.787,88.999,88.91399648206499,87.94726706343496,88.37686777550601,40.537128706558974,40.966729418630024,40
108.34,88.999,88.95733358269848,87.96710479205812,88.39906832075152,40.55826526194696,40.99022879064036,40
109.916,88.999,88.9120058166541,87.94922054887675,88.3816506741507,40.530355142503396,40.96278526777735,40
111.515,89.05600000000001,88.9575232095018,87.98091568350667,88.42493780377008,40.53258540573172,40.976607525995135,40
113.137,88.999,88.91469649897837,87.93457882497331,88.3678850443816,40.54681145459678,40.98011767400506,40
114.783,88.98499999999999,88.92319861837686,87.91677135884105,88.36057244872578,40.56262616965108,41.00642725953581,40
116.452,88.899,88.81245412132873,87.81939361372321,88.26482830157656,40.54762581975217,40.99306050760552,40
118.146,88.799,88.71351776763737,87.69558327634583,88.1504485904446,40.56306917719277,41.01793449129154,40
119.865,88.749,88.62605117621965,87.60487892874133,88.0641823050503,40.56186887116935,41.02117224747832,40
121.608,88.67,88.62654875188065,87.59527712606284,88.05834653443816,40.56820221744249,41.03127162581781,40
123.377,88.599,88.48501257659498,87.45782179074033,87.91738492140055,40.56762765519443,41.02719078585466,40
125.171,88.513,88.43555373917287,87.39166312193528,87.85902948655911,40.576524252613765,41.043890617237594,40
126.992,88.499,88.37624827168041,87.32707631390663,87.80763226976758,40.56861600191283,41.04917195777378,40
128.839,88.498,88.39537104722893,87.32462181820367,87.80494275906267,40.590428288166265,41.07074922902527,40
130.713,88.411,88.2820565567896,87.16537087457499,87.66064641800853,40.62141013878107,41.11668568221461,40
132.615,88.394,88.28353025927773,87.1586190654003,87.67552134389322,40.6080089153845,41.12491119387742,40
134.543,88.389,88.24466512875802,87.10266415916627,87.61982453562317,40.62484059313485,41.14200096959175,40
136.5,88.398,88.25048265425622,87.0808386118402,87.61495685150123,40.635525802754984,41.16964404241601,40
138.486,88.463,88.3110372939386,87.11639636391169,87.66203767679491,40.64899961714369,41.19464093002691,40
140.5,88.356,88.2005063301031,86.97649355494367,87.53805539258734,40.66245093751576,41.22401277515942,40
142.544,88.22,88.03512483051546,86.76688015992495,87.35167247017078,40.683452360344674,41.268244670590505,40
144.617,88.09700000000001,87.91020430912371,86.6034568894867,87.20707844006081,40.7031258690629,41.30674741963702,40
146.721,87.969,87.76741534070155,86.4202579828528,87.04597633166605,40.72143900903549,41.347157357848744,40
148.855,87.848,87.6251334429458,86.22241303938424,86.87676201356237,40.748371429383425,41.40272040356156,40
151.02,87.754,87.52776389903669,86.06813372591884,86.74586243403161,40.78190146500508,41.459630173117844,40
153.217,87.697,87.41645200935476,85.91020308476453,86.61698433692099,40.799467672433764,41.506248924590224,40
155.445,87.646,87.41823459127417,85.85303209772297,86.58862419100613,40.82961040026804,41.5652024935512,40
157.706,87.525,87.28222862970587,85.64775889775645,86.41104734973948,40.87118127996639,41.63446973194942,40
160.0,87.357,87.04259162852973,85.35364185797377,86.15299545092387,40.88959617760587,41.688949770555965,40
162.327,87.16,86.86612321038697,85.12361285994568,85.94994940201626,40.916173808370715,41.74251035044129,40
164.688,87.023,86.71247303076589,84.91421837853161,85.7704635229551,40.942009507810795,41.79825465223428,40
167.084,86.934,86.62652123968138,84.77486768167664,85.6551257163287,40.97139552335268,41.85165355800474,40
169.514,86.941,86.6146068840575,84.7101812405308,85.61729060448556,40.99731627957193,41.90442564352669,40
171.98,87.002,86.66679811393189,84.71106125469285,85.64792469421324,41.018873419718645,41.95573685923904,40
174.481,87.075,86.75716549018232,84.75465031681598,85.7102044855992,41.04696100458311,42.002515173366334,40
177.019,87.081,86.76428039331316,84.72353222354295,85.70179896929508,41.062481424018074,42.04074816977021,40
179.594,87.019,86.68101129921797,84.59375908565353,85.59568514075792,41.08532615846005,42.08725221356444,40
182.206,87.024,86.70078891476857,84.57088281540811,85.59383000314841,41.106958911620154,42.129906099360454,40
184.856,87.04000000000002,86.72373480672977,84.5542011946051,85.60217662729731,41.121558179432455,42.16953361212467,40
187.545,87.05700000000002,86.74811793400731,84.53383384097347,85.60359574332918,41.14452219067813,42.21428409303384,40
190.273,87.089,86.76333532435562,84.50488983344567,85.59946624279345,41.16386908156217,42.25844549090995,40
193.041,87.118,86.8037273040751,84.50331015320208,85.62003722432627,41.18369007974883,42.30041715087302,40
195.849,87.077,86.76085277066367,84.41764426475581,85.55717514647795,41.20367762418573,42.34320850590787,40
198.697,87.078,86.76960091958819,84.37876903042233,85.54707122140138,41.222529698186804,42.39083188916585,40
201.587,87.03299999999999,86.71793742580397,84.27477700806988,85.47423800761617,41.2436994181878,42.44316041773409,40
204.52,87.082,86.77873359414252,84.29841018010512,85.5266982168935,41.25203537724903,42.4803234140374,40
207.494,87.11700000000002,86.8197905394419,84.29770510648149,85.55486000885332,41.26493053058857,42.52208543296041,40
210.512,87.176,86.89187768541031,84.29571405731625,85.59544894296049,41.29642874244982,42.59616362809406,40
213.574,87.21699999999998,86.88775471361495,84.21480821778638,85.56326764021217,41.32448707340278,42.67294649582857,40
216.681,87.235,86.89492778156315,84.16242434441062,85.54759641904192,41.34733136252123,42.73250343715253,40
219.833,87.20399999999998,86.84933112311111,84.05212875975482,85.47680136046034,41.37252976265077,42.79720236335629,40
223.03,87.14700000000002,86.82094089148966,83.9679286114313,85.428367752865,41.392573138624655,42.85301228005835,40
226.274,87.13999999999999,86.7867418518027,83.8598168225884,85.36955665976019,41.41718519204251,42.9269250292143,40
229.565,87.119,86.75309616338153,83.76346083545992,85.31151375203686,41.44158241134467,42.989635327921604,40
232.905,87.09100000000001,86.72807596472613,83.67179587091903,85.26846460572305,41.45961135900308,43.0562800938071,40
236.292,87.077,86.672120340211,83.543464619426,85.18424166589082,41.48787867432017,43.12865572078499,40
239.729,86.988,86.61627554559723,83.45396933989991,85.12646306935369,41.48981247624354,43.16230620569732,40
243.216,87.018,86.63044462916417,83.40748071150009,85.11998494710247,41.51045968206171,43.22296391766409,40
246.754,87.04999999999998,86.62819639836447,83.34190575896355,85.0926509326376,41.53554546572687,43.28629063940092,40
250.343,87.094,86.62358996201598,83.3033307306342,85.079298149395,41.54429181262098,43.32025923138178,40
253.984,87.055,86.64348397296759,83.28693486205404,85.08187007984303,41.56161389312456,43.35654911091355,40
257.678,87.054,86.64248397296758,83.2439771858084,85.06220766589232,41.580276307075266,43.39850678715918,40
261.426,87.062,86.61468322490296,83.20901757848303,85.03598380088557,41.57869942401739,43.40566564641993,40
265.229,87.144,86.66857517874817,83.2474807185097,85.07670482241855,41.59187035632962,43.421094460238464,40
269.087,87.189,86.68334665390262,83.26485887803922,85.08983921445252,41.59350743945009,43.4184877758634,40
