Freq "Listening Window"
20.0 68.38252053888974
20.2909 68.6510408190612
20.586 69.03646279455006
20.8855 69.37923638321756
21.1893 69.6786791026291
21.4975 69.91761428257203
21.8102 70.16963803033617
22.1274 70.38042122775585
22.4492 70.57694302385237
22.7758 70.8254512493919
23.1071 71.01916631969601
23.4432 71.22200399481208
23.7841 71.4720039948121
24.1301 71.7677008895439
24.4811 71.94666520992678
24.8372 72.31257556751832
25.1984 72.55864466643632
25.5649 72.73579503559796
25.9368 72.94869122778555
26.3141 73.09764262722115
26.6968 73.25064262722114
27.0851 73.43964262722115
27.4791 73.64416929096132
27.8788 73.87629024226334
28.2843 74.02783353363327
28.6957 74.19183353363327
29.1131 74.45248269118227
29.5365 74.68103886887234
29.9661 74.94766234825069
30.402 75.1229564876714
30.8442 75.34691321157784
31.2929 75.59705770021293
31.748 75.80541932694095
32.2098 76.13001450533565
32.6783 76.31692489951996
33.1536 76.53145904629388
33.6359 76.66142290773126
34.1251 76.96976939480108
34.6215 77.20923443740898
35.125 77.39499520811917
35.6359 77.61933740851941
36.1543 77.8196062580791
36.6802 78.07979323126298
37.2137 78.29460402182568
37.755 78.56574594066518
38.3041 78.73652244494903
38.8613 78.89859502440336
39.4265 79.11928570163667
40.0 79.34572645531347
40.5818 79.57756480513117
41.1721 79.70939135823346
41.771 79.84638593875613
42.3785 79.98238148758887
42.9949 80.14039135823346
43.6203 80.33547262922723
44.2548 80.4979287423839
44.8985 80.72415296379637
45.5515 80.94966991240221
46.2141 81.1146699124022
46.8863 81.32866991240223
47.5683 81.5485510376459
48.2602 81.75103027731045
48.9621 81.85103027731044
49.6743 82.00645059891583
50.3968 82.17644640898067
51.1299 82.36944640898068
51.8736 82.54086337435746
52.6281 82.73535643414623
53.3936 83.02207940519236
54.1702 83.27393137128547
54.9581 83.46500693141436
55.7575 83.70893137128547
56.5685 83.90612041899632
57.3914 84.16918464914727
58.2261 84.36190834205767
59.073 84.60635461998761
59.9323 84.79927057906046
60.804 85.0486358174463
61.6884 85.18164849054448
62.5857 85.36300906751401
63.496 85.58578249316973
64.4196 85.73089889344507
65.3566 85.9151846869735
66.3073 86.12694219549493
67.2717 86.27160463683421
68.2502 86.46059490855002
69.2429 86.6216303741099
70.2501 86.86378091834013
71.2719 87.0687693233507
72.3086 87.22422533827958
73.3603 87.46943792232864
74.4274 87.67033066522757
75.5099 87.7051842247099
76.6083 87.93765816603701
77.7226 88.02209638408817
78.8531 88.10912939873816
80.0 88.24322134060992
81.1636 88.3730176744472
82.3442 88.47301767444719
83.5419 88.54479483619235
84.757 88.64388234751084
85.9899 88.77301767444719
87.2406 88.82331601846752
88.5096 88.9770176744472
89.797 89.11819616547666
91.1031 89.22361038218347
92.4282 89.3730176744472
93.7726 89.41819616547666
95.1366 89.48519616547665
96.5204 89.53819616547666
97.9243 89.61819616547665
99.3486 89.51819616547665
100.794 89.50119616547666
102.26 89.46316854479676
103.747 89.41819616547666
105.256 89.41819616547666
106.787 89.53166943803984
108.34 89.57500653867334
109.916 89.52967877262896
111.515 89.57519616547665
113.137 89.53236945495323
114.783 89.54087157435171
116.452 89.43012707730358
118.146 89.33119072361222
119.865 89.2437241321945
121.608 89.2442217078555
123.377 89.10268553256984
125.171 89.05322669514773
126.992 88.99392122765526
128.839 89.01304400320379
130.713 88.89972951276445
132.615 88.90120321525258
134.543 88.86233808473287
136.5 88.86815561023107
138.486 88.92871024991345
140.5 88.81817928607795
142.544 88.65279778649031
144.617 88.52787726509857
146.721 88.3850882966764
148.855 88.24280639892065
151.02 88.14543685501154
153.217 88.03412496532961
155.445 88.03590754724902
157.706 87.89990158568072
160.0 87.66026458450459
162.327 87.48379616636183
164.688 87.33014598674075
167.084 87.24419419565623
169.514 87.23227984003235
171.98 87.28447106990674
174.481 87.37483844615717
177.019 87.38195334928801
179.594 87.29868425519282
182.206 87.31846187074342
184.856 87.34140776270462
187.545 87.36579088998216
190.273 87.38100828033048
193.041 87.42140026004995
195.849 87.37852572663853
198.697 87.38727387556304
201.587 87.33561038177882
204.52 87.39640655011738
207.494 87.43746349541675
210.512 87.50955064138516
213.574 87.5054276695898
216.681 87.51260073753801
219.833 87.46700407908597
223.03 87.43861384746451
226.274 87.40441480777756
229.565 87.37076911935638
232.905 87.34574892070098
236.292 87.28979329618585
239.729 87.23394850157209
243.216 87.24811758513903
246.754 87.24586935433932
250.343 87.24126291799084
253.984 87.26115692894244
257.678 87.26015692894244
261.426 87.23235618087782
265.229 87.28624813472302
269.087 87.30101960987747
273.001 87.30404051308167
276.972 87.32135293232326
281.0 87.35847157569002
285.088 87.42206070888194
289.234 87.43173901202047
293.441 87.49954548613819
297.709 87.53617358180819
302.04 87.52708121506771
306.433 87.4946689457858
310.89 87.45178884156364
315.412 87.38570622774198
320.0 87.36596808718353
324.655 87.33787559289055
329.377 87.25659671288491
334.168 87.18211279256295
339.028 87.10612245829076
343.959 87.06079927496751
348.962 87.07037589713062
354.038 87.10051813829101
359.188 87.10708400254117
364.412 87.10708400254117
369.713 87.11883695625117
375.09 87.16167465218246
380.546 87.21590141508646
386.081 87.2825972489292
391.697 87.27648964315505
397.394 87.26082760325525
403.175 87.23809904455524
409.039 87.19993240159438
414.989 87.18646285682931
421.025 87.17681618778275
427.149 87.13108785129718
433.362 87.09595025816658
439.665 87.08532605409377
446.06 87.11432427813133
452.548 87.16040938943291
459.131 87.19398015408605
465.809 87.24937381297046
472.584 87.31883254336616
479.458 87.43519519552376
486.432 87.5525702712834
493.507 87.64718495421889
500.686 87.73325913582244
507.968 87.8160240238049
515.357 87.89815047594365
522.853 88.01518233345622
530.458 88.0567694267111
538.174 88.0609228399316
546.002 88.06672664413388
553.943 88.04923832139328
562.001 88.02677825443645
570.175 88.01247190302304
578.469 87.98897640893841
586.883 87.96672508820312
595.419 87.93740920474298
604.08 87.92668857674161
612.866 87.92668857674161
621.78 87.93005392056119
630.824 87.95878121635684
640.0 87.96582787223385
649.309 87.98298054361786
658.753 88.00185300139502
668.335 87.9909184221286
678.056 87.96033084622263
687.919 87.89193195778302
697.925 87.83834619972045
708.077 87.80046582747653
718.376 87.79948029017753
728.825 87.84356490370689
739.426 87.90995855362823
750.181 88.05074869275927
761.093 88.12834214805792
772.163 88.13114781012032
783.394 88.1104986436539
794.789 88.02093394805048
806.349 87.91875295229366
818.078 87.85643560679989
829.977 87.82473700658868
842.05 87.82964235949619
854.298 87.82149240212568
866.724 87.76092148039565
879.33 87.67003662526461
892.12 87.55882197653754
905.097 87.40314855223184
918.262 87.29863229522356
931.618 87.25856572187263
945.169 87.25178057049575
958.917 87.27647976717296
972.864 87.35345484119046
987.015 87.42233170250267
1001.37 87.44060662656136
1015.94 87.38747624039924
1030.71 87.31551915485747
1045.71 87.27726399737597
1060.92 87.27477411297059
1076.35 87.23440192222299
1092.0 87.13512972657381
1107.89 87.01062666054594
1124.0 86.90907771023325
1140.35 86.80002588217495
1156.94 86.66188644306882
1173.77 86.51481525204201
1190.84 86.48097723184172
1208.16 86.57189439807192
1225.73 86.64943965270763
1243.56 86.69743934816134
1261.65 86.78239290960991
1280.0 86.98046161601945
1298.62 87.17042337569822
1317.51 87.19946400656411
1336.67 87.13178959762202
1356.11 87.1102703068522
1375.84 87.12943114517756
1395.85 87.04098881190588
1416.15 86.85512528260695
1436.75 86.76037281309661
1457.65 86.80023974008397
1478.85 86.78646744985306
1500.36 86.80058208674205
1522.19 86.96457459068183
1544.33 87.15165678783154
1566.79 87.20025697187215
1589.58 87.21111604934339
1612.7 87.20266493766698
1636.16 87.15107530797103
1659.95 87.04799745701108
1684.1 86.99338331761726
1708.6 86.96743538375301
1733.45 86.97040955779698
1758.66 86.99547128214867
1784.24 87.01645357155337
1810.19 87.05830368766257
1836.52 87.02885400995662
1863.24 86.87949508046327
1890.34 86.85382003495651
1917.83 86.94405675078576
1945.73 86.90645519560489
1974.03 87.02570485755783
2002.74 87.24141129200905
2031.87 87.23026162080109
2061.43 87.17489413105798
2091.41 87.0623301706587
2121.83 86.87970635707153
2152.69 86.77247768256954
2184.01 86.71612620344712
2215.77 86.85063593339942
2248.0 86.77740239621164
2280.7 86.65602543936453
2313.87 86.70931345163716
2347.53 86.63148561778115
2381.68 86.43841854632895
2416.32 86.34743739625847
2451.46 86.50878121591583
2487.12 86.53965795465501
2523.3 86.68045608069664
2560.0 86.63156272735176
2597.24 86.55288235567383
2635.01 86.42816120694802
2673.34 86.66467711021915
2712.23 86.75619772607268
2751.68 86.93550468643429
2791.7 86.70990655270398
2832.31 86.52088050703944
2873.5 86.35745297404725
2915.3 86.6346361376332
2957.7 86.76950910724801
3000.72 86.79092053939783
3044.37 86.60066916889951
3088.65 86.55506778438969
3133.58 86.77841689382119
3179.16 87.05427059390482
3225.4 86.98775208822698
3272.31 86.90546044804853
3319.91 86.89481911148022
3368.2 87.11781603560941
3417.19 87.16290785910601
3466.89 87.1352499920963
3517.32 87.10588716908858
3568.48 87.04728573528119
3620.39 87.17268785208232
3673.05 87.21793599079781
3726.47 87.18974043042667
3780.67 87.0422672045995
3835.67 86.98597004445739
3891.46 86.99015495415736
3948.06 86.85406681708506
4005.49 86.68361936664581
4063.75 86.63289898694558
4122.86 86.5943380770787
4182.82 86.52297559513346
4243.66 86.42197372536448
4305.39 86.4167073883217
4368.01 86.3573810048704
4431.55 86.2899748380984
4496.01 86.3213455977299
4561.4 86.48751823057077
4627.75 86.58943646446907
4695.06 86.60059764000124
4763.35 86.57065076377272
4832.64 86.59383575558303
4902.93 86.6255073439979
4974.24 86.58313326156346
5046.6 86.73760688747284
5120.0 86.79404324442714
5194.47 86.70899853915932
5270.03 86.76621024938814
5346.68 86.7383864745991
5424.45 86.69051208031328
5503.35 86.69353936088746
5583.4 86.7039774389977
5664.61 86.65653064180813
5747.01 86.67497995249668
5830.6 86.69032146414327
5915.41 86.60870453379849
6001.45 86.72633346204245
6088.74 86.80275921137329
6177.3 86.87621228808034
6267.15 86.9666613975449
6358.31 86.90195425294532
6450.8 86.8111201296755
6544.62 86.72823356978839
6639.82 86.69634486026361
6736.4 86.76210278987259
6834.38 86.80890743200113
6933.79 86.91711178304324
7034.64 87.0229878858079
7136.96 87.13468537919672
7240.77 87.2467280966545
7346.09 87.3508993638838
7452.94 87.36588188124225
7561.35 87.30570778142018
7671.33 87.09030764040769
7782.91 86.90042191941671
7896.12 86.70305229120422
8010.97 86.77206098662627
8127.49 86.88354461401428
8245.71 87.13513430125704
8365.65 87.10499394392376
8487.33 87.04160316929766
8610.78 86.82674130126733
8736.03 86.69525353311417
8863.09 86.58908618035866
8992.01 86.66319714550951
9122.8 86.74429012636233
9255.5 86.8250916772581
9390.12 86.72026358453684
9526.7 86.63056038204125
9665.27 86.55869486334794
9805.86 86.56602723369764
9948.49 86.64782917552748
10093.2 86.63462083373958
10240.0 86.49855609056266
10388.9 86.26262209502886
10540.1 86.0092540259428
10693.4 85.79978353524275
10848.9 85.57819038845199
11006.7 85.25710347923979
11166.8 85.0248805434023
11329.2 84.89775571799406
11494.0 84.83979378565185
11661.2 84.74842692587329
11830.8 84.66776267598581
12002.9 84.69391249656324
12177.5 84.81214622842546
12354.6 84.88100841034327
12534.3 84.80716302884954
12716.6 84.78157662436784
12901.6 84.98654186803
13089.2 85.36600194125886
13279.6 85.70270110023294
13472.8 86.01026058340643
13668.8 86.42745212684282
13867.6 86.90429593842133
14069.3 87.21457329417198
14273.9 87.3409279508847
14481.5 87.36604498476656
14692.2 87.32315389252778
14905.9 87.20850447985032
15122.7 87.16914028703292
15342.7 87.25514116694676
15565.8 87.23240607148077
15792.2 86.90590502937594
16021.9 86.45647293029135
16255.0 86.05784863104961
16491.4 85.70250651210576
16731.3 85.48274657254399
16974.7 85.40508353504984
17221.6 85.23580147450144
17472.1 84.86507037027748
17726.2 84.50264148530391
17984.0 84.17541218084303
18245.6 83.8706705542894
18511.0 83.6988010983138
18780.2 83.60166469542051
19053.4 83.4484599303532
19330.5 83.27016281876226
19611.7 82.9651412813733
19897.0 82.65358394991523
