Freq,Floor Bounce,Ceiling Bounce,Front Wall Bounce,Side Wall Bounce,Rear Wall Bounce,Total Early Reflection
20.5078,56.289343433839065,56.74088557602346,56.08721104093814,57.57124451334033,61.86104176186211,58.338484766484584
21.9727,60.03323739625364,60.420625715336826,59.78626034496371,61.206878362393866,64.63795026240825,61.6381986841381
23.4375,64.786723228131,64.92182928237659,64.5668073307422,65.55963327363881,67.93027260407354,65.7483989836714
24.9023,68.4098004443689,68.30033051617656,68.16781465260708,68.85070556685554,70.64835638554233,68.98048961354613
26.3672,71.01862746923011,70.79377029229185,70.7533465195659,71.34172521716151,72.89512753267968,71.4388501991668
27.832,72.50972006218089,72.29293724626083,72.27233073581758,72.76986858727544,74.09293425555268,72.8437252460847
29.2969,75.14985192825765,74.85908427110456,74.91047173451788,75.30400249152933,76.32534698413089,75.34399273568594
30.7617,76.889705642134,76.57094026253571,76.65693143355965,76.98976773357592,77.84061335143782,77.01396550019453
32.2266,78.40787379643278,78.05624234950476,78.1869970846663,78.4410397739826,79.08643314091017,78.4505846922234
33.6914,79.62720335870321,79.24540920545404,79.40954811560991,79.61626575484581,80.1314683588186,79.61638969230677
35.1562,80.36509794306873,79.97703481781731,80.15716926540065,80.32804974334914,80.74632028977283,80.32234900524381
36.6211,80.97078843490357,80.53400541999531,80.74850288874586,80.89437457076943,81.2556753263836,80.8872834217024
38.0859,81.3397342277735,80.8984557323929,81.12921512162319,81.23126892025302,81.47123813331551,81.21831146583217
39.5508,81.63573961220271,81.1542473898998,81.41488031452879,81.49290987706264,81.67450629832918,81.47839032515982
41.0156,82.00931465148483,81.5105081213772,81.78773399468415,81.84339408585849,81.95308603472176,81.82424530432937
42.4805,82.1152479760271,81.61491644939633,81.89666531772278,81.94225916758064,82.03548633661123,81.92423169705287
43.9453,82.42723577716957,81.90656885514471,82.20184847520304,82.23835294548508,82.28867382612314,82.21587191511972
45.4102,82.42935718132912,81.84964797039697,82.19156187537179,82.19711845937837,82.19296081839846,82.17605104544707
46.875,82.84743326420181,82.25158735550615,82.59467509649863,82.6107498985088,82.65684965636115,82.59649444113016
48.3398,82.64454477556738,81.97788622356083,82.36406563241856,82.36895980953912,82.40372207044031,82.35705234849863
51.2695,82.5035383325534,81.9338442770073,82.28249744233196,82.23751924758467,82.13684307373347,82.22284003441126
52.7344,82.69772224778251,82.10916315218988,82.47481207182791,82.41132927277374,82.24805702522201,82.39286224372837
54.1992,82.80580430639692,82.21949792898307,82.58474723118974,82.51177832982285,82.31026699851547,82.49137506895357
55.6641,82.90115830395663,82.26799624798174,82.65345633181083,82.60457664217277,82.50103799096524,82.59053723457174
58.5938,82.90943590862383,82.31132676258392,82.69282207441462,82.60441582845509,82.39522980550275,82.5879150593125
60.0586,82.90900093717978,82.30344427998659,82.6901703450256,82.59222516782904,82.35872199353243,82.57638566607743
62.9883,83.034411116683,82.4337132985054,82.81417257246764,82.72165295392142,82.53355939262043,82.71266903388431
64.4531,83.04898759487452,82.44783791724495,82.83186730960338,82.72401723945974,82.52048326619882,82.72005918161267
67.3828,83.26817821931652,82.60510694556676,83.0325141039517,82.90531942352435,82.65306364915094,82.89979260403024
68.8477,83.2209574976157,82.55563608265868,82.98309980933026,82.85972817705354,82.61632902683243,82.85400919405043
71.7773,83.14240011025196,82.46498598217234,82.90596982960953,82.77017217072714,82.53668056360641,82.77108252884388
74.707,83.11101846864912,82.4226354112121,82.88032119331794,82.70608171722824,82.39484309342728,82.71156927305546
77.6367,83.20957311201448,82.52456248820525,82.98017206031645,82.79667985936236,82.44445268287399,82.80037659534015
79.1016,83.15642608833407,82.47070703663329,82.92944903376655,82.7400177603132,82.39956850009628,82.74842373387901
82.0312,83.19872691916564,82.51422580577812,82.97914535270932,82.77351381060221,82.38092429979275,82.77955670728949
84.9609,83.16601078753045,82.45181800956234,82.93609281027605,82.72365217948305,82.3567727091839,82.73724736058296
87.8906,83.12434526143285,82.41674250215124,82.90250066851944,82.67493579361198,82.28948693499659,82.69242263489117
90.8203,83.08195807070732,82.36451027326993,82.86243958046242,82.61400137974624,82.20807074840383,82.63789212771006
95.2148,83.06811720224476,82.29485248532461,82.8288504700142,82.56594857965831,82.15825061667277,82.59612765971461
98.1445,82.95388762354712,82.21358238446129,82.74029374510069,82.44928896235689,81.99573610957707,82.48433921382656
101.074,82.99277137726534,82.21480025749962,82.76456796516574,82.47064814573116,82.04512024701664,82.51147489686103
105.469,82.9106092866315,82.07682995170607,82.68051161326608,82.32961154268399,81.82214277465104,82.38181871533882
108.398,82.8838477369388,81.99787809286715,82.64227788250528,82.27100039124615,81.72092102160475,82.32356615802102
112.793,82.90078535593445,82.04182690598493,82.68150996484293,82.27783624231782,81.64909238001016,82.33304578588027
117.188,82.88297561999886,82.0568412253602,82.67974916058549,82.27165152692477,81.66129817767288,82.33229403934833
120.117,82.92181365432043,82.0644264725479,82.70360124375291,82.28725949166069,81.65609980376487,82.34991606131054
124.512,82.83322783848178,81.91340480613357,82.59100022682009,82.16499867108863,81.57942126643319,82.2398919364507
128.906,82.70664301238169,81.8148884726163,82.48443473641011,82.02293242604973,81.38667725966204,82.10856266922369
133.301,82.69071127525069,81.75163851724525,82.45479429917162,81.97258513642109,81.30564661093402,82.06308314578492
139.16,82.65531183943526,81.66531870234954,82.40879737200991,81.90093518018064,81.26005217119122,82.00711267939877
143.555,82.58914451834644,81.54869413247951,82.33598077665744,81.78689753398082,81.15533180079393,81.914378078367
147.949,82.57308065492373,81.45132436650162,82.30743495347886,81.69494642810332,80.96575675467756,81.8371561589293
153.809,82.63628314105937,81.35529303595263,82.34277565293266,81.65872864317704,80.75800795613642,81.80245314345561
159.668,82.7563630004924,81.50207052740085,82.49218443626995,81.77257635324682,80.70047806867021,81.9054262886533
165.527,82.7216321978178,81.52489379990047,82.46781066464256,81.76792471619363,80.71982950087578,81.89764712224644
171.387,82.63010415964871,81.39730923352175,82.37211232195082,81.65715606810389,80.6582386808918,81.79942688196508
177.246,82.51890676258232,81.28660896049118,82.2769176549432,81.51666489991777,80.50862147875651,81.68043840174235
183.105,82.46547920497926,81.20332226838293,82.22569213279368,81.40637751612998,80.28777373950027,81.58592827104724
188.965,82.44359732415919,81.15315129993473,82.20378541221932,81.3555141211437,80.17314956540281,81.53965520066937
196.289,82.35109599232825,81.07166706812457,82.13333459701379,81.23052159367325,80.01795708899614,81.43902353814472
203.613,82.32093968196739,80.99044610386868,82.09964196322153,81.12834550213739,79.78359443132192,81.35600993670428
210.938,82.34017182431091,80.9107069398599,82.09692356305183,81.06677448092046,79.65628042379669,81.31639855390284
218.262,82.32015470731723,80.81817428625217,82.06536344408072,80.98974242539171,79.464215134145,81.24652176420268
225.586,82.3394281382659,80.76955509284382,82.08390907124125,80.93789794431164,79.29424502759453,81.21525185136228
232.91,82.46742584570659,80.80399926470143,82.21560248326388,80.96516371087935,79.0078603818189,81.25712699454462
241.699,82.68895059548122,80.77548010380757,82.4064247074159,81.07526902328381,78.53434689384167,81.3275430757221
250.488,82.9854664554238,81.1861817428385,82.73836585940235,81.52068113482862,78.76274641468048,81.67474105521364
259.277,82.71785299974945,81.08511507665591,82.51851179377944,81.29634529751534,78.9144088683813,81.50211608299392
268.066,82.73980480972403,81.10856120342433,82.54314882061479,81.3262830087595,78.77770034020773,81.50934613636434
276.855,82.50027893077282,80.85633786277373,82.31723937538237,81.05010679561445,78.65112246451616,81.27616728589584
287.109,82.66330985847881,80.96040741522313,82.41455884620937,81.19905743291959,78.39612316973485,81.36514033738177
297.363,82.55535963362385,80.80196105179229,82.3032364670856,81.03753609661429,78.4640329126471,81.25505329103602
307.617,82.54988349570301,80.90972186242249,82.38360527316415,81.01426396536692,78.28114668660746,81.27060904397969
319.336,82.4593475626286,80.84895213597513,82.34263521301959,80.99962033457051,77.95995024853802,81.1903026620957
329.59,82.4875194366823,80.83379729269872,82.3677783935512,80.94204395625982,77.6296581011411,81.16036854182106
341.309,82.83907529285123,81.07793317025221,82.7283891221332,81.26395480187446,77.33750159029537,81.43527172854309
353.027,82.88008846608102,81.24265983925004,82.84436461898781,81.50597760415499,77.77381284245045,81.59003844946135
366.211,82.77079201753757,81.04827231657526,82.7192983094159,81.33093918815575,77.86129512146151,81.46487526239244
379.395,82.94041627110118,81.03837577609795,82.8926342260773,81.54595187519831,77.53293569882632,81.57087850965166
392.578,82.83422187779473,81.21205245470324,82.91203970830747,81.67346670529558,77.43759022181129,81.59695294086565
405.762,82.42482733468974,80.86906392098248,82.42702482295152,81.1535902921792,77.52944710721474,81.19807331796399
420.41,82.50981259011496,80.5712089157749,82.5616495557052,80.97847980981797,76.97189703018299,81.12419243593058
435.059,82.63859371469366,80.64369104978387,82.79669514377201,81.34070334933483,76.58794424011043,81.28218528631626
451.172,82.64312991839809,80.48344130358846,82.93060330087378,81.61772438557016,76.65435977847777,81.35669405904018
465.82,82.5358733148659,80.48981998773863,82.92292929172257,81.65723485739424,76.4861466569581,81.32417425210897
483.398,82.20696918637557,80.2987094798836,82.64360855699057,81.40837356446639,76.71644612673583,81.08840678805151
499.512,82.05864787792416,79.82491259527703,82.43315032335637,81.15247195442194,76.7402844061462,80.85935772161815
517.09,82.05434481277429,79.22449209774449,82.4176494953678,80.98078570789792,76.44004285270762,80.70416372537579
536.133,81.7542612486339,78.45623423646849,82.4724550923671,80.61656610321072,75.96099309302976,80.42392571364525
555.176,81.88874821694438,78.36355702463925,82.68723739039456,81.20519379914695,75.98933840436207,80.64790869101456
574.219,81.82805689143845,78.65454088259723,82.44575824923164,81.09632347593893,76.0977086290947,80.57475497960002
594.727,81.62093247459528,77.86241208323136,82.22178002352581,80.52472034995795,76.40430172638412,80.25060564281097
615.234,81.78419677069459,77.92399090288868,82.33062632836422,80.03705950882484,76.09639352718796,80.21515772447093
637.207,82.41631465785659,78.17703289097142,82.88911422781811,79.43973398771394,76.2970610256506,80.53214702690316
659.18,82.49069882107932,78.51034700260746,83.01035302993141,79.25409053562623,75.24175086152614,80.53896429358268
682.617,82.59135809652597,78.75419603326714,83.30768398058318,79.55920597187819,75.51350410941835,80.76848139005702
707.52,81.6237129492955,78.81136682197399,82.26293026466146,78.61256368112151,73.66169384837474,79.87364834694807
732.422,81.52687473935589,78.56889497387388,82.34461473962311,79.40594421621316,73.37278173033886,79.95276809997415
757.324,80.89072180628892,78.07446266762334,81.68995153156288,79.16388151040081,73.70326403716206,79.44943990107276
785.156,80.97474306955527,77.7489226581516,82.29961772331383,79.83606461793038,73.08713349880887,79.74213123229427
811.523,80.67479590059963,76.89867401768716,82.63086174330311,79.75236639150816,73.3736632739942,79.68710314596353
840.82,81.04054973174219,75.60325301933187,83.55645504474782,79.78648450333296,73.77500097827541,80.07972079115653
870.117,80.9314669102982,75.6198165196845,83.33503144692902,79.46969434057046,73.77593924624338,79.8970268091682
900.879,80.75656351990621,74.49544479477547,83.17783999925277,79.43034465234302,73.35792213311996,79.6794486958565
933.105,80.52822719659174,74.49088217962525,83.49118876305312,80.00596704854453,72.6505236208066,79.84998707434286
965.332,80.60144744371483,73.56069729492916,82.97697458478324,79.89238958340403,72.97802962231552,79.5754185182381
1000.49,80.10296689374005,73.87444982757138,82.99911985186299,79.41650177540248,73.22719539832067,79.39259853653331
1035.64,79.76450964486325,73.57511222309267,82.72422886337849,79.17913777151217,72.26021357948169,79.07793457246866
1072.27,79.41036908097307,74.50535516551633,82.31677170062889,78.94843312161257,71.46463779203282,78.79108145758343
1108.89,78.91926543862351,74.81977635501107,82.0036337031862,78.39139951872625,71.58140768497994,78.45554467234113
1148.44,78.80149712662138,75.27597414812979,82.10696352918282,78.05744179546909,71.34338092079487,78.44580938586353
1189.45,78.3084352189125,75.93578475914828,82.02949585263718,78.71616070075014,71.10040237335704,78.49820488013584
1230.47,78.40793206303192,75.11744653393292,82.7310587187633,78.3929185424172,70.27420937191535,78.68134607164946
1274.41,78.15407973013045,75.38848175539948,83.03474683511953,78.841863061605,71.22126178895844,78.93123500817366
1319.82,78.54433287438641,75.7502463759464,82.83348118429376,78.46455089489153,70.63128628079431,78.84128037172387
1366.7,78.59627572019639,75.7903010310834,82.99804527078595,78.57460747219511,70.60799692451451,78.95727479073952
1413.57,78.79538077125085,76.09240015156362,82.26104451413107,78.23346092191431,70.34505626579727,78.59929384889878
1463.38,79.00219086407498,76.07445547324033,82.31729366844223,77.58343317452442,69.40894697347922,78.53121782541386
1516.11,79.16832802057661,76.30175856831465,81.92461655414921,76.87696162180487,69.20860700141749,78.30026570232667
1568.85,79.37036653510283,76.96484204357303,82.10044291181941,77.0398956906159,68.56172046116043,78.5269746500062
1624.51,79.00262066573686,77.06858014741246,82.48123804386321,77.48737479564795,68.59196825340801,78.70123384644458
1681.64,78.72086130243386,76.44483260185864,82.68652681064272,77.83038008344991,68.98912995803398,78.72537123939173
1741.7,79.1618777689762,76.11868714069894,83.08951008564854,77.77777546906563,68.65030019483066,78.96880478801219
1803.22,79.08801215835194,76.82090079383667,82.68542879583538,77.47201518173758,68.92447332853548,78.7900084622152
1866.21,79.03156735625504,76.87195950316676,82.1576405958059,76.9536517821629,68.43043248554008,78.44572208471254
1932.13,79.06870482862666,78.01930223700083,81.52562570405715,76.31606905324956,67.33777730996307,78.25295261584948
1999.51,79.0951343775412,77.47457416886495,81.01713468987047,76.05360006956911,67.17359692885422,77.91001817982787
2069.82,78.87936510751439,76.854720436797,81.58989209086255,75.97302094641553,65.87968894201573,77.97088908517327
2143.07,78.73111499228989,76.60497478667054,81.58450744090776,76.27636587055187,65.60814758524629,77.93117549490088
2219.24,78.89960384207083,76.82143319059348,81.65523960081791,76.48967680182677,66.14482736012135,78.07250878028374
2296.88,79.18723874935975,77.71088695701204,81.52015489936194,76.54578013330081,66.61368264098769,78.24259063182072
2378.91,79.03799523285598,77.72883975839906,81.87789061080758,76.57272422644638,66.8463636442116,78.37289128316937
2462.4,79.43027433940097,77.83424044800007,82.11251177697187,76.37517802586058,65.66432065320245,78.55125511275445
2548.83,79.39396215279649,77.32211956907642,81.91351836088862,76.25233708678216,65.17534624184125,78.34804833820641
2639.65,79.09115666776842,77.29853055506044,81.5359259924061,76.11816186177305,65.13019311721003,78.08071906752686
2731.93,79.03878331390854,77.74013368288388,81.6245183544504,76.06113729033912,65.53427131496903,78.18080752888741
2828.61,78.9384513285202,77.79135419666282,82.4347737599229,76.68207834385902,65.28889603452933,78.61640679971187
2928.22,79.11408419092253,77.4099627930942,82.7779144423227,77.1945545250348,65.52739569247429,78.8331213266941
3030.76,79.79504743029044,77.54182041344306,81.71875310589719,76.17024720636894,64.92752575529572,78.39140847674247
3137.7,80.11322882213726,77.42432427310568,80.90705004700104,75.03109689228629,63.63310312042273,77.99739343113029
3249.02,79.36619843921517,77.02044730931844,82.56720945285264,76.27653855389974,63.969769788163475,78.60098662045907
3363.28,79.17963901802861,76.70412643943071,82.75014510889912,76.50024865814927,64.70900489832225,78.64041844500811
3481.93,79.7847861671489,76.95253456484582,81.53434684279657,75.07376643852885,63.73726672275893,78.08404735889019
3604.98,79.73060507826199,76.79213708500191,81.499911073481,74.73710513558376,63.193081023654,77.99153011756616
3732.42,79.50205124085782,76.94412780979172,82.13657001053392,74.99652818013222,62.89034155173843,78.2703401621124
3864.26,79.37462272352812,76.61216152627858,81.42782617321498,74.2833158320865,63.01522237715173,77.78391534935578
4000.49,79.00138042704543,76.78156286306444,81.57447870186907,75.08552724293075,63.819437191733584,77.8600805721926
4141.11,79.0347668311736,76.70702842591288,80.79200774408002,73.91469718402354,62.49312967624019,77.37719999386043
4287.6,79.20011670343249,76.15872248494685,80.61437238365724,74.5528553547089,62.39730664574881,77.32285700817137
4438.48,78.38220276773495,76.3285573300186,81.72999898651668,76.0648669386908,63.884021421772786,77.83376263264711
4595.21,79.06361437770532,76.44877343941025,80.37201775272425,74.58650213109699,61.975339769258284,77.22666535248388
4756.35,78.47829922095096,75.91426165714067,81.4880391094475,75.94447595365246,62.732307159826775,77.65698995148014
4924.8,78.63797703464792,76.7607940657139,81.65880962212249,75.50374017743988,60.438279193723815,77.83396764630248
5097.66,79.28673140817521,76.97595235761554,81.96687608452888,75.79063261487326,62.28496843399782,78.21658457735627
5277.83,79.4460273254402,77.42343463918648,81.81929570551412,75.00437407174587,59.37742526806133,78.16674635352986
5463.87,79.50090117447186,77.21841247647454,82.70051366285162,75.89552334778736,60.979562840241556,78.67108464349946
5657.23,79.399750683339,77.03592088998016,82.08350383474385,75.10682465007126,59.801208764694834,78.228974025233
5856.45,79.42625988728858,76.89695804145732,81.62068823348453,74.58888845840241,60.21484376386178,77.94654880854952
6062.99,79.4485408175471,76.60533942148844,81.8943957978537,75.00292574382266,59.54672581388289,78.07626001528511
6276.86,79.63737425738958,76.6449883777633,80.9440391467486,73.88094439719288,60.44246643175363,77.6042510011101
6498.05,79.65282413616313,76.5567488591742,81.24348591509808,74.57072885619553,59.25257090943143,77.78460614645097
6726.56,79.97208991584763,76.30039092231797,81.51014699325287,74.52617515651121,59.910287696993336,77.96489868679252
6963.87,80.35185919804573,76.3326307184512,81.51378873925299,74.40000519846035,59.271014189609105,78.0822382442609
7209.96,79.99278087596704,76.43636140739648,82.40305075776439,75.45751234747453,60.14588602847574,78.49940963007191
7464.84,80.59078033495027,76.7364996988488,81.52774035255408,74.81916434391636,59.15806010192699,78.2614725167849
7727.05,80.23236922394068,76.43186145202198,82.99014505824582,75.49586481219069,59.8134204967898,78.86432890244315
7999.51,80.38650141779588,76.68363780208635,81.87113222149385,74.40586301696942,59.058496262394215,78.30133394462536
8282.23,80.34353259974438,76.63258831401203,82.10803511975668,75.45191670514605,58.88313289315283,78.4834894288861
8573.73,80.35995325227216,76.63535313071547,81.58171689492114,74.54074659078177,58.9117940462709,78.16756081448855
8876.95,80.2524381262385,76.67659118045941,82.20721119674658,75.41211555714406,59.0966397876727,78.50430774762168
9188.96,80.39157480618425,76.64931149800849,81.76867619352306,75.08773308383536,58.71678870402101,78.31161462989405
9514.16,80.29469853808106,76.86333527049487,81.60742063753199,75.48878289485032,59.53406882674227,78.28230019245788
