Freq "Side Wall Bounce"
20.5078 57.57124451334033
21.9727 61.206878362393866
23.4375 65.55963327363881
24.9023 68.85070556685554
26.3672 71.34172521716151
27.832 72.76986858727544
29.2969 75.30400249152933
30.7617 76.98976773357592
32.2266 78.4410397739826
33.6914 79.61626575484581
35.1562 80.32804974334914
36.6211 80.89437457076943
38.0859 81.23126892025302
39.5508 81.49290987706264
41.0156 81.84339408585849
42.4805 81.94225916758064
43.9453 82.23835294548508
45.4102 82.19711845937837
46.875 82.6107498985088
48.3398 82.36895980953912
51.2695 82.23751924758467
52.7344 82.41132927277374
54.1992 82.51177832982285
55.6641 82.60457664217277
58.5938 82.60441582845509
60.0586 82.59222516782904
62.9883 82.72165295392142
64.4531 82.72401723945974
67.3828 82.90531942352435
68.8477 82.85972817705354
71.7773 82.77017217072714
74.707 82.70608171722824
77.6367 82.79667985936236
79.1016 82.7400177603132
82.0312 82.77351381060221
84.9609 82.72365217948305
87.8906 82.67493579361198
90.8203 82.61400137974624
95.2148 82.56594857965831
98.1445 82.44928896235689
101.074 82.47064814573116
105.469 82.32961154268399
108.398 82.27100039124615
112.793 82.27783624231782
117.188 82.27165152692477
120.117 82.28725949166069
124.512 82.16499867108863
128.906 82.02293242604973
133.301 81.97258513642109
139.16 81.90093518018064
143.555 81.78689753398082
147.949 81.69494642810332
153.809 81.65872864317704
159.668 81.77257635324682
165.527 81.76792471619363
171.387 81.65715606810389
177.246 81.51666489991777
183.105 81.40637751612998
188.965 81.3555141211437
196.289 81.23052159367325
203.613 81.12834550213739
210.938 81.06677448092046
218.262 80.98974242539171
225.586 80.93789794431164
232.91 80.96516371087935
241.699 81.07526902328381
250.488 81.52068113482862
259.277 81.29634529751534
268.066 81.3262830087595
276.855 81.05010679561445
287.109 81.19905743291959
297.363 81.03753609661429
307.617 81.01426396536692
319.336 80.99962033457051
329.59 80.94204395625982
341.309 81.26395480187446
353.027 81.50597760415499
366.211 81.33093918815575
379.395 81.54595187519831
392.578 81.67346670529558
405.762 81.1535902921792
420.41 80.97847980981797
435.059 81.34070334933483
451.172 81.61772438557016
465.82 81.65723485739424
483.398 81.40837356446639
499.512 81.15247195442194
517.09 80.98078570789792
536.133 80.61656610321072
555.176 81.20519379914695
574.219 81.09632347593893
594.727 80.52472034995795
615.234 80.03705950882484
637.207 79.43973398771394
659.18 79.25409053562623
682.617 79.55920597187819
707.52 78.61256368112151
732.422 79.40594421621316
757.324 79.16388151040081
785.156 79.83606461793038
811.523 79.75236639150816
840.82 79.78648450333296
870.117 79.46969434057046
900.879 79.43034465234302
933.105 80.00596704854453
965.332 79.89238958340403
1000.49 79.41650177540248
1035.64 79.17913777151217
1072.27 78.94843312161257
1108.89 78.39139951872625
1148.44 78.05744179546909
1189.45 78.71616070075014
1230.47 78.3929185424172
1274.41 78.841863061605
1319.82 78.46455089489153
1366.7 78.57460747219511
1413.57 78.23346092191431
1463.38 77.58343317452442
1516.11 76.87696162180487
1568.85 77.0398956906159
1624.51 77.48737479564795
1681.64 77.83038008344991
1741.7 77.77777546906563
1803.22 77.47201518173758
1866.21 76.9536517821629
1932.13 76.31606905324956
1999.51 76.05360006956911
2069.82 75.97302094641553
2143.07 76.27636587055187
2219.24 76.48967680182677
2296.88 76.54578013330081
2378.91 76.57272422644638
2462.4 76.37517802586058
2548.83 76.25233708678216
2639.65 76.11816186177305
2731.93 76.06113729033912
2828.61 76.68207834385902
2928.22 77.1945545250348
3030.76 76.17024720636894
3137.7 75.03109689228629
3249.02 76.27653855389974
3363.28 76.50024865814927
3481.93 75.07376643852885
3604.98 74.73710513558376
3732.42 74.99652818013222
3864.26 74.2833158320865
4000.49 75.08552724293075
4141.11 73.91469718402354
4287.6 74.5528553547089
4438.48 76.0648669386908
4595.21 74.58650213109699
4756.35 75.94447595365246
4924.8 75.50374017743988
5097.66 75.79063261487326
5277.83 75.00437407174587
5463.87 75.89552334778736
5657.23 75.10682465007126
5856.45 74.58888845840241
6062.99 75.00292574382266
6276.86 73.88094439719288
6498.05 74.57072885619553
6726.56 74.52617515651121
6963.87 74.40000519846035
7209.96 75.45751234747453
7464.84 74.81916434391636
7727.05 75.49586481219069
7999.51 74.40586301696942
8282.23 75.45191670514605
8573.73 74.54074659078177
8876.95 75.41211555714406
9188.96 75.08773308383536
9514.16 75.48878289485032
9849.61 75.56516344301407
10196.8 74.76660954926245
10555.7 75.34389882326668
10927.7 75.61180577287334
11313.0 75.40382354423731
11712.9 75.55655018107319
12126.0 75.54153642082757
12553.7 75.57329596418325
12996.1 75.27056139044707
13454.6 75.06705475439543
13929.2 74.96431086743115
14419.9 74.51418131209549
14928.2 74.10220079335176
15455.6 73.99820168380509
16000.5 73.70897223054034
16564.5 73.23025211899431
17148.9 72.8525744013175
17752.4 72.29549639519902
18379.4 71.88542761640518
19026.9 71.34978982101617
19697.8 70.91666437173747
19999.5 70.72720046204138
