Freq,On Axis,Listening Window,Sound Power,Early Reflections,Early Reflections DI,Sound Power DI,DI offset
20.5078,61.49723181818182,61.46594805640957,63.13766342161286,62.32413156145496,39.14181649495461,38.32828463479672,40
21.9727,61.27213181818182,61.26505484885256,64.24012784837704,62.93759568981626,38.327459159036295,37.024927000475515,40
23.4375,64.73463181818182,64.74522502067092,67.21711806701872,66.12091333852263,38.62431168214829,37.5281069536522,40
24.9023,67.09283181818182,67.1175883385405,69.22768541140239,68.27626797011119,38.84132036842931,37.88990292713811,40
26.3672,68.71693181818182,68.72765023429339,70.43946205441274,69.63729374518488,39.090356489108515,38.28818817988065,40
27.832,70.07273181818182,70.10811747868604,72.2811775052464,71.30351971301596,38.80459776567008,37.826939973439636,40
29.2969,71.52563181818182,71.56802666039478,73.31239999832356,72.51984808498516,39.04817857540962,38.25562666207122,40
30.7617,73.34733181818183,73.37829957379158,74.75135516065282,74.11218998504887,39.26610958874271,38.62694441313876,40
32.2266,74.34283181818182,74.37130736157644,75.5721764125904,75.00525710823338,39.36605025334306,38.79913094898605,40
33.6914,75.02353181818182,75.05143773903444,76.13155635346126,75.61812174834209,39.43331599069235,38.91988138557318,40
35.1562,75.63433181818182,75.66158131257889,76.62158633012807,76.16256165239561,39.49901966018328,39.03999498245082,40
36.6211,76.27393181818182,76.29807880947881,77.11109895761417,76.7196264710546,39.57845233842421,39.186979851864635,40
38.0859,76.69093181818182,76.7154403165364,77.4890274726756,77.11549627191148,39.59994404462492,39.2264128438608,40
39.5508,77.00603181818182,77.02928007582061,77.69388189419283,77.37134448213348,39.65793559368713,39.33539818162778,40
41.0156,77.43503181818183,77.45892193433477,78.08739086124449,77.78146683147604,39.67745510285873,39.37153107309028,40
42.4805,77.85593181818184,77.87887841043549,78.44906171127381,78.17201141823527,39.70686699220022,39.42981669916168,40
43.9453,78.10743181818182,78.12720357680759,78.61471073387584,78.37489805858935,39.752305518218236,39.51249284293175,40
45.4102,78.41643181818183,78.4358052148416,78.87397941216854,78.65959303975572,39.776212175085874,39.561825802673056,40
46.875,78.70533181818182,78.7255011626232,79.14535937167925,78.93858701923514,39.78691414338806,39.580141790943955,40
48.3398,79.03793181818182,79.0575610861356,79.44869018603184,79.25551893917026,39.80204214696535,39.60887090010377,40
51.2695,79.58133181818182,79.59764938401463,79.89811681522427,79.74689386228265,39.85075552173198,39.69953256879036,40
52.7344,79.90243181818182,79.91743459097229,80.1579099872055,80.03601451990984,39.88142007106245,39.75952460376679,40
54.1992,80.17363181818182,80.18732966877525,80.38601643463194,80.2847291263175,39.90260054245775,39.80131323414331,40
55.6641,80.41503181818184,80.42864258301164,80.62818350291884,80.52579245110857,39.902850131903065,39.80045908009279,40
58.5938,80.88913181818184,80.90277206878154,81.08095933497843,80.98862143889045,39.9141506298911,39.821812733803114,40
60.0586,81.17163181818184,81.18285019147045,81.3070836192475,81.2397934702537,39.94305672121675,39.87576657222294,40
62.9883,81.71343181818182,81.72023875603925,81.73642548499383,81.71483945303915,40.005399303000104,39.98381327104542,40
64.4531,82.01563181818183,82.02253781960779,81.99892723529184,81.99964459838863,40.022893221219164,40.023610584315946,40
67.3828,82.26613181818182,82.27737587301294,82.36851681118812,82.3275071716819,39.94986870133104,39.90885906182483,40
68.8477,82.47353181818183,82.48272203824764,82.55950871816447,82.52140366361459,39.96131837463305,39.92321332008318,40
71.7773,82.93823181818182,82.94381989146076,82.92205039247793,82.92702347152616,40.01679641993461,40.021769498982835,40
74.707,83.33403181818183,83.33795251280593,83.28970639089735,83.30633172100583,40.031620791800094,40.048246121908576,40
77.6367,83.66443181818182,83.66785876748375,83.58895134397291,83.61845304285902,40.049405724624734,40.07890742351084,40
79.1016,83.78383181818182,83.78825569581483,83.72927282981468,83.74808709455478,40.04016860126005,40.05898286600015,40
82.0312,84.07973181818183,84.08328602544736,84.01439111240927,84.03356119030508,40.049724835142285,40.06889491303809,40
84.9609,84.33153181818183,84.33072219390404,84.19285126315756,84.24594399359553,40.084778200308506,40.13787093074647,40
87.8906,84.64493181818183,84.64360137161458,84.53374077648421,84.58335212863908,40.0602492429755,40.10986059513037,40
90.8203,84.86353181818183,84.86191453344311,84.76966319298946,84.81006794876812,40.05184658467499,40.09225134045366,40
95.2148,85.15363181818182,85.14740777039309,85.01717183355193,85.0682501884193,40.07915758197379,40.13023593684116,40
98.1445,85.36893181818182,85.35847319960655,85.15729363736405,85.23854024389323,40.119932955713324,40.2011795622425,40
101.074,85.63003181818182,85.61452740807657,85.2836233232493,85.42474171442332,40.18978569365325,40.33090408482727,40
105.469,85.82803181818183,85.8106841993191,85.40816041370508,85.5984392814568,40.21224491786229,40.40252378561402,40
108.398,85.83653181818183,85.82022643148083,85.48172427086422,85.64120888676207,40.17901754471876,40.33850216061661,40
112.793,85.73933181818181,85.72240720653761,85.45197950029788,85.55855946265348,40.16384774388413,40.27042770623973,40
117.188,85.96263181818182,85.94062664698548,85.52787268604946,85.68298092016605,40.25764572681943,40.412753960936016,40
120.117,86.13473181818182,86.11703858515112,85.7725772684168,85.91938421498988,40.197654370161246,40.344461316734325,40
124.512,86.25503181818182,86.2287294639988,85.84807062978653,86.01219970691751,40.21652975708129,40.38065883421227,40
128.906,86.39983181818182,86.36413533261427,85.75259176942873,86.0204086730641,40.34372665955017,40.611543563185535,40
133.301,86.36803181818182,86.3341460622722,85.68692863902145,85.97978568893306,40.354360373339134,40.64721742325075,40
139.16,86.0773318181818,86.04449467824391,85.45144541201209,85.7081554006864,40.336339277557514,40.593049266231816,40
143.555,86.13943181818182,86.09525819314219,85.39985414477802,85.69432337327342,40.400934819868766,40.69540404836417,40
147.949,86.1946318181818,86.15606632176132,85.56914821285469,85.83728501390878,40.31878130785253,40.58691810890663,40
153.809,85.84423181818183,85.81142960619604,85.11634011435505,85.44117482413586,40.37025478206019,40.69508949184099,40
159.668,85.39053181818183,85.35121986725402,84.86868759369004,85.09360756415104,40.257612303102974,40.482532273563976,40
165.527,85.41033181818183,85.34295023841099,84.46540440351923,84.83361057136648,40.509339667044514,40.87754583489176,40
171.387,85.42013181818182,85.38186665878365,84.81616159840246,85.07568359379309,40.30618306499056,40.56570506038119,40
177.246,85.53573181818183,85.47015146458561,84.66172746354249,85.01233176731883,40.457819697266785,40.80842400104312,40
183.105,85.61393181818183,85.54574122798257,84.76787697551804,85.09436247228311,40.451378755699466,40.77786425246454,40
188.965,85.66953181818182,85.59183992707162,84.56319416316407,85.02033117054717,40.57150875652445,41.02864576390755,40
196.289,85.11413181818183,85.03786888537422,84.18050736205487,84.57919836858773,40.4586705167865,40.857361523319355,40
203.613,85.24293181818183,85.15585601046358,83.93161114149324,84.4572281329949,40.69862787746868,41.224244868970345,40
210.938,85.28643181818182,85.20099911876834,83.5914625597505,84.35901937421998,40.841979744548354,41.60953655901784,40
218.262,84.85253181818183,84.79856730527005,83.85820548766104,84.31464109996571,40.48392620530434,40.940361817609016,40
225.586,84.62593181818183,84.54356098086643,83.38099444942246,83.92073139073122,40.62282959013521,41.16256653144397,40
232.91,84.34803181818182,84.27871468533257,83.18916056674182,83.69942555933146,40.579289126001115,41.089554118590755,40
241.699,84.48193181818182,84.35161823910396,82.61518229507317,83.39549958766882,40.95611865143513,41.73643594403079,40
250.488,84.36913181818183,84.25162921476289,82.79708056180951,83.45900346363528,40.7926257511276,41.45454865295338,40
259.277,84.85193181818182,84.74207954593989,82.863428955639,83.80109569153693,40.94098385440296,41.87865059030089,40
268.066,84.06733181818183,83.97607029854039,82.96772634670789,83.45690668249944,40.519163616040956,41.0083439518325,40
276.855,83.41043181818182,83.30128309493828,82.11681357568393,82.58006737105124,40.72121572388704,41.18446951925435,40
287.109,83.36393181818183,83.19376466883578,82.04297552156963,82.41878389194056,40.77498077689522,41.15078914726615,40
297.363,85.37733181818183,85.21280876502566,82.90208794265091,83.90785953189534,41.304949233130316,42.31072082237475,40
307.617,84.82633181818183,84.63508488527836,82.81657447875773,83.65609713334544,40.97898775193292,41.81851040652063,40
319.336,84.50843181818182,84.355894155144,82.22331981827814,83.18414343657143,41.17175071857257,42.13257433686586,40
329.59,84.94313181818184,84.76172990461986,82.24467552687388,83.5119758462817,41.249754058338155,42.51705437774598,40
341.309,84.57653181818182,84.40287144090904,82.07881154574993,83.13682970933947,41.26604173156957,42.32405989515911,40
353.027,85.01463181818183,84.8427905435525,82.03820050192859,83.48194685875659,41.36084368479591,42.80459004162391,40
366.211,85.28233181818183,85.12106969680535,82.34592210083063,83.70156258191561,41.41950711488974,42.775147595974715,40
379.395,84.90503181818183,84.76229122373553,82.10388842822924,83.37391148328297,41.388379740452564,42.65840279550629,40
392.578,85.07963181818182,84.96718620376316,82.24172096144353,83.62185916363026,41.3453270401329,42.72546524231963,40
405.762,85.28933181818182,85.13667625830763,82.46065790387529,83.8138965513651,41.322779706942526,42.676018354432344,40
420.41,85.62073181818182,85.41382304970135,82.29666246698618,83.92184572467319,41.49197732502816,43.11716058271517,40
435.059,85.80263181818182,85.62521144680058,82.27603839441751,83.91903579052773,41.70617565627285,43.349173052383065,40
451.172,84.77983181818182,84.73075615986356,81.77253566860232,83.35300695492244,41.377749204941125,42.958220491261244,40
465.82,85.02683181818183,84.92698353574738,82.02844120486016,83.63480574505,41.29217779069738,42.898542330887224,40
483.398,85.85573181818181,85.63463650943648,82.06569975028899,83.81649258753266,41.81814392190381,43.56893675914749,40
499.512,84.58573181818183,84.34408839570891,81.35629807679099,82.86334700913872,41.48074138657019,42.98779031891792,40
517.09,84.23293181818183,84.11475276769198,80.89751160853159,82.61865708779484,41.49609567989714,43.217241159160395,40
536.133,83.99463181818182,83.84080406572791,80.59625985083623,82.1557295678776,41.68507449785031,43.244544214891675,40
555.176,84.29373181818183,84.07424469907845,80.63874139323742,82.38489005496355,41.6893546441149,43.435503305841024,40
574.219,84.97403181818184,84.7030241549188,80.77081295010008,82.58916068776458,42.11386346715422,43.932211204818714,40
594.727,84.44683181818182,84.31992423700699,81.1095304194822,82.9136241596541,41.40630007735288,43.21039381752479,40
615.234,85.58123181818182,85.24299529899874,81.17725616956808,83.06955346059907,42.17344183839967,44.06573912943065,40
637.207,85.57753181818184,85.27045788593102,81.32343984762957,83.28362015811453,41.98683772781649,43.94701803830145,40
659.18,85.83613181818183,85.48243557963548,81.52400348436993,83.44650044318577,42.03593513644971,43.95843209526555,40
682.617,86.00153181818182,85.53541465873806,81.43051614517105,83.44528667988907,42.090127978849,44.10489851356701,40
707.52,86.63693181818182,86.27288917749297,81.4223436066424,83.90751878909849,42.36537038839448,44.85054557085057,40
732.422,85.96143181818182,85.5779268281159,81.03091840146566,83.35153688715498,42.22638994096093,44.54700842665025,40
757.324,87.56913181818182,86.92870960843418,81.32702847213622,83.90957683070236,43.01913277773181,45.601681136297955,40
785.156,85.95033181818182,85.80701126395304,80.71728273376989,83.2030300992066,42.60398116474644,45.08972853018315,40
811.523,86.75233181818184,86.26249583915815,80.79859780075851,83.23923286404894,43.023262975109205,45.463898038399634,40
840.82,86.34213181818183,86.07603224631406,80.62715821948534,83.0299489364989,43.04608330981516,45.44887402682872,40
870.117,86.23013181818182,85.97447323517049,80.14382659743475,82.80868685513826,43.16578638003223,45.83064663773574,40
900.879,86.02533181818183,85.78381222390763,80.01744677754832,82.61538490872191,43.168427315185724,45.766365446359316,40
933.105,85.98273181818182,85.48992394558958,79.46812970262518,82.21303818034635,43.276885765243236,46.021794242964404,40
965.332,85.89643181818182,85.50235562711516,79.16193438531495,82.01871448348854,43.48364114362663,46.340421241800215,40
1000.49,85.54453181818182,84.99012834102133,78.6608290493436,81.32372105229899,43.66640728872234,46.32929929167773,40
1035.64,85.84713181818182,85.35211667240826,78.67854157200931,81.36823727838679,43.98387939402147,46.67357510039895,40
1072.27,85.62293181818181,85.14021362029756,78.71710046943058,81.26385724779219,43.87635637250537,46.42311315086698,40
1108.89,86.03713181818182,85.3652834735205,78.65497983744962,81.23216976959513,44.133113703925375,46.71030363607089,40
1148.44,85.63083181818182,85.16332278075423,78.77484526463773,81.17040465002633,43.9929181307279,46.388477516116495,40
1189.45,86.03833181818183,85.30226145575485,78.63262461282298,81.05793544137823,44.24432601437661,46.669636842931865,40
1230.47,85.07143181818182,84.57743130688256,78.2642441648231,80.59003788812446,43.9873934187581,46.31318714205946,40
1274.41,84.65773181818183,84.27065579719194,78.09962622976595,80.18276308554628,44.08789271164565,46.17102956742599,40
1319.82,85.40303181818183,84.61804362019208,78.1858077893756,80.45363812306154,44.164405497130545,46.43223583081648,40
1366.7,85.17933181818182,84.6855345574501,78.46661673868464,80.51405809751633,44.17147645993377,46.21891781876546,40
1413.57,85.50033181818182,85.09602193394359,78.54857628592713,80.64316143741317,44.45286049653042,46.54744564801646,40
1463.38,86.37183181818182,85.45919444595417,78.56262083458085,80.8975599645208,44.56163448143337,46.89657361137331,40
1516.11,85.8248318181818,85.0078469367337,78.36242726024976,80.60608864188531,44.40175829484839,46.64541967648394,40
1568.85,85.30853181818182,84.76448873811857,78.28400215696358,80.68604200179927,44.07844673631931,46.48048658115499,40
1624.51,85.62143181818182,84.98222198741603,78.1719429817305,80.83858049796265,44.14364148945337,46.81027900568553,40
1681.64,85.94583181818183,85.03403752477041,78.46109204063039,81.1838028751686,43.850234649601816,46.57294548414002,40
1741.7,85.54733181818182,84.60181971003155,78.1784547262742,80.97758803305925,43.6242316769723,46.42336498375735,40
1803.22,85.53093181818183,84.4911231664849,78.32305286962044,81.09481312142643,43.39631004505847,46.16807029686446,40
1866.21,85.68743181818182,84.85410662565558,78.74082206556909,81.66180791991341,43.19229870574216,46.113284560086484,40
1932.13,85.90143181818182,85.02581691202167,78.86582241361609,81.5480361413478,43.477780770673874,46.15999449840558,40
1999.51,85.16333181818183,84.50376128334698,78.79239585711495,81.5674929767228,42.93626830662417,45.71136542623202,40
2069.82,84.74653181818182,84.23617207770398,78.80127820172727,81.35511537543928,42.8810567022647,45.43489387597671,40
2143.07,84.37603181818183,84.40492389808136,79.01247962924965,81.61393306462205,42.79099083345932,45.39244426883171,40
2219.24,84.4763318181818,83.92580770400586,78.82784640946932,81.66991673733743,42.25589096666843,45.097961294536546,40
2296.88,83.26793181818182,83.15661599436712,78.5727366047982,81.47063135686405,41.68598463750307,44.58387938956892,40
2378.91,83.06823181818183,83.32821167476713,79.15514509655324,81.64620347493529,41.68200819983184,44.17306657821389,40
2462.4,83.67083181818182,84.07298697524529,79.38186044466902,82.12821753586893,41.94476943937636,44.69112653057627,40
2548.83,84.70483181818183,84.30722803837335,79.7752812601509,82.966121802206,41.34110623616735,44.53194677822245,40
2639.65,85.21463181818181,85.74077493616439,80.42567246375468,83.53785672200168,42.20291821416271,45.315102472409706,40
2731.93,85.69993181818181,86.1042018430701,80.44689297033348,83.81507034072557,42.28913150234453,45.65730887273662,40
2828.61,85.77043181818182,86.09723107965932,80.54597984294065,83.93400105493173,42.163230024727596,45.55125123671867,40
2928.22,85.78173181818183,86.09792459904038,80.37001906834506,83.88104737730355,42.21687722173684,45.727905530695324,40
3030.76,87.05583181818183,86.92375090123144,80.61212470333298,84.24757156430623,42.676179336925216,46.31162619789846,40
3137.7,86.88503181818182,86.82566209940983,80.74256310598922,84.3651913681012,42.46047073130863,46.083098993420606,40
3249.02,87.53133181818184,87.22386539976709,80.78752368205859,84.37725665842719,42.84660874133991,46.4363417177085,40
3363.28,87.12583181818182,87.27818457150461,80.82221504045772,84.3527463589254,42.92543821257921,46.45596953104689,40
3481.93,87.06943181818183,87.44463996212824,80.66326620788713,84.19200513246025,43.25263482966798,46.7813737542411,40
3604.98,87.17563181818183,87.24672311188665,80.38720579981913,84.04799937494823,43.19872373693842,46.859517312067524,40
3732.42,87.87603181818183,87.41921328786222,80.23514407911715,84.01070602948086,43.40850725838136,47.18406920874507,40
3864.26,88.03483181818183,87.53761612069341,80.1884217838216,84.09016199523307,43.44745412546034,47.34919433687182,40
4000.49,87.90323181818182,87.32586799289993,79.8342195623572,83.73333771472569,43.59253027817424,47.491648430542725,40
4141.11,87.99643181818182,87.32039117226337,79.9526366793863,83.67397144484153,43.64641972742184,47.36775449287707,40
4287.6,87.56783181818183,86.83316904817156,79.48987697591365,83.29771056327196,43.53545848489959,47.34329207225791,40
4438.48,87.43823181818182,86.63084139859107,79.4108142137331,82.99302862476706,43.63781277382401,47.22002718485797,40
4595.21,87.06203181818182,86.56915676515762,79.02924429778814,82.7515161847314,43.817640580426215,47.539912467369476,40
4756.35,87.03313181818183,86.50012749176402,79.05850593755831,82.92227420943448,43.57785328232954,47.44162155420571,40
4924.8,87.36393181818183,86.52464755952532,79.06805195605102,83.02658492275022,43.4980626367751,47.4565956034743,40
5097.66,87.30723181818182,86.50585335986997,78.84365801783056,82.86630904952463,43.63954431034534,47.66219534203941,40
5277.83,86.91663181818184,86.2112771795148,78.54077878378907,82.64164427069744,43.569632908817354,47.67049839572573,40
5463.87,87.15163181818183,86.35363738059338,78.48867997277024,82.65984461596993,43.69379276462345,47.86495740782314,40
5657.23,87.21113181818183,86.49274389658764,78.57739771341805,82.7947038247806,43.69804007180704,47.91534618316959,40
5856.45,86.92123181818182,86.38115520329809,78.81245430323186,82.78334836638386,43.59780683691423,47.56870090006623,40
6062.99,86.48353181818183,85.8861202065247,78.59810981410423,82.4349974283226,43.45112277820209,47.28801039242046,40
6276.86,85.65923181818182,85.48488932974848,78.42808011408816,82.23102372929398,43.2538656004545,47.05680921566032,40
6498.05,85.39373181818182,85.13164003879693,78.24663781490996,82.05166448469485,43.07997555410208,46.88500222388697,40
6726.56,84.69743181818183,84.51264741404948,77.9175356953561,81.80904474785383,42.70360266619565,46.59511171869339,40
6963.87,83.53463181818184,83.90985196011418,77.68709556304795,81.51748083672496,42.392371123389225,46.222756397066235,40
7209.96,82.34323181818182,83.413927202528,77.4937960036207,81.28529984126313,42.128627361264876,45.9201311989073,40
7464.84,81.64173181818184,83.07025983225616,77.21734563973156,80.98014248125382,42.090117351002334,45.852914192524594,40
7727.05,81.78513181818182,83.16034606280608,77.00306799148753,80.69160374151048,42.46874232129561,46.15727807131856,40
7999.51,83.45503181818182,83.67653623419828,76.92468520146348,80.69853442832661,42.97800180587167,46.751851032734805,40
