Freq "Listening Window"
20.5078 61.46594805640957
21.9727 61.26505484885256
23.4375 64.74522502067092
24.9023 67.1175883385405
26.3672 68.72765023429339
27.832 70.10811747868604
29.2969 71.56802666039478
30.7617 73.37829957379158
32.2266 74.37130736157644
33.6914 75.05143773903444
35.1562 75.66158131257889
36.6211 76.29807880947881
38.0859 76.7154403165364
39.5508 77.02928007582061
41.0156 77.45892193433477
42.4805 77.87887841043549
43.9453 78.12720357680759
45.4102 78.4358052148416
46.875 78.7255011626232
48.3398 79.0575610861356
51.2695 79.59764938401463
52.7344 79.91743459097229
54.1992 80.18732966877525
55.6641 80.42864258301164
58.5938 80.90277206878154
60.0586 81.18285019147045
62.9883 81.72023875603925
64.4531 82.02253781960779
67.3828 82.27737587301294
68.8477 82.48272203824764
71.7773 82.94381989146076
74.707 83.33795251280593
77.6367 83.66785876748375
79.1016 83.78825569581483
82.0312 84.08328602544736
84.9609 84.33072219390404
87.8906 84.64360137161458
90.8203 84.86191453344311
95.2148 85.14740777039309
98.1445 85.35847319960655
101.074 85.61452740807657
105.469 85.8106841993191
108.398 85.82022643148083
112.793 85.72240720653761
117.188 85.94062664698548
120.117 86.11703858515112
124.512 86.2287294639988
128.906 86.36413533261427
133.301 86.3341460622722
139.16 86.04449467824391
143.555 86.09525819314219
147.949 86.15606632176132
153.809 85.81142960619604
159.668 85.35121986725402
165.527 85.34295023841099
171.387 85.38186665878365
177.246 85.47015146458561
183.105 85.54574122798257
188.965 85.59183992707162
196.289 85.03786888537422
203.613 85.15585601046358
210.938 85.20099911876834
218.262 84.79856730527005
225.586 84.54356098086643
232.91 84.27871468533257
241.699 84.35161823910396
250.488 84.25162921476289
259.277 84.74207954593989
268.066 83.97607029854039
276.855 83.30128309493828
287.109 83.19376466883578
297.363 85.21280876502566
307.617 84.63508488527836
319.336 84.355894155144
329.59 84.76172990461986
341.309 84.40287144090904
353.027 84.8427905435525
366.211 85.12106969680535
379.395 84.76229122373553
392.578 84.96718620376316
405.762 85.13667625830763
420.41 85.41382304970135
435.059 85.62521144680058
451.172 84.73075615986356
465.82 84.92698353574738
483.398 85.63463650943648
499.512 84.34408839570891
517.09 84.11475276769198
536.133 83.84080406572791
555.176 84.07424469907845
574.219 84.7030241549188
594.727 84.31992423700699
615.234 85.24299529899874
637.207 85.27045788593102
659.18 85.48243557963548
682.617 85.53541465873806
707.52 86.27288917749297
732.422 85.5779268281159
757.324 86.92870960843418
785.156 85.80701126395304
811.523 86.26249583915815
840.82 86.07603224631406
870.117 85.97447323517049
900.879 85.78381222390763
933.105 85.48992394558958
965.332 85.50235562711516
1000.49 84.99012834102133
1035.64 85.35211667240826
1072.27 85.14021362029756
1108.89 85.3652834735205
1148.44 85.16332278075423
1189.45 85.30226145575485
1230.47 84.57743130688256
1274.41 84.27065579719194
1319.82 84.61804362019208
1366.7 84.6855345574501
1413.57 85.09602193394359
1463.38 85.45919444595417
1516.11 85.0078469367337
1568.85 84.76448873811857
1624.51 84.98222198741603
1681.64 85.03403752477041
1741.7 84.60181971003155
1803.22 84.4911231664849
1866.21 84.85410662565558
1932.13 85.02581691202167
1999.51 84.50376128334698
2069.82 84.23617207770398
2143.07 84.40492389808136
2219.24 83.92580770400586
2296.88 83.15661599436712
2378.91 83.32821167476713
2462.4 84.07298697524529
2548.83 84.30722803837335
2639.65 85.74077493616439
2731.93 86.1042018430701
2828.61 86.09723107965932
2928.22 86.09792459904038
3030.76 86.92375090123144
3137.7 86.82566209940983
3249.02 87.22386539976709
3363.28 87.27818457150461
3481.93 87.44463996212824
3604.98 87.24672311188665
3732.42 87.41921328786222
3864.26 87.53761612069341
4000.49 87.32586799289993
4141.11 87.32039117226337
4287.6 86.83316904817156
4438.48 86.63084139859107
4595.21 86.56915676515762
4756.35 86.50012749176402
4924.8 86.52464755952532
5097.66 86.50585335986997
5277.83 86.2112771795148
5463.87 86.35363738059338
5657.23 86.49274389658764
5856.45 86.38115520329809
6062.99 85.8861202065247
6276.86 85.48488932974848
6498.05 85.13164003879693
6726.56 84.51264741404948
6963.87 83.90985196011418
7209.96 83.413927202528
7464.84 83.07025983225616
7727.05 83.16034606280608
7999.51 83.67653623419828
8282.23 84.22968735266487
8573.73 84.70872084440207
8876.95 85.15383741029221
9188.96 85.39394035385924
9514.16 85.44004885490853
9849.61 85.53715418125381
10196.8 85.49341358487594
10555.7 85.3608291972784
10927.7 85.2784732739892
11313.0 85.18603227086065
11712.9 85.19574199579426
12126.0 85.22420660117344
12553.7 85.22187469450745
12996.1 85.24282392710819
13454.6 85.35607750711547
13929.2 85.33347358539761
14419.9 85.74717716360377
14928.2 85.87761662783991
15455.6 85.84207887905578
16000.5 85.228741077544
16564.5 84.21768287887164
17148.9 83.99340705873244
17752.4 84.8188643935676
18379.4 84.15812225406536
19026.9 83.46138986500586
19697.8 82.91998243272249
19999.5 82.85294952455435
