Freq "On Axis"
20.5078 61.49723181818182
21.9727 61.27213181818182
23.4375 64.73463181818182
24.9023 67.09283181818182
26.3672 68.71693181818182
27.832 70.07273181818182
29.2969 71.52563181818182
30.7617 73.34733181818183
32.2266 74.34283181818182
33.6914 75.02353181818182
35.1562 75.63433181818182
36.6211 76.27393181818182
38.0859 76.69093181818182
39.5508 77.00603181818182
41.0156 77.43503181818183
42.4805 77.85593181818184
43.9453 78.10743181818182
45.4102 78.41643181818183
46.875 78.70533181818182
48.3398 79.03793181818182
51.2695 79.58133181818182
52.7344 79.90243181818182
54.1992 80.17363181818182
55.6641 80.41503181818184
58.5938 80.88913181818184
60.0586 81.17163181818184
62.9883 81.71343181818182
64.4531 82.01563181818183
67.3828 82.26613181818182
68.8477 82.47353181818183
71.7773 82.93823181818182
74.707 83.33403181818183
77.6367 83.66443181818182
79.1016 83.78383181818182
82.0312 84.07973181818183
84.9609 84.33153181818183
87.8906 84.64493181818183
90.8203 84.86353181818183
95.2148 85.15363181818182
98.1445 85.36893181818182
101.074 85.63003181818182
105.469 85.82803181818183
108.398 85.83653181818183
112.793 85.73933181818181
117.188 85.96263181818182
120.117 86.13473181818182
124.512 86.25503181818182
128.906 86.39983181818182
133.301 86.36803181818182
139.16 86.0773318181818
143.555 86.13943181818182
147.949 86.1946318181818
153.809 85.84423181818183
159.668 85.39053181818183
165.527 85.41033181818183
171.387 85.42013181818182
177.246 85.53573181818183
183.105 85.61393181818183
188.965 85.66953181818182
196.289 85.11413181818183
203.613 85.24293181818183
210.938 85.28643181818182
218.262 84.85253181818183
225.586 84.62593181818183
232.91 84.34803181818182
241.699 84.48193181818182
250.488 84.36913181818183
259.277 84.85193181818182
268.066 84.06733181818183
276.855 83.41043181818182
287.109 83.36393181818183
297.363 85.37733181818183
307.617 84.82633181818183
319.336 84.50843181818182
329.59 84.94313181818184
341.309 84.57653181818182
353.027 85.01463181818183
366.211 85.28233181818183
379.395 84.90503181818183
392.578 85.07963181818182
405.762 85.28933181818182
420.41 85.62073181818182
435.059 85.80263181818182
451.172 84.77983181818182
465.82 85.02683181818183
483.398 85.85573181818181
499.512 84.58573181818183
517.09 84.23293181818183
536.133 83.99463181818182
555.176 84.29373181818183
574.219 84.97403181818184
594.727 84.44683181818182
615.234 85.58123181818182
637.207 85.57753181818184
659.18 85.83613181818183
682.617 86.00153181818182
707.52 86.63693181818182
732.422 85.96143181818182
757.324 87.56913181818182
785.156 85.95033181818182
811.523 86.75233181818184
840.82 86.34213181818183
870.117 86.23013181818182
900.879 86.02533181818183
933.105 85.98273181818182
965.332 85.89643181818182
1000.49 85.54453181818182
1035.64 85.84713181818182
1072.27 85.62293181818181
1108.89 86.03713181818182
1148.44 85.63083181818182
1189.45 86.03833181818183
1230.47 85.07143181818182
1274.41 84.65773181818183
1319.82 85.40303181818183
1366.7 85.17933181818182
1413.57 85.50033181818182
1463.38 86.37183181818182
1516.11 85.8248318181818
1568.85 85.30853181818182
1624.51 85.62143181818182
1681.64 85.94583181818183
1741.7 85.54733181818182
1803.22 85.53093181818183
1866.21 85.68743181818182
1932.13 85.90143181818182
1999.51 85.16333181818183
2069.82 84.74653181818182
2143.07 84.37603181818183
2219.24 84.4763318181818
2296.88 83.26793181818182
2378.91 83.06823181818183
2462.4 83.67083181818182
2548.83 84.70483181818183
2639.65 85.21463181818181
2731.93 85.69993181818181
2828.61 85.77043181818182
2928.22 85.78173181818183
3030.76 87.05583181818183
3137.7 86.88503181818182
3249.02 87.53133181818184
3363.28 87.12583181818182
3481.93 87.06943181818183
3604.98 87.17563181818183
3732.42 87.87603181818183
3864.26 88.03483181818183
4000.49 87.90323181818182
4141.11 87.99643181818182
4287.6 87.56783181818183
4438.48 87.43823181818182
4595.21 87.06203181818182
4756.35 87.03313181818183
4924.8 87.36393181818183
5097.66 87.30723181818182
5277.83 86.91663181818184
5463.87 87.15163181818183
5657.23 87.21113181818183
5856.45 86.92123181818182
6062.99 86.48353181818183
6276.86 85.65923181818182
6498.05 85.39373181818182
6726.56 84.69743181818183
6963.87 83.53463181818184
7209.96 82.34323181818182
7464.84 81.64173181818184
7727.05 81.78513181818182
7999.51 83.45503181818182
8282.23 84.50043181818182
8573.73 85.21203181818183
8876.95 85.78373181818182
9188.96 86.16033181818183
9514.16 86.27973181818182
9849.61 86.38303181818182
10196.8 86.39393181818183
10555.7 86.24483181818182
10927.7 86.44433181818182
11313.0 86.35313181818181
11712.9 86.5474318181818
12126.0 86.58893181818182
12553.7 86.62373181818182
12996.1 86.60953181818182
13454.6 86.72873181818183
13929.2 86.77573181818182
14419.9 87.34683181818183
14928.2 87.60653181818184
15455.6 87.66713181818183
16000.5 87.08813181818182
16564.5 85.80603181818181
17148.9 85.69173181818182
17752.4 86.94643181818182
18379.4 86.37923181818182
19026.9 85.61803181818182
19697.8 85.05543181818183
19999.5 85.12003181818183
