Freq "Ceiling Bounce"
22.4 27.04576719438468
23.0 32.21592692226706
23.6 33.84576719438469
24.0 34.34576719438469
25.0 34.082199673323046
25.8 32.1122717831562
26.5 29.212271783156197
27.2 30.17609175449222
28.0 32.17609175449222
29.0 34.97609175449223
30.0 38.406905010354606
30.7 41.70690501035459
31.5 44.70690501035459
32.5 47.5069050103546
33.5 50.0069050103546
34.5 52.20690501035459
35.5 54.03821129888742
36.5 55.70690501035459
37.5 57.30690501035458
38.7 58.83821129888743
40.0 60.273879612228185
41.2 61.64136150423586
42.5 62.977830805945686
43.7 64.5840783937255
45.0 65.6162794008364
46.2 66.34680983520815
47.5 67.21627940083641
48.7 68.01227178315618
50.0 68.84283030471974
51.5 69.44283030471975
53.0 70.04283030471974
54.5 70.84283030471973
56.0 71.44283030471973
58.0 72.24283030471973
60.0 73.34283030471975
61.5 74.24283030471975
63.0 74.94283030471975
65.0 75.7122717831562
67.0 76.54283030471974
69.0 77.41227178315619
71.0 78.31227178315619
73.0 79.31227178315619
75.0 80.21227178315618
77.5 81.24283030471973
80.0 81.9760917544922
82.5 82.37609175449221
85.0 82.70690501035459
87.5 82.87609175449221
90.0 82.84576719438469
92.5 82.57609175449223
95.0 82.08219967332303
97.5 81.68219967332304
100.0 81.48219967332305
103.0 81.31227178315618
106.0 81.27609175449221
109.0 81.30690501035458
112.0 81.4069050103546
115.0 81.4069050103546
118.0 81.4069050103546
122.0 81.4069050103546
125.0 81.5069050103546
128.0 81.60690501035458
132.0 81.64283030471974
136.0 81.54283030471974
140.0 81.27609175449221
145.0 80.91227178315619
150.0 80.51227178315618
155.0 80.4122717831562
160.0 80.54283030471974
165.0 80.8069050103546
170.0 81.1069050103546
175.0 81.20690501035459
180.0 81.30690501035458
185.0 81.1069050103546
190.0 80.81227178315619
195.0 80.51916705502754
200.0 80.45667255930051
206.0 80.42758719283593
212.0 80.39471929119203
218.0 80.36588846059686
224.0 80.32758719283592
230.0 80.19897445130924
236.0 79.9096325668162
240.0 79.46194867563766
250.0 79.07641629732153
258.0 78.87641629732151
265.0 78.77641629732153
272.0 79.0026545034034
280.0 79.83546263134683
290.0 80.85521969308378
300.0 81.48219812790056
307.0 81.64898359150841
315.0 81.70963256681621
325.0 81.57082970284299
335.0 81.17082970284298
345.0 80.62179738688896
355.0 80.48219812790056
365.0 80.42179738688897
375.0 80.3950645803583
387.0 80.55521969308379
400.0 80.52179738688893
412.0 80.1687803399679
425.0 80.13546263134683
437.0 80.2489835915084
450.0 80.37662798253905
462.0 80.5096325668162
475.0 80.26194867563765
487.0 79.90265450340341
500.0 78.992378988098
515.0 78.32875610128313
530.0 78.58538710465899
545.0 78.5491520399883
560.0 78.72875610128314
580.0 79.06136837622765
600.0 79.18161208533421
615.0 79.51457895753309
630.0 79.8377673428554
650.0 79.7145789575331
670.0 79.43610707977349
690.0 79.4145789575331
710.0 79.3361070797735
730.0 79.70330383828929
750.0 79.6033038382893
775.0 79.42643297742508
800.0 79.3509882350122
825.0 79.47695775614916
850.0 79.36493035341094
875.0 79.51664590330462
900.0 79.6888886353865
925.0 79.48343461029552
950.0 78.59179815677408
975.0 77.3429397936019
1000.0 75.51592692226706
1030.0 73.30228461396018
1060.0 71.22402487026022
1090.0 71.66061809080708
1120.0 73.1424510581996
1150.0 74.11145898042548
1180.0 74.53403046914814
1220.0 74.74552333168525
1250.0 75.1948466445546
1280.0 75.3493489016972
1320.0 74.96001642302816
1360.0 74.53212822852755
1400.0 74.13647412390415
1450.0 72.81227178315618
1500.0 71.9214908538715
1550.0 72.06512911208581
1600.0 72.9430093559429
1650.0 73.34519084191034
1700.0 74.57183354972273
1750.0 75.5171946831857
1800.0 75.42681138838012
1850.0 74.66563268960988
1900.0 75.93183881345315
1950.0 76.56668552790022
2000.0 74.76283617001535
2060.0 73.68655400819432
2120.0 75.55445848526062
2180.0 74.38367895591848
2240.0 71.79038359990246
2300.0 75.12079669135501
2360.0 75.70032062204596
2400.0 70.88477032159865
2500.0 76.78910480561007
2580.0 75.61123284744552
2650.0 71.6816892962034
2720.0 76.20289359939014
2800.0 72.34971072388414
2900.0 72.24341922498039
3000.0 72.72081413224277
3070.0 69.20964455450415
3150.0 70.09435200174632
3250.0 70.84205313523954
3350.0 71.05412591517943
3450.0 75.41904449785342
3550.0 71.50191445428935
3650.0 76.73969464565387
3750.0 71.9380832135172
3870.0 77.50330865559988
4000.0 73.36319866652693
4120.0 75.42673328105512
4250.0 70.13908938702468
4370.0 71.48615193394083
4500.0 70.39894103952498
4620.0 70.10920033289935
4750.0 70.73012365263648
4870.0 70.16414193844152
5000.0 71.85519220018269
5150.0 73.66825872174047
5300.0 75.03288092656523
5450.0 76.09509323354769
5600.0 74.6757155655739
5800.0 71.79006885024809
6000.0 71.14284828345323
6150.0 71.90348581491061
6300.0 72.88382992528653
6500.0 72.53115197647016
6700.0 71.71954103557674
6900.0 71.13872369864548
7100.0 70.50593685756867
7300.0 72.08053254533692
7500.0 74.00602413937146
7750.0 73.67089600007291
8000.0 72.50840017459457
8250.0 69.25840416724978
8500.0 68.19898600207458
8750.0 68.74787232956237
9000.0 70.7612748054792
9250.0 73.26870529959135
9500.0 71.42747332942243
9750.0 73.53934630743582
10000.0 75.04321526348383
10300.0 71.94885135917308
10600.0 71.85864068487884
10900.0 75.29561715933441
11200.0 75.03315940024854
11500.0 70.95900996227753
11800.0 71.98057541006698
12200.0 72.47592469604788
12500.0 68.03115197647014
12800.0 71.73775924718662
13200.0 75.06671702468141
13600.0 73.4511361883388
14000.0 69.96632381255692
14500.0 70.66544662488609
15000.0 69.56475982265037
15500.0 69.6467871964985
16000.0 70.72900923481414
16500.0 65.85803522150263
17000.0 66.65132068581748
17500.0 64.73331023801676
18000.0 57.7191293045836
18500.0 53.84141633448455
19000.0 56.16895399038607
19500.0 48.17584607527145
