Freq "Early Reflections"
20.5078 46.925357208664025
21.9727 49.45197487665271
23.4375 52.14814448065471
24.9023 53.934757999040244
26.3672 56.04558241879869
27.832 57.82438628861274
29.2969 59.534543650857415
30.7617 61.26469994967678
32.2266 62.71411602132329
33.6914 64.13971259065
35.1563 65.54236613758766
36.6211 66.71266706457831
38.0859 67.79182763226132
39.5508 68.82473183299683
41.0156 69.70366192203178
42.4805 70.6177402817442
43.9453 71.42863287346162
45.4102 72.12041682991277
46.875 72.7938386810416
48.3398 73.3073880079815
51.2695 74.33599083536568
52.7344 74.77556604953861
54.1992 75.09111802743709
55.6641 75.36238062863364
58.5938 76.00692839704897
60.0586 76.19184214985461
62.9883 76.69652944269063
64.4531 76.91886194253442
67.3828 77.2608392296346
68.8477 77.34636950395156
71.7773 77.64915599944348
74.707 78.05512573062934
77.6367 78.24246937739235
79.1016 78.23384027183604
82.0313 78.38134133120317
84.9609 78.63337979095668
87.8906 78.65380128647698
90.8203 78.7986870512226
95.2148 78.91967714815897
98.1445 78.99147539677806
101.074 79.0778915226461
105.469 79.09432044707548
108.398 79.22104264511715
112.793 79.2205603942058
117.188 79.24599747952092
120.117 79.20911385628746
124.512 79.33927301813779
128.906 79.26548437551202
133.301 79.17452132190971
139.16 79.1271085942967
143.555 79.06009503086413
147.949 78.95920083115455
153.809 78.85285690500803
159.668 78.8492863743366
165.527 78.82075679568752
171.387 78.74775127880075
177.246 78.69305792026438
183.105 78.45722461235084
188.965 78.33001267387465
196.289 78.23639079082183
203.613 78.10736980460146
210.938 77.97433236579224
218.262 77.80648545047943
225.586 77.69806699810687
232.91 77.71064459062276
241.699 77.5774473977887
250.488 77.29134334242183
259.277 77.47319943171533
268.066 77.26315535707258
276.855 77.09718479383488
287.109 77.27456471131964
297.363 77.113904367951
307.617 77.19706804104068
319.336 76.8210508374461
329.59 76.81902565249524
341.309 76.74776976771729
353.027 76.40750455947999
366.211 76.50534411561785
379.395 76.79460933668454
392.578 76.61101500108413
405.762 76.1339297105912
420.41 76.27847597615455
435.059 76.2709192282334
451.172 76.21923581123959
465.82 76.46937659440964
483.398 76.68115330578722
499.512 76.67041016213643
517.09 76.05784233280463
536.133 73.14919306678047
555.176 71.65972435491453
574.219 72.39457302349933
594.727 72.8859372874273
615.234 73.46409544890267
637.207 73.55699395819677
659.18 73.33487163573707
682.617 72.99655455097283
707.52 73.43265362265531
732.422 74.29548879544886
757.324 75.17888348008444
785.156 75.96901649370082
811.523 75.69145215098433
840.82 76.03677746792441
870.117 75.83751242801071
900.879 76.36485307389343
933.105 77.03042356467641
965.332 77.55028939986417
1000.49 77.8803696483509
1035.64 77.44680175522403
1072.27 76.03217863514125
1108.89 75.09844385204606
1148.44 74.96790634491512
1189.45 74.95813890952901
1230.47 75.3008622551132
1274.41 75.82285415414947
1319.82 75.87311922361826
1366.7 75.80922577669098
1413.57 76.04177929381132
1463.38 76.14427208952807
1516.11 76.48887840600025
1568.85 76.44891930005156
1624.51 76.01505742821925
1681.64 75.32712271431215
1741.7 75.59585174739159
1803.22 75.72643842074966
1866.21 75.1973636152303
1932.13 74.92746857801009
1999.51 75.04111430034021
2069.82 74.46450962816184
2143.07 74.45094676476093
2219.24 74.84779679310854
2296.88 74.60184425729913
2378.91 74.60235929777204
2462.4 74.51289178253631
2548.83 74.08902314681839
2639.65 74.68364568576905
2731.93 75.26080692126683
2828.61 75.2506115001217
2928.22 75.81930495366916
3030.76 76.09192008523996
3137.7 76.40367650080093
3249.02 76.67682276203995
3363.28 76.86838601047161
3481.93 76.92296769233377
3604.98 77.03656804474454
3732.42 76.91697717372006
3864.26 77.21113057456793
4000.49 77.11039651457773
4141.11 77.2551556929788
4287.6 77.20856089541512
4438.48 77.61551998727481
4595.21 77.86545801226168
4756.35 78.0669553804912
4924.8 77.82113067254238
5097.66 77.80299129527457
5277.83 77.59138403307637
5463.87 77.31592229461246
5657.23 77.1033742445492
5856.45 77.23068182937192
6062.99 76.91452561265471
6276.86 76.9893516947993
6498.05 76.94800376492304
6726.56 77.23543282500904
6963.87 77.14981492403035
7209.96 77.01403618717754
7464.84 77.20888901600323
7727.05 77.0890650954609
7999.51 76.99842224643935
8282.23 76.64160825107831
8573.73 76.45634442798598
8876.95 76.64324660603643
9188.96 76.84259287173289
9514.16 77.13995811245101
9849.61 77.21527555333759
10196.8 77.16174393727067
10555.7 76.75761789429093
10927.7 76.19663190826874
11313.0 75.81177842548158
11712.9 75.43799230850459
12126.0 74.90127342859711
12553.7 74.39794065181877
12996.1 73.96284075861709
13454.6 73.64661639543546
13929.2 73.31489583960479
14419.9 72.91281593296232
14928.2 72.37741789015733
15455.6 71.96633481957774
16000.5 71.62798794284406
16564.5 71.22656235967543
17148.9 70.67893743490849
17752.4 70.21889346511026
18379.4 69.77378310318309
19026.9 69.10276686069417
19697.8 68.20894254328721
19999.5 67.80472083878642
