Freq "Sound Power"
20.5078 47.03623207055347
21.9727 49.555367304062486
23.4375 52.206492973054026
24.9023 53.99195103745336
26.3672 56.079484479040346
27.832 57.841970858156515
29.2969 59.53148101980881
30.7617 61.25503527663088
32.2266 62.6794912826748
33.6914 64.09658247777598
35.1563 65.48657343291683
36.6211 66.64939026484805
38.0859 67.72512758280844
39.5508 68.74414320650553
41.0156 69.62341342679537
42.4805 70.53499180109341
43.9453 71.33996113650599
45.4102 72.01276229200003
46.875 72.66767871784873
48.3398 73.17897607181368
51.2695 74.23728972412098
52.7344 74.67770526368416
54.1992 74.99725181840526
55.6641 75.24262287535434
58.5938 75.85801432723886
60.0586 76.04498590524722
62.9883 76.56693990861581
64.4531 76.79571889115174
67.3828 77.13829551751122
68.8477 77.22109112416632
71.7773 77.50668145712206
74.707 77.89495902445515
77.6367 78.09543601529751
79.1016 78.08822716319185
82.0313 78.23586004311862
84.9609 78.50964531455965
87.8906 78.4904958347068
90.8203 78.61623547630799
95.2148 78.73268505386766
98.1445 78.80538982157441
101.074 78.87139169152292
105.469 78.89500342974733
108.398 79.00841072016439
112.793 79.00258605171373
117.188 79.03585280485618
120.117 78.99719876827845
124.512 79.08292623235089
128.906 78.99592429860844
133.301 78.91845364415192
139.16 78.85928486572742
143.555 78.76930483627906
147.949 78.64158918566969
153.809 78.51152393298518
159.668 78.51224829919126
165.527 78.49404795559569
171.387 78.39008016294137
177.246 78.29541225941291
183.105 78.02783576353298
188.965 77.81949577353237
196.289 77.78151224788908
203.613 77.65817779728428
210.938 77.44225182178936
218.262 77.25194181878985
225.586 77.1704379199356
232.91 77.02638583926164
241.699 76.87782714030531
250.488 76.58232551447753
259.277 76.67974951954285
268.066 76.52340250408437
276.855 76.25961363925734
287.109 76.39576571286155
297.363 76.18302265028497
307.617 76.26512719148224
319.336 75.91591182843395
329.59 75.80105682026402
341.309 75.79194419562815
353.027 75.30623022611505
366.211 75.30645990077552
379.395 75.5751385819441
392.578 75.46425729145625
405.762 75.08552463859691
420.41 74.9076593050566
435.059 75.11698322194133
451.172 74.90747818101438
465.82 75.01538650699223
483.398 75.34097883318879
499.512 75.40861304591525
517.09 74.90965355372717
536.133 72.5540241939224
555.176 70.47093400750788
574.219 70.98656733276034
594.727 71.39068590565633
615.234 71.65485730601374
637.207 71.71673544473421
659.18 71.47939695124742
682.617 71.28375956481817
707.52 71.5697875905313
732.422 72.35306718464852
757.324 73.21772372067166
785.156 73.75489242927605
811.523 73.56096777669504
840.82 73.7532943696205
870.117 73.5531853235398
900.879 73.94946700783544
933.105 74.54450141661411
965.332 75.02484107955267
1000.49 75.30482001561035
1035.64 75.07210385575469
1072.27 73.5854730900652
1108.89 72.65927640392385
1148.44 72.32512237598021
1189.45 72.36851973889111
1230.47 72.63596671187057
1274.41 72.96967263185145
1319.82 73.11824240631785
1366.7 72.95286035458508
1413.57 72.99076860617625
1463.38 73.025243172579
1516.11 73.35654838003737
1568.85 73.41118613254876
1624.51 72.90279549372109
1681.64 72.3034296840735
1741.7 72.58952851378046
1803.22 72.6064163322423
1866.21 71.97556571905116
1932.13 71.69568701016765
1999.51 71.78540445001249
2069.82 71.36297028989411
2143.07 71.55817286633044
2219.24 71.92794455409148
2296.88 71.69119627821784
2378.91 72.17850521007361
2462.4 72.0430350859343
2548.83 71.75949869642697
2639.65 72.23787956805538
2731.93 72.94320644324806
2828.61 72.82699180058479
2928.22 73.42242958519373
3030.76 73.80067832628283
3137.7 74.15581817904919
3249.02 74.39922185270866
3363.28 74.65404750165709
3481.93 74.7194655425618
3604.98 74.89812861658079
3732.42 74.9215256909539
3864.26 75.24306078145614
4000.49 75.07589688786616
4141.11 75.16902609876993
4287.6 74.93188281380287
4438.48 75.14026793477339
4595.21 74.98218164457903
4756.35 75.09575442942156
4924.8 75.08944504106366
5097.66 74.88524056940967
5277.83 74.75422213308816
5463.87 74.66323412445595
5657.23 74.0916633510638
5856.45 73.8472474476726
6062.99 73.56388621149988
6276.86 73.5572949337144
6498.05 73.72009200607071
6726.56 73.91555141014761
6963.87 73.77538698602359
7209.96 73.73451082967541
7464.84 73.74834164347284
7727.05 73.68231403164158
7999.51 73.48351472793391
8282.23 73.24305681556602
8573.73 73.08626617420126
8876.95 73.19421107798789
9188.96 73.42522737148337
9514.16 73.66494582169841
9849.61 73.8191604575536
10196.8 73.58658241576065
10555.7 73.0573517529342
10927.7 72.36629537096523
11313.0 71.84405380584799
11712.9 71.28430535148055
12126.0 70.65576887526342
12553.7 70.1208885019758
12996.1 69.62027551671505
13454.6 69.13893752111375
13929.2 68.6481207313116
14419.9 68.18810133593387
14928.2 67.68577155918037
15455.6 67.25091391195967
16000.5 66.80378628635741
16564.5 66.31215568343478
17148.9 65.67351012998839
17752.4 65.19701388553898
18379.4 64.68997203122673
19026.9 63.9090111110429
19697.8 62.92654556611423
19999.5 62.47917334036978
