Freq,On Axis,Listening Window,Sound Power,Early Reflections,Early Reflections DI,Sound Power DI,DI offset
22.4,38.80000000000001,39.51490060531222,37.825218552748794,38.64107576619867,30.873824839113553,31.689682052563427,30
23.0,39.5,40.19442057387661,38.51774957634865,39.341075766198685,30.853344807677928,31.676670997527964,30
23.6,40.19999999999999,40.82442419678526,39.18347206316156,39.989480312558044,30.834943884227215,31.6409521336237,30
24.0,40.900000000000006,41.47511100627813,39.884712341696456,40.656618701402294,30.818492304875832,31.59039866458167,30
25.0,41.5,42.050249441191056,40.55923098564318,41.28984931560021,30.76040012559085,31.491018455547874,30
25.8,42.19999999999999,42.63631886263855,41.229511988009165,41.919236775357945,30.717082087280602,31.406806874629382,30
26.5,42.80000000000001,43.233163602147386,41.851104802544825,42.5185033976764,30.714660204470988,31.38205879960256,30
27.2,43.400000000000006,43.83316360214741,42.49541774604407,43.13106715254631,30.7020964496011,31.33774585610334,30
28.0,44.0,44.385639542363236,43.113034429869856,43.72834194920321,30.657297593160024,31.27260511249338,30
29.0,44.599999999999994,44.98563954236323,43.71926857583591,44.317265917950465,30.668373624412766,31.26637096652732,30
30.0,45.19999999999999,45.51941032936122,44.29680237529999,44.88575938115372,30.633650948207503,31.222607954061232,30
30.7,45.69999999999999,46.08563954236325,44.880866032914554,45.45670648751312,30.628933054850137,31.2047735094487,30
31.5,46.30000000000001,46.638689358458805,45.446987406711344,46.02120091218268,30.617488446276127,31.19170195174746,30
32.5,46.80000000000001,47.161957634704635,46.01625474745086,46.576180299673666,30.58577733503097,31.145702887253776,30
33.5,47.400000000000006,47.695912355503424,46.55132755314611,47.10685338694557,30.58905896855785,31.144584802357315,30
34.5,47.900000000000006,48.2386893584588,47.09308817197336,47.643107257220436,30.595582101238364,31.145601186485436,30
35.5,48.400000000000006,48.7386893584588,47.613025514412215,48.150590308971374,30.588099049487425,31.125663844046585,30
36.5,49.0,49.2257361034373,48.1793242428009,48.682001000108784,30.543735103328515,31.046411860636397,30
37.5,49.5,49.70280793444539,48.70992255177663,49.18092809747117,30.52187983697422,30.99288538266876,30
38.7,50.0,50.15862915601264,49.221354679061704,49.66199029341192,30.49663886260072,30.937274476950932,30
40.0,50.400000000000006,50.648026022797296,49.73762408730471,50.169597091296,30.4784289315013,30.910401935492587,30
41.2,50.900000000000006,51.07975807560594,50.22698679564877,50.6383764870684,30.44138158853754,30.852771279957167,30
42.5,51.400000000000006,51.57975807560595,50.72926188406262,51.12887965245177,30.45087842315418,30.85049619154333,30
43.7,51.900000000000006,52.01299987486317,51.198107786266206,51.58208908997081,30.43091078489236,30.814892088596963,30
45.0,52.30000000000001,52.45711408425366,51.66071449986225,52.046915959293955,30.410198124959706,30.79639958439141,30
46.2,52.8,52.912999874863175,52.13883740858765,52.50493122897785,30.408068645885322,30.774162466275527,30
47.5,53.3,53.34523538608282,52.607386265212185,52.95764956754073,30.387585818542092,30.737849120870635,30
48.7,53.70000000000002,53.76794123556499,53.06483693116702,53.39318139103651,30.374759844528484,30.703104304397968,30
50.0,54.2,54.22293110248063,53.536436502767714,53.86071899329173,30.362212109188903,30.686494599712915,30
51.5,54.599999999999994,54.64523538608283,53.997959788616626,54.29885342033195,30.34638196575088,30.647275597466205,30
53.0,55.0,55.067941235565,54.44820906803223,54.73390183986797,30.334039395697033,30.619732167532774,30
54.5,55.5,55.52293110248064,54.919327180372875,55.20408702391906,30.318844078561582,30.603603922107766,30
56.0,56.0,55.97899271118894,55.387013379862935,55.65277615505401,30.326216556134924,30.591979331326,30
58.0,56.400000000000006,56.40051167804047,55.84313162727588,56.101311167254465,30.299200510786008,30.557380050764593,30
60.0,56.900000000000006,56.85686156553044,56.3037787516937,56.54781026550128,30.309051300029154,30.55308281383674,30
61.5,57.30000000000001,57.30051167804048,56.784971344935414,57.01791572322176,30.282595954818717,30.515540333105065,30
63.0,57.8,57.7784901971291,57.252548448648,57.47295370003003,30.30553649709907,30.525941748481102,30
65.0,58.3,58.23358982687998,57.74034983233253,57.95430955128664,30.279280275593337,30.49323999454745,30
67.0,58.79999999999998,58.689771360397046,58.20567953858722,58.41351253781974,30.276258822577304,30.484091821809827,30
69.0,59.2,59.17849019712911,58.70364483307503,58.90349086916949,30.27499932795962,30.474845364054076,30
71.0,59.7,59.611735857115846,59.18105877951972,59.37491314718858,30.236822709927267,30.43067707759613,30
73.0,60.19999999999999,60.08977136039705,59.647462524765785,59.831996590750066,30.257774769646986,30.442308835631266,30
75.0,60.7,60.56819897766141,60.11125150823865,60.28251734484569,30.285681632815724,30.456947469422758,30
77.5,61.099999999999994,61.01173585711585,60.564654780541446,60.75525152428769,30.256484332828165,30.447081076574406,30
80.0,61.599999999999994,61.511735857115866,61.038298064607716,61.23426255254665,30.277473304569213,30.47343779250815,30
82.5,62.0,61.91173585711584,61.45703813900526,61.64371298037369,30.26802287674215,30.45469771811058,30
85.0,62.5,62.39027257090359,61.90870467646185,62.09800999767552,30.292262573228072,30.48156789444174,30
87.5,62.900000000000006,62.790272570903596,62.310144572143216,62.50545042890623,30.284822141997367,30.48012799876038,30
90.0,63.3,63.1902725709036,62.72672238093038,62.91706810465732,30.273204466246284,30.46355018997322,30
92.5,63.79999999999998,63.62319152961712,63.12421346793289,63.327924751924215,30.295266777692902,30.498978061684227,30
95.0,64.2,64.0454944791988,63.51443408233416,63.7213858803031,30.32410859889569,30.531060396864632,30
97.5,64.6,64.46819897766142,63.910466210099045,64.12511955330388,30.34307942435754,30.55773276756237,30
100.0,65.0,64.89027257090359,64.3185164530012,64.54948849515615,30.340784075747436,30.571756117902396,30
103.0,65.5,65.32419779300915,64.72336025501248,64.96553630227581,30.35866149073334,30.600837537996668,30
106.0,65.9,65.7902725709036,65.14801440045022,65.39625241472974,30.394020156173852,30.642258170453374,30
109.0,66.4,66.22419779300913,65.56158298676496,65.83482063823213,30.389377154776994,30.662614806244164,30
112.0,66.8,66.71274477799038,66.01797078980101,66.29154018842092,30.421204589569456,30.694773988189368,30
115.0,67.30000000000001,67.12419779300915,66.43194774936785,66.72135622451196,30.40284156849718,30.692250043641295,30
118.0,67.69999999999999,67.56919486783487,66.83894006201555,67.13759418383339,30.43160068400148,30.730254805819314,30
122.0,68.1,68.01274477799038,67.24241994996507,67.56499662804501,30.44774814994537,30.77032482802531,30
125.0,68.5,68.41274477799038,67.61566247828642,67.94990677911312,30.462837998877262,30.79708229970396,30
128.0,68.9,68.79177612109561,67.95245188055705,68.29732300334938,30.494453117746232,30.83932424053856,30
132.0,69.2,69.11274477799039,68.27678843106949,68.63558208538669,30.4771626926037,30.835956346920895,30
136.0,69.6,69.44701360926962,68.5665280885833,68.92886200813786,30.518151601131763,30.88048552068632,30
140.0,69.9,69.7470136092696,68.83315448802968,69.21136164711373,30.535651962155868,30.913859121239923,30
145.0,70.19999999999999,70.02621015383258,69.09515700574894,69.48357249742473,30.542637656407848,30.931053148083635,30
150.0,70.4,70.26971018796763,69.33371584800244,69.74012200319486,30.529588184772777,30.93599433996519,30
155.0,70.7,70.52621015383258,69.55260988050064,69.96391035882621,30.562299795006368,30.97360027333194,30
160.0,71.0,70.80431892369502,69.76313939947617,70.21429403285923,30.590024890835792,31.041179524218848,30
165.0,71.20000000000002,71.02621015383258,69.96132369791111,70.4213929296125,30.604817224220085,31.064886455921467,30
170.0,71.4,71.22621015383258,70.12847282737513,70.59795380652326,30.628256347309318,31.097737326457448,30
175.0,71.6,71.38378881309228,70.25528729454946,70.73830383445187,30.64548497864041,31.12850151854282,30
180.0,71.8,71.5837888130923,70.39247350181776,70.884046227396,30.6997425856963,31.191315311274536,30
185.0,72.0,71.74037254002033,70.51439886206003,71.03697545384755,30.703397086172785,31.225973677960297,30
190.0,72.2,71.94037254002033,70.64099002026938,71.1972730015265,30.743099538493837,31.29938251975095,30
195.0,72.4,72.14192888293812,70.786155190692,71.34610785941078,30.79582102352734,31.355773692246117,30
200.0,72.6,72.29855684849737,70.90697941070135,71.48550155741148,30.813055291085888,31.391577437796016,30
206.0,72.8,72.47548435621877,71.00805627401739,71.60233499527035,30.873149360948418,31.46742808220138,30
212.0,72.9,72.57892674764835,71.04032641241824,71.66663619813635,30.912290549512008,31.538600335230115,30
218.0,73.0,72.67892674764836,71.027205006332,71.70116194153466,30.977764806113697,31.651721741316365,30
224.0,73.1,72.7145368257961,70.97167943486396,71.68080646589837,31.03373035989773,31.742857390932144,30
230.0,73.1,72.73793451608319,70.85807543982108,71.62024931712168,31.11768519896151,31.879859076262107,30
236.0,73.1,72.78335179759365,70.71876634611868,71.54253664829864,31.240815149295017,32.06458545147497,30
240.0,73.2,72.7766669139014,70.53766357835039,71.46123702055294,31.31542989334845,32.239003335551004,30
250.0,73.2,72.80026896530438,70.34352590465778,71.39480452183011,31.405464443474273,32.4567430606466,30
258.0,73.3,72.9002689653044,70.18489346725451,71.38971710767883,31.510551857625572,32.715375498049895,30
265.0,73.4,73.02428872411909,70.0965712680243,71.44033000836787,31.583958715751223,32.92771745609478,30
272.0,73.6,73.22428872411906,70.11056183062671,71.60127271781812,31.623016006300944,33.113726893492355,30
280.0,73.79999999999998,73.42428872411908,70.20053507691308,71.7820775682024,31.642211155916684,33.223753647205996,30
290.0,74.0,73.6060800499967,70.38477698330531,71.99561542437776,31.610464625618945,33.22130306669139,30
300.0,74.3,73.79693939507791,70.60634717836365,72.23155542135532,31.56538397372259,33.190592216714265,30
307.0,74.4,73.96663164321835,70.79128580012087,72.38428794098851,31.582343702229835,33.175345843097475,30
315.0,74.6,74.01631364805043,70.85439876533492,72.42139705790622,31.59491659014421,33.16191488271551,30
325.0,74.6,74.01631364805043,70.78641981485245,72.36544977318552,31.65086387486491,33.22989383319798,30
335.0,74.5,73.8988941193438,70.54633492334689,72.19303130776137,31.70586281158242,33.3525591959969,30
345.0,74.3,73.72292146229782,70.18740890541778,71.94418839228703,31.778733070010787,33.535512556880036,30
355.0,74.2,73.60592515901442,69.8666663540067,71.72932502896671,31.876600130047706,33.73925880500772,30
365.0,74.1,73.50592515901441,69.75276686901906,71.69094520158959,31.814979957424825,33.753158289995355,30
375.0,74.1,73.59331254669732,69.91489701854569,71.84460940408772,31.7487031426096,33.67841552815163,30
387.0,74.2,73.71035818485046,70.23441259834593,72.08568970806503,31.62466847678543,33.47594558650454,30
400.0,74.3,73.79331254669731,70.4760992560115,72.22081135640548,31.57250119029183,33.317213290685814,30
412.0,74.1,73.59331254669732,70.41832594168177,72.05532669653823,31.53798585015909,33.17498660501555,30
425.0,73.9,73.33104102550861,70.1778401311218,71.71989984448555,31.611141181023058,33.15320089438681,30
437.0,73.9,73.1901166274644,69.9370032466814,71.42030396049097,31.769812666973436,33.253113380783006,30
450.0,74.4,73.60712189747741,69.98328618626414,71.58176392225043,32.02535797522698,33.623835711213275,30
462.0,75.3,74.45704724397726,70.2790549926716,72.23592298854996,32.2211242554273,34.17799225130565,30
475.0,76.20000000000002,75.27067363547744,70.51300656969192,72.96409789904166,32.306575736435775,34.75766706578551,30
487.0,76.6,75.75704724397724,70.66711587322956,73.51615105117472,32.24089619280252,35.08993137074768,30
500.0,76.7,75.89226844704106,70.87358124319665,73.82104675886919,32.071221688171875,35.01868720384441,30
515.0,76.5,75.72226892167507,71.18163257506497,73.85730729410675,31.86496162756832,34.5406363466101,30
530.0,76.1,75.44541394701633,71.30733687580958,73.59392072707149,31.851493219944842,34.13807707120675,30
545.0,75.7,75.02941249201672,71.0753726899003,73.15066616926023,31.878746322756484,33.95403980211641,30
560.0,75.1,74.33223086398216,70.52469538115605,72.52605419920718,31.80617666477498,33.80753548282611,30
580.0,74.4,73.56937905283333,70.02182174834287,71.88997356588935,31.679405486943978,33.547557304490454,30
600.0,74.0,73.16937905283332,69.92657566162471,71.56274658117718,31.60663247165614,33.24280339120861,30
615.0,74.2,73.32234958578765,70.10948141262787,71.52475617262985,31.7975934131578,33.21286817315978,30
630.0,74.5,73.54760021741444,70.04134129997584,71.47982864531426,32.067771572100185,33.5062589174386,30
650.0,74.4,73.361199451611,69.54025780750206,71.20721244605555,32.15398700555545,33.82094164410894,30
670.0,74.2,73.13033304663031,69.13486320471054,71.07332859840434,32.05700444822597,33.99546984191977,30
690.0,74.4,73.28641249685023,69.2284226414011,71.32157121741275,31.96484127943748,34.05798985544914,30
710.0,74.6,73.45527289091919,69.39314965909608,71.49243497879502,31.962837912124172,34.06212323182311,30
730.0,74.5,73.37456168135586,69.3506595516631,71.42931038613263,31.94525129522323,34.02390212969276,30
750.0,74.7,73.56294929700063,69.62307569091577,71.65122830130196,31.911720995698673,33.93987360608486,30
775.0,75.6,74.29029360429014,70.22500037622771,72.2143473710134,32.07594623327674,34.06529322806243,30
800.0,76.1,74.76041626669425,70.41048526241431,72.50035796513421,32.260058301560036,34.34993100427994,30
825.0,76.0,74.86083115886919,70.19343559872324,72.54916896871258,32.31166219015661,34.66739556014595,30
850.0,76.0,74.80907948780812,70.00384380660626,72.63873693990641,32.17034254790171,34.805235681201864,30
875.0,75.7,74.34264433662014,69.68920722641701,72.37568595774825,31.966958378871894,34.65343711020313,30
900.0,75.5,74.0185531739497,69.73174713745344,72.28318758391522,31.735365590034476,34.28680603649626,30
925.0,74.7,73.33445038406799,69.25378359953349,71.64905411907458,31.685396264993415,34.0806667845345,30
950.0,72.6,71.25212979422759,67.21334083079134,69.62308112545108,31.629048668776505,34.03878896343625,30
975.0,76.0,74.41778512109354,69.72061978641636,72.3125608672501,32.105224253843446,34.69716533467718,30
1000.0,78.2,76.71544566837105,72.33857710876336,74.72072710363919,31.994718564731855,34.376868559607686,30
1030.0,77.0,75.51935152554444,71.96570099809,74.07899425210479,31.440357273439645,33.55365052745444,30
1060.0,76.20000000000002,74.56282968290074,71.10519297767243,73.24072676117223,31.322102921728515,33.45763670522831,30
1090.0,76.20000000000002,74.40066098780156,70.49886709341519,72.62768214866925,31.772978839132307,33.90179389438637,30
1120.0,75.4,73.60039654398659,69.68941915019316,71.80824068278775,31.792155861198836,33.91097739379343,30
1150.0,75.6,73.61966158546733,69.43873114603326,71.89274634381675,31.726915241650573,34.180930439434064,30
1180.0,75.4,73.22622733169042,68.7462826099266,71.18120649250673,32.04502083918369,34.47994472176383,30
1220.0,75.7,73.36206661692407,68.00906914176375,70.66754081862511,32.694525798298955,35.35299747516032,30
1250.0,77.1,74.81289375687606,69.03315655124524,72.3521714871142,32.46072226976186,35.77973720563082,30
1280.0,76.8,74.5057803894788,69.26286299502505,72.53526000143643,31.970520388042374,35.242917394453755,30
1320.0,73.1,70.94723744050032,68.43513742957137,70.25570738489108,30.691530055609235,32.51210001092895,30
1360.0,72.6,70.79983828368754,68.59445145781973,69.67908840664148,31.120749877046052,32.205386825867805,30
1400.0,71.5,69.68444179084892,67.0898964347177,68.34399394528148,31.34044784556744,32.59454535613122,30
1450.0,71.0,69.72401788273793,66.56785974041755,67.89125948757365,31.832758395164277,33.15615814232038,30
1500.0,71.5,69.80646368381335,66.80099012050313,68.1960502985996,31.610413385213747,33.00547356331022,30
1550.0,71.9,70.04717783120121,66.79020310123498,68.25889932712023,31.788278504080978,33.25697472996623,30
1600.0,72.30000000000001,70.35394781564594,67.27592849514345,68.48187755340086,31.872070262245074,33.07801932050249,30
1650.0,73.4,71.20443110346235,68.00326318990912,69.28055244425984,31.923878659202515,33.201167913553235,30
1700.0,74.9,72.37127092880942,69.05869900382461,70.65997188587656,31.711299042932865,33.31257192498481,30
1750.0,75.19999999999999,72.6436379206097,68.60631213380962,70.33917302795498,32.30446489265472,34.03732578680008,30
1800.0,74.80000000000001,72.07226564026298,68.26196418685089,69.79314974792527,32.279115892337714,33.810301453412094,30
1850.0,72.9,70.28420979628841,67.28663898882596,68.59495960042241,31.689250195865995,32.99757080746245,30
1900.0,72.9,69.93888882924365,67.175946249811,68.81476754081307,31.124121288430587,32.76294257943265,30
1950.0,73.3,70.4792472815025,67.16576684324535,69.49783211782945,30.98141516367305,33.313480438257145,30
2000.0,73.2,70.59249650838666,66.84246295657601,69.34399538594393,31.248501122442732,33.750033551810645,30
2060.0,72.6,70.2016090401147,66.74031532011682,69.03029332804253,31.171315712072172,33.46129371999788,30
2120.0,72.1,69.64966067096967,65.78661665871893,68.55590712892338,31.093753542046286,33.86304401225074,30
2180.0,71.5,69.66279424505302,65.17032866452558,68.35971132631155,31.303082918741467,34.49246558052744,30
2240.0,70.4,69.35703311241703,65.1849554406277,68.31424836706424,31.04278474535279,34.172077671789324,30
2300.0,70.9,69.3514899467348,64.68893918173244,67.88065776747034,31.470832179264463,34.662550765002365,30
2360.0,71.9,70.29198206254833,65.49313330448079,68.52367136971536,31.76831069283297,34.798848758067535,30
2400.0,71.7,70.15181414870739,65.35097301068927,68.03896286791756,32.112851280789826,34.800841138018114,30
2500.0,69.3,68.66574665728908,64.58895221881497,66.85047209659982,31.81527456068926,34.07679443847411,30
2580.0,68.9,68.43369853453544,63.95688493729223,66.44904916514764,31.984649369387796,34.47681359724321,30
2650.0,68.4,68.0271392160218,63.60155619065985,66.22887526272599,31.798263953295802,34.425583025361945,30
2720.0,68.79999999999998,68.09623314828939,63.71089188516706,66.45501862751375,31.641214520775634,34.38534126312233,30
2800.0,68.1,67.62587858893305,64.02842804589305,66.8835782367345,30.742300352198555,33.59745054304,30
2900.0,67.5,67.34803024012027,63.9813050824701,67.07869195678623,30.269338283334037,33.366725157650166,30
3000.0,67.4,67.66064674822532,63.8262237128538,66.96557014841423,30.695076599811088,33.834423035371515,30
3070.0,68.1,68.19430280656519,64.38179144252346,67.35346828801141,30.840834518553777,33.812511364041725,30
3150.0,69.5,68.7177328712254,64.5672676419631,67.42148436293922,31.29624850828617,34.150465229262295,30
3250.0,70.9,69.63591803719565,64.87736071888818,67.82129831993446,31.814619717261195,34.75855731830747,30
3350.0,72.5,70.64964608242997,65.74084899713797,68.56650697653447,32.0831391058955,34.908797085291994,30
3450.0,73.79999999999998,71.70459641703145,66.74807391198685,69.39959170840744,32.30500470862401,34.9565225050446,30
3550.0,74.80000000000001,72.67583033105882,67.93760803958259,70.46116663552903,32.214663695529794,34.738222291476234,30
3650.0,74.5,72.4064570098715,68.00527566842084,70.24903638424362,32.15742062562788,34.401181341450666,30
3750.0,74.6,72.80219038335532,68.4553964301877,70.63581477367491,32.166375609680415,34.34679395316762,30
3870.0,74.2,72.61493891441658,68.29471812792434,70.49020124782083,32.12473766659575,34.32022078649224,30
4000.0,73.1,71.68978402648216,67.06796651158956,69.21165154341634,32.47813248306582,34.6218175148926,30
4120.0,71.29999999999998,70.57981831413665,66.0937733352045,68.40608396939194,32.1737343447447,34.48604497893214,30
4250.0,70.0,69.81421145635085,65.5489140999725,68.0344892961868,31.77972216016404,34.26529735637834,30
4370.0,67.8,68.5786144446443,64.98423589528204,67.52241948795991,31.056194956684394,33.59437854936226,30
