Freq,Floor Bounce,Ceiling Bounce,Front Wall Bounce,Side Wall Bounce,Rear Wall Bounce,Total Early Reflection
20.5078,62.67895387643024,62.49079207552437,62.67267192607743,62.41828331451954,61.676231328032074,62.402582544256106
21.9727,63.77459266914401,63.56326058888321,63.76471024977094,63.508202279102164,62.76988871697655,63.491250691340525
23.4375,65.02178368978653,64.89784921481683,65.02598869106596,64.81013517948472,64.20958199838613,64.80331467752542
24.9023,65.64986038711287,65.57424975637186,65.66883214675809,65.47157379090557,64.94707946680255,65.47030209304242
26.3672,66.60280014207088,66.45774731735217,66.5954798502596,66.38832954069218,65.86061999839313,66.38934772119217
27.832,67.6310099831861,67.45612996988504,67.62010758360286,67.38389968214945,66.76870354715928,67.38314949295477
29.2969,68.24453307255956,68.09376330067944,68.23445517681654,68.0178043839708,67.46002787537718,68.01942019761587
30.7617,68.95990546003921,68.84902806405746,68.96192992847939,68.76656133810316,68.2869513942153,68.77190223861125
32.2266,69.72508313419664,69.61953543092332,69.73364536981678,69.53595349267373,69.05471894653009,69.54083671155105
33.6914,70.43312397907732,70.32328519685112,70.44378702726961,70.24104703900711,69.76263964459464,70.24783321363527
35.1562,71.05910856236834,70.98090978073678,71.09174263255734,70.86614475837747,70.31970236185624,70.87248159455785
36.6211,71.74777228732025,71.62629879635523,71.76099534808787,71.54041181689804,71.01630131535642,71.546745944115
38.0859,72.39344080806117,72.22929135943868,72.39883303515779,72.15838335039699,71.60102030096279,72.16581211812873
39.5508,73.02462086956639,72.86105161649436,73.02479289955225,72.80731562192572,72.2911380824967,72.80996189111399
41.0156,73.53820963884887,73.4122434380188,73.55335420635275,73.33876430086427,72.86701874439846,73.34898282533115
42.4805,74.24523777720755,74.09779908582827,74.27261323145679,74.00936289326226,73.38273085144651,74.01328324908225
43.9453,74.6895312753811,74.5487080199192,74.71626589373388,74.45631600837017,73.84893311619783,74.46311805732562
45.4102,75.27275677300206,75.14914482460169,75.31056425221114,75.0497731170618,74.38178731362545,75.04556206336464
46.875,75.70127041576623,75.58339354943949,75.72856789897915,75.51330355348745,75.01724839774677,75.5162360279342
48.3398,76.22060197105817,76.06826474647202,76.24191456363893,76.02047594573982,75.51057112694541,76.02026268535602
51.2695,77.11199856260227,76.95831353165386,77.13235630712865,76.92121243011046,76.47589229545623,76.92629145153084
52.7344,77.63360108143306,77.46999989180742,77.66175909434178,77.42870209113171,76.94004074703733,77.4344094461053
54.1992,78.08541834926734,77.9269379730487,78.1263180329881,77.87080236751528,77.31637601047578,77.87463928739867
55.6641,78.45690230260632,78.31118491647902,78.50426754733449,78.25224606009127,77.69166712552658,78.25273915567193
58.5938,79.24501282530403,79.06609124232344,79.28251982108269,79.03903927803518,78.54037641322681,79.04251953588151
60.0586,79.66673546687065,79.47931320328395,79.7073924955284,79.45301216288227,78.93105219165521,79.45613395635205
62.9883,80.48753091949426,80.26348053577,80.52172863808491,80.26369720807877,79.76981939939377,80.26939457262193
64.4531,80.81381329524966,80.58900516417687,80.86265052225302,80.56560628145056,79.96175980202433,80.57012203401027
67.3828,81.53433640497194,81.2955026854905,81.57555251620543,81.30474310977823,80.71980962244811,81.29647886006477
68.8477,81.80096919505479,81.58689571132743,81.85400855426987,81.5899065267544,81.04328609632094,81.58429166270079
71.7773,82.42058902831418,82.21121631064032,82.48873967964268,82.20674713551675,81.62294857013326,82.20049338189472
74.707,82.95654567711922,82.75207082521014,83.03092466457237,82.7578252822753,82.19780498586442,82.74862332059216
77.6367,83.44721720710002,83.19355359231749,83.50487751852943,83.25074262121983,82.79281964138511,83.24499529941723
79.1016,83.69123427867419,83.42094232465946,83.74915184096427,83.48719543805717,83.0289514104751,83.48284903324607
82.0312,84.13808321994159,83.83799913254882,84.19886146095955,83.91944246613504,83.44868837375151,83.91664542980554
84.9609,84.56489724873553,84.24561497118721,84.63664335283555,84.33073407734197,83.83761357839056,84.33215109710825
87.8906,85.07202411393014,84.7294237935785,85.15566474947163,84.83524625558863,84.35690915738289,84.83892601734145
90.8203,85.50346563095626,85.18893238846572,85.61275349134195,85.27911088958382,84.76691403689469,85.28004056430473
95.2148,85.94022270624028,85.59731757806729,86.05753500453409,85.69906056913896,85.14601504160876,85.69942600683743
98.1445,86.20107173751204,85.81000452046457,86.31546622547667,85.94141207084475,85.3656506762056,85.93932094246601
101.074,86.41973234046681,86.03589637038556,86.5543040823803,86.15418595605821,85.52861006244316,86.15291784057382
105.469,86.74000002226292,86.37034126061589,86.90156594540692,86.4881295135505,85.82106211225921,86.47982250243795
108.398,86.86646926799816,86.44405192384777,87.01629219932958,86.6188767959861,86.00455990163181,86.60420258196143
112.793,86.93377493693545,86.47419388489972,87.09319202856068,86.6805831143755,86.13521878265352,86.67647901104172
117.188,87.03071696750949,86.5633884568923,87.22949874942121,86.73476571766328,86.09632180379917,86.74844575535663
120.117,87.34491719418129,86.8429105115486,87.54375395891063,87.03015856675995,86.33364949920374,87.03911880024559
124.512,87.50154359041409,87.01215609350508,87.72500776911379,87.23629946293987,86.61439468350301,87.2348776473939
128.906,87.55379419637083,87.03707934195441,87.79697961926526,87.24682595641904,86.58024393433296,87.26317264253015
133.301,87.5833524977472,87.06648165020464,87.84878897510613,87.25551204343239,86.36372303634192,87.25252697779217
139.16,87.35849648380217,86.82379800813395,87.63201989357702,87.09421096244971,86.28477660954415,87.06297365578293
143.555,87.2436580089612,86.62417317084628,87.55202992112949,86.93582024300741,86.10225982677184,86.92017285850694
147.949,87.46313593132318,86.85243637255167,87.80805615987053,87.16064989014218,86.37036233106772,87.15891669000335
153.809,87.33914731161492,86.66711373293644,87.68278911874869,87.0287800308081,85.93434257182763,86.97101861418571
159.668,86.76388520048714,86.00723846461693,87.13272200467951,86.55810015763909,85.45836282905259,86.42327041526558
165.527,86.6949659482447,85.87154347685116,87.15100642392454,86.3955862989484,85.29897437257537,86.32953957682201
171.387,87.11637963470704,86.28219603790733,87.51888074943902,86.79828365027232,85.68154151394663,86.72619712932689
177.246,86.95486031468128,86.04867207777633,87.40354363494515,86.61165159850087,85.7030380814101,86.5871709461207
183.105,87.06282158127276,86.16167276161971,87.54495460472262,86.69569540004562,85.5106452514005,86.65176468125188
188.965,86.99511837145755,86.09532348708771,87.51838770212575,86.65430544253674,85.5556711255734,86.61722579835883
196.289,86.54804776217874,85.62141457581534,87.13563653290747,86.2554405825462,85.0033975847454,86.1748535784249
203.613,86.26819839962059,85.19711538569517,86.87249470645621,85.93196882153315,84.60178980005585,85.84671909390383
210.938,86.39193450977793,85.35928648286279,87.08000308804502,86.0788293152769,84.3069815145876,85.94325915756156
218.262,86.3168883575295,85.2241353741875,87.00127368233977,86.06063593036556,84.48523341223616,85.90426822723508
225.586,86.20051898543912,84.90019397152682,86.91161492655887,85.90317970877392,84.36138427968471,85.75041793450328
232.91,86.00574990006844,84.55192213737247,86.69767465811705,85.64083496352397,83.93146511179606,85.47802078731017
241.699,85.54711570097491,84.17559114566983,86.37246586010353,85.23286028714358,83.62549904416835,85.10028705698704
250.488,85.76086183923817,84.2235333571263,86.6328284094063,85.24750652523414,82.61569623913225,85.10328627948896
259.277,86.19475790228934,84.594087630093,87.10924012974337,85.86659204853662,83.18387310842569,85.59320028226348
268.066,85.83794658988626,84.46889288442709,86.8351481160077,85.84250656322712,84.08486650801575,85.52898395026058
276.855,85.44530668952336,83.82173667865939,86.52663348248409,85.25116715183775,83.09426110887787,84.99646108244865
287.109,85.17663766767562,83.03467977826521,86.21888333960084,85.0375521470876,82.43349672552479,84.60376369393904
297.363,85.36887458078857,83.3372864930307,86.46352170065335,85.24748728041705,82.91760991698061,84.86684371091789
307.617,85.15453119014707,82.75114891699018,86.26725615601873,85.06279064435648,84.37179084048795,84.8683985613116
319.336,85.04473501894681,82.62894328481129,86.32712716727819,84.50846757274508,82.73705066718546,84.47819400880341
329.59,85.28660800799686,82.89007598223523,86.67136030680918,85.01973937508245,83.05479835105263,84.81938046096316
341.309,85.11055320807702,82.59602521962843,86.6782999286829,84.84083884264966,82.73890472980571,84.66666313829914
353.027,85.41441246906163,82.67402381809751,86.99798146298149,85.15044863602078,81.78908599714312,84.80665883902257
366.211,85.14116673016088,82.50599307700304,86.725593296021,85.2864532626427,81.41967641507213,84.62907733309996
379.395,84.71254298140263,81.88010005677509,86.26119863494095,85.06772174505501,80.95835199846019,84.21216153873907
392.578,84.02324909494625,81.08421122780813,85.83481019715107,84.53329120136863,80.78921545773873,83.68502101669424
405.762,84.53023562267131,81.4428252000838,86.38391061048458,85.38535363012382,81.28622651672825,84.27536062603984
420.41,83.10846943233825,79.98243286751571,85.38763083078548,84.39876947271819,81.07905139125774,83.23651871553528
435.059,83.2142748085698,79.65358529410814,85.47308992294778,84.50662410648872,80.69464999827242,83.2394727405158
451.172,81.74561872832781,78.1392332281371,84.29578896974941,83.64598675306591,80.28665441446934,82.15830610658085
465.82,82.82846983265175,78.21204550008245,85.2798293674947,84.01890343419171,79.45468355463483,82.7221791492986
483.398,82.31923726987024,77.61151535133618,85.16207558345074,83.93645872140245,79.12423490828726,82.48368302822213
499.512,81.73285121526958,77.27588009594037,84.64574540500851,84.15957513474318,79.54616956406385,82.276626604167
517.09,80.79858782921828,75.64017144003448,83.87576508004885,83.46421565350279,79.71685186326005,81.56343642063081
536.133,79.93988795721823,73.91052403182401,83.3424995976059,83.2800820246387,80.4963429813069,81.23234729559391
555.176,80.01477934738928,73.06967568535381,83.7075425233351,82.44735969608705,80.10395471623745,81.0281404986849
574.219,81.00675363154834,73.70531361359963,84.68150192339073,81.61749349250367,78.60648302000473,81.21300586083721
594.727,81.26815341869606,73.66584743876162,84.9050049978437,82.57771242020104,77.32752005096249,81.47143380305052
615.234,80.60462816994874,72.03871890873539,84.67305866560605,82.73696271610387,77.80536282072073,81.2862874275132
637.207,80.6728054431029,71.84037290078392,85.0928121029551,82.9518596327136,78.69938412368481,81.62289000557415
659.18,81.70000179994307,73.3594730613385,86.35178079065452,83.73607056960896,78.66683358808471,82.60656298823916
682.617,80.79676908657943,69.63034808557288,86.16569349452834,84.27781975187118,80.65650332441022,82.68115224220132
707.52,82.12631576320524,71.48327961915011,87.39618053680448,84.17815710358225,79.40143443057329,83.32490149597388
732.422,80.92855048926383,69.92321711641232,86.41784257074501,83.692089196253,79.07633809502398,82.48862358632795
757.324,81.21950512479526,70.17051806489808,86.85754068086244,84.10722905286131,78.68541520431559,82.82931719718438
785.156,80.3862459564683,70.51378820349531,86.38086742700175,84.0652360889675,79.01626569551757,82.50359074967874
811.523,79.46340006711354,69.75271407648175,86.03698943473587,83.7778447292855,78.78386449378783,82.11427669088994
840.82,80.07188590803385,72.13334719484703,86.58831793269947,84.40930877861426,79.07645268343086,82.69853626131002
870.117,79.68887989368308,72.86398401260182,86.48017005286735,82.71494140846738,79.65263362386017,82.23359074211044
900.879,81.0733642774019,74.90169670644083,87.76372844921757,83.21623429369008,79.23298216582943,83.22228767121292
933.105,80.2297246014601,76.02966275864871,87.28256109133851,83.74564478853576,77.23420343819323,82.87887073504119
965.332,79.91334879870107,76.94770664242454,87.1695893097405,84.17904247237372,77.25889065110935,82.9386911827425
1000.49,80.09717561433412,78.85832919309462,86.69697309319216,83.41700142797201,77.00299222254883,82.63088083361923
1035.64,80.03653119962371,78.86258662826839,86.92112021903317,83.55242601383955,76.59575319468324,82.75184692689726
1072.27,81.25193749537154,80.10926831487832,86.84204586878674,83.35524460923561,75.488985561167,82.88325534173065
1108.89,81.85047250237903,81.27143005639829,86.95242948612535,82.91620030341794,75.09691940492759,83.05744293960193
1148.44,82.2017964774287,82.73108817593896,86.49712747960577,82.69746108623656,74.88224512889366,83.08282103318123
1189.45,82.16138419396223,82.68284423602677,86.52886947478083,81.95451891780091,74.47949570358193,82.94252890197906
1230.47,82.05633677880282,82.99248925296209,86.22137164167965,81.33511997309802,75.09905137738305,82.77384483159874
1274.41,82.23080825761795,82.13037174515891,86.30221069862107,81.6140223386788,74.41462507284483,82.69467494200354
1319.82,83.05998060101594,82.182567157046,86.43475238975486,81.76358943271156,74.72292082141145,82.95513651070482
1366.7,83.66558067222097,82.45471497314296,86.83735553765321,81.83584245232187,74.16470110884876,83.30422139688415
1413.57,83.33803503310811,82.180294829379,87.2434315450903,82.12534032932285,74.91268544012571,83.4442755624888
1463.38,80.92307769602657,82.11928345491795,86.35313788143564,81.09883856137206,73.02316001412058,82.39182254462764
1516.11,81.54239778046362,82.58094883103091,85.16828307953831,79.95975024268616,71.49460104919373,81.85100014684036
1568.85,82.35169367621351,82.6182370651051,85.25342459305128,79.58339210646156,70.92259452581824,82.00326841614856
1624.51,82.67943705983937,82.74951438703998,85.70096772354235,79.79447723637992,72.38388665108583,82.34508453925933
1681.64,82.87261613955674,82.46207478162141,85.71403412059725,79.67905533412589,71.97279062595089,82.31166109428075
1741.7,82.17746395294141,81.3954248386565,85.76027035090489,79.86269244957475,69.88260811881149,81.96641040406139
1803.22,82.66195465355285,82.33617796506267,85.60121958610235,80.48205720860084,69.77584107847424,82.25436335236243
1866.21,83.30758782407717,83.39511918247146,85.76423456603881,80.38429410707533,72.35899301368991,82.72416482371209
1932.13,83.08864540704407,83.39985042528947,85.6898415402354,80.22741163676018,71.37819639333505,82.6111391621174
1999.51,81.93447572907793,82.52700092005045,85.39788099782439,80.61668566165027,71.67341430602865,82.10360739414295
2069.82,83.36430579316176,82.7742891996069,85.31621059762553,80.68887053635022,70.90660582494307,82.43548255283943
2143.07,84.16517283802331,83.80497788972518,85.00748013872247,80.93696579597153,70.3178495489317,82.7998392337157
2219.24,82.89227187398379,83.21805273906845,84.37042654392637,79.71983434733626,71.5741258587744,81.96514752966611
2296.88,83.44323657630973,82.64871907935148,83.2186587408371,79.7040868492359,70.7758252748521,81.58474898284045
2378.91,84.06006143665796,83.5533895348798,83.4776996050674,80.01566715389917,71.22719656747233,82.13613458815807
2462.4,83.44596714125092,83.15472646783057,83.99254229811515,79.89656996393339,70.94904399356015,81.97949338229083
2548.83,84.72289194532144,82.92831581744134,84.9647378737524,80.89250847673006,71.17112467088394,82.75321107388561
2639.65,85.76193233291902,83.9972294283035,85.80024212256704,81.38177570383327,70.50307597662365,83.64287904332132
2731.93,85.41531912824017,84.17013978063925,86.35813726740619,81.45109987523173,70.23474365102479,83.77212450931856
2828.61,85.5048959538654,83.94552314967657,86.87301084109687,81.92857823606272,70.46522435642628,84.0038272708493
2928.22,86.35322322633918,84.1675107886319,87.39380727480031,82.79436531110484,72.02770323615282,84.61772495846805
3030.76,86.77332924171067,85.2174981908346,87.98310274040543,83.02198009746198,71.85918877252915,85.19186409339319
3137.7,86.50335263847604,84.50270901067246,88.51271838393119,83.39978313669577,70.69052738671802,85.23630303071774
3249.02,86.74279542643364,84.4134994636933,88.37807289787125,83.29864277062676,70.58015487198566,85.21700913256113
3363.28,87.0428598752576,83.83007444878825,88.3738994342895,83.28092390375694,70.14470922489231,85.20769485737429
3481.93,86.8842574373783,84.15621513335692,88.23205684148651,83.0404864264006,67.78677515445422,85.10916292737768
3604.98,86.58200520422908,83.82120218487846,88.29326876443636,82.60921448410572,68.90190804588839,84.94548014948687
3732.42,87.16478244893572,84.57935619389274,88.3847711164705,81.9792669946594,70.34759137411856,85.22595872532615
3864.26,86.62154024839072,83.6743871086042,88.13001143678825,81.76945302970641,69.78233083410365,84.7779913391764
4000.49,86.99961829646466,83.85196168077586,88.06823300542194,81.58259892545807,68.82519439270727,84.87550820872208
4141.11,86.51553954087775,83.38909132788744,87.74447940381101,81.92103406069889,69.82446452508636,84.55348956931745
4287.6,86.23265097823797,83.39567436207828,87.80768959846672,81.76863184444491,70.15603846991233,84.48036201278113
4438.48,86.49516343042654,83.95337262441693,87.97225267754965,81.82997229594139,69.19348148246392,84.71978137856557
4595.21,86.12063823329784,82.99266293035215,87.76544637028577,82.06446381822195,69.8404725103898,84.39898783188902
4756.35,86.59242421923369,83.2780523011766,87.98506983671543,82.19260067707013,69.01429951573166,84.68774812227245
4924.8,86.56579714108774,82.99273333127465,88.46290614095739,81.77497207307981,69.0316361709377,84.80899858615237
5097.66,86.44904585486121,82.39902514917819,88.31603235413856,81.66139256476424,68.76703315350323,84.61776999958913
5277.83,86.4502193303982,82.43307776015392,88.11765304279517,81.34735048377225,67.5311338476851,84.49331634391916
5463.87,86.67884759712452,82.69627282383712,88.02521532776711,80.98329022007597,66.47499208801213,84.52091159636312
5657.23,86.80529370236468,82.61552501951847,87.84592848325457,81.16899221200156,66.19027673022009,84.48968524028355
5856.45,86.5466893132803,82.36690177506102,87.4144466463904,81.26041203587246,65.36389708434125,84.19114475237235
6062.99,86.6206542861502,82.79457138280539,87.29207172839597,81.05666152659786,65.4389772296798,84.20507587616116
6276.86,86.59319119970097,82.80444337484967,86.8002743204337,80.56663159517888,64.17485512258266,83.95265305546972
6498.05,86.21629423135523,82.35993584528526,86.3353929417294,80.53683449688354,64.8525776507838,83.56754205567404
6726.56,86.22665527978869,82.3826433099014,86.01025156468435,80.38347037391921,66.23709063406491,83.44394840994919
6963.87,86.26482949189597,82.43119386083275,85.66188568666294,80.33053036873017,65.85855685617084,83.33738134296185
7209.96,85.92611350215196,82.2213319192074,85.51071750271934,80.06147017255678,64.33254984032594,83.08775492924006
7464.84,86.07209437927567,82.30323206155596,85.51055711243761,79.96759045692419,63.36918056346721,83.14637134269736
7727.05,85.88250262522858,83.06306275402488,85.50517081501384,79.9608788255414,61.73827683002027,83.20460793609497
7999.51,85.66434835675842,83.37161680700791,85.90862215937375,79.82836887806242,62.32549163295404,83.31832213530775
8282.23,85.72155942170353,83.31812155442901,86.0230485407465,79.62291215119065,61.86208373455342,83.35064078136936
8573.73,85.69337077009382,83.21227444027384,86.24922166505701,79.29451021673333,60.848771922068224,83.37791610113447
8876.95,85.82033170984322,82.7759824878326,86.42761219400434,78.63809511547205,58.142296761940415,83.36260551441505
9188.96,85.83505726631769,82.42085790924831,86.30326181964956,77.94932731129838,57.4428861809066,83.2126956940465
9514.16,85.88299077600686,81.51821324077049,86.17737384253353,77.55154376409325,58.0094825403048,83.0172988581888
