Freq "Rear Wall Bounce"
20.5078 62.04772223712297
21.9727 63.14137962606745
23.4375 64.58107290747702
24.9023 65.31857037589344
26.3672 66.23211090748403
27.832 67.14019445625017
29.2969 67.83151878446807
30.7617 68.65844230330619
32.2266 69.42620985562098
33.6914 70.13413055368554
35.1562 70.69119327094714
36.6211 71.38779222444731
38.0859 71.97251121005368
39.5508 72.6626289915876
41.0156 73.23850965348936
42.4805 73.7542217605374
43.9453 74.22042402528872
45.4102 74.75327822271635
46.875 75.38873930683766
48.3398 75.8820620360363
51.2695 76.84738320454713
52.7344 77.31153165612822
54.1992 77.68786691956667
55.6641 78.06315803461747
58.5938 78.9118673223177
60.0586 79.3025431007461
62.9883 80.14131030848466
64.4531 80.33325071111523
67.3828 81.091300531539
68.8477 81.41477700541184
71.7773 81.99443947922416
74.707 82.56929589495532
77.6367 83.164310550476
79.1016 83.400442319566
82.0312 83.8201792828424
84.9609 84.20910448748145
87.8906 84.72840006647378
90.8203 85.13840494598558
95.2148 85.51750595069966
98.1445 85.7371415852965
101.074 85.90010097153406
105.469 86.19255302135011
108.398 86.3760508107227
112.793 86.50670969174442
117.188 86.46781271289007
120.117 86.70514040829464
124.512 86.9858855925939
128.906 86.95173484342385
133.301 86.73521394543282
139.16 86.65626751863505
143.555 86.47375073586274
147.949 86.74185324015862
153.809 86.30583348091852
159.668 85.82985373814348
165.527 85.67046528166627
171.387 86.05303242303752
177.246 86.074528990501
183.105 85.8821361604914
188.965 85.92716203466429
196.289 85.3748884938363
203.613 84.97328070914675
210.938 84.6784724236785
218.262 84.85672432132705
225.586 84.73287518877561
232.91 84.30295602088695
241.699 83.99698995325924
250.488 82.98718714822314
259.277 83.55536401751658
268.066 84.45635741710664
276.855 83.46575201796877
287.109 82.80498763461569
297.363 83.2891008260715
307.617 84.74328174957884
319.336 83.10854157627635
329.59 83.42628926014352
341.309 83.1103956388966
353.027 82.16057690623401
366.211 81.79116732416303
379.395 81.32984290755108
392.578 81.16070636682963
405.762 81.65771742581914
420.41 81.45054230034863
435.059 81.06614090736332
451.172 80.65814532356023
465.82 79.82617446372572
483.398 79.49572581737816
499.512 79.91766047315474
517.09 80.08834277235094
536.133 80.86783389039779
555.176 80.47544562532835
574.219 78.97797392909563
594.727 77.69901096005339
615.234 78.17685372981163
637.207 79.0708750327757
659.18 79.03832449717561
682.617 81.02799423350112
707.52 79.77292533966418
732.422 79.44782900411488
757.324 79.05690611340648
785.156 79.38775660460847
811.523 79.15535540287873
840.82 79.44794359252175
870.117 80.02412453295106
900.879 79.60447307492032
933.105 77.60569434728413
965.332 77.63038156020025
1000.49 77.37448313163972
1035.64 76.96724410377414
1072.27 75.8604764702579
1108.89 75.46841031401848
1148.44 75.25373603798455
1189.45 74.85098661267283
1230.47 75.47054228647394
1274.41 74.78611598193572
1319.82 75.09441173050234
1366.7 74.53619201793965
1413.57 75.28417634921661
1463.38 73.39465092321147
1516.11 71.86609195828463
1568.85 71.29408543490914
1624.51 72.75537756017673
1681.64 72.34428153504179
1741.7 70.25409902790238
1803.22 70.14733198756514
1866.21 72.7304839227808
1932.13 71.74968730242594
1999.51 72.04490521511954
2069.82 71.27809673403397
2143.07 70.6893404580226
2219.24 71.94561676786529
2296.88 71.14731618394299
2378.91 71.59868747656323
2462.4 71.32053490265105
2548.83 71.54261557997484
2639.65 70.87456688571454
2731.93 70.60623456011568
2828.61 70.83671526551717
2928.22 72.39919414524371
3030.76 72.23067968162005
3137.7 71.06201829580891
3249.02 70.95164578107655
3363.28 70.5162001339832
3481.93 68.15826606354511
3604.98 69.27339895497929
3732.42 70.71908228320946
3864.26 70.15382174319454
4000.49 69.19668530179817
4141.11 70.19595543417725
4287.6 70.52752937900323
4438.48 69.56497239155482
4595.21 70.2119634194807
4756.35 69.38579042482256
4924.8 69.4031270800286
5097.66 69.13852406259413
5277.83 67.90262475677599
5463.87 66.84648299710302
5657.23 66.56176763931099
5856.45 65.73538799343214
6062.99 65.81046813877069
6276.86 64.54634603167355
6498.05 65.2240685598747
6726.56 66.60858154315581
6963.87 66.23004776526173
7209.96 64.70404074941683
7464.84 63.740671472558105
7727.05 62.10976773911116
7999.51 62.696982542044935
8282.23 62.23357464364432
8573.73 61.22026283115912
8876.95 58.51378767103131
9188.96 57.81437708999749
9514.16 58.3809734493957
9849.61 58.69774303886476
10196.8 57.25573771705905
10555.7 58.30425333720359
10927.7 57.175040274599525
11313.0 57.247866232678774
11712.9 57.9644518129478
12126.0 58.5042086184734
12553.7 57.691878916230365
12996.1 56.5201916420761
13454.6 56.549392594673805
13929.2 57.42365642210726
14419.9 57.375552920844115
14928.2 58.144970195973684
15455.6 58.71597127703026
16000.5 59.523154908642
16564.5 59.656877608338505
17148.9 59.224692991171594
17752.4 59.310997530598115
18379.4 59.38840869183295
19026.9 58.70394085683205
19697.8 58.14086300216678
19999.5 58.353176240955946
