Freq "Side Wall Bounce"
20.5078 62.789774223610436
21.9727 63.87969318819306
23.4375 65.18162608857561
24.9023 65.84306469999646
26.3672 66.75982044978308
27.832 67.75539059124034
29.2969 68.38929529306169
30.7617 69.13805224719405
32.2266 69.90744440176462
33.6914 70.61253794809801
35.1562 71.23763566746837
36.6211 71.91190272598894
38.0859 72.52987425948788
39.5508 73.17880653101662
41.0156 73.71025520995516
42.4805 74.38085380235316
43.9453 74.82780691746106
45.4102 75.4212640261527
46.875 75.88479446257834
48.3398 76.39196685483071
51.2695 77.29270333920135
52.7344 77.8001930002226
54.1992 78.24229327660618
55.6641 78.62373696918216
58.5938 79.41053018712607
60.0586 79.82450307197317
62.9883 80.63518811716966
64.4531 80.93709719054145
67.3828 81.67623401886912
68.8477 81.9613974358453
71.7773 82.57823804460764
74.707 83.1293161913662
77.6367 83.62223353031072
79.1016 83.85868634714807
82.0312 84.29093337522593
84.9609 84.70222498643287
87.8906 85.20673716467952
90.8203 85.65060179867471
95.2148 86.07055147822986
98.1445 86.31290297993564
101.074 86.52567686514911
105.469 86.8596204226414
108.398 86.99036770507699
112.793 87.05207402346639
117.188 87.10625662675417
120.117 87.40164947585085
124.512 87.60779037203076
128.906 87.61831686550994
133.301 87.62700295252328
139.16 87.4657018715406
143.555 87.30731115209831
147.949 87.53214079923308
153.809 87.40027093989899
159.668 86.92959106672998
165.527 86.7670772080393
171.387 87.16977455936322
177.246 86.98314250759177
183.105 87.06718630913652
188.965 87.02579635162763
196.289 86.6269314916371
203.613 86.30345973062404
210.938 86.4503202243678
218.262 86.43212683945646
225.586 86.27467061786481
232.91 86.01232587261487
241.699 85.60435119623448
250.488 85.61899743432504
259.277 86.23808295762751
268.066 86.21399747231801
276.855 85.62265806092864
287.109 85.40904305617849
297.363 85.61897818950794
307.617 85.43428155344738
319.336 84.87995848183597
329.59 85.39123028417335
341.309 85.21232975174055
353.027 85.52193954511168
366.211 85.65794417173359
379.395 85.4392126541459
392.578 84.90478211045952
405.762 85.75684453921471
420.41 84.77026038180908
435.059 84.87811501557961
451.172 84.01747766215681
465.82 84.39039434328261
483.398 84.30794963049334
499.512 84.53106604383407
517.09 83.83570656259369
536.133 83.6515729337296
555.176 82.81885060517794
574.219 81.98898440159456
594.727 82.94920332929193
615.234 83.10845362519477
637.207 83.3233505418045
659.18 84.10756147869985
682.617 84.64931066096207
707.52 84.54964801267315
732.422 84.06358010534389
757.324 84.47871996195221
785.156 84.43672699805839
811.523 84.1493356383764
840.82 84.78079968770516
870.117 83.08643231755828
900.879 83.58772520278097
933.105 84.11713569762665
965.332 84.55053338146462
1000.49 83.7884923370629
1035.64 83.92391692293045
1072.27 83.7267355183265
1108.89 83.28769121250883
1148.44 83.06895199532745
1189.45 82.3260098268918
1230.47 81.70661088218891
1274.41 81.98551324776969
1319.82 82.13508034180245
1366.7 82.20733336141276
1413.57 82.49683123841375
1463.38 81.47032947046296
1516.11 80.33124115177705
1568.85 79.95488301555245
1624.51 80.16596814547081
1681.64 80.05054624321679
1741.7 80.23418335866565
1803.22 80.85354811769173
1866.21 80.75578501616623
1932.13 80.59890254585108
1999.51 80.98817657074116
2069.82 81.06036144544112
2143.07 81.30845670506243
2219.24 80.09132525642715
2296.88 80.0755777583268
2378.91 80.38715806299007
2462.4 80.26806087302428
2548.83 81.26399938582095
2639.65 81.75326661292416
2731.93 81.82259078432263
2828.61 82.30006914515361
2928.22 83.16585622019574
3030.76 83.39347100655287
3137.7 83.77127404578667
3249.02 83.67013367971765
3363.28 83.65241481284784
3481.93 83.4119773354915
3604.98 82.98070539319662
3732.42 82.35075790375029
3864.26 82.1409439387973
4000.49 81.95408983454897
4141.11 82.29252496978978
4287.6 82.1401227535358
4438.48 82.20146320503228
4595.21 82.43595472731285
4756.35 82.56409158616103
4924.8 82.1464629821707
5097.66 82.03288347385514
5277.83 81.71884139286314
5463.87 81.35478112916687
5657.23 81.54048312109245
5856.45 81.63190294496336
6062.99 81.42815243568876
6276.86 80.93812250426977
6498.05 80.90832540597444
6726.56 80.7549612830101
6963.87 80.70202127782106
7209.96 80.43296108164768
7464.84 80.33908136601508
7727.05 80.3323697346323
7999.51 80.19985978715331
8282.23 79.99440306028154
8573.73 79.66600112582422
8876.95 79.00958602456295
9188.96 78.32081822038927
9514.16 77.92303467318415
9849.61 77.96047572617067
10196.8 77.72570493358387
10555.7 77.42959561600851
10927.7 77.13949834118975
11313.0 77.1271858164898
11712.9 77.23172766669488
12126.0 77.08270971682741
12553.7 76.42440986612431
12996.1 75.68482182679769
13454.6 74.9299572151554
13929.2 74.69524961661446
14419.9 73.68238626088232
14928.2 71.43815978004052
15455.6 70.36497145918815
16000.5 70.73361317843259
16564.5 70.82832126436256
17148.9 70.94831459187073
17752.4 69.54794564392995
18379.4 69.99626395139944
19026.9 70.51937570045352
19697.8 69.8056718538763
19999.5 69.75449702130351
