Freq,On Axis,Listening Window,Sound Power,Early Reflections,Early Reflections DI,Sound Power DI,DI offset
22.4,17.80886075949367,17.72164105809368,16.86709465062107,17.241233925721602,20.48040713237208,20.85454640747261,20
23.0,19.208860759493675,19.121641058093687,18.28431912424314,18.656084558721503,20.465556499372184,20.837321933850546,20
23.6,20.608860759493652,20.56573422619455,19.70036316229867,20.07415299020137,20.49158123599318,20.86537106389588,20
24.0,22.008860759493658,21.921641058093698,21.0917465119076,21.461501738138153,20.460139319955545,20.829894546186097,20
25.0,23.30886075949367,23.298638093546813,22.485040264793795,22.85829666683607,20.440341426710745,20.813597828753018,20
25.8,24.708860759493675,24.687865311360426,23.841478111386508,24.215771135807714,20.472094175552712,20.84638719997392,20
26.5,26.008860759493658,25.998638093546802,25.187571990410717,25.55652205151982,20.44211604202698,20.811066103136085,20
27.2,27.408860759493663,27.33230677311532,26.522553471603928,26.893033665868316,20.439273107247004,20.809753301511392,20
28.0,28.708860759493675,28.654608419196663,27.83517314614143,28.201009192658333,20.45359922653833,20.819435273055234,20
29.0,30.008860759493658,29.976292332765397,29.164615847617583,29.524098474145134,20.452193858620262,20.811676485147814,20
30.0,31.30886075949367,31.25460841919663,30.452989659760007,30.812322388300018,20.44228603089661,20.80161875943662,20
30.7,32.60886075949365,32.54397375102049,31.730154156406215,32.09354680635742,20.450426944663064,20.813819594614273,20
31.5,34.208860759493675,34.23280990447411,33.41023769186107,33.77064931800321,20.4621605864709,20.82257221261304,20
32.5,35.60886075949365,35.55460841919664,34.7706457900306,35.133485164008434,20.421123255188206,20.78396262916604,20
33.5,36.50886075949366,36.53280990447412,35.72599561901937,36.08164730535985,20.45116259911427,20.80681428545475,20
34.5,37.80886075949367,37.75460841919663,36.93404239440379,37.28649721346589,20.468111205730736,20.82056602479284,20
35.5,39.00886075949366,38.95460841919662,38.17374782628859,38.52920351835901,20.425404900837606,20.780860592908027,20
36.5,40.208860759493675,40.19888273237446,39.39789509218387,39.76405114601273,20.434831586361724,20.800987640190584,20
37.5,41.50886075949366,41.45460841919662,40.6259189158864,40.98467481451887,20.46993360467775,20.828689503310216,20
38.7,42.708860759493675,42.654608419196634,41.82735394205433,42.188916937075575,20.46569148212106,20.827254477142304,20
40.0,43.90886075949366,43.83230677311532,43.032328228024724,43.38802440521387,20.44428236790145,20.799978545090596,20
41.2,45.10886075949365,45.03230677311531,44.24453279830705,44.58984539943246,20.442461373682846,20.78777397480826,20
42.5,46.30886075949367,46.24399740056187,45.4384322896518,45.788024405213875,20.45597299534799,20.805565110910067,20
43.7,47.50886075949366,47.44399740056187,46.6633575602918,47.00373624848818,20.44026115207369,20.78063984027007,20
45.0,49.00886075949366,48.976561976645385,48.16667856781342,48.51622091349674,20.460341063148647,20.809883408831965,20
46.2,50.108860759493666,50.07656197664538,49.270435094332825,49.624307736089364,20.452254240556016,20.806126882312554,20
47.5,51.108860759493666,51.054879412707564,50.2549637114204,50.612362340071215,20.44251707263635,20.799915701287162,20
48.7,52.30886075949367,52.19968185639068,51.392873953725186,51.7477585392334,20.45192331715728,20.806807902665497,20
50.0,53.40886075949366,53.354373068536674,52.52747830107586,52.894405419485835,20.45996764905084,20.826894767460814,20
51.5,54.50886075949366,54.476561976645385,53.66100834642927,54.02734595264111,20.449216024004272,20.815553630216115,20
53.0,55.70886075949366,55.59968185639069,54.7699769681565,55.14104431450296,20.458637541887725,20.82970488823419,20
54.5,56.80886075949367,56.6996818563907,55.86662009167995,56.24108433854174,20.458597517848958,20.83306176471075,20
56.0,58.10886075949365,57.99968185639068,57.154851685621836,57.53932567987542,20.460356176515262,20.844830170768844,20
58.0,59.208860759493646,59.13257916175226,58.266388896694835,58.647371213256875,20.485207948495386,20.866190265057426,20
60.0,60.108860759493666,60.05437306853665,59.191446059084896,59.5702799372242,20.48409313131245,20.862927009451752,20
61.5,61.108860759493666,60.987871163530016,60.12515042214744,60.513475218023885,20.47439594550613,20.862720741382574,20
63.0,62.108860759493666,61.987871163530016,61.101208718246966,61.4980410130005,20.489830150529514,20.88666244528305,20
65.0,63.00886075949366,62.976561976645385,62.06989061202695,62.472412386271245,20.50414959037414,20.906671364618433,20
67.0,64.00886075949366,63.90989001349597,63.000891457842656,63.418152840342216,20.49173717315375,20.908998555653312,20
69.0,65.00886075949366,64.97656197664539,64.0326619855205,64.45531281060148,20.5212491660439,20.94389999112488,20
71.0,65.90886075949366,65.89863809354681,64.93976994741692,65.37174188016273,20.526896213384077,20.958868146129888,20
73.0,66.70886075949365,66.63230677311532,65.68666048709309,66.11741531821266,20.514891454902653,20.945646286022225,20
75.0,67.50886075949366,67.40989001349597,66.42820881178274,66.86745695529059,20.542433058205376,20.98168120171323,20
77.5,68.20886075949366,68.16495879762891,67.170398817086,67.61986124762723,20.545097550001685,20.994559980542917,20
80.0,68.90886075949366,68.8986380935468,67.869893282476,68.32471659745603,20.57392149609076,21.028744811070794,20
82.5,69.70886075949366,69.60989001349597,68.60000075564496,69.0547590683508,20.555130945145166,21.009889257851015,20
85.0,70.30886075949367,70.23230677311533,69.21676344207783,69.67501891329898,20.55728785981634,21.01554333103749,20
87.5,70.80886075949367,70.73230677311533,69.68485214136186,70.15949544252975,20.57281133058558,21.047454631753467,20
90.0,71.30886075949367,71.20989001349598,70.1569700767016,70.62468858877021,20.585201424725767,21.052919936794382,20
92.5,71.70886075949365,71.65487941270756,70.61643386253772,71.08690780843581,20.567971604271747,21.03844555016984,20
95.0,72.20886075949366,72.14321808082924,71.08323784384615,71.57684003870271,20.56637804212653,21.059980236983094,20
97.5,72.60886075949367,72.55487941270756,71.47466498131193,71.96635686560738,20.588522547100183,21.080214431395632,20
100.0,72.90886075949366,72.85487941270755,71.79089936223073,72.2816087480604,20.57327066464714,21.063980050476815,20
103.0,73.30886075949367,73.23230677311533,72.10893298280273,72.61135771011182,20.620949063003508,21.1233737903126,20
106.0,73.60886075949367,73.50989001349598,72.39970986250158,72.90932798721335,20.60056202628263,21.110180150994395,20
109.0,73.80886075949367,73.73230677311533,72.58881461184298,73.10957636304997,20.62273041006536,21.14349216127235,20
112.0,73.90886075949366,73.83230677311532,72.66910549945517,73.19053779222106,20.641768980894255,21.16320127366015,20
115.0,73.90886075949366,73.78837361740476,72.62380349413937,73.15689680010388,20.63147681730088,21.164570123265392,20
118.0,73.70886075949366,73.61090142442798,72.42209767711367,72.96822578030492,20.64267564412306,21.18880374731431,20
122.0,73.40886075949366,73.31090142442797,72.1060280263481,72.65767558499157,20.653225839436402,21.20487339807987,20
125.0,73.10886075949365,73.01090142442797,71.78979301180662,72.3506151727279,20.66028625170007,21.221108412621348,20
128.0,72.80886075949367,72.71090142442796,71.47972313149575,72.04905123758927,20.66185018683869,21.231178292932213,20
132.0,72.60886075949367,72.51090142442797,71.24798444813442,71.82792321879778,20.682978205630192,21.262916976293553,20
136.0,72.50886075949366,72.44399740056187,71.15591340934465,71.74385675985998,20.70014064070189,21.28808399121722,20
140.0,72.50886075949366,72.45487941270757,71.14097954315588,71.73781158237604,20.71706783033153,21.31389986955169,20
145.0,72.50886075949366,72.45487941270757,71.10480606632733,71.71411875627957,20.740760656427994,21.350073346380242,20
150.0,72.50886075949366,72.36624512895906,70.97329825907043,71.61418655402441,20.75205857493465,21.392946869888632,20
155.0,72.30886075949367,72.18888771476296,70.75196208251582,71.4134254587611,20.77546225600186,21.43692563224714,20
160.0,72.10886075949367,71.93331890369484,70.43928940254987,71.1295869885062,20.803731915188635,21.494029501144965,20
165.0,71.80886075949367,71.66776010644621,70.14358592528448,70.8629966881559,20.804763418290307,21.524174181161726,20
170.0,71.60886075949368,71.46776010644622,69.86630560596757,70.61963371840447,20.84812638804175,21.601454500478653,20
175.0,71.40886075949366,71.2677601064462,69.61764386024264,70.39367782578161,20.874082280664595,21.650116246203567,20
180.0,71.30886075949367,71.1124068614089,69.38370572110415,70.19917510458696,20.913231756821943,21.72870114030475,20
185.0,71.10886075949367,70.97883458555737,69.18908233749163,70.04558146470096,20.933253120856406,21.78975224806574,20
190.0,71.20886075949366,71.02415110714469,69.1259840246471,70.03328088497744,20.990870222167246,21.898167082497594,20
195.0,71.40886075949366,71.2241511071447,69.23154095743944,70.19674183294858,21.02740927419613,21.99261014970527,20
200.0,71.60886075949368,71.46776010644622,69.37007512804507,70.39117958144266,21.076580525003564,22.097684978401148,20
206.0,71.70886075949365,71.51240686140889,69.32913510933759,70.39715369607212,21.115253165336767,22.183271752071306,20
212.0,71.50886075949366,71.33533114391265,69.06945896309657,70.19091182873183,21.144419315180826,22.26587218081609,20
218.0,71.10886075949367,70.96776010644622,68.62531183413925,69.78872011446535,21.179039991980872,22.342448272306967,20
224.0,70.80886075949367,70.6124068614089,68.18793083383666,69.40086904434082,21.211537817068077,22.42447602757224,20
230.0,70.60886075949365,70.4124068614089,67.90672694275555,69.17905497112733,21.23335189028157,22.505679918653342,20
236.0,70.50886075949366,70.34701364392727,67.75271643216556,69.08034156732388,21.266672076603385,22.594297211761713,20
240.0,70.50886075949366,70.31240686140889,67.59082304510365,68.99659378225527,21.315813079153614,22.72158381630524,20
250.0,70.40886075949366,70.15866480236464,67.3542013408878,68.83350816234348,21.325156640021163,22.804463461476843,20
258.0,70.20886075949367,70.04701364392726,67.08399819594486,68.65893166252137,21.38808198140589,22.9630154479824,20
265.0,70.10886075949367,69.88162244427686,66.77431737874016,68.44249089081858,21.43913155345828,23.107305065536693,20
272.0,70.00886075949366,69.76976246910245,66.47000421213802,68.26599229095471,21.503770178147732,23.299758256964424,20
280.0,69.90886075949366,69.6494987245238,66.15109793332131,68.07682725421978,21.572671470304016,23.498400791202485,20
290.0,69.80886075949367,69.5494987245238,65.86509114073753,67.92941721364558,21.620081510878222,23.684407583786268,20
300.0,69.70886075949366,69.449233299514,65.63711733571118,67.78351789343911,21.665715406074895,23.812115963802825,20
307.0,69.60886075949367,69.36949827969194,65.49214445028942,67.66366619114208,21.705832088549855,23.877353829402523,20
315.0,69.40886075949366,69.2261156338504,65.3399400240753,67.49581131389554,21.730304319954854,23.886175609775094,20
325.0,69.20886075949365,68.95814108505762,65.14761569683365,67.24585388564108,21.712287199416537,23.810525388223965,20
335.0,69.10886075949368,68.92611563385039,65.1545905554227,67.18310425718671,21.743011376663674,23.771525078427686,20
345.0,69.30886075949367,69.14648851963138,65.44444598902469,67.410285524934,21.73620299469738,23.70204253060669,20
355.0,69.70886075949366,69.51240686140888,65.78784639763674,67.72629069247428,21.786116168934598,23.724560463772136,20
365.0,69.90886075949366,69.73533114391267,65.96193791994679,67.9079444204023,21.827386723510372,23.773393223965883,20
375.0,69.90886075949366,69.73533114391267,65.90931992645437,67.85874535968176,21.87658578423091,23.8260112174583,20
387.0,69.80886075949367,69.63533114391268,65.75232388317143,67.71329400667825,21.922037137234426,23.883007260741252,20
400.0,69.70886075949366,69.53533114391267,65.5874472421285,67.56644054581683,21.96889059809584,23.947883901784166,20
412.0,69.70886075949366,69.50141776931042,65.50880034319482,67.49044685683442,22.010970912475997,23.9926174261156,20
425.0,69.70886075949366,69.45866480236465,65.3842779916483,67.39581095488826,22.06285384747639,24.074386810716348,20
437.0,69.50886075949366,69.19642796077503,65.03091545165672,67.083790731728,22.112637229047024,24.1655125091183,20
450.0,69.30886075949367,68.91219298168652,64.65374652522168,66.75164589134079,22.16054709034573,24.25844645646484,20
462.0,69.40886075949366,68.90745607304761,64.52821981312498,66.67054058610047,22.23691548694714,24.379236259922635,20
475.0,69.50886075949366,69.00745607304762,64.47745957183038,66.66773865703591,22.33971741601171,24.52999650121724,20
487.0,69.50886075949366,69.0299576638794,64.42647285147807,66.61892985425841,22.41102780962099,24.603484812401334,20
500.0,69.50886075949366,69.08992887011222,64.37170096144749,66.61908949946438,22.470839370647838,24.71822790866473,20
515.0,69.40886075949366,69.06699085545276,64.22454521313342,66.54279820132142,22.52419265413134,24.842445642319333,20
530.0,69.30886075949367,69.01057397032234,64.00464373489099,66.43314209697398,22.57743187334836,25.00593023543135,20
545.0,69.20886075949365,68.95391465102715,63.73346925904322,66.24723536163906,22.70667928938809,25.22044539198393,20
560.0,69.10886075949368,68.87610589542534,63.4803111989187,66.03996263888835,22.836143256536985,25.39579469650664,20
580.0,69.20886075949365,68.8909581632971,63.321488388678276,65.90993516661635,22.98102299668075,25.569469774618824,20
600.0,69.30886075949367,68.88983807685027,63.246026716483414,65.86812198879018,23.02171608806009,25.643811360366854,20
615.0,69.50886075949366,68.97912888004149,63.331920943478636,66.0323910747169,22.946737805324588,25.64720793656285,20
630.0,69.70886075949366,69.14026182486386,63.5424639163664,66.32315761105117,22.817104213812684,25.597797908497455,20
650.0,69.80886075949367,69.24845696272257,63.713402280444356,66.5369426661959,22.711514296526673,25.535054682278215,20
670.0,69.80886075949367,69.26611548001283,63.74290635889018,66.53756656018506,22.728548919827773,25.523209121122648,20
690.0,69.70886075949366,69.19464253825554,63.69158454213439,66.45924481031942,22.735397727936117,25.503057996121143,20
710.0,69.60886075949367,69.10219900721337,63.68364488412908,66.42631680527056,22.675882201942812,25.41855412308429,20
730.0,69.60886075949367,69.10437292984624,63.706400493496986,66.45895957934316,22.645413350503077,25.39797243634925,20
750.0,69.70886075949366,69.18604294778216,63.74383822737731,66.51392836932983,22.672114578452323,25.442204720404845,20
775.0,69.80886075949367,69.24682570533767,63.65371639612562,66.44189200645845,22.804933698879225,25.593109309212053,20
800.0,69.70886075949366,69.2269703850807,63.48849281982531,66.33315227525449,22.893818109826213,25.738477565255394,20
825.0,69.60886075949367,69.07087133243276,63.312768719026394,66.18932546211813,22.881545870314625,25.758102613406365,20
850.0,69.40886075949366,68.88193789087623,63.15806240811213,66.00162462586697,22.880313265009264,25.7238754827641,20
875.0,69.30886075949367,68.7669484556079,63.11073605029783,65.89140314204558,22.875545313562327,25.65621240531007,20
900.0,69.40886075949366,68.84623156990834,63.39351692415255,66.18506262749356,22.661168942414776,25.45271464575579,20
925.0,69.60886075949367,69.09241386856884,64.03642963330768,66.97852143078255,22.11389243778629,25.055984235261164,20
950.0,69.80886075949367,69.28744843508099,64.49915414936015,67.55127160111466,21.736176833966326,24.788294285720838,20
975.0,69.80886075949367,69.1686712997599,64.60791161334276,67.61922812096238,21.549443178797517,24.56075968641713,20
1000.0,69.60886075949367,68.7224930214719,64.48804414334467,67.5653759978418,21.157117023630107,24.23444887812724,20
1030.0,69.40886075949366,68.55571879778721,64.24505818037143,67.60349926025863,20.952219537528578,24.310660617415778,20
1060.0,69.40886075949366,68.81401164159931,64.09382621491226,67.70021112843955,21.11380051315976,24.720185426687053,20
1090.0,69.30886075949367,69.0082479425396,64.02214097896866,67.86261046322551,21.14563747931409,24.986106963570933,20
1120.0,69.00886075949366,69.07002279807158,64.3869707964631,68.29349235290711,20.776530445164468,24.683052001608473,20
1150.0,69.10886075949368,69.18730005684982,64.88331621956272,68.63727871584881,20.550021341001013,24.303983837287106,20
1180.0,69.60886075949367,69.39610740767388,64.60841189418939,68.33238092480924,21.063726482864638,24.787695513484493,20
1220.0,69.70886075949366,69.40634803037739,63.91201668507772,67.6732214591577,21.733126571219685,25.49433134529967,20
1250.0,69.70886075949366,69.4799402743785,64.26520313772427,67.88944987159559,21.59049040278292,25.214737136654236,20
1280.0,70.50886075949366,69.92710390652869,65.28878792435226,68.68110490528578,21.245999001242907,24.638315982176422,20
1320.0,71.40886075949366,70.56480716697412,65.1328440328238,68.53798810751016,22.02681905946396,25.431963134150323,20
1360.0,72.10886075949367,71.43868135676483,65.19911481114562,68.64227660875676,22.796404748008072,26.239566545619212,20
1400.0,72.60886075949367,71.80701172365751,64.4854641809601,68.20244565035338,23.604566073304127,27.321547542697417,20
1450.0,72.60886075949367,71.58710693887512,63.36998445071396,67.53393656955159,24.05317036932354,28.217122488161166,20
1500.0,72.30886075949367,71.14821259899392,62.67063509024297,67.12335673245583,24.02485586653809,28.477577508750954,20
1550.0,71.60886075949368,70.55233681829152,62.87778777396777,67.2602595616714,23.292077256620118,27.674549044323754,20
1600.0,71.10886075949367,70.25399877011324,63.23746365432099,67.35491067408125,22.89908809603199,27.01653511579225,20
1650.0,71.10886075949367,70.35428147787022,63.07362220426219,67.10406171581363,23.250219762056588,27.280659273608023,20
1700.0,71.30886075949367,70.47404280610516,62.83576089672279,66.9357077049675,23.538335101137662,27.63828190938237,20
1750.0,71.60886075949368,70.53939806784446,62.29051258874293,66.50462514070122,24.034772927143237,28.24888547910153,20
1800.0,71.80886075949367,70.57161040711584,61.96459890513216,66.35082537292847,24.220785034187372,28.607011501983678,20
1850.0,71.50886075949366,70.18907063073901,61.65312305547316,66.07212581376098,24.116944816978034,28.53594757526585,20
1900.0,70.90886075949366,69.51681143020787,61.11558497788843,65.52606687193575,23.990744558272112,28.401226452319435,20
1950.0,70.50886075949366,69.04334908993256,60.50912453479518,64.97566087284888,24.067688217083685,28.534224555137385,20
2000.0,70.20886075949367,68.72764917081285,60.00194303927624,64.6238947336756,24.103754437137255,28.72570613153661,20
2060.0,69.30886075949367,67.4378382483742,58.25798367799456,63.139390672014315,24.29844757635989,29.179854570379646,20
2120.0,67.40886075949366,65.40439782713734,55.92945093149173,61.053582265552535,24.35081556158481,29.474946895645616,20
2180.0,66.10886075949367,64.27227011634311,54.72855386358867,59.46723521755855,24.805034898784555,29.543716252754436,20
2240.0,65.30886075949367,64.4357143549557,55.604462665203684,59.53599168800983,24.899722666945877,28.831251689752023,20
2300.0,65.10886075949367,64.49456200682691,56.310626470622296,59.78544387779395,24.70911812903296,28.183935536204615,20
2360.0,66.50886075949366,65.86697078733926,57.37331310253883,60.98550284961283,24.881467937726427,28.493657684800425,20
2400.0,67.90886075949366,67.15719148247148,58.89242509248879,62.37403516584337,24.78315631662811,28.264766389982682,20
2500.0,68.80886075949367,67.88185131204791,59.81010820058653,63.38113696849716,24.500714343550754,28.071743111461387,20
2580.0,70.00886075949366,68.6795036715635,60.469863282664505,64.2920682525365,24.387435419027,28.20964038889899,20
2650.0,70.80886075949367,69.07941539714899,61.06562502757001,64.95961214519558,24.119803251953414,28.013790369578984,20
2720.0,70.80886075949367,69.00034306508915,61.559524590341255,65.35243989487873,23.647903170210427,27.4408184747479,20
