Freq "Sound Power"
22.4 15.958233891127406
23.0 17.375458364749477
23.6 18.79150240280501
24.0 20.182885752413938
25.0 21.576179505300132
25.8 22.932617351892844
26.5 24.278711230917054
27.2 25.613692712110264
28.0 26.926312386647766
29.0 28.25575508812392
30.0 29.544128900266344
30.7 30.82129339691255
31.5 32.50137693236741
32.5 33.861785030536936
33.5 34.81713485952571
34.5 36.025181634910126
35.5 37.26488706679493
36.5 38.48903433269021
37.5 39.71705815639274
38.7 40.91849318256067
40.0 42.12346746853106
41.2 43.335672038813385
42.5 44.52957153015814
43.7 45.75449680079814
45.0 47.25781780831976
46.2 48.36157433483916
47.5 49.34610295192674
48.7 50.48401319423152
50.0 51.618617541582196
51.5 52.75214758693561
53.0 53.861116208662835
54.5 54.957759332186285
56.0 56.24599092612817
58.0 57.35752813720117
60.0 58.28258529959123
61.5 59.21628966265378
63.0 60.1923479587533
65.0 61.16102985253329
67.0 62.09203069834899
69.0 63.12380122602684
71.0 64.03090918792326
73.0 64.77779972759943
75.0 65.51934805228908
77.5 66.26153805759233
80.0 66.96103252298234
82.5 67.69113999615129
85.0 68.30790268258417
87.5 68.7759913818682
90.0 69.24810931720793
92.5 69.70757310304406
95.0 70.17437708435249
97.5 70.56580422181827
100.0 70.88203860273707
103.0 71.20007222330906
106.0 71.49084910300792
109.0 71.67995385234931
112.0 71.76024473996151
115.0 71.7149427346457
118.0 71.51323691762
122.0 71.19716726685444
125.0 70.88093225231296
128.0 70.57086237200208
132.0 70.33912368864075
136.0 70.24705264985099
140.0 70.23211878366222
145.0 70.19594530683366
150.0 70.06443749957677
155.0 69.84310132302215
160.0 69.53042864305621
165.0 69.23472516579082
170.0 68.9574448464739
175.0 68.70878310074897
180.0 68.47484496161049
185.0 68.28022157799796
190.0 68.21712326515343
195.0 68.32268019794577
200.0 68.46121436855141
206.0 68.42027434984392
212.0 68.1605982036029
218.0 67.71645107464559
224.0 67.279070074343
230.0 66.99786618326189
236.0 66.84385567267189
240.0 66.68196228560998
250.0 66.44534058139413
258.0 66.1751374364512
265.0 65.8654566192465
272.0 65.56114345264436
280.0 65.24223717382765
290.0 64.95623038124387
300.0 64.72825657621752
307.0 64.58328369079575
315.0 64.43107926458164
325.0 64.23875493733999
335.0 64.24572979592904
345.0 64.53558522953102
355.0 64.87898563814308
365.0 65.05307716045313
375.0 65.00045916696071
387.0 64.84346312367776
400.0 64.67858648263484
412.0 64.59993958370116
425.0 64.47541723215464
437.0 64.12205469216306
450.0 63.744885765728014
462.0 63.619359053631314
475.0 63.56859881233672
487.0 63.517612091984404
500.0 63.462840201953824
515.0 63.31568445363976
530.0 63.09578297539733
545.0 62.824608499549555
560.0 62.571450439425035
580.0 62.41262762918461
600.0 62.33716595698975
615.0 62.42306018398497
630.0 62.63360315687274
650.0 62.80454152095069
670.0 62.83404559939652
690.0 62.78272378264073
710.0 62.77478412463542
730.0 62.79753973400332
750.0 62.83497746788365
775.0 62.744855636631954
800.0 62.57963206033165
825.0 62.40390795953273
850.0 62.24920164861847
875.0 62.20187529080417
900.0 62.48465616465889
925.0 63.12756887381401
950.0 63.59029338986649
975.0 63.6990508538491
1000.0 63.579183383851
1030.0 63.33619742087777
1060.0 63.18496545541859
1090.0 63.113280219475
1120.0 63.47811003696944
1150.0 63.97445546006905
1180.0 63.699551134695724
1220.0 63.00315592558405
1250.0 63.35634237823061
1280.0 64.3799271648586
1320.0 64.22398327333013
1360.0 64.29025405165196
1400.0 63.57660342146643
1450.0 62.461123691220294
1500.0 61.761774330749304
1550.0 61.968927014474104
1600.0 62.32860289482733
1650.0 62.16476144476853
1700.0 61.926900137229126
1750.0 61.381651829249265
1800.0 61.0557381456385
1850.0 60.744262295979496
1900.0 60.20672421839477
1950.0 59.600263775301514
2000.0 59.09308227978258
2060.0 57.349122918500896
2120.0 55.020590171998066
2180.0 53.81969310409501
2240.0 54.69560190571002
2300.0 55.40176571112863
2360.0 56.46445234304517
2400.0 57.98356433299513
2500.0 58.90124744109286
2580.0 59.56100252317084
2650.0 60.156764268076344
2720.0 60.65066383084759
2800.0 60.2792216505179
2900.0 60.02604850205984
3000.0 59.936242858604146
3070.0 60.29196305882678
3150.0 60.47131999813283
3250.0 59.80050695538759
3350.0 59.51314396642043
3450.0 59.260563639916114
3550.0 58.6694863713079
3650.0 58.58336831964044
3750.0 58.80393083212829
3870.0 58.92792040611842
4000.0 58.65377538611119
4120.0 58.15384988077081
4250.0 57.740116760585124
4370.0 57.883029689178514
4500.0 58.35647532759157
4620.0 58.53812167326714
4750.0 58.861187008264096
4870.0 58.68919522496873
5000.0 58.87400923115092
5150.0 58.409293317820826
5300.0 58.03977334345561
5450.0 58.04813648096635
5600.0 58.1086888243708
5800.0 57.97042782160233
6000.0 57.515470542185525
6150.0 58.32370970764538
6300.0 58.05027199909189
6500.0 57.25492891321164
6700.0 56.91998797132166
6900.0 56.989208584502194
7100.0 57.36184201494652
7300.0 57.4980089309002
7500.0 57.50076449376887
7750.0 57.70587010028346
8000.0 57.821666514415824
8250.0 57.1646254629205
8500.0 57.21515706871661
8750.0 57.51740038621884
9000.0 58.04148862900419
9250.0 58.567088007823386
9500.0 58.43534492275185
9750.0 57.99086196722885
10000.0 58.116974436371535
10300.0 58.6919648021437
10600.0 58.82514903279775
10900.0 57.10699937329271
11200.0 57.756074520024654
11500.0 58.68490915549495
11800.0 56.12431619373385
12200.0 56.34964838989161
12500.0 57.59128399414632
12800.0 57.308312743367495
13200.0 57.23355852411112
13600.0 55.820298046169086
14000.0 54.81908664977175
14500.0 55.029969977850655
15000.0 53.374014103905125
15500.0 53.33212272038806
16000.0 52.3962484046707
16500.0 55.08736021957526
17000.0 57.42071954570112
17500.0 55.398387474290814
18000.0 54.10775019634356
18500.0 56.814760634874006
19000.0 56.01541453736559
19500.0 56.40567176826919
