Freq,Floor Bounce,Ceiling Bounce,Front Wall Bounce,Side Wall Bounce,Rear Wall Bounce,Total Early Reflection
22.4,53.673338545968306,57.19983306661126,54.15866122636663,52.11897498827821,45.826992473521926,53.87196702106809
23.0,54.17296429705675,57.57489229083099,54.70725107660124,52.773114266127976,46.86539776797241,54.36827306007723
23.6,54.84786829224299,58.026719085515296,55.34395076391647,53.55579015080173,48.05649286345701,54.978063230402825
24.0,55.39939270993116,58.379120484637895,55.87118930448193,54.15899663783193,48.99603929456566,55.46934728174281
25.0,55.976696517886836,58.73209585314548,56.39320444173501,54.845994510872,49.97376944875788,55.984025208561604
25.8,56.55741285590578,59.08564440517111,56.943033704698806,55.478992361339294,50.96746363009012,56.50401998424917
26.5,57.1372621743767,59.36562459081088,57.54855905798715,56.15132091201974,51.955685852291936,57.0228316485302
27.2,57.79192787953053,59.72058693089389,58.088785418061065,56.81916819780287,52.95803312903857,57.57619683936177
28.0,58.47419194517141,60.00296788742379,58.67172908964989,57.52520589498826,53.98346203156461,58.138189064432225
29.0,59.186918060203965,60.24412885328624,59.32285588808361,58.240852877249395,55.02766344900047,58.72494271245236
30.0,59.844128853286264,60.360236554670664,59.83025838484647,58.89146797772534,56.00571074763374,59.22855643231722
30.7,60.57244660678603,60.54827118020832,60.45461949560507,59.60291761380317,57.07012164707251,59.829741793678124
31.5,61.230495876379734,60.59843514857178,61.00705246704605,60.2621025445612,58.08291778691617,60.367555550536565
32.5,61.918448167150956,60.71483523633479,61.56005936857912,60.946004639222906,59.103748053973646,60.950603322306804
33.5,62.67789079450556,60.7069050103546,62.1698262583904,61.63227307970146,60.12245892507222,61.560833972262316
34.5,63.30799265215589,60.70306957104253,62.69568844094994,62.29979263896345,61.136211705412066,62.135212935521324
35.5,64.02909084157253,60.779287326074325,63.25000634017073,62.9909672272523,62.121008442343026,62.76902584278301
36.5,64.72909084157254,60.99897445130925,63.83175513861906,63.664827416306366,63.10750499886083,63.43081469622251
37.5,65.26023818113065,61.002611558953646,64.21508314243884,64.2220185188173,64.02678074647122,63.95421553745126
38.7,65.9840783937255,61.751769211042244,64.87166275391891,64.94027672897047,65.00532095906686,64.71842703677005
40.0,66.74680983520814,62.79749950966175,65.62880715674528,65.76074062498236,66.00048474912019,65.57183289200707
41.2,67.51007799780291,64.03897757455802,66.45742449135815,66.62111243765534,67.02245081919327,66.47877123957541
42.5,68.37387961222817,65.5210416629875,67.32946066855592,67.56168078673286,68.05986012012812,67.47412662874166
43.7,69.23821129888744,66.94415774934852,68.31541094484142,68.56168078673285,69.1226919507961,68.5095798263463
45.0,70.20306957104252,68.47071732495408,69.35873795327731,69.6028054768954,70.20193328541868,69.61324270036535
46.2,71.20306957104252,70.03435140868503,70.4878191906381,70.7028054768954,71.31279476874582,70.77339227575477
47.5,72.20076749445562,71.6,71.65873795327732,71.86168078673285,72.47084387098958,71.9711695890074
48.7,73.33435140868502,73.06692185116049,72.85873795327731,73.06168078673286,73.6226919507961,73.19699872208928
50.0,74.46692185116049,74.53435140868501,74.15873795327732,74.30139211624763,74.8226919507961,74.46267697401495
51.5,75.66692185116051,75.90076749445562,75.40065786069425,75.54074361819937,75.9905477041264,75.7054734198349
53.0,76.7669218511605,77.23513059177982,76.62946066855591,76.74074361819939,77.13303145504256,76.90760934923635
54.5,77.83358982687999,78.46845083805432,77.80065786069426,77.86074062498236,78.20096392794139,78.04084453670265
56.0,78.86692185116051,79.56845083805433,78.87166275391891,78.94027672897047,79.21111897043203,79.10020144489383
58.0,79.7669218511605,80.56845083805433,79.87166275391891,79.92018505541589,80.12172721616881,80.05925403389122
60.0,80.56692185116049,81.43513059177982,80.75742449135815,80.78018335884988,80.92148603099393,80.90239338741154
61.5,81.23358982687996,82.10076749445561,81.45742449135815,81.48018335884989,81.57913786874599,81.5799839438753
63.0,81.7669218511605,82.6669218511605,82.0,82.0,82.08958146124473,82.11534116940078
65.0,82.20076749445562,83.06692185116049,82.5,82.5,82.5,82.5628297025129
67.0,82.50076749445562,83.3669218511605,82.8,82.8,82.8,82.8628297025129
69.0,82.70076749445562,83.5,83.0,83.0,83.0,83.04788758139924
71.0,82.80076749445561,83.6,83.2,83.14027672897046,83.1,83.1758118563406
73.0,82.90076749445561,83.6,83.27166275391892,83.2,83.13182840322695,83.22680925358719
75.0,82.93358982687998,83.6,83.32880715674528,83.30000000000001,83.2,83.27779750399947
77.5,83.0007674944556,83.5669218511605,83.4,83.30000000000001,83.21063540689217,83.29976946180713
80.0,83.0007674944556,83.5669218511605,83.4,83.34027672897048,83.22124483242413,83.30993212688819
82.5,83.0007674944556,83.53358982687998,83.4288071567453,83.38018335884988,83.23182840322696,83.31892958461052
85.0,83.10076749445562,83.50076749445562,83.52880715674529,83.42018505541589,83.30048474912019,83.37299092246542
87.5,83.13513059177983,83.50076749445562,83.55742449135815,83.48018335884987,83.33182840322696,83.40371695799588
90.0,83.20076749445562,83.53358982687998,83.62880715674528,83.58018335884987,83.41087719539237,83.47352212917033
92.5,83.30076749445561,83.53358982687998,83.65742449135814,83.6,83.44238624500815,83.50863695068489
95.0,83.33513059177983,83.50076749445562,83.75742449135814,83.68018335884987,83.52148603099393,83.56150399605156
97.5,83.36845083805433,83.50076749445562,83.75742449135814,83.68018335884987,83.52148603099393,83.56784927374014
100.0,83.36845083805433,83.43358982687997,83.75742449135814,83.68018335884987,83.52148603099393,83.5547015853162
103.0,83.33513059177983,83.3669218511605,83.75742449135814,83.64027672897046,83.50072710339184,83.52307094146016
106.0,83.26845083805432,83.23358982687998,83.65742449135814,83.6,83.42148603099393,83.4395362235886
109.0,83.16845083805433,83.10076749445562,83.55742449135815,83.5,83.32148603099392,83.33329489939896
112.0,83.03513059177982,82.93358982687998,83.45742449135815,83.38018335884988,83.21111897043203,83.20801873369048
115.0,82.90306957104252,82.6669218511605,83.25742449135815,83.2,83.03182840322695,83.0170357689449
118.0,82.70306957104252,82.43358982687998,83.05742449135813,83.0,82.85316350574068,82.81520096205512
122.0,82.47001488257476,82.13358982687998,82.80065786069426,82.76027588070906,82.61111897043202,82.56172616666849
125.0,82.20306957104253,81.83358982687997,82.55742449135815,82.5,82.36366967090754,82.29918538144373
128.0,81.90306957104252,81.5,82.25742449135815,82.20000000000002,82.08484930179664,81.99748310444534
132.0,81.60306957104252,81.1,81.92880715674528,81.9,81.78484930179663,81.6737301635024
136.0,81.23821129888744,80.73358982687998,81.5716627539189,81.54027672897048,81.40592614513918,81.30843885775431
140.0,80.90690501035459,80.33358982687999,81.22880715674529,81.19999999999999,81.07415048157739,80.96072340777702
145.0,80.50690501035459,79.90076749445562,80.84313939533783,80.82018505541589,80.69527918535881,80.56673658965487
150.0,80.04283030471974,79.46769521305293,80.44313939533782,80.4,80.30592614513915,80.14641611573067
155.0,79.61227178315617,79.07001488257477,80.02880715674529,80.0,79.90592614513918,79.73779369089567
160.0,79.21227178315618,78.63821129888743,79.6,79.6,79.49527918535883,79.32398645282717
165.0,78.68219967332303,78.17387961222818,79.2,79.2,79.08460605983149,78.88571670832434
170.0,78.21916705502753,77.74898514879551,78.81442746339746,78.78018335884987,78.6846060598315,78.46838167916984
175.0,77.75667255930051,77.31916705502753,78.4,78.38018335884988,78.2741504815774,78.04625728587978
180.0,77.22758719283593,76.92758719283593,78.01442746339745,77.98018335884987,77.89527918535882,77.6314613949105
185.0,76.73752777300028,76.53257218046556,77.61442746339746,77.60046051294918,77.47439430983314,77.21601574052521
190.0,76.17662798253906,76.14314826109434,77.2431393953378,77.24073299106128,77.0955218302885,76.8091756637719
195.0,75.68888547155002,75.81592538879983,76.87166275391891,76.86027588070905,76.70641587089798,76.41971803998277
200.0,75.1026545034034,75.46283617001535,76.51442746339747,76.50046051294916,76.35316350574067,76.02562624421626
206.0,74.4857391564897,75.1369601259437,76.1716627539189,76.14073299106128,75.97488760396926,75.63116127095567
212.0,73.82102614963506,74.78652064166793,75.87166275391891,75.8206434330808,75.57488760396926,75.24164246121876
218.0,73.10049345838576,74.497421986663,75.50065786069425,75.46027588070905,75.21703559678915,74.84228783892931
224.0,72.31845254529694,74.27346990883564,75.17166275391891,75.14027672897048,74.8281280521145,74.46414570130096
230.0,71.46552876226151,74.02681138838011,74.90065786069427,74.84027672897047,74.43894070941438,74.09821577548583
236.0,70.48099554556165,73.76340256351433,74.62880715674528,74.54027672897047,74.05095304139058,73.7236770331313
240.0,69.3654452454951,73.56340256351434,74.4,74.28110854744813,73.66916814285672,73.38354143894085
250.0,68.12503415250728,73.42326477625993,74.2,74.02064343308078,73.28819037746113,73.06861393953466
258.0,66.93964142006601,73.30703247028057,74.05742449135815,73.8425684247103,72.93299485768406,72.81859923422849
265.0,65.91667401740571,73.29218730938165,73.9716627539189,73.68338957194297,72.57889816346346,72.63227462564457
272.0,65.33739971141961,73.26668408046665,73.9716627539189,73.62523667270712,72.27222068468018,72.52881313383395
280.0,65.65353841092738,73.34680047887707,74.11508314243883,73.60685289384959,72.0194748090654,72.55009308185421
290.0,66.70034572011691,73.56096514237183,74.31508314243884,73.70920611180408,71.84024562155557,72.7025464302793
300.0,68.17826127012876,73.72402487026022,74.55840584504062,73.8544429425558,71.65569948188907,72.90673798109464
307.0,69.58098974763784,74.08335937246298,74.91508314243885,74.09805014496487,71.64386022525368,73.26294621167875
315.0,70.91845254529693,74.48623512455237,75.2874892989204,74.38505351870532,71.78424525175652,73.68343147971324
325.0,72.12875610128314,74.9234968506598,75.78748929892042,74.78505351870533,72.03933644332216,74.19608574913923
335.0,73.22869245367797,75.42761355743556,76.25907003611941,75.16813431484036,72.4505860272495,74.73156231829356
345.0,74.1560388500297,75.96336865784946,76.80229476693691,75.69147205224289,72.9748815095846,75.32297211572397
355.0,75.00690501035459,76.50920925226939,77.33175513861906,76.19147205224289,73.60060983925383,75.91177328883253
365.0,75.74576719438468,77.04680047887706,77.90229476693693,76.71313953999231,74.30278977608418,76.50790778176261
375.0,76.43563946709276,77.54680047887706,78.38748929892041,77.21313953999233,74.97464226612794,77.05722123191582
387.0,77.00722417372366,78.05016923070221,78.90229476693693,77.73149678271537,75.7115664481637,77.60817860787552
400.0,77.44391589069238,78.46283617001536,79.38748929892041,78.24817140149626,76.42440428245678,78.10573365716213
412.0,77.84805664755615,78.83696012594369,79.83175513861906,78.72667842046353,77.1078338351743,78.56848651364068
425.0,78.1361070797735,79.10261155895364,80.23175513861906,79.16813431484034,77.71113264963662,78.95998492412753
437.0,78.34852015458806,79.27697211958265,80.5874892989204,79.52070188121243,78.25513499542035,79.28376450237354
450.0,78.46226741403312,79.37697211958266,80.88748929892041,79.8807878949703,78.69130468101686,79.54981177001078
462.0,78.53392657477244,79.35866027600832,81.10229476693692,80.15821281202574,79.02296115294254,79.732000283026
475.0,78.52812233674838,79.20034112939828,81.38748929892043,80.42070188121242,79.1776148308422,79.86771058166632
487.0,78.40034112939827,78.90982855556756,81.48748929892041,80.46221459237073,79.04169059626261,79.81606111777471
500.0,78.1596203420011,78.51719474435359,81.40229476693693,80.2914720522429,78.65864438055617,79.59055612305282
515.0,77.79562483724393,78.08759923684218,81.10229476693692,79.8786299082622,78.20519104986386,79.2102236512285
530.0,77.39317487506892,77.65131759580825,80.67525122642456,79.37862990826221,77.89358682394518,78.78700146765746
545.0,76.97858264009717,77.17655346032069,80.30229476693694,79.09147205224289,77.77194479650322,78.45433523813759
560.0,76.62643297742508,76.82253333882662,80.20229476693693,79.10830075647111,77.57212658923743,78.29281217645676
580.0,76.4447529719088,76.52330268140095,80.40229476693693,79.21313953999231,77.16420451795355,78.2503195891824
600.0,76.43341139788129,76.31323574403132,80.44675150375355,79.06648157916895,76.97662848749786,78.17061733174974
615.0,76.47089600007291,76.2746684327642,80.50229476693693,79.23677387477599,77.46772512095768,78.30899635784878
630.0,76.50566507474115,76.27979693268614,80.90229476693692,79.71313953999233,77.93853231102501,78.64624682726362
650.0,76.57951478283852,76.23079337118232,81.30229476693692,80.02043663028579,78.05063348649617,78.8846280441738
670.0,76.54570374002571,75.93571312990129,81.37525122642457,79.9863606964899,78.20037926604279,78.89169722305337
690.0,76.2644368050309,75.58859177923459,81.24675150375356,79.86648157916895,78.5355890428604,78.80955923294454
710.0,75.9502760977696,75.1360154422864,81.23175513861906,79.90245227663601,78.54613775744909,78.74028202906078
730.0,75.68397949702585,74.72434865057792,81.43175513861905,79.91715136362976,78.11747821881318,78.676823965352
750.0,75.51388511176722,74.29993506837711,81.41998423401444,79.70235869497556,77.7697659211369,78.50522543814837
775.0,75.2094255581357,73.94541361224496,81.50489499373623,79.74207582704608,77.66554450348677,78.47642074337583
800.0,75.09284775179796,73.55357296056494,81.70489499373622,80.00215233668895,77.49339082033623,78.56423189675905
825.0,74.96741550266302,73.13442944488072,81.87525122642455,80.21039079867911,77.28737366151462,78.62702280949611
850.0,74.48297529590968,72.49236704297925,81.80489499373621,80.09607828419952,77.14711449952809,78.46874301469178
875.0,73.74664717925677,71.60098922727705,81.44675150375355,79.75639409638629,77.06252043890491,78.10334938206154
900.0,72.96387662972086,70.6174970499861,81.00489499373622,79.34759378799852,76.81455744827586,77.65557029720102
925.0,72.34068971307663,69.71791478473783,80.83175513861907,79.17050952978634,76.27254395824322,77.36595306370138
950.0,71.9446381108765,69.0002879820513,80.97525122642458,79.15130410818514,75.63005361685019,77.28480473946503
975.0,71.53484090472239,68.47412690154536,81.11998423401444,79.23776512801811,75.25921984222057,77.29434057329215
1000.0,71.12284764418267,67.95784799921633,81.07525122642456,79.36828887792778,74.91657872317133,77.23908388472131
1030.0,70.42691173856434,67.19548837669592,80.90229476693692,79.35639409638628,74.53134781525794,77.05832413054915
1060.0,69.41468018222541,66.24496911270464,80.53175513861906,78.9878126010297,74.34838482318973,76.67272819584032
1090.0,68.77524590731144,65.47577995785961,80.24675150375353,78.6878126010297,74.1708803592187,76.37424535837735
1120.0,68.06664317340386,65.23492875354684,80.44675150375355,78.56412506776947,73.88554020350861,76.37275280051263
1150.0,67.93394489468378,65.24288710834729,80.66528715999551,78.58832921773222,73.55648461310288,76.45505542449564
1180.0,67.46403807939068,65.36239477036438,80.91998423401444,78.90856846296707,72.80424533937042,76.61737109425337
1220.0,67.14955551099102,65.73465076516197,80.94675150375355,79.21148453132871,72.18565551973984,76.68812091259481
1250.0,66.7394381539077,66.13188817731208,80.93175513861907,79.39406051278021,72.02610962902175,76.73344258829911
1280.0,65.97388206581398,66.37283487557218,80.6590700361194,79.5827129100568,72.22729724566084,76.66933559732959
1320.0,65.58686627852722,66.37417783381143,80.32979499755905,79.38514494253302,72.70375710182212,76.45981224569253
1360.0,65.08873351388367,66.29316445987678,80.12979499755905,79.2676688252275,72.98990861602357,76.33285056586675
1400.0,65.04206378136053,66.316785335082,80.24675150375353,79.0904791616811,73.34084353092015,76.35500291684224
1450.0,65.11003436195217,66.36878931346762,80.46528715999551,79.07496317390779,73.58504956331656,76.48421839535808
1500.0,65.25657014803853,66.2422920764254,80.61116123840141,78.94457946303773,73.62350044719656,76.51537000331282
1550.0,65.26921334597702,66.153445265893,80.48539130564126,78.63545209622997,73.43358028224225,76.32251994126204
1600.0,64.79549744689074,65.55657014803855,80.03924275721991,78.15969577964742,72.83707219421635,75.84774696123779
1650.0,64.39186955439868,64.88123104290337,79.41363940606881,77.56280456931117,71.9716711559717,75.21126348422645
1700.0,64.26239790130899,64.48085218083115,79.17602210108666,77.08530186669176,71.40086195424108,74.86039721351469
1750.0,63.8824688751623,63.780905263264714,78.95121482311347,76.64446617296613,71.0530333967425,74.54240425645958
1800.0,64.08161188499588,63.913470856952515,79.09867242696347,76.22093600047833,70.92091870000388,74.48800745709332
1850.0,64.8429303948179,64.04093050120862,79.58242230727826,76.37708038067983,70.94175929329394,74.83620672960929
1900.0,65.20993626900295,64.45747737805219,79.7351604799582,76.59260379231677,70.87755100686415,74.99863450695176
1950.0,65.41048819924247,64.50887783737342,79.98242230727826,76.91064494381516,70.83500951809057,75.24042858443539
2000.0,65.5626468668676,64.77359243757999,80.18242230727826,77.08268466583823,71.14503196623974,75.44043382096558
2060.0,65.5378187337873,64.27562721170253,79.97455785944567,76.69559035108703,70.90089363304065,75.17730951192257
2120.0,65.6400886278441,64.06537795468573,79.902876283004,76.2326477133648,70.49887337969241,74.9754240836419
2180.0,65.3871047400059,63.549566772458434,79.558217088195,75.52824957178974,69.70492934278184,74.50573607110778
2240.0,65.23224317272198,63.20095746985177,79.3351604799582,75.43611440293688,68.59077917049856,74.26262786613998
2300.0,64.79642248968482,62.80190565802711,78.8136394060688,75.38593492630524,67.8963910925622,73.86472328716903
2360.0,64.85777024931805,62.11172846437378,78.70705246704605,75.19240190627704,67.41282401135288,73.71086270529125
2400.0,64.71168633761742,61.21904818931287,78.59867242696347,74.92652220205755,67.69710752999711,73.5671955447911
2500.0,64.69671068757833,60.248854626862936,78.63443179205895,74.46337169729068,67.54824736141478,73.45026695640198
2580.0,64.64816652998984,59.893126201583655,78.69942293182199,74.42858772758507,67.36951371833597,73.4711218318197
2650.0,64.3266313609665,59.54869673878369,78.48279645161534,74.07187084343735,66.78515882145706,73.19863892535878
2720.0,63.62195063379046,59.19770586306555,78.15086213388184,73.7061602962826,65.6044728841659,72.81351163315398
2800.0,62.48844102520941,58.928023772499415,77.35086213388186,73.00799559218281,64.29397208955444,72.01767541545455
2900.0,60.719372812615745,58.760240991895074,76.32285588808361,71.85834500471071,63.04033075426396,70.94604279935453
3000.0,59.13122406997054,58.67075835861421,75.199422931822,70.86169099331194,61.267701690552116,69.84053199871681
3070.0,57.367480093813626,58.4860994785584,74.15086213388186,70.06343974725786,60.496288313133874,68.86784931014537
3150.0,55.96958555091001,58.50562945562106,73.47640057047573,69.36868321207758,60.02845320961157,68.19855895806923
3250.0,54.90180489730983,58.538362468646284,73.22579638388721,68.76212079483687,59.81760871972162,67.85608678253062
3350.0,54.373865412042846,58.10489938900301,72.8430337046988,68.18815194875916,59.462094811656186,67.42520099883883
3450.0,54.75574410322369,58.27078658163386,72.67740200741135,67.65378464043373,58.59321586517176,67.16739811623673
3550.0,55.690839491149035,57.79973440050118,72.64956693475489,67.2437306541267,57.139219349983364,67.02393649896533
3650.0,56.67088706377078,57.42352882352556,72.4319538584431,66.97211999142202,55.91967148427756,66.79320489350876
3750.0,57.572908507949705,57.07877622077757,72.14956693475489,66.715755549264,54.708588961424226,66.52759465432011
