Freq,Floor Bounce,Ceiling Bounce,Front Wall Bounce,Side Wall Bounce,Rear Wall Bounce,Total Early Reflection
22.4,53.67333854596829,57.19983306661125,54.15866122636662,52.118974988278225,45.82699247352191,53.87196702106807
23.0,54.172964297056765,57.57489229083099,54.70725107660125,52.77311426612796,46.8653977679724,54.368273060077215
23.6,54.84786829224298,58.026719085515296,55.34395076391645,53.55579015080171,48.056492863457024,54.97806323040284
24.0,55.39939270993115,58.37912048463791,55.871189304481916,54.15899663783192,48.99603929456565,55.46934728174277
25.0,55.97669651788682,58.73209585314548,56.393204441734994,54.84599451087199,49.973769448757864,55.98402520856159
25.8,56.55741285590578,59.08564440517111,56.943033704698806,55.47899236133928,50.96746363009014,56.504019984249155
26.5,57.13726217437669,59.36562459081088,57.54855905798716,56.151320912019756,51.95568585229192,57.022831648530186
27.2,57.79192787953053,59.7205869308939,58.08878541806105,56.81916819780285,52.958033129038554,57.57619683936177
28.0,58.4741919451714,60.00296788742379,58.67172908964989,57.525205894988275,53.9834620315646,58.13818906443224
29.0,59.18691806020395,60.244128853286256,59.322855888083595,58.240852877249395,55.02766344900046,58.724942712452346
30.0,59.84412885328625,60.36023655467065,59.83025838484649,58.89146797772534,56.005710747633756,59.228556432317234
30.7,60.572446606786045,60.54827118020832,60.45461949560506,59.60291761380317,57.0701216470725,59.82974179367811
31.5,61.230495876379734,60.598435148571795,61.00705246704605,60.26210254456119,58.082917786916155,60.36755555053655
32.5,61.91844816715094,60.71483523633478,61.560059368579104,60.946004639222906,59.10374805397366,60.950603322306804
33.5,62.677890794505544,60.70690501035459,62.1698262583904,61.63227307970146,60.12245892507222,61.5608339722623
34.5,63.30799265215589,60.70306957104252,62.69568844094994,62.29979263896347,61.136211705412066,62.135212935521324
35.5,64.02909084157254,60.779287326074325,63.250006340170714,62.99096722725231,62.12100844234301,62.76902584278302
36.5,64.72909084157254,60.99897445130925,63.83175513861907,63.66482741630635,63.10750499886083,63.43081469622251
37.5,65.26023818113063,61.00261155895366,64.21508314243883,64.22201851881731,64.02678074647122,63.95421553745125
38.7,65.9840783937255,61.75176921104226,64.8716627539189,64.94027672897047,65.00532095906686,64.71842703677005
40.0,66.74680983520815,62.79749950966176,65.62880715674528,65.76074062498236,66.00048474912019,65.57183289200708
41.2,67.51007799780291,64.03897757455802,66.45742449135814,66.62111243765536,67.02245081919325,66.47877123957541
42.5,68.37387961222818,65.52104166298749,67.32946066855591,67.56168078673286,68.05986012012812,67.47412662874167
43.7,69.23821129888744,66.94415774934852,68.31541094484142,68.56168078673286,69.1226919507961,68.50957982634628
45.0,70.20306957104253,68.47071732495408,69.35873795327733,69.6028054768954,70.20193328541868,69.61324270036536
46.2,71.2030695710425,70.03435140868503,70.48781919063812,70.70280547689539,71.31279476874582,70.77339227575477
47.5,72.20076749445562,71.6,71.65873795327731,71.86168078673286,72.47084387098958,71.97116958900739
48.7,73.33435140868504,73.0669218511605,72.85873795327733,73.06168078673288,73.6226919507961,73.19699872208929
50.0,74.4669218511605,74.53435140868501,74.15873795327731,74.30139211624763,74.8226919507961,74.46267697401495
51.5,75.6669218511605,75.90076749445561,75.40065786069427,75.54074361819939,75.99054770412639,75.70547341983492
53.0,76.76692185116049,77.23513059177982,76.62946066855591,76.74074361819937,77.13303145504256,76.90760934923634
54.5,77.83358982687999,78.46845083805432,77.80065786069427,77.86074062498234,78.2009639279414,78.04084453670265
56.0,78.8669218511605,79.56845083805433,78.87166275391891,78.94027672897047,79.21111897043203,79.10020144489381
58.0,79.7669218511605,80.56845083805432,79.8716627539189,79.92018505541589,80.1217272161688,80.05925403389122
60.0,80.5669218511605,81.43513059177984,80.75742449135815,80.78018335884987,80.92148603099393,80.90239338741152
61.5,81.23358982687998,82.10076749445562,81.45742449135814,81.48018335884987,81.579137868746,81.57998394387529
63.0,81.76692185116049,82.66692185116051,82.00000000000001,82.00000000000001,82.08958146124473,82.11534116940079
65.0,82.20076749445562,83.0669218511605,82.5,82.5,82.5,82.5628297025129
67.0,82.50076749445562,83.36692185116051,82.8,82.8,82.8,82.86282970251288
69.0,82.7007674944556,83.49999999999999,83.0,83.0,83.0,83.04788758139922
71.0,82.80076749445563,83.6,83.2,83.14027672897048,83.10000000000001,83.17581185634062
73.0,82.90076749445562,83.6,83.2716627539189,83.2,83.13182840322696,83.22680925358719
75.0,82.93358982687998,83.6,83.32880715674528,83.3,83.2,83.27779750399945
77.5,83.00076749445562,83.56692185116049,83.40000000000002,83.3,83.21063540689217,83.29976946180714
80.0,83.00076749445562,83.56692185116049,83.40000000000002,83.3402767289705,83.22124483242413,83.3099321268882
82.5,83.00076749445562,83.53358982687996,83.42880715674528,83.38018335884989,83.23182840322696,83.3189295846105
85.0,83.10076749445561,83.50076749445563,83.52880715674529,83.4201850554159,83.3004847491202,83.37299092246542
87.5,83.13513059177983,83.50076749445563,83.55742449135813,83.48018335884987,83.33182840322695,83.40371695799588
90.0,83.20076749445562,83.53358982687996,83.62880715674528,83.58018335884987,83.41087719539236,83.47352212917032
92.5,83.30076749445561,83.53358982687996,83.65742449135816,83.6,83.44238624500814,83.50863695068487
95.0,83.33513059177983,83.50076749445563,83.75742449135815,83.68018335884987,83.52148603099394,83.56150399605157
97.5,83.36845083805433,83.50076749445563,83.75742449135815,83.68018335884987,83.52148603099394,83.56784927374015
100.0,83.36845083805433,83.43358982687998,83.75742449135815,83.68018335884987,83.52148603099394,83.5547015853162
103.0,83.33513059177983,83.36692185116051,83.75742449135815,83.64027672897046,83.50072710339185,83.52307094146016
106.0,83.26845083805433,83.23358982687996,83.65742449135816,83.6,83.42148603099393,83.4395362235886
109.0,83.16845083805433,83.10076749445561,83.55742449135813,83.49999999999999,83.32148603099394,83.33329489939895
112.0,83.03513059177983,82.93358982687998,83.45742449135815,83.38018335884989,83.21111897043203,83.2080187336905
115.0,82.90306957104252,82.66692185116051,83.25742449135815,83.2,83.03182840322695,83.01703576894491
118.0,82.70306957104253,82.43358982687997,83.05742449135815,83.0,82.85316350574067,82.81520096205513
122.0,82.47001488257477,82.13358982687996,82.80065786069427,82.76027588070905,82.61111897043202,82.56172616666848
125.0,82.20306957104252,81.83358982687996,82.55742449135813,82.5,82.36366967090756,82.29918538144373
128.0,81.90306957104251,81.5,82.25742449135815,82.2,82.08484930179664,81.99748310444534
132.0,81.60306957104252,81.1,81.9288071567453,81.9,81.78484930179664,81.6737301635024
136.0,81.23821129888742,80.73358982687996,81.5716627539189,81.54027672897047,81.40592614513916,81.30843885775433
140.0,80.9069050103546,80.33358982687999,81.22880715674529,81.2,81.07415048157738,80.96072340777704
145.0,80.5069050103546,79.90076749445562,80.84313939533781,80.8201850554159,80.69527918535883,80.56673658965488
150.0,80.04283030471974,79.46769521305295,80.44313939533782,80.4,80.30592614513917,80.14641611573069
155.0,79.61227178315617,79.07001488257477,80.02880715674529,80.0,79.90592614513916,79.73779369089566
160.0,79.21227178315618,78.63821129888743,79.59999999999998,79.59999999999998,79.49527918535881,79.32398645282717
165.0,78.68219967332304,78.17387961222816,79.2,79.2,79.0846060598315,78.88571670832435
170.0,78.21916705502754,77.74898514879551,78.81442746339746,78.78018335884988,78.6846060598315,78.46838167916984
175.0,77.7566725593005,77.31916705502753,78.40000000000002,78.38018335884989,78.2741504815774,78.04625728587979
180.0,77.22758719283591,76.92758719283592,78.01442746339747,77.98018335884989,77.89527918535882,77.6314613949105
185.0,76.73752777300027,76.53257218046556,77.61442746339746,77.60046051294917,77.47439430983314,77.21601574052521
190.0,76.17662798253905,76.14314826109435,77.24313939533782,77.24073299106126,77.09552183028849,76.80917566377191
195.0,75.68888547155002,75.81592538879983,76.87166275391891,76.86027588070904,76.70641587089798,76.41971803998275
200.0,75.1026545034034,75.46283617001536,76.51442746339747,76.50046051294918,76.35316350574068,76.02562624421626
206.0,74.48573915648971,75.13696012594369,76.17166275391891,76.14073299106127,75.97488760396928,75.63116127095567
212.0,73.82102614963505,74.78652064166793,75.87166275391893,75.82064343308079,75.57488760396926,75.24164246121877
218.0,73.10049345838577,74.497421986663,75.50065786069426,75.46027588070906,75.21703559678913,74.84228783892932
224.0,72.31845254529692,74.27346990883564,75.17166275391891,75.14027672897046,74.82812805211451,74.46414570130096
230.0,71.46552876226151,74.02681138838012,74.90065786069425,74.84027672897047,74.4389407094144,74.09821577548584
236.0,70.48099554556164,73.76340256351433,74.62880715674528,74.54027672897048,74.0509530413906,73.72367703313131
240.0,69.36544524549508,73.56340256351433,74.4,74.28110854744814,73.66916814285673,73.38354143894087
250.0,68.1250341525073,73.42326477625991,74.2,74.02064343308079,73.28819037746113,73.06861393953464
258.0,66.93964142006601,73.30703247028057,74.05742449135815,73.84256842471028,72.93299485768405,72.8185992342285
265.0,65.91667401740573,73.29218730938166,73.9716627539189,73.68338957194298,72.57889816346348,72.63227462564458
272.0,65.3373997114196,73.26668408046666,73.9716627539189,73.6252366727071,72.27222068468018,72.52881313383394
280.0,65.65353841092738,73.34680047887706,74.11508314243883,73.60685289384959,72.0194748090654,72.55009308185421
290.0,66.7003457201169,73.56096514237183,74.31508314243885,73.70920611180408,71.84024562155558,72.70254643027928
300.0,68.17826127012877,73.72402487026022,74.55840584504061,73.85444294255579,71.65569948188907,72.90673798109465
307.0,69.58098974763786,74.08335937246297,74.91508314243883,74.09805014496486,71.64386022525368,73.26294621167877
315.0,70.91845254529692,74.48623512455238,75.2874892989204,74.38505351870533,71.78424525175652,73.68343147971324
325.0,72.12875610128314,74.92349685065979,75.78748929892042,74.78505351870533,72.03933644332214,74.19608574913923
335.0,73.22869245367797,75.42761355743555,76.25907003611941,75.16813431484034,72.45058602724949,74.73156231829354
345.0,74.15603885002969,75.96336865784947,76.80229476693692,75.69147205224287,72.97488150958459,75.32297211572397
355.0,75.00690501035459,76.50920925226937,77.33175513861907,76.1914720522429,73.60060983925383,75.91177328883255
365.0,75.74576719438468,77.04680047887706,77.90229476693692,76.71313953999233,74.30278977608418,76.5079077817626
375.0,76.43563946709277,77.54680047887706,78.38748929892041,77.21313953999231,74.97464226612793,77.05722123191582
387.0,77.00722417372366,78.05016923070221,78.90229476693692,77.73149678271538,75.7115664481637,77.6081786078755
400.0,77.44391589069238,78.46283617001535,79.38748929892043,78.24817140149626,76.42440428245678,78.10573365716212
412.0,77.84805664755616,78.83696012594369,79.83175513861907,78.72667842046353,77.10783383517432,78.56848651364068
425.0,78.1361070797735,79.10261155895364,80.23175513861908,79.16813431484034,77.71113264963661,78.95998492412753
437.0,78.34852015458806,79.27697211958265,80.58748929892042,79.52070188121242,78.25513499542036,79.28376450237353
450.0,78.46226741403312,79.37697211958266,80.88748929892041,79.88078789497028,78.69130468101687,79.54981177001078
462.0,78.53392657477244,79.35866027600834,81.10229476693692,80.15821281202575,79.02296115294253,79.732000283026
475.0,78.52812233674838,79.20034112939827,81.38748929892041,80.42070188121242,79.17761483084222,79.86771058166633
487.0,78.40034112939827,78.90982855556756,81.48748929892041,80.46221459237073,79.0416905962626,79.8160611177747
500.0,78.1596203420011,78.51719474435359,81.40229476693692,80.2914720522429,78.65864438055617,79.5905561230528
515.0,77.79562483724392,78.08759923684217,81.10229476693692,79.8786299082622,78.20519104986387,79.2102236512285
530.0,77.39317487506891,77.65131759580827,80.67525122642458,79.3786299082622,77.89358682394517,78.78700146765746
545.0,76.97858264009719,77.1765534603207,80.30229476693692,79.09147205224289,77.7719447965032,78.45433523813757
560.0,76.62643297742508,76.8225333388266,80.20229476693693,79.10830075647112,77.57212658923743,78.29281217645676
580.0,76.4447529719088,76.52330268140093,80.40229476693692,79.21313953999233,77.16420451795354,78.2503195891824
600.0,76.43341139788129,76.31323574403133,80.44675150375355,79.06648157916894,76.97662848749786,78.17061733174974
615.0,76.47089600007291,76.27466843276419,80.50229476693691,79.23677387477599,77.4677251209577,78.30899635784877
630.0,76.50566507474113,76.27979693268614,80.90229476693693,79.71313953999231,77.93853231102501,78.64624682726361
650.0,76.5795147828385,76.2307933711823,81.30229476693692,80.02043663028577,78.05063348649618,78.8846280441738
670.0,76.54570374002573,75.93571312990129,81.37525122642457,79.9863606964899,78.20037926604279,78.89169722305336
690.0,76.26443680503088,75.5885917792346,81.24675150375354,79.86648157916893,78.5355890428604,78.80955923294452
710.0,75.95027609776962,75.13601544228639,81.23175513861908,79.90245227663601,78.5461377574491,78.74028202906077
730.0,75.68397949702586,74.72434865057794,81.43175513861907,79.91715136362974,78.11747821881316,78.676823965352
750.0,75.51388511176724,74.29993506837711,81.41998423401445,79.70235869497556,77.76976592113688,78.50522543814837
775.0,75.20942555813572,73.94541361224496,81.50489499373622,79.74207582704608,77.66554450348679,78.47642074337584
800.0,75.09284775179796,73.55357296056492,81.7048949937362,80.00215233668895,77.49339082033624,78.56423189675904
825.0,74.96741550266303,73.13442944488074,81.87525122642457,80.21039079867913,77.28737366151462,78.62702280949613
850.0,74.48297529590968,72.49236704297927,81.80489499373621,80.09607828419952,77.14711449952809,78.46874301469178
875.0,73.74664717925677,71.60098922727707,81.44675150375353,79.75639409638627,77.0625204389049,78.10334938206154
900.0,72.96387662972087,70.61749704998608,81.00489499373622,79.34759378799852,76.81455744827588,77.65557029720102
925.0,72.34068971307663,69.71791478473784,80.83175513861906,79.17050952978636,76.27254395824322,77.36595306370138
950.0,71.94463811087648,69.0002879820513,80.97525122642456,79.15130410818514,75.63005361685018,77.28480473946503
975.0,71.5348409047224,68.47412690154538,81.11998423401444,79.2377651280181,75.25921984222059,77.29434057329215
1000.0,71.12284764418266,67.95784799921633,81.07525122642457,79.3682888779278,74.91657872317133,77.23908388472132
1030.0,70.42691173856436,67.19548837669593,80.90229476693693,79.35639409638628,74.53134781525793,77.05832413054917
1060.0,69.4146801822254,66.24496911270464,80.53175513861906,78.98781260102969,74.34838482318973,76.6727281958403
1090.0,68.77524590731144,65.4757799578596,80.24675150375354,78.6878126010297,74.17088035921871,76.37424535837737
1120.0,68.06664317340386,65.23492875354684,80.44675150375355,78.56412506776948,73.88554020350861,76.37275280051264
1150.0,67.93394489468378,65.24288710834728,80.66528715999551,78.58832921773222,73.55648461310288,76.45505542449564
1180.0,67.46403807939069,65.36239477036436,80.91998423401444,78.90856846296708,72.80424533937041,76.61737109425336
1220.0,67.14955551099102,65.73465076516199,80.94675150375355,79.21148453132871,72.18565551973984,76.68812091259481
1250.0,66.7394381539077,66.13188817731209,80.93175513861907,79.39406051278021,72.02610962902173,76.7334425882991
1280.0,65.97388206581398,66.3728348755722,80.6590700361194,79.5827129100568,72.22729724566084,76.66933559732958
1320.0,65.58686627852724,66.37417783381143,80.32979499755905,79.385144942533,72.7037571018221,76.45981224569253
1360.0,65.08873351388368,66.29316445987678,80.12979499755905,79.26766882522752,72.98990861602358,76.33285056586675
1400.0,65.04206378136054,66.316785335082,80.24675150375354,79.09047916168109,73.34084353092017,76.35500291684224
1450.0,65.11003436195217,66.36878931346762,80.46528715999551,79.07496317390779,73.58504956331656,76.48421839535808
1500.0,65.25657014803855,66.24229207642541,80.61116123840141,78.94457946303773,73.62350044719656,76.51537000331284
1550.0,65.26921334597704,66.153445265893,80.48539130564124,78.63545209622997,73.43358028224225,76.32251994126203
1600.0,64.79549744689074,65.55657014803855,80.0392427572199,78.15969577964744,72.83707219421636,75.84774696123777
1650.0,64.39186955439867,64.88123104290337,79.41363940606881,77.56280456931117,71.97167115597169,75.21126348422645
1700.0,64.26239790130897,64.48085218083115,79.17602210108667,77.08530186669178,71.40086195424108,74.8603972135147
1750.0,63.88246887516232,63.7809052632647,78.95121482311347,76.64446617296613,71.05303339674252,74.54240425645958
1800.0,64.0816118849959,63.91347085695253,79.09867242696349,76.22093600047835,70.92091870000388,74.48800745709333
1850.0,64.84293039481791,64.04093050120862,79.58242230727826,76.37708038067984,70.94175929329394,74.83620672960927
1900.0,65.20993626900294,64.45747737805219,79.7351604799582,76.59260379231678,70.87755100686415,74.99863450695176
1950.0,65.41048819924245,64.50887783737343,79.98242230727827,76.91064494381516,70.83500951809059,75.24042858443539
2000.0,65.56264686686761,64.77359243757998,80.18242230727826,77.08268466583822,71.14503196623973,75.4404338209656
2060.0,65.53781873378729,64.27562721170251,79.97455785944567,76.69559035108705,70.90089363304064,75.17730951192257
2120.0,65.64008862784408,64.06537795468573,79.902876283004,76.23264771336481,70.49887337969241,74.97542408364191
2180.0,65.38710474000591,63.54956677245842,79.558217088195,75.52824957178973,69.70492934278184,74.50573607110778
2240.0,65.23224317272198,63.20095746985176,79.33516047995819,75.43611440293688,68.59077917049855,74.26262786614
2300.0,64.79642248968482,62.80190565802711,78.81363940606879,75.38593492630524,67.89639109256218,73.86472328716901
2360.0,64.85777024931807,62.1117284643738,78.70705246704604,75.19240190627703,67.41282401135288,73.71086270529123
2400.0,64.71168633761742,61.21904818931286,78.59867242696347,74.92652220205757,67.69710752999713,73.56719554479109
2500.0,64.69671068757833,60.24885462686295,78.63443179205895,74.46337169729067,67.5482473614148,73.45026695640196
2580.0,64.64816652998984,59.893126201583655,78.69942293182199,74.42858772758508,67.36951371833597,73.47112183181972
2650.0,64.3266313609665,59.548696738783676,78.48279645161536,74.07187084343735,66.78515882145705,73.1986389253588
2720.0,63.621950633790476,59.19770586306555,78.15086213388186,73.7061602962826,65.6044728841659,72.813511633154
2800.0,62.48844102520941,58.92802377249943,77.35086213388186,73.0079955921828,64.29397208955444,72.01767541545453
2900.0,60.71937281261573,58.76024099189509,76.32285588808361,71.85834500471073,63.04033075426396,70.94604279935454
3000.0,59.13122406997056,58.67075835861422,75.19942293182199,70.86169099331194,61.2677016905521,69.84053199871681
3070.0,57.36748009381361,58.486099478558415,74.15086213388186,70.06343974725785,60.496288313133874,68.86784931014536
3150.0,55.969585550910026,58.50562945562105,73.47640057047573,69.36868321207757,60.02845320961157,68.19855895806924
3250.0,54.901804897309816,58.5383624686463,73.22579638388721,68.76212079483687,59.817608719721605,67.85608678253064
3350.0,54.37386541204283,58.10489938900298,72.84303370469881,68.18815194875917,59.4620948116562,67.42520099883885
3450.0,54.755744103223705,58.270786581633885,72.67740200741133,67.65378464043373,58.59321586517177,67.16739811623671
3550.0,55.69083949114905,57.799734400501166,72.64956693475487,67.24373065412668,57.13921934998335,67.02393649896531
3650.0,56.67088706377079,57.42352882352556,72.43195385844311,66.97211999142202,55.91967148427754,66.79320489350876
3750.0,57.57290850794969,57.078776220777556,72.14956693475489,66.71575554926402,54.70858896142421,66.52759465432013
