Freq "Floor Bounce"
22.4 52.896123356094876
23.0 53.39574910718335
23.6 54.07065310236956
24.0 54.62217752005773
25.0 55.199481328013405
25.8 55.780197666032365
26.5 56.36004698450327
27.2 57.01471268965712
28.0 57.69697675529798
29.0 58.409702870330534
30.0 59.066913663412834
30.7 59.79523141691263
31.5 60.45328068650632
32.5 61.141232977277525
33.5 61.90067560463213
34.5 62.53077746228247
35.5 63.25187565169912
36.5 63.951875651699126
37.5 64.48302299125722
38.7 65.20686320385208
40.0 65.96959464533474
41.2 66.7328628079295
42.5 67.59666442235476
43.7 68.46099610901402
45.0 69.42585438116912
46.2 70.42585438116909
47.5 71.4235523045822
48.7 72.55713621881162
50.0 73.68970666128709
51.5 74.88970666128708
53.0 75.98970666128707
54.5 77.05637463700657
56.0 78.08970666128708
58.0 78.98970666128709
60.0 79.78970666128708
61.5 80.45637463700656
63.0 80.98970666128707
65.0 81.4235523045822
67.0 81.7235523045822
69.0 81.92355230458219
71.0 82.02355230458221
73.0 82.1235523045822
75.0 82.15637463700656
77.5 82.2235523045822
80.0 82.2235523045822
82.5 82.2235523045822
85.0 82.3235523045822
87.5 82.35791540190641
90.0 82.4235523045822
92.5 82.5235523045822
95.0 82.55791540190641
97.5 82.59123564818091
100.0 82.59123564818091
103.0 82.55791540190641
106.0 82.49123564818092
109.0 82.39123564818091
112.0 82.25791540190642
115.0 82.1258543811691
118.0 81.92585438116912
122.0 81.69279969270136
125.0 81.4258543811691
128.0 81.12585438116909
132.0 80.82585438116911
136.0 80.460996109014
140.0 80.12968982048119
145.0 79.72968982048118
150.0 79.26561511484633
155.0 78.83505659328276
160.0 78.43505659328277
165.0 77.90498448344962
170.0 77.44195186515412
175.0 76.97945736942708
180.0 76.4503720029625
185.0 75.96031258312685
190.0 75.39941279266563
195.0 74.9116702816766
200.0 74.32543931352998
206.0 73.7085239666163
212.0 73.04381095976163
218.0 72.32327826851235
224.0 71.5412373554235
230.0 70.6883135723881
236.0 69.70378035568822
240.0 68.58823005562166
250.0 67.34781896263388
258.0 66.1624262301926
265.0 65.13945882753231
272.0 64.56018452154618
280.0 64.87632322105397
290.0 65.92313053024348
300.0 67.40104608025536
307.0 68.80377455776444
315.0 70.1412373554235
325.0 71.35154091140973
335.0 72.45147726380455
345.0 73.37882366015627
355.0 74.22968982048117
365.0 74.96855200451127
375.0 75.65842427721935
387.0 76.23000898385024
400.0 76.66670070081896
412.0 77.07084145768275
425.0 77.35889188990008
437.0 77.57130496471464
450.0 77.6850522241597
462.0 77.75671138489902
475.0 77.75090714687497
487.0 77.62312593952485
500.0 77.38240515212769
515.0 77.0184096473705
530.0 76.61595968519549
545.0 76.20136745022377
560.0 75.84921778755167
580.0 75.66753778203538
600.0 75.65619620800787
615.0 75.6936808101995
630.0 75.72844988486771
650.0 75.80229959296508
670.0 75.76848855015231
690.0 75.48722161515747
710.0 75.1730609078962
730.0 74.90676430715244
750.0 74.73666992189382
775.0 74.4322103682623
800.0 74.31563256192455
825.0 74.19020031278961
850.0 73.70576010603627
875.0 72.96943198938335
900.0 72.18666143984746
925.0 71.56347452320321
950.0 71.16742292100307
975.0 70.75762571484898
1000.0 70.34563245430924
1030.0 69.64969654869094
1060.0 68.63746499235198
1090.0 67.99803071743803
1120.0 67.28942798353044
1150.0 67.15672970481036
1180.0 66.68682288951727
1220.0 66.3723403211176
1250.0 65.96222296403428
1280.0 65.19666687594056
1320.0 64.80965108865382
1360.0 64.31151832401027
1400.0 64.26484859148712
1450.0 64.33281917207876
1500.0 64.47935495816513
1550.0 64.49199815610362
1600.0 64.01828225701732
1650.0 63.61465436452525
1700.0 63.485182711435556
1750.0 63.1052536852889
1800.0 63.30439669512248
1850.0 64.0657152049445
1900.0 64.43272107912952
1950.0 64.63327300936903
2000.0 64.7854316769942
2060.0 64.76060354391387
2120.0 64.86287343797066
2180.0 64.6098895501325
2240.0 64.45502798284856
2300.0 64.0192072998114
2360.0 64.08055505944465
2400.0 63.934471147744006
2500.0 63.919495497704915
2580.0 63.87095134011642
2650.0 63.549416171093085
2720.0 62.84473544391706
2800.0 61.711225835335995
2900.0 59.942157622742315
3000.0 58.35400888009714
3070.0 56.590264903940195
3150.0 55.19237036103661
3250.0 54.1245897074364
3350.0 53.596650222169416
3450.0 53.97852891335029
3550.0 54.91362430127563
3650.0 55.893671873897375
3750.0 56.795693318076275
3870.0 57.914624286286966
4000.0 59.01485972794103
4120.0 60.0433061823814
4250.0 60.59392662014079
4370.0 60.47850592119133
4500.0 59.67661623712584
4620.0 58.61643868542771
4750.0 56.4767139100619
4870.0 53.2816996530228
5000.0 50.26639396126623
5150.0 52.00739418087156
5300.0 54.3450715150218
5450.0 57.827016225185375
5600.0 58.32374227997835
5800.0 58.84116107985486
6000.0 57.38500840946267
6150.0 53.97924656142857
6300.0 49.59500237497633
6500.0 49.693618643940056
6700.0 52.25789153013508
6900.0 54.93736507325673
7100.0 55.71985546024712
7300.0 55.7420775319288
7500.0 55.1197008893447
7750.0 55.25179404494074
8000.0 54.57194020908156
8250.0 51.97823564485162
8500.0 48.82674693131386
8750.0 50.19325429177408
9000.0 53.369316472433326
9250.0 52.73403698008323
9500.0 52.267423626901405
9750.0 50.34225063414428
10000.0 49.68368369839064
10300.0 50.491829085273366
10600.0 54.967253852573435
10900.0 61.635528180884975
11200.0 67.99961032422291
11500.0 70.86541377076693
11800.0 70.45204933339582
12200.0 67.08265057250472
12500.0 66.40294865689388
12800.0 68.15948809798988
13200.0 69.69241453299881
13600.0 71.9898975148012
14000.0 72.46549612057287
14500.0 69.83329152300388
15000.0 71.05619502385647
15500.0 75.83812202822003
16000.0 77.80413592843614
16500.0 77.22826062715511
17000.0 75.3674884434644
17500.0 74.83596300915332
18000.0 73.29122509782454
18500.0 69.30263377366632
19000.0 63.10719974986117
19500.0 58.84170763892668
