Freq "Sound Power"
22.4 23.973137471151603
23.0 25.97015167881034
23.6 27.721588819088197
24.0 29.410556229394786
25.0 31.092421580542805
25.8 32.65516263403927
26.5 34.163369761204365
27.2 36.10096082243072
28.0 37.793965351079294
29.0 39.2472149395939
30.0 40.77221792124456
30.7 42.61198780043077
31.5 44.2908446665343
32.5 45.96523127760665
33.5 48.29270893387428
34.5 50.17226558080415
35.5 51.77879021049196
36.5 53.210639893450235
37.5 54.540034903657556
38.7 55.928789078548135
40.0 57.626810332490834
41.2 59.13861721631113
42.5 60.61913381806349
43.7 61.98418890975694
45.0 63.32936138603513
46.2 64.77333849596371
47.5 66.11949172242974
48.7 67.43134885095152
50.0 68.62228254628559
51.5 69.8057714812441
53.0 70.8720471867349
54.5 71.81560032333549
56.0 72.65941234257376
58.0 73.46208518921048
60.0 74.24182451369335
61.5 75.04684707235812
63.0 75.75900048558906
65.0 76.39551389046916
67.0 76.86527440108385
69.0 77.28235854104821
71.0 77.7023098301446
73.0 78.12506377686105
75.0 78.55365956280771
77.5 78.91600515361759
80.0 79.20530305502967
82.5 79.36846965994178
85.0 79.52245705620244
87.5 79.60751485781068
90.0 79.66793894744902
92.5 79.74786213069748
95.0 79.7693388334347
97.5 79.52277308887969
100.0 79.24556342438059
103.0 79.23086966887304
106.0 79.49639268226267
109.0 79.87166159828595
112.0 80.23105953558328
115.0 80.59342811203797
118.0 80.66482076270529
122.0 80.72691326367028
125.0 80.57737683580734
128.0 80.3619050490387
132.0 80.20582967951894
136.0 80.12941234120042
140.0 79.98897936646048
145.0 79.85230489480871
150.0 79.72652047179477
155.0 79.56745127089386
160.0 79.33912291925745
165.0 78.3986023503735
170.0 77.63503291227735
175.0 77.59825349157734
180.0 77.53129494885896
185.0 77.53620715504627
190.0 77.79981429291877
195.0 78.2649638949226
200.0 77.36621526782478
206.0 76.62730398346389
212.0 76.84202739732419
218.0 76.80613524100505
224.0 76.78425993811757
230.0 76.95977751469849
236.0 76.92123534139154
240.0 76.8737515516141
250.0 76.91203270211778
258.0 76.80741028716722
265.0 76.71094035297541
272.0 76.63681835573774
280.0 76.91699843457005
290.0 77.29252623429733
300.0 77.03882246363702
307.0 76.53577324590631
315.0 75.96158495537748
325.0 75.71501001056392
335.0 75.23590091737624
345.0 74.74154667827108
355.0 74.69093379514564
365.0 75.98052504804436
375.0 75.70731457738412
387.0 74.59065590010447
400.0 73.43835686834517
412.0 72.85357269612948
425.0 73.63945566837296
437.0 74.54392597910189
450.0 74.6057201173808
462.0 74.25714661557737
475.0 73.9128445732892
487.0 73.8143266845154
500.0 73.93749678717798
515.0 73.82374786994596
530.0 73.45031899706345
545.0 73.58108023056695
560.0 73.37171672905924
580.0 73.01116683691845
600.0 72.85017188246172
615.0 72.48648425819754
630.0 72.23833797332338
650.0 71.94894305607919
670.0 71.79161300208919
690.0 71.36499741931722
710.0 71.69185049869078
730.0 71.9545156068594
750.0 71.8928544782731
775.0 71.95834102443806
800.0 72.06422984918687
825.0 72.17307045530265
850.0 72.30181520544636
875.0 71.91869851964184
900.0 70.69115471368838
925.0 70.40774081820982
950.0 70.9116411582732
975.0 71.54650257001961
1000.0 72.0623130925234
1030.0 72.34604431592408
1060.0 72.30009145181995
1090.0 72.29028058201786
1120.0 72.690477632288
1150.0 72.82300841737549
1180.0 72.61400167721683
1220.0 72.22061923818006
1250.0 71.46339053756095
1280.0 71.34204606092442
1320.0 71.91159110859944
1360.0 72.24822410932487
1400.0 71.36605607951
1450.0 70.32797879861477
1500.0 70.21094514147408
1550.0 70.28480621332139
1600.0 70.22425528308344
1650.0 69.51554470616834
1700.0 69.56604138449192
1750.0 70.21623467847603
1800.0 70.55932557907754
1850.0 70.60230727223316
1900.0 71.10191809613282
1950.0 71.30694630884608
2000.0 71.44489834531603
2060.0 71.57799806769802
2120.0 71.70967384436969
2180.0 70.51444936172238
2240.0 69.73021250513405
2300.0 69.95335135656644
2360.0 70.42391766959625
2400.0 70.37392697649993
2500.0 71.07708562561865
2580.0 70.36614622243462
2650.0 69.77644205758752
2720.0 69.99500107877114
2800.0 70.03274256997528
2900.0 69.9470437234266
3000.0 70.03926254737044
3070.0 70.3704338374851
3150.0 70.46373333910671
3250.0 70.02797599583806
3350.0 69.90301322810521
3450.0 70.16744379018726
3550.0 70.02189258834612
3650.0 70.8485642259169
3750.0 70.47201126559273
3870.0 69.81384318226468
4000.0 69.24453545941961
4120.0 68.69706666064381
4250.0 68.52516829333653
4370.0 68.64636850636529
4500.0 69.62023347649352
4620.0 70.12089357652586
4750.0 70.04873449623965
4870.0 71.20853598551392
5000.0 70.19148037429605
5150.0 68.22441334728981
5300.0 67.91066062377531
5450.0 68.76269066052208
5600.0 69.41062390400793
5800.0 69.47507864802728
6000.0 69.04474797437518
6150.0 69.58407628053145
6300.0 68.89616786057886
6500.0 69.3641917575482
6700.0 69.56951323496342
6900.0 69.2654089843551
7100.0 69.2490734273278
7300.0 69.12194997790506
7500.0 68.45974830345655
7750.0 68.8361572660335
8000.0 68.34504677604761
8250.0 68.33093101898078
8500.0 68.76203810162714
8750.0 68.90197407799278
9000.0 68.47358357432608
9250.0 68.89334198733275
9500.0 68.11768675203658
9750.0 68.27586399294708
10000.0 68.35996178881734
10300.0 67.98489096911709
10600.0 68.87511537092453
10900.0 69.26946042727381
11200.0 69.55342756629082
11500.0 68.47692266963612
11800.0 69.61221444168451
12200.0 68.3453589754094
12500.0 68.86479709584238
12800.0 70.02700917336992
13200.0 67.36364571996563
13600.0 66.46388079627356
14000.0 66.00378972456896
14500.0 66.09323417422254
15000.0 66.92183165716364
15500.0 63.65803730771644
16000.0 60.23108182146919
16500.0 66.46688712513455
17000.0 66.7243211650258
17500.0 64.93025154294527
18000.0 61.88594349608377
18500.0 57.94027817186145
19000.0 58.128755011585525
19500.0 52.321008161815655
