Freq "Rear Wall Bounce"
20.5078 63.217838876494625
21.9727 64.28916397604829
23.4375 65.45652349248681
25.6348 66.97294238482009
27.0996 67.87797059654258
29.2969 69.27271596946072
31.4941 70.51749750614061
33.6914 71.44806299321884
35.8887 72.49854816802937
38.8184 73.8401028629071
41.0156 74.8217030867261
43.9453 76.16012299892205
47.6074 77.57458380690315
50.5371 78.60825205375077
54.1992 79.90197034778886
58.5938 81.32874363734855
62.2559 82.20499576771547
66.6504 83.36267385199649
71.7773 84.52358668654809
76.9043 85.59424206617584
82.7637 86.55103312456966
88.623 87.35899372467603
94.4824 87.83171641001252
101.807 88.12865552036249
109.131 88.28312765364868
116.455 88.29734028950762
125.244 88.05707472022314
134.033 87.78429139312519
143.555 87.53978853383714
153.809 87.26302100742845
164.795 87.55162344225342
176.514 87.4048815096365
189.697 87.05662555876101
202.881 86.86165113625023
217.529 86.40584729667663
232.91 85.65268792179464
249.756 84.47303422739579
268.066 84.13605130790144
287.109 84.43397364827801
307.617 83.95330330521581
329.59 83.47442915725262
353.76 82.91235883465775
378.662 82.70009070769822
405.762 82.94618808076514
435.059 82.04091113350115
466.553 81.49723226681438
500.244 80.97126188674994
536.133 81.02883414659209
574.219 80.23402449872209
615.234 80.54726279456575
659.912 79.97581122349209
706.787 79.68276931725057
758.057 80.7620681910058
812.256 80.10071233418887
870.85 80.51006818892944
933.105 80.26850330939361
999.756 79.24382927607434
1071.53 77.9373575513386
1148.44 77.76895534441523
1231.2 78.54827566087948
1319.82 77.66856332097183
1414.31 77.38938929379228
1515.38 77.14508850804096
1624.51 76.8470450918881
1740.97 76.01865518215797
1866.21 75.05354851911177
2000.24 74.63681045169966
2143.8 75.43027383386863
2297.61 75.03272732425046
2462.4 73.88332693044799
2638.92 73.58869921252946
2828.61 74.01112297752147
3031.49 73.71422621375618
3249.02 73.48170031522156
3481.93 73.2666424029145
3732.42 71.06195784243978
3999.76 70.38757011531746
4286.87 67.43993172051071
4594.48 68.40670649097434
4924.8 68.90551845516705
5277.83 69.44360713837997
5656.49 67.36088929929389
6062.99 66.39052973227193
6498.05 67.64343391593307
6964.6 67.77138220868345
7464.11 64.93826147605668
8000.24 64.29101221233154
8574.46 63.59692554774523
9189.7 62.12346697840067
9848.88 59.28310200221989
10556.4 59.20717695578762
11313.7 60.364656053215896
12126.0 58.708175606473475
12996.1 59.916732970446844
13928.5 58.09939699742992
14928.2 56.67660420050592
15999.8 57.19523977930598
17148.2 58.41876558100344
18379.4 57.92873345964924
19698.5 58.30660579011658
19999.5 59.8251076519542
