Freq,Floor Bounce,Ceiling Bounce,Front Wall Bounce,Side Wall Bounce,Rear Wall Bounce,Total Early Reflection
22.4,39.80594473169144,45.930659142743636,40.767570195957475,41.49244692319182,38.60366738875926,42.14990284756213
23.0,44.285713342287934,49.2485130222186,41.94917147067069,42.9651925913799,39.28220446407356,44.910032065450096
23.6,48.7416595113482,51.911591224809044,43.03518986721953,44.13570755426058,39.925585204983136,47.57399619824757
24.0,49.840005399429785,52.45191955907846,44.44744314017639,45.04708992711561,40.9948533028858,48.38395401160925
25.0,50.25837089160517,52.744933204314535,46.43061865510374,46.12587014828726,42.68606365730862,49.00670834185918
25.8,50.10336791053935,52.207231082587995,48.62757969280109,46.82849105968002,44.2890885447343,49.20723081223856
26.5,48.79562977548788,50.43521097603265,50.53241540993865,45.89910829055721,45.72424727233404,48.75781463595301
27.2,48.628756101283145,51.66721038919535,49.262153015782175,43.19557801818685,46.124903612866646,48.64442799329318
28.0,49.37584607527144,54.805107054732545,49.11260699422242,42.68035603482444,47.21375915971761,50.34762594640732
29.0,49.871829783100154,58.450448853445536,49.40754905098662,42.629668005893436,48.324276615901894,52.88053785963122
30.0,51.097499509661745,61.6352891081395,50.159649245121855,44.3256995884464,49.88051188933561,55.596886471879756
30.7,53.87641629732151,61.24561489053684,52.2096033681067,49.50278714106183,52.62900195683095,56.05308252766328
31.5,55.8599996174499,61.353413798299144,55.02081531344136,54.828564101120136,56.36711347474004,57.491319624770156
32.5,57.29317164073085,61.74870006333808,61.08132280322374,62.91325333456919,63.263186295507154,61.696989445274156
33.5,58.27882682230877,63.26544524549509,62.76323835207751,64.33267128206029,63.74895456528034,62.90741177717665
34.5,59.139910715771876,64.78275550459125,62.433667773784066,63.47537539726763,61.80612276267185,62.705113292999584
35.5,60.00502406609972,66.00920925226939,62.59804230331399,63.31107619677195,60.48926765442779,63.04155700771945
36.5,61.38214278682025,65.71753803239933,62.61057901360698,63.741156055938845,60.59775915851448,63.198700852711184
37.5,62.79749950966175,65.52933043421358,62.05463825206134,63.967294544512086,60.919056640185275,63.348645403696494
38.7,64.53106624342585,65.85054792039126,62.18939325821363,64.54787796498657,62.088833634436696,64.08505504911975
40.0,65.24095755448734,66.481640919105,65.17746192274755,65.8352187625073,65.37986869971392,65.65116342360713
41.2,65.8210416629875,66.9816538778036,67.84134545760209,67.16107086230497,68.1511954605313,67.26379703661829
42.5,67.0996543927718,67.73557346045843,70.02184413154976,70.3702001876287,70.67812694050113,69.41464241420536
43.7,68.39238414975146,68.43546263134682,72.20336140234964,74.66174417933655,73.38460054522598,72.12418752621112
45.0,69.80920925226938,69.34915203998831,74.40317826835877,78.02879505675907,75.99964217966533,74.74402215254838
46.2,71.85017075212572,70.5566725593005,73.68287227214391,75.640931034546,75.1136704689991,73.7709507898941
47.5,74.44507194826726,73.37584607527145,73.03955390037241,73.2864168199536,73.43316331389613,73.54412880498583
48.7,74.29562977548791,79.87882682230878,73.45669816074543,74.8875889935047,72.59422222146274,75.91708701500504
50.0,74.68422821633102,80.26562459081087,74.0912458278827,75.47535812960267,72.65109779792238,76.33584419793155
51.5,73.43049587637974,75.4022846139602,73.97627998734781,74.02803086061252,70.92206122975098,73.7786192337005
53.0,73.13746771551315,75.01916705502754,74.39149311830366,73.78007849772426,70.64634595930134,73.62966973706072
54.5,73.87387961222818,75.07609175449221,75.09009840257404,74.32212009554351,71.65458723235928,74.16831133099855
56.0,74.64283030471974,75.5404416794549,75.76035311823195,74.96985399900498,72.51018187218524,74.82420310985245
58.0,75.44576719438469,76.10906430015983,76.48942357824278,75.70126129004352,73.29762859738184,75.5377658858905
60.0,76.24576719438468,76.67449351030437,77.16035311823195,76.33507690974166,74.13217125533102,76.2227821796638
61.5,77.1069050103546,77.2707173249541,77.70362500576276,76.89741485671118,75.02646643004717,76.89146114791045
63.0,77.77150800786937,77.67150800786939,78.24675150375354,77.35889706545218,75.66928097540963,77.42683928158219
65.0,78.3404416794549,77.97314211136084,78.74865957364794,77.75593898452836,76.15932851476369,77.87970160579826
67.0,78.64044167945491,78.33821129888743,79.09044363353324,78.03575638562657,76.52743448558158,78.20858369428458
69.0,78.97150800786939,78.70690501035459,79.37763667454644,78.35720459789893,76.94600049706905,78.54689193444652
71.0,79.37001488257476,79.04283030471974,79.63278882757177,78.77579929307973,77.55124245164446,78.93148100379082
73.0,79.90076749445561,79.47001488257477,79.97331062323636,79.34530504353962,78.38711576280454,79.4509883388964
75.0,80.13358982687998,79.86769521305294,80.15775667464531,79.74350190783174,79.07221148043607,79.81231431740139
77.5,80.23358982687998,80.10076749445561,80.28618450501949,80.0023023206405,79.63796844654634,80.05815019252965
80.0,80.4669218511605,80.20076749445562,80.4716627539189,80.2220185188173,80.09763573117964,80.29442779086212
82.5,80.7,80.4669218511605,80.68618450501951,80.44119983124484,80.62741368003854,80.58571935533296
85.0,81.00000000000001,80.8,80.8861845050195,80.70046051294918,81.18271590070589,80.91708737904652
87.5,81.2669218511605,81.00000000000001,81.08618450501949,80.94027672897049,81.6586834660435,81.19826166077242
90.0,81.39999999999999,81.0669218511605,81.25775667464532,81.06027588070904,81.77310945064829,81.31971527921141
92.5,81.53358982687998,81.30076749445561,81.58585448910237,81.4806459777859,81.86671925792513,81.55742535540499
95.0,81.83435140868504,81.53513059177983,81.94346508697899,81.9023023206405,81.818827718901,81.80914632767288
97.5,82.10000000000001,81.70306957104253,82.23044853394865,82.24304593656099,81.80839754971097,82.02261368570626
100.0,82.40000000000002,81.93513059177982,82.44572993968823,82.46255705027365,81.797336034484,82.21729202031267
103.0,82.49999999999999,82.00231994589775,82.60388701683627,82.64210173162692,81.96089902184515,82.35198306276895
106.0,82.56692185116049,82.03513059177983,82.64572993968822,82.64210173162692,82.03050684306585,82.39355297229076
109.0,82.6,82.03513059177983,82.65905509047516,82.58338957194299,81.90344159164178,82.36783021618955
112.0,82.66692185116051,82.06845083805432,82.7297799508283,82.6252366727071,81.80229733919563,82.3942947505216
115.0,82.70076749445562,82.07150800786937,82.74346508697899,82.52428858746596,81.57197063895241,82.34458139112002
118.0,82.73435140868503,82.07150800786937,82.75742449135815,82.38751894170379,81.34016190254415,82.2887547971154
122.0,82.73435140868503,82.17150800786938,82.8288071567453,82.30920611180407,81.07686148398,82.26703108577028
125.0,82.80076749445563,82.33821129888743,82.95742449135814,82.46764513750081,81.19605820023762,82.39398986274333
128.0,82.83513059177984,82.40306957104251,83.08585448910237,82.6875189417038,81.69069208721137,82.56609517930859
132.0,82.96845083805432,82.47150800786937,83.17166275391891,82.76670626616767,81.93984775577545,82.68446043859309
136.0,83.06845083805432,82.63821129888743,83.35742449135816,82.84673677241469,82.1021593272456,82.82298227752965
140.0,83.17150800786938,82.67150800786939,83.41508314243885,82.80920611180409,82.15975729278826,82.86667590203398
145.0,83.20306957104252,82.60690501035458,83.57166275391891,82.83247987557604,82.09808059807872,82.89151606343422
150.0,83.3404416794549,82.50690501035459,83.72946066855592,82.89754491963163,81.97929717476147,82.93378318572191
155.0,83.4069050103546,82.57609175449221,83.74379075419729,82.8807878949703,81.7724161557173,82.92882942244813
160.0,83.37150800786938,82.57609175449221,83.71508314243884,82.82070188121241,81.59456926693511,82.87521801645234
165.0,83.3404416794549,82.51227178315618,83.74379075419729,82.80352961026536,81.51935728534964,82.84887052455893
170.0,83.17609175449222,82.4122717831562,83.58748929892042,82.62070188121241,81.39358682394518,82.70052682249808
175.0,82.87609175449221,82.21227178315618,83.48748929892041,82.40229885570999,81.24541116028163,82.50738944856673
180.0,82.58219967332305,82.01227178315618,83.36035311823197,82.14817140149627,81.05334894374462,82.29625571664498
185.0,82.31916705502753,81.67928732607432,83.2048949937362,81.87161637108521,80.73658469235106,82.03742106998153
190.0,81.99897445130925,81.38623512455237,83.07525122642457,81.59912659892174,80.40395064203732,81.7801504022434
195.0,81.77082970284299,81.09471929119205,82.97525122642458,81.38264684748964,80.08912721966986,81.56528050844098
200.0,81.63752777300029,81.09897445130925,82.91998423401445,81.23784431163635,79.92517678338983,81.47211184084898
206.0,81.5096325668162,81.23752777300028,82.91998423401445,80.9825528380831,79.54517708810063,81.37269100529966
212.0,81.34898359150841,81.69897445130925,83.13142096048345,81.51039079867911,79.22167840443645,81.55423102080887
218.0,81.38219812790054,81.96096514237182,83.07297191737702,81.53169198455029,79.38994402516813,81.6234645461989
224.0,81.57082970284297,81.79897445130926,82.94574459001024,81.27682699809846,78.9174072859161,81.48640134043536
230.0,81.76096514237182,81.49897445130925,82.79009840257405,80.90876482743572,78.15362830836519,81.2709015826624
236.0,81.75260953202216,81.19897445130925,82.57848478147018,80.55486813212619,77.37379071528761,81.00942810162985
240.0,81.58982856673472,80.63752777300027,82.29366590096782,80.06171751117968,76.81754824636778,80.63770462539291
250.0,81.38982856673472,80.28219812790054,82.19366590096782,79.69217894944387,76.20059877229119,80.3742342338736
258.0,81.38982856673472,80.12179738688896,81.99366590096783,79.63468076914873,75.6918766855547,80.23527696629766
265.0,81.02758719283592,80.22179738688895,81.89366590096783,79.59988567823386,75.37730520464467,80.10539172512217
272.0,80.88982856673472,80.24898359150842,81.70489499373623,79.62494858827161,75.48398434931279,80.0328346053107
280.0,80.55260953202217,80.10963256681619,81.40489499373622,79.39439822662293,75.2833976363456,79.77777668229241
290.0,80.01916705502754,79.83752777300028,81.00489499373622,78.95101033092392,74.92677699400254,79.3695665134472
300.0,79.51916705502752,79.49897445130925,80.56035311823196,78.70086940526012,74.70647967887216,78.98831941012983
307.0,79.38982856673472,79.27082970284299,80.41704993328868,78.6145237151413,74.55962581232912,78.83974117228512
315.0,79.52758719283591,79.67082970284298,80.69009840257405,78.9145237151413,74.84111596782998,79.11676789607549
325.0,79.93752777300028,80.39897445130926,81.27525122642456,79.45130410818516,75.41335069921794,79.68702646445676
335.0,80.22179738688895,80.97082970284299,81.86528715999552,79.84751170738177,75.85574880951819,80.16195711146038
345.0,80.47641629732152,81.04898359150842,82.21363940606881,79.82290201231028,75.41721244020154,80.30365714712063
355.0,80.63546263134681,80.73546263134682,82.3136394060688,79.71014178037858,74.70553060799297,80.23385535161164
365.0,80.74898359150843,80.58382334167594,82.26528715999551,79.78657708167857,74.37731685339746,80.20598790233011
375.0,80.78888547155002,80.3950645803583,82.22386986096213,79.89919185929209,74.33763660512122,80.18010187205047
387.0,81.02179738688896,80.35062128010364,82.52386986096214,80.00257237791912,74.41036664099745,80.34555917117812
400.0,81.52179738688895,80.50982855556757,82.98847217927515,79.9682063526293,74.33034624153036,80.64302620242096
412.0,82.02179738688895,80.56136837622763,83.32683455312959,80.12183590630455,73.53337312094598,80.88923617170569
425.0,82.12179738688896,80.56136837622763,83.53516047995821,80.43614053389544,73.3130967036926,81.03458771959588
437.0,81.96194867563766,80.66136837622763,83.48847217927516,80.61891937355252,73.54057032360016,81.03631788739649
450.0,81.86194867563766,80.74258273663014,83.49817545090704,80.83305078972381,74.03796039186776,81.08862794363172
462.0,82.02179738688895,81.00982855556755,83.69817545090704,81.16253683835181,74.74857102629858,81.33747309816063
475.0,82.26194867563765,81.20982855556755,83.99817545090703,81.44846834388562,75.28154001424049,81.61295334076308
487.0,82.43546263134684,81.35295536787777,84.1444031024367,81.39878984703033,75.54768033595441,81.73367053174469
500.0,82.47641629732153,81.27269145322595,84.1600593685791,81.08720231277084,75.48983774956504,81.6754112115943
515.0,82.25062128010363,81.01655819177171,84.05121482311348,80.7035795905875,75.06139111126988,81.4495125413461
530.0,81.95062128010365,80.75098823501219,83.8268345531296,80.325194803242,74.35973932323007,81.15283175202642
545.0,81.692378988098,80.10432912249857,83.5152383542856,79.91592691086888,73.57219566872179,80.75975289542022
560.0,81.66726558859611,79.19484664455462,83.42683455312961,79.86824004801828,72.59106004839332,80.53217789033448
580.0,81.68538710465899,78.10807851055698,83.258217088195,79.79644878334135,72.08242640262857,80.29726697206497
600.0,81.1033038382893,77.44123053036839,83.01068966302631,79.58400563917502,72.07781087148503,79.924832679268
615.0,80.23638088039144,76.84010271092208,82.9106896630263,79.46822290366751,72.16858041141018,79.58389282658233
630.0,79.99037884047719,76.36382205324666,83.19485407749124,79.87371669331931,72.71511088825638,79.70876853716038
650.0,79.7795147828385,76.119032343648,83.3421886568873,79.82306333890868,73.09466220820946,79.71507852715033
670.0,78.98614403123408,75.28969294222598,83.14218865688728,79.33868103869949,72.93876408446519,79.29111530125007
690.0,78.15044008528078,73.79980341180725,83.08279645161535,78.82851699781865,72.44239612309012,78.88268826440361
710.0,77.85559131900752,73.12630272058378,83.22758020744902,78.66042160303023,72.03240362546897,78.8225172765999
730.0,77.24536595522706,72.6131498673261,83.43443179205894,78.76479555917027,71.531990834687,78.82270283036408
750.0,75.92328301106394,71.98130907749386,83.50631904730496,78.89245266472383,71.0692062583215,78.68496326928673
775.0,74.06496047024939,70.68870935321691,83.47640057047573,78.73581046419937,70.55548767889671,78.40086071353306
800.0,73.46154355411238,70.10142976506934,83.70446733802115,78.88975145183151,70.30925428968155,78.51588641086175
825.0,73.11112935938365,69.52616946448319,83.73464221114865,78.97175446829652,70.54026733798747,78.52454379124191
850.0,72.88122088129965,66.83784129066764,83.31744525333677,77.83475893793893,70.21724400028044,77.92605059363753
875.0,74.05002187489627,67.6208112876942,83.66131480277568,77.04934808890185,69.69741071108271,78.10977234683541
900.0,75.37436938191824,69.99095599166442,83.77967560724925,76.676091360635,69.08106729128328,78.29717691417868
925.0,77.0314931370122,72.48316768521325,83.82528439454828,76.29666286879142,68.46627504120869,78.56283281242266
950.0,78.44165288164494,75.17244660678602,84.16352795397769,77.0916903786487,68.00957405828055,79.2540725965054
975.0,79.4493489016972,75.38335937246298,83.97277262970958,76.78599910186738,68.04759973629267,79.30785678528586
1000.0,80.06615422006834,77.38888547155003,84.11011641218653,76.95984574206419,67.72767309280805,79.72731367834955
1030.0,80.96001642302816,78.59237898809802,84.25438255616918,77.40497506082876,68.41349871574404,80.21481600752581
1060.0,81.97182978310015,79.05098823501218,83.95656561780197,76.59619355191433,68.36606801722405,80.32665287683112
1090.0,82.52022160616295,79.4137899675559,83.93541553523073,75.84533721703322,67.24208908869677,80.4706381621012
1120.0,82.80906430015985,79.83403046914815,84.19229999289145,76.32425870916973,67.11906163195141,80.77588544346236
1150.0,82.77896989520114,80.104109166386,83.98093929731283,76.38263681495705,66.54924666550039,80.71981797158162
1180.0,83.02926676879422,78.9449257205697,83.81912395882263,76.51878791352904,66.95406308318677,80.56958431200569
1220.0,82.62869245367797,79.04089469560577,83.55438255616916,76.4055263219564,66.3872810422776,80.3190367460333
1250.0,82.07584607527147,78.23088119339842,83.1066916966184,76.39523098976116,66.13951394998668,79.8229446723402
1280.0,81.70937829065056,77.90654363985348,82.7884449939284,75.31744576978794,65.37185099873761,79.41996740949813
1320.0,81.49083949114905,77.95355116220061,82.45263989204597,74.97036726723411,64.75901638286783,79.17693691887935
1360.0,81.17131751433742,77.95999961744991,82.48519702833981,75.66594499741524,63.79267855702908,79.137673909138
1400.0,80.7685904593392,78.30488091921369,82.2574120312225,75.9239739458294,64.80625793112375,79.00209474656499
1450.0,80.78637896901462,78.47383513626848,82.09059903313651,75.48332158291922,65.23869894210371,78.92913332563676
1500.0,80.47940843630546,78.44264053902357,82.06131480277567,74.76213948636364,63.733655838982855,78.74573952576684
1550.0,80.29674967616025,78.04528993868244,82.3905990331365,75.29561866653853,64.0341920396052,78.81516165432448
1600.0,80.30450671220274,77.37324980289029,82.21862657962842,75.01466974058131,63.06419000112858,78.60106206068866
1650.0,80.31657454846321,77.14773581244513,82.09803929333285,74.30527112572757,62.86574720690716,78.4560026786664
1700.0,80.84171952330975,76.88422821633101,82.19803929333284,74.1424070501755,62.19228428286047,78.61754039109657
1750.0,81.07245249207645,76.84351870470793,82.31464689713452,74.55961703904636,61.93312637188784,78.77241811095617
1800.0,80.58382992528654,76.99448868932289,82.27685382779312,74.32752718930267,62.38454762026022,78.59958802411192
1850.0,80.81832676913884,76.21125159582657,82.07905669899245,73.58918884816715,62.119992899594294,78.4312278390156
1900.0,81.16526111339765,75.35938893896456,82.13106448807842,74.27083202029131,61.16273710164292,78.53106321949691
1950.0,81.10052961054488,76.03601544228641,82.15955825135796,74.69471196996302,61.919767010218536,78.62650563467494
2000.0,81.39393259456331,74.80028818383799,81.83940008370833,74.24429268305325,61.9334251743757,78.43750668183277
2060.0,81.52992552238314,75.38615193394082,81.95655355205277,74.76188863791673,61.00424510791221,78.63205367351325
2120.0,81.8969370438189,76.28316768521326,82.39064436625222,75.12595883016338,61.739246947887025,79.08181906535796
2180.0,82.06338775251363,76.74464246181275,82.28269697594226,74.62619487607999,61.11680992836129,79.11193267227567
2240.0,82.18382992528655,76.74586665361696,82.1368183040842,73.95385306515298,60.849324160014476,79.05518696522773
2300.0,81.6948466445546,76.05597503611527,82.01011641218652,73.75845182500393,58.483855831011695,78.70856415266623
2360.0,81.9559733008437,75.67202981418008,82.28093929731283,73.96183300261401,59.900399621532316,78.9071472083719
2400.0,81.52406634433558,76.2597119873669,82.49838407543668,74.28185462196788,60.897562358167235,78.92202865541846
2500.0,80.79533257014982,75.92493630578655,82.49963940497851,74.58222230139918,60.52155649089447,78.65564828759646
2580.0,80.14878700732918,75.47695775614916,82.28204781801908,74.38944959269017,59.88338730818454,78.2782359736237
2650.0,78.88051352069253,73.65269045106737,81.51524306835864,73.36046857769306,58.59796399985525,77.2365164898702
2720.0,78.55563638500027,72.01892965557538,80.84394962648479,72.88888938338819,58.50855827195191,76.61306682637424
2800.0,78.4502760977696,71.62673328105511,80.96764067569335,72.48449454576702,57.502395303259604,76.58531029156714
2900.0,78.33167423934988,72.198941039525,81.31768506980447,72.32505115891279,57.24638056989305,76.77155733023328
3000.0,78.57985234006253,72.03220488328334,81.7361870248278,72.35674393695795,56.43309285584364,77.0734745940252
3070.0,78.27355758553459,71.49754371435081,81.8275219614148,72.24950392581114,56.44364267801335,77.0046259792132
3150.0,78.00840017459457,71.15578947403317,82.45214726708356,72.35691156797864,57.19773364438332,77.32196228055012
3250.0,78.23249005336113,72.55872217728471,82.88814666405871,71.9796603496523,56.56276525169453,77.7125140372073
3350.0,78.73167212130373,74.78854508842582,82.84619756331746,71.37898468428997,56.591599552078705,77.94586750759481
