Freq "Estimated In-Room Response"
20.5078 73.77192883610222
23.4375 77.91758822888339
26.3672 80.81634846466733
29.2969 83.30771796437186
32.2266 84.86582975612502
35.1562 86.57889760319698
38.0859 87.7232952641732
41.0156 88.64336580524908
43.9453 89.22736091290086
46.875 89.38224649918432
49.8047 89.20498684915648
55.6641 88.50899490401333
58.5938 87.9944000857018
61.5234 87.5534591997344
67.3828 86.66965727578173
73.2422 86.42966454403768
76.1719 86.59682447242714
82.0312 86.95814040837227
87.8906 87.66768264145097
93.75 88.30710126694133
102.539 88.89568663098736
108.398 89.06001106473991
117.188 89.16562862460552
125.977 88.76648566484303
134.766 87.97742618996226
143.555 87.13897300946074
155.273 86.64962628243642
164.062 86.78763047148335
175.781 86.74736695291499
190.43 86.20336621861154
202.148 85.9050813473564
216.797 85.96149787333059
234.375 86.09010374641382
249.023 86.00055950760705
266.602 86.03675541082016
287.109 86.1936276279301
307.617 86.40044673808735
331.055 86.17043447532878
354.492 86.29166069075409
377.93 86.34432657040928
407.227 86.08546210111037
436.523 85.23350688448741
465.82 84.54626456748527
500.977 83.78259265516743
536.133 83.49612596015142
574.219 83.34422360804764
615.234 83.6785631634856
659.18 84.24084670571163
706.055 84.85405178333286
758.789 85.44916213978165
811.523 85.90628097368467
870.117 86.20036479642918
931.641 86.35545732706751
999.023 86.21025684928063
1072.27 85.2301646285788
1148.44 85.60648344490016
1230.47 86.68478531521355
1318.36 87.44998625348201
1415.04 87.84018222631437
1514.65 87.08175517300204
1623.05 85.94966237209313
1740.23 85.28961208045442
1866.21 84.05786313066834
2000.98 83.27556261455739
2144.53 84.05214980026845
2296.88 83.29070651308098
2460.94 83.52420057412542
2639.65 83.80596025821531
2827.15 81.10838692101446
3032.23 80.7637137072696
3249.02 81.14171540972042
3483.4 81.60136168865431
3732.42 81.8139378759992
3999.02 81.73799821546903
4286.13 82.38317696985332
4593.75 81.61118480024248
4924.8 81.9313083084805
5279.3 82.6387743521167
5657.23 82.86679032620007
6061.52 81.55283156707848
6498.05 79.67696475639146
6963.87 80.27569553312212
7464.84 82.02078948542308
8000.98 80.39139084480539
8575.2 79.40312424410895
9190.43 78.10992908666545
9849.61 77.10905898496695
10555.7 78.71236602020858
11314.5 79.80617350110506
12126.0 79.84576434774276
12996.1 82.12362069765275
13927.7 79.48883559827298
14929.7 79.86075260459393
15999.0 75.1163752896142
17147.5 76.21463167231038
18377.9 74.7392936269299
19699.2 65.52974520244175
19998.0 58.88246040262389
