Freq "Estimated In-Room Response"
22.4 16.35106899534138
23.0 15.647826517071664
23.6 15.42649810348847
24.0 15.832373385553907
25.0 16.659506998573946
25.8 17.74451050470968
26.5 19.09746260160877
27.2 20.59807031664006
28.0 22.382473833645506
29.0 24.59640401467489
30.0 27.558500326557336
30.7 31.41574355641366
31.5 35.446849617244354
32.5 38.58208279149922
33.5 40.767570677176636
34.5 42.501838308050125
35.5 44.09643341675603
36.5 45.64917960722006
37.5 47.08925943004449
38.7 48.18149713195855
40.0 48.74263035326571
41.2 49.400656378675805
42.5 51.58521587896915
43.7 54.678393863215504
45.0 56.96337784167254
46.2 58.27782193403159
47.5 59.500089394879396
48.7 61.115798566226474
50.0 62.92269716453457
51.5 64.77268347864329
53.0 66.70461190877377
54.5 68.74374189916662
56.0 70.59040246795827
58.0 72.01643626666173
60.0 73.57273251785966
61.5 75.5329122831155
63.0 77.48058164137971
65.0 79.39907327523262
67.0 81.27243811321402
69.0 82.86352738977509
71.0 83.85125632453685
73.0 84.11358842393675
75.0 83.84299080781221
77.5 83.44425485435953
80.0 83.09113034916102
82.5 82.43999828837065
85.0 81.98501717329475
87.5 82.0179732071094
90.0 82.19907786466744
92.5 82.58980303804951
95.0 83.14949722018456
97.5 83.58830940697648
100.0 83.8656629742281
103.0 84.09621047642538
106.0 84.2616442377717
109.0 84.54320449534994
112.0 84.7902220123904
115.0 84.63541123690474
118.0 84.14360345300824
122.0 84.12187933263046
125.0 85.21847725865139
128.0 85.82448443408981
132.0 85.31288790213542
136.0 85.14441735097928
140.0 85.23401082758957
145.0 84.97152386896023
150.0 85.03272955706252
155.0 85.16138168955575
160.0 84.9921506166488
165.0 84.5684626170548
170.0 84.47297838797225
175.0 84.89736062671253
180.0 85.0533224862189
185.0 84.79908354142863
190.0 85.20619183974534
195.0 85.64528972851468
200.0 85.2203547251701
206.0 84.88640879514963
212.0 84.68731552151185
218.0 84.30203185626294
224.0 84.16387265038841
230.0 83.95307210465832
236.0 83.55889331815415
240.0 83.46967087047274
250.0 83.51438791442862
258.0 83.29853492397237
265.0 83.49467907720451
272.0 83.72863421599344
280.0 83.72320363624867
290.0 83.85915551283064
300.0 84.00393840197252
307.0 84.0346215450561
315.0 83.94456954500508
325.0 83.80586473002221
335.0 83.42510239911807
345.0 82.68735967678487
355.0 81.74581660567476
365.0 81.15901679689227
375.0 81.00020612024967
387.0 81.09821319225306
400.0 81.53528475250768
412.0 81.92593569362533
425.0 81.92411678461878
437.0 81.7331096974177
450.0 81.54412407543566
462.0 81.4468768084924
475.0 81.56773711489278
487.0 81.78373211941908
500.0 82.0124778586473
515.0 82.10360321825972
530.0 82.10276053500391
545.0 82.05243853319267
560.0 82.00787985080257
580.0 82.07971545070498
600.0 82.19194884292115
615.0 82.2902488389178
630.0 82.27808285491226
650.0 82.23279882370096
670.0 82.23741151658409
690.0 82.2911070181659
710.0 82.38499126284344
730.0 82.5035705758345
750.0 82.64776552072946
775.0 82.80192092953932
800.0 82.94949371553177
825.0 83.01455206562126
850.0 83.00524105657195
875.0 82.88296924451784
900.0 82.62344556744941
925.0 82.20861790750325
950.0 81.69326592554134
975.0 81.13039423953549
1000.0 80.635668889939
1030.0 80.36277884336616
1060.0 80.37845707042489
1090.0 80.69427411484274
1120.0 81.16907397858652
1150.0 81.65192310059003
1180.0 82.0212808567981
1220.0 82.27029152552059
1250.0 82.36057902871538
1280.0 82.33428936716214
1320.0 82.26953935508972
1360.0 82.18880775373022
1400.0 82.16348483965977
1450.0 82.17237116194673
1500.0 82.1492154956941
1550.0 82.07607661036458
1600.0 81.90587183665986
1650.0 81.72197283976608
1700.0 81.55294063795796
1750.0 81.38023981508373
1800.0 81.13881058184647
1850.0 80.68585161974569
1900.0 80.03218797408122
1950.0 79.35629487258001
2000.0 78.81171989309244
2060.0 78.51930336611542
2120.0 78.37135646872754
2180.0 78.30568695194067
2240.0 78.52678951139174
2300.0 79.0387380363069
2360.0 79.43950768899235
2400.0 79.420428306067
2500.0 79.24066967484129
2580.0 79.2566102573326
2650.0 79.25163540585564
2720.0 79.05554351498022
2800.0 78.99386731218021
2900.0 79.10865009252686
3000.0 79.15425684107636
3070.0 79.14737482115565
3150.0 79.28920969456443
3250.0 79.50249588511385
3350.0 79.63422763847517
3450.0 79.80919985212533
3550.0 80.2343076117677
3650.0 80.84620407492174
3750.0 81.20741062990919
3870.0 81.299012749617
4000.0 80.95520290716375
4120.0 80.55825229341697
4250.0 80.05607001802947
4370.0 79.12638374487373
4500.0 78.33068901969756
4620.0 78.33875924335602
4750.0 78.8691633180854
4870.0 79.52953746015909
5000.0 80.16050589270611
5150.0 80.55783338717876
5300.0 80.4978632864545
5450.0 79.96133035831764
5600.0 79.3429326863033
5800.0 78.85045885088603
6000.0 78.48416444678158
6150.0 78.23009049221902
6300.0 78.18484675970389
6500.0 78.07292889150776
6700.0 77.95744822415531
6900.0 78.21246114153251
7100.0 78.75548783290347
7300.0 79.25137522708295
7500.0 79.46675141469878
7750.0 79.53087150632372
8000.0 79.52443285035936
8250.0 79.69113974369498
8500.0 80.02296282163411
8750.0 79.96948093074518
9000.0 79.55748215438071
9250.0 79.21624758544293
9500.0 79.02653299782521
9750.0 78.78676953585817
10000.0 78.7708414481352
10300.0 79.07022717129225
10600.0 79.15662825526664
10900.0 78.9883848078238
11200.0 78.73225365074087
11500.0 78.71915731605945
11800.0 78.78428673704543
12200.0 78.48534342017884
12500.0 78.86383350979624
12800.0 79.8017192766683
13200.0 80.03819978616616
13600.0 78.5743033599616
14000.0 76.36039430293158
14500.0 76.15630604724977
15000.0 77.10827978368079
15500.0 76.44103215156383
16000.0 74.78498933251973
16500.0 76.38584203257703
17000.0 79.38901900508704
17500.0 79.6063999641669
18000.0 76.6164429947223
18500.0 74.28624363284767
19000.0 72.72014223552458
19500.0 68.90480723735435
