Freq,On Axis,Listening Window,Sound Power,Early Reflections,Early Reflections DI,Sound Power DI,DI offset
22.4,28.20000000000003,31.381398606538838,31.09369058310584,31.54024394352622,39.84115466301262,40.287708023433,40
23.0,29.499999999999986,32.82560909604935,32.47442490043828,32.94320148629559,39.882407609753756,40.35118419561107,40
23.6,30.70000000000003,34.1120559983555,33.73631082489378,34.215698439608914,39.89635755874659,40.37574517346172,40
24.0,31.799999999999997,35.332797617646534,34.88431134224261,35.38057399358878,39.95222362405775,40.44848627540392,40
25.0,32.89999999999999,36.582773580071105,36.03931955116373,36.55755026661025,40.025223313460856,40.54345402890738,40
25.8,35.999999999999986,38.221403021404726,38.042536540765596,38.437998547215884,39.78340447418884,40.17886648063913,40
26.5,38.89999999999999,40.27506288824567,40.227930016820366,40.498678112388305,39.776384775857366,40.047132871425305,40
27.2,41.2,42.04563047398743,42.137743098953436,42.31639239448016,39.72923807950727,39.907887375033994,40
28.0,43.10000000000001,43.614602603561664,43.78837158810147,43.91027426109541,39.704328342466255,39.826231015460195,40
29.0,44.7,45.09366670740933,45.23484224390664,45.31062755495846,39.78303915245087,39.858824463502685,40
30.0,46.10000000000001,46.45957187096808,46.55566597311817,46.60302315766522,39.85654871330286,39.90390589784991,40
30.7,48.39999999999999,48.5684549861367,48.66132791149347,48.687799450746084,39.880655535390616,39.90712707464323,40
31.5,51.2,51.19553041355205,51.346482776928596,51.347719848370346,39.8478105651817,39.84904763662345,40
32.5,53.499999999999986,53.265829608452904,53.4624958966517,53.43166666398106,39.83416294447184,39.8033337118012,40
33.5,55.3,54.97095091611739,55.21116184817383,55.14571758554264,39.82523333057475,39.75978906794356,40
34.5,56.89999999999999,56.45149852019772,56.70223824757231,56.61957002168667,39.83192849851105,39.749260272625406,40
35.5,58.499999999999986,57.95789881066456,58.2016028402427,58.102033006688785,39.855865803975774,39.75629597042186,40
36.5,60.60000000000001,59.98138230954051,60.2113731733924,60.11240703244651,39.868975277093995,39.770009136148104,40
37.5,62.39999999999999,61.72830886774072,61.95672650543706,61.851364443334646,39.87694442440608,39.77158236230366,40
38.7,63.89999999999999,63.25475166919752,63.445508884066,63.329080486945045,39.92567118225247,39.80924278513152,40
40.0,65.3,64.57716010040829,64.76239211239253,64.63408497760136,39.94307512280693,39.81476798801576,40
41.2,66.9,66.22510134080618,66.34619417346421,66.21478150413397,40.01031983667221,39.878907167341964,40
42.5,68.8,68.07386209294444,68.11539189590887,67.98770063722367,40.08616145572077,39.95847019703557,40
43.7,70.3,69.63262220638207,69.63192180024184,69.49365052822418,40.13897167815789,40.000700406140226,40
45.0,71.7,71.02146784316204,70.96140733427234,70.83009839354762,40.19136944961443,40.060060508889705,40
46.2,73.0,72.33119142543501,72.22274248716202,72.09041397573688,40.24077744969813,40.108448938272986,40
47.5,74.2,73.6088226579774,73.38285541815314,73.29278945963499,40.31603319834241,40.22596723982426,40
48.7,75.3,74.76309856201321,74.47182119409162,74.39089564206634,40.37220291994687,40.291277367921595,40
50.0,76.3,75.82511346927014,75.45899937129904,75.39584436393362,40.429269105336516,40.36611409797109,40
51.5,77.3,76.8120959351631,76.3433063118692,76.33395667584004,40.47813925932306,40.4687896232939,40
53.0,78.2,77.7333059208099,77.15881479139146,77.18811995116022,40.54518596964968,40.57449112941843,40
54.5,79.0,78.60100052071746,77.92166500268642,77.99784739916005,40.60315312155741,40.67933551803104,40
56.0,79.8,79.48139141362044,78.71442227936484,78.85311577272448,40.628275640895964,40.7669691342556,40
58.0,80.7,80.36733455158709,79.52378370146585,79.74628590245463,40.62104864913246,40.84355085012125,40
60.0,81.6,81.25305391835148,80.29203882726806,80.56713306068994,40.68592085766154,40.961015091083425,40
61.5,82.2,81.94278902991904,80.93461890815819,81.25951725100843,40.68327177891061,41.008170121760855,40
63.0,82.7,82.44893094048435,81.42471630209663,81.75154601993789,40.697384920546455,41.02421463838772,40
65.0,83.2,82.97882218476809,81.9181695228121,82.2705130438157,40.708309140952395,41.060652661956,40
67.0,83.7,83.46231665502792,82.35555527971458,82.74156501942487,40.72075163560305,41.10676137531334,40
69.0,84.1,83.91041581661527,82.78597572403241,83.21538470706538,40.69503110954989,41.12444009258286,40
71.0,84.50000000000001,84.32927634642418,83.18061418399,83.6533562507272,40.67592009569698,41.14866216243418,40
73.0,84.8,84.69108045141112,83.56864022364947,84.06136578725724,40.62971466415388,41.12244022776166,40
75.0,85.1,85.02298673261988,83.92472048036404,84.42503947457283,40.59794725804706,41.09826625225584,40
77.5,85.4,85.27738369850472,84.1768767973497,84.68621966295012,40.5911640355546,41.100506901155015,40
80.0,85.60000000000001,85.47738369850472,84.39465779023304,84.90495290935424,40.57243078915049,41.082725908271684,40
82.5,85.8,85.68657127080309,84.61021517723368,85.12625149694628,40.560319773856804,41.0763560935694,40
85.0,85.99999999999999,85.89664827804235,84.85066250056082,85.35850834115085,40.5381399368915,41.04598577748153,40
87.5,86.2,86.08485344317141,85.02907874232831,85.55183590436167,40.533017538809744,41.0557747008431,40
90.0,86.3,86.22976745681459,85.18713486490905,85.71119113126214,40.518576325552445,41.04263259190553,40
92.5,86.5,86.38378987803604,85.28957898792005,85.82846272127567,40.55532715676037,41.09421089011599,40
95.0,86.6,86.4621819482429,85.3093217588736,85.86697297870558,40.595208969537325,41.15286018936931,40
97.5,86.7,86.56218194824291,85.37710677507394,85.95309408364508,40.609087864597825,41.18507517316897,40
100.0,86.8,86.68455466676357,85.46627377332148,86.04681566777317,40.6377389989904,41.2182808934421,40
103.0,87.00000000000001,86.81777731569322,85.55225480819901,86.1649796326741,40.65279768301912,41.26552250749421,40
106.0,87.09999999999998,86.93864316146733,85.60971180180235,86.2508875999017,40.68775556156562,41.32893135966498,40
109.0,87.3,87.15029300643678,85.72350682526906,86.41490552237569,40.73538748406109,41.42678618116773,40
112.0,87.5,87.31826963718726,85.78783757279282,86.51912088747935,40.79914874970791,41.53043206439443,40
115.0,87.6,87.4287028569532,85.80147541704385,86.58210172305085,40.84660113390234,41.62722743990935,40
118.0,87.7,87.49607037214595,85.77830800651073,86.60788345367651,40.888186918469444,41.717762365635224,40
122.0,87.7,87.56112526563273,85.74752770265718,86.63063486154185,40.930490404090875,41.813597562975545,40
125.0,87.8,87.61776558025578,85.7275021180149,86.66752138040346,40.95024419985232,41.89026346224088,40
128.0,87.8,87.62773092125649,85.65917961421749,86.64872547405498,40.9790054472015,41.96855130703899,40
132.0,87.8,87.63838365927795,85.58445443428162,86.61301760674392,41.025366052534025,42.053929224996324,40
136.0,87.8,87.63838365927795,85.51101737990119,86.59117141282677,41.04721224645118,42.12736627937676,40
140.0,87.8,87.67046599646353,85.43945571350798,86.5751312006111,41.09533479585244,42.23101028295555,40
145.0,87.9,87.69383339515579,85.36214776261609,86.54545884826,41.148374546895795,42.3316856325397,40
150.0,87.8,87.65989175825574,85.25347150394255,86.4877134625045,41.17217829575124,42.40642025431319,40
155.0,87.9,87.68331596805858,85.18348267634583,86.46867097343218,41.2146449946264,42.49983329171275,40
160.0,87.9,87.672275502325,85.087469230583,86.41778565461733,41.25448984770766,42.584806271741996,40
165.0,87.9,87.66041419756509,84.97876531804923,86.3617815805281,41.298632617036986,42.68164887951586,40
170.0,87.9,87.66167628103418,84.8782961021126,86.32213789434732,41.339538386686854,42.783380178921576,40
175.0,87.9,87.65032180608253,84.75216576889436,86.25119732764675,41.39912447843578,42.89815603718817,40
180.0,87.9,87.63945058440294,84.65175360295045,86.19929723974683,41.44015334465611,42.98769698145249,40
185.0,87.9,87.6401770398589,84.55484838949816,86.14960304148624,41.49057399837265,43.085328650360736,40
190.0,87.9,87.6401770398589,84.44781014944057,86.10932905251228,41.53084798734662,43.19236689041833,40
195.0,87.9,87.6401770398589,84.352122775533,86.05689226896753,41.58328477089137,43.28805426432589,40
200.0,87.9,87.66397768889945,84.27833201843673,86.03606654516896,41.627911143730486,43.38564567046272,40
206.0,87.9,87.67478776372,84.1997528013259,86.01067321945278,41.66411454426722,43.475034962394105,40
212.0,87.9,87.69609423525218,84.11994433705696,85.97084892882496,41.72524530642721,43.57614989819521,40
218.0,87.9,87.7173191102702,84.04683975906042,85.95081039277257,41.76650871749763,43.67047935120978,40
224.0,87.9,87.72849999086857,83.98033023705507,85.93807279948966,41.79042719137891,43.7481697538135,40
230.0,87.9,87.72849999086857,83.89349039986244,85.88742057365904,41.84107941720953,43.83500959100613,40
236.0,88.0,87.7510464455071,83.81052520453095,85.85897915967891,41.89206728582819,43.94052124097615,40
240.0,88.0,87.73992353438665,83.7106836788921,85.81443989828468,41.92548363610197,44.02923985549455,40
250.0,87.9,87.71804927685095,83.59855191901737,85.73540627774817,41.98264299910278,44.11949735783358,40
258.0,87.9,87.69533041399592,83.4671799078855,85.64843759803703,42.046892815958884,44.228150506110424,40
265.0,87.8,87.62948833002334,83.29674221120119,85.5284382032847,42.10105012673864,44.33274611882214,40
272.0,87.8,87.57425492103232,83.10989034676007,85.3895651616232,42.184689759409125,44.46436457427225,40
280.0,87.7,87.4858097553528,82.90153531981152,85.23631576328107,42.249493992071734,44.58427443554129,40
290.0,87.6,87.39707194607848,82.70025578590094,85.09647673490846,42.30059521117002,44.69681616017755,40
300.0,87.6,87.33226204209838,82.49976601671898,84.95611451861933,42.37614752347905,44.8324960253794,40
307.0,87.5,87.27765911178241,82.29137491093695,84.81041442017938,42.46724469160303,44.98628420084546,40
315.0,87.5,87.20152985093992,82.0757153935602,84.6616078449941,42.539922005945826,45.12581445737972,40
325.0,87.39999999999999,87.1688974534098,81.90948418771491,84.547053998811,42.6218434545988,45.25941326569489,40
335.0,87.39999999999999,87.14784577625117,81.74411722431182,84.45369977307644,42.69414600317474,45.40372855193935,40
345.0,87.5,87.15974141014205,81.60267432938308,84.38100414995307,42.778737260188976,45.55706708075897,40
355.0,87.5,87.15974141014205,81.50786874024017,84.35239801797488,42.80734339216717,45.65187266990188,40
365.0,87.6,87.19527736551287,81.41325232921407,84.32442938099928,42.87084798451359,45.78202503629879,40
375.0,87.6,87.22968981552857,81.31617911411824,84.27991877243353,42.94977104309504,45.91351070141033,40
387.0,87.7,87.25253111844363,81.22517700124877,84.25831037473041,42.994220743713214,46.02735411719486,40
400.0,87.8,87.26665959548545,81.11156492628447,84.22112562502453,43.04553397046092,46.15509466920098,40
412.0,87.8,87.29004742858567,81.01276321605506,84.19326722487985,43.09678020370582,46.2772842125306,40
425.0,87.8,87.23493723898109,80.84381352828278,84.07087992920795,43.16405730977314,46.39112371069831,40
437.0,87.8,87.21493204801034,80.68096245152877,83.99415185294158,43.220780195068755,46.53396959648157,40
450.0,87.8,87.16196660675347,80.48690895484023,83.85619606924594,43.30577053750753,46.675057651913235,40
462.0,87.7,87.06462247339661,80.26273699990998,83.67727967433125,43.387342799065365,46.801885473486635,40
475.0,87.6,86.95274021986984,80.03450232794803,83.49973974229025,43.45300047757959,46.918237891921805,40
487.0,87.5,86.8648988595621,79.80723806992732,83.30979111205099,43.555107747511116,47.05766078963478,40
500.0,87.5,86.82316561966823,79.63707858668717,83.18528926176735,43.63787635790088,47.186087032981064,40
515.0,87.39999999999999,86.76597921339558,79.50442397526248,83.08432379908797,43.68165541430761,47.2615552381331,40
530.0,87.39999999999999,86.75671887100167,79.40328576748266,83.01297138868243,43.743747482319236,47.35343310351901,40
545.0,87.3,86.71193231805498,79.31732351848386,82.92871329764374,43.78321902041124,47.39460879957112,40
560.0,87.3,86.74421560162631,79.32313322674243,82.92475354858314,43.81946205304317,47.42108237488388,40
580.0,87.09999999999998,86.57805794634156,79.11991028607666,82.71924054009092,43.85881740625064,47.4581476602649,40
600.0,86.9,86.38042974455374,78.91095749436322,82.51782828306219,43.86260146149155,47.46947225019052,40
615.0,86.8,86.22715816134216,78.75479088560378,82.34801490805731,43.87914325328485,47.47236727573838,40
630.0,86.6,86.06326918404226,78.59963476527983,82.20328659507324,43.85998258896902,47.463634418762425,40
650.0,86.8,86.12233954330544,78.6310433111214,82.23443218610744,43.887907357198,47.49129623218404,40
670.0,87.00000000000001,86.31216672870217,78.77990290887898,82.39179424464021,43.92037248406196,47.532263819823186,40
690.0,87.39999999999999,86.63863118333315,79.04188002552345,82.6488341507103,43.989797032622846,47.59675115780969,40
710.0,87.8,86.918332747643,79.23643591708576,82.83830825245586,44.080024495187146,47.68189683055725,40
730.0,88.0,87.09950996161142,79.30504611430251,82.89534977129777,44.204160190313644,47.794463847308904,40
750.0,88.10000000000001,87.18963092258751,79.25502925105656,82.85566094817246,44.333969974415055,47.934601671530956,40
775.0,88.10000000000001,87.13950518563965,79.0880818238897,82.73997588903174,44.39952929660791,48.051423361749954,40
800.0,88.0,87.09421236417826,78.95328644691853,82.63685997483776,44.4573523893405,48.140925917259736,40
825.0,88.10000000000001,87.19555421511315,78.99588153723651,82.75918722301465,44.4363669920985,48.199672677876634,40
850.0,88.2,87.3062860741522,79.07077431762984,82.89293913222247,44.41334694192973,48.23551175652236,40
875.0,88.2,87.33091155504631,79.07520134526028,82.96024258366344,44.37066897138287,48.25571020978603,40
900.0,88.0,87.1611458785418,78.87151316881466,82.8071161127489,44.3540297657929,48.289632709727144,40
925.0,87.7,86.90909433197403,78.56657235680721,82.55348295863189,44.35561137334214,48.34252197516682,40
950.0,87.5,86.64681594685526,78.23893246259092,82.2870421702959,44.35977377655935,48.40788348426433,40
975.0,87.39999999999999,86.55844391843523,78.08693957257483,82.19166846527736,44.36677545315787,48.471504345860396,40
1000.0,87.5,86.6181411997851,78.12519500798452,82.27651189201102,44.341629307774085,48.492946191800584,40
1030.0,87.6,86.696829438218,78.173083516231,82.36959691351728,44.32723252470072,48.523745921987,40
1060.0,87.6,86.65321300113904,78.12665705987261,82.35287317834955,44.30033982278948,48.52655594126642,40
1090.0,87.39999999999999,86.45268969478302,77.98379385446815,82.20807556757073,44.24461412721229,48.46889584031487,40
1120.0,87.2,86.27154489586344,77.88725878002916,82.09087334848827,44.18067154737517,48.384286115834286,40
1150.0,87.09999999999998,86.09918962178354,77.85918081347792,82.02069596649973,44.07849365528381,48.24000880830562,40
1180.0,86.7,85.79453630112727,77.789767535242,81.86637574277157,43.9281605583557,48.00476876588526,40
1220.0,86.3,85.38558012825807,77.64999584610922,81.6182680102581,43.767312117999964,47.73558428214885,40
1250.0,85.90000000000002,84.97688500689237,77.51606515765837,81.36369772789512,43.61318727899726,47.460819849234,40
1280.0,85.60000000000001,84.62963474696652,77.43009050575097,81.17393319344276,43.45570155352375,47.19954424121555,40
1320.0,85.2,84.22838125050417,77.32742248666194,80.94033855120674,43.288042699297435,46.900958763842226,40
1360.0,84.89999999999999,83.909157632049,77.22689514248373,80.7580350531505,43.15112257889851,46.682262489565275,40
1400.0,84.89999999999999,83.83901315063726,77.27770375460479,80.79819914705477,43.04081400358248,46.56130939603247,40
1450.0,85.2,84.04543567257387,77.47318807076176,81.05728355364387,42.98815211893,46.57224760181211,40
1500.0,85.7,84.38958263945689,77.70931130733089,81.41101739057801,42.97856524887888,46.680271332126,40
1550.0,85.99999999999999,84.65314852474722,77.86221488886343,81.67500559257977,42.97814293216746,46.79093363588379,40
1600.0,86.1,84.66188920102591,77.74219353456787,81.63069032311597,43.031198877909944,46.91969566645804,40
1650.0,86.3,84.8261224320561,77.79754329033896,81.76526834280361,43.06085408925249,47.02857914171713,40
1700.0,86.5,84.98057759849843,77.81278237799266,81.82337938919503,43.1571982093034,47.16779522050577,40
1750.0,86.6,85.12215812683908,77.84516440441502,81.87682932613201,43.24532880070707,47.276993722424066,40
1800.0,86.7,85.29624600434269,77.89011297675799,81.92166883244676,43.374577171895936,47.4061330275847,40
1850.0,86.9,85.58003713881968,77.99432457902392,82.04194689513436,43.53809024368532,47.58571255979575,40
1900.0,87.00000000000001,85.8385914751236,78.07499819665195,82.11341706180771,43.725174413315884,47.763593278471646,40
1950.0,87.09999999999998,86.07457003822304,78.11846785177725,82.1700305129164,43.904539525306646,47.95610218644579,40
2000.0,87.3,86.4249293623228,78.2999047117731,82.37929710501945,44.04563225730335,48.125024650549705,40
2060.0,87.6,86.7849843732767,78.4776062671451,82.59190955103335,44.19307482224335,48.307378106131594,40
2120.0,87.8,87.16355962850778,78.6957770414649,82.85821257728556,44.30534705122223,48.46778258704289,40
2180.0,88.0,87.43757455421098,78.817645635245,83.02713620739827,44.41043834681271,48.61992891896598,40
2240.0,87.9,87.36468148801067,78.62496090754836,82.87750856518522,44.48717292282545,48.73972058046232,40
2300.0,87.39999999999999,86.92840085738244,78.1065587207949,82.38777524979014,44.540625607592304,48.82184213658755,40
2360.0,86.9,86.3599300078819,77.42395613909146,81.75652537212616,44.60340463575574,48.93597386879044,40
2400.0,86.3,85.73287679069063,76.69450949681577,81.05739010638545,44.67548668430517,49.038367293874856,40
2500.0,86.2,85.47094478778135,76.33567372789052,80.72402996762662,44.74691482015473,49.135271059890826,40
2580.0,86.7,85.72867511853319,76.42932969385772,80.86787400872892,44.86080110980427,49.299345424675465,40
2650.0,87.3,86.09207038306126,76.63780273375224,81.11007114845509,44.981999234606164,49.45426764930902,40
2720.0,87.7,86.22219863554567,76.6285026789041,81.12308416159026,45.09911447395541,49.59369595664157,40
2800.0,87.8,86.09159392923029,76.4373543753822,80.94445543069236,45.14713849853793,49.654239553848086,40
2900.0,87.7,85.83454334722713,76.1900369532196,80.67132700111152,45.163216346115604,49.64450639400752,40
3000.0,87.7,85.68785540728753,76.14192512553417,80.58060821164612,45.107247195641406,49.54593028175336,40
3070.0,87.8,85.65642047946288,76.22837289114614,80.61211619020199,45.04430428926089,49.428047588316744,40
3150.0,87.8,85.58069054528616,76.33064185185994,80.66707335381248,44.913617191473676,49.25004869342622,40
3250.0,87.5,85.3633583583656,76.30679260167746,80.5790163335568,44.78434202480881,49.056565756688144,40
3350.0,87.00000000000001,85.02249837966814,76.20524770559912,80.40944060302475,44.61305777664339,48.817250674069015,40
3450.0,86.7,84.97152766554635,76.39540883845608,80.52054088299364,44.450986782552704,48.57611882709027,40
3550.0,86.9,85.43736880422746,77.03103637249704,81.1077897930734,44.32957901115407,48.40633243173042,40
3650.0,86.9,85.7316667895185,77.45530155112414,81.4836690532939,44.247997736224605,48.27636523839436,40
3750.0,86.3,85.60608518313204,77.42160184716428,81.40365028815043,44.20243489498161,48.184483335967755,40
3870.0,85.60000000000001,85.3636834952233,77.21607625441614,81.18029252490459,44.18339097031871,48.14760724080716,40
4000.0,85.2,85.4208436936252,77.29763333783413,81.2496321981816,44.1712114954436,48.12321035579107,40
4120.0,84.4,85.096192731271,76.96004660030304,80.92042229632109,44.17577043494991,48.13614613096796,40
4250.0,83.0,84.17673464050982,76.00465052796922,79.98130136242447,44.195433278085346,48.1720841125406,40
4370.0,82.39999999999999,83.9449327620063,75.75383514645155,79.73903015355351,44.20590260845279,48.19109761555475,40
4500.0,83.0,84.76020756669864,76.57391426469445,80.5647007686592,44.195506798039446,48.18629330200419,40
