Freq,On Axis,Listening Window,Sound Power,Early Reflections,Early Reflections DI,Sound Power DI,DI offset
22.4,37.000000000000014,37.2326643702218,36.813044509167625,37.04709228272246,40.18557208749934,40.41961986105417,40
23.0,39.10000000000001,39.343063107523946,38.90634893256636,39.143728977166134,40.19933413035781,40.43671417495759,40
23.6,41.2,41.433765111398046,41.008046065578455,41.24522348276177,40.18854162863627,40.42571904581959,40
24.0,43.3,43.48599415916628,43.0675546706875,43.29759397871216,40.188400180454124,40.41843948847878,40
25.0,45.39999999999999,45.585994159166276,45.138101850041764,45.3746696770023,40.211324482163974,40.44789230912451,40
25.8,47.500000000000014,47.658159323422936,47.2019929359697,47.444958663418404,40.21320066000453,40.45616638745324,40
26.5,49.60000000000001,49.69965781245098,49.23614847041428,49.476469193201964,40.223188619249015,40.4635093420367,40
27.2,51.7,51.77254426950334,51.2873346235839,51.523960950839566,40.248583318663776,40.48520964591944,40
28.0,53.7,53.77739658593272,53.31033883264827,53.547842401751765,40.229554184180955,40.46705775328445,40
29.0,55.8,55.81967023498562,55.339897376121556,55.58116745566902,40.238502779316605,40.47977285886407,40
30.0,57.8,57.804885725259524,57.31985169201381,57.56193273686405,40.24295298839547,40.48503403324571,40
30.7,59.8,59.804885725259524,59.30712220732529,59.55072515687969,40.25416056837983,40.49776351793423,40
31.5,61.8,61.74366865900333,61.258776725914586,61.491892967129786,40.25177569187355,40.48489193308875,40
32.5,63.7,63.64366865900335,63.17331759401242,63.40467434760272,40.23899431140063,40.470351064990936,40
33.5,65.60000000000001,65.51919757577971,65.0320973189546,65.25728727031472,40.261910305464994,40.487100256825116,40
34.5,67.39999999999999,67.27409557510998,66.8099037468789,67.03398733959862,40.24010823551136,40.46419182823108,40
35.5,69.1,68.99514956441722,68.53165411436943,68.76625043915571,40.228899125261506,40.46349545004779,40
36.5,70.7,70.62728598965025,70.16407938112467,70.38885400499511,40.238431984655136,40.46320660852558,40
37.5,72.2,72.10383070446504,71.66037822510923,71.8875645679171,40.216266136547944,40.44345247935581,40
38.7,73.6,73.43843522821145,73.02452723548718,73.2467930707097,40.19164215750175,40.41390799272426,40
40.0,74.89999999999999,74.69232378076667,74.24692630585828,74.4716263516748,40.22069742909187,40.44539747490839,40
41.2,75.90000000000002,75.75966238205538,75.33109528094535,75.55258670931019,40.20707567274519,40.42856710111003,40
42.5,76.9,76.69232378076666,76.26636832597809,76.49335356210774,40.198970218658914,40.425955454788564,40
43.7,77.7,77.52549360620402,77.08717058885257,77.31659470297245,40.20889890323157,40.43832301735145,40
45.0,78.40000000000002,78.28078628768831,77.81663921123855,78.03966252068797,40.241123767000346,40.46414707644976,40
46.2,79.1,78.92549360620403,78.48070966982597,78.71859598652442,40.20689761967961,40.44478393637806,40
47.5,79.8,79.59232378076666,79.1151222964092,79.35254224863968,40.23978153212698,40.477201484357465,40
48.7,80.4,80.21377695707034,79.72435054112006,79.97669397060065,40.23708298646969,40.48942641595028,40
50.0,80.99999999999999,80.85814767076572,80.35496254193691,80.61142609533434,40.24672157543138,40.503185128828804,40
51.5,81.7,81.53512468018192,80.98573769502465,81.25766635264128,40.27745832754064,40.54938698515727,40
53.0,82.39999999999999,82.19232378076667,81.6368724972795,81.90911931403711,40.28320446672956,40.55545128348717,40
54.5,83.0,82.88078628768831,82.29911910105345,82.5903016972188,40.290484590469504,40.58166718663486,40
56.0,83.7,83.54678395455404,82.95602514605434,83.26027892545632,40.286505029097725,40.5907588084997,40
58.0,84.4,84.23512468018191,83.59129091416558,83.90169213170698,40.33343254847493,40.64383376601633,40
60.0,85.0,84.83512468018192,84.1573166953995,84.48649163123264,40.34863304894928,40.67780798478242,40
61.5,85.5,85.34678395455404,84.69454186249496,85.00621919558299,40.340564758971055,40.65224209205908,40
63.0,85.99999999999999,85.83512468018192,85.16527223936659,85.50109993298155,40.334024747200374,40.66985244081533,40
65.0,86.4,86.23461706421345,85.55131944543031,85.89029569438104,40.344321369832414,40.68329761878314,40
67.0,86.7,86.57849019712911,85.87967218828467,86.22064407212017,40.35784612500895,40.69881800884444,40
69.0,86.9,86.83384961566283,86.113743618714,86.45477025060603,40.379079365056796,40.72010599694883,40
71.0,87.09999999999998,87.0224220592052,86.2925823010275,86.63746315472403,40.38495890448117,40.729839758177704,40
73.0,87.2,87.12242205920518,86.39874774514666,86.75010959812842,40.37231246107676,40.72367431405851,40
75.0,87.2,87.18925841531062,86.47509696546958,86.81390252040543,40.375355894905184,40.71416144984104,40
77.5,87.3,87.2669218511605,86.49579570767509,86.85198061311085,40.41494123804965,40.77112614348542,40
80.0,87.2,87.24498217571202,86.45529836621735,86.81486472450075,40.430117451211274,40.789683809494676,40
82.5,87.2,87.18951489542683,86.37663246523898,86.73626820794227,40.45324668748455,40.81288243018784,40
85.0,87.09999999999998,87.15660903212371,86.28123807177768,86.67080941047857,40.48579962164514,40.87537096034603,40
87.5,87.00000000000001,87.05660903212372,86.13278105397421,86.53706685218869,40.51954217993503,40.923827978149504,40
90.0,86.8,86.95840626553016,85.96169267465449,86.38161259979846,40.5767936657317,40.99671359087567,40
92.5,86.7,86.83511890314065,85.77049238038529,86.21402601496705,40.62109288817361,41.06462652275536,40
95.0,86.5,86.68104353801405,85.58326938723461,86.0534011468184,40.62764239119565,41.09777415077944,40
97.5,86.4,86.54755528725396,85.37499371741342,85.86693525849914,40.68062002875482,41.17256156984054,40
100.0,86.2,86.38104353801405,85.14917580077852,85.66087261035203,40.720170927662025,41.23186773723553,40
103.0,86.1,86.23614577890791,84.9495142608473,85.49323228197424,40.74291349693367,41.28663151806062,40
106.0,85.99999999999999,86.04702526593913,84.72896157031181,85.3008675246342,40.74615774130493,41.318063695627316,40
109.0,85.8,85.89181697201371,84.50977380276295,85.11298526361871,40.778831708395,41.382043169250764,40
112.0,85.7,85.76923593171053,84.292759945945,84.92707785853842,40.8421580731721,41.47647598576553,40
115.0,85.60000000000001,85.59156062781862,84.05387123028821,84.74601527739044,40.84554535042818,41.537689397530414,40
118.0,85.5,85.39156646309318,83.79402119510051,84.51852014278423,40.87304632030896,41.59754526799267,40
122.0,85.3,85.2030753908739,83.51969775945612,84.28692796673866,40.91614742413525,41.683377631417784,40
125.0,85.2,85.0053651501979,83.2015489470021,84.03286339898783,40.972501751210075,41.80381620319581,40
128.0,85.0,84.81632192197962,82.87172972792327,83.76336145727974,41.05296046469988,41.944592194056355,40
132.0,84.89999999999999,84.61712878547779,82.53919581354525,83.50208928846094,41.11503949701685,42.07793297193254,40
136.0,84.7,84.45115294089527,82.18728856846853,83.21885928319662,41.23229365769865,42.26386437242674,40
140.0,84.59999999999998,84.24082673270324,81.83020045136449,82.91793180845582,41.32289492424742,42.41062628133875,40
145.0,84.4,84.1179540083784,81.52297359836844,82.6833405239973,41.4346134843811,42.59498041000997,40
150.0,84.3,83.96464312900439,81.2217621995869,82.43442649790654,41.530216631097844,42.74288092941748,40
155.0,84.2,83.87472550430083,80.95810415840619,82.21714027916225,41.657585225138575,42.91662134589464,40
160.0,84.1,83.7996394212825,80.72364931792718,82.00741279428838,41.79222662699412,43.07599010335532,40
165.0,84.0,83.75522079074791,80.5472133267788,81.8574334954102,41.89778729533771,43.20800746396911,40
170.0,84.0,83.72272049964461,80.41719925624334,81.71589069452824,42.00682980511637,43.30552124340127,40
175.0,83.9,83.73589401158046,80.32119489516258,81.62761363377861,42.10828037780185,43.41469911641788,40
180.0,83.9,83.7486018828053,80.25435590340422,81.54062958079972,42.20797230200559,43.494245979401086,40
185.0,83.9,83.78921157198195,80.19349787561727,81.47481879763721,42.31439277434474,43.59571369636468,40
190.0,83.9,83.82578790357812,80.15682397106184,81.42363496431565,42.402152939262464,43.66896393251628,40
195.0,83.9,83.84491684957023,80.1142368740517,81.36182589174503,42.4830909578252,43.73067997551853,40
200.0,83.9,83.89605269488176,80.06363574848503,81.3075701670713,42.588482527810456,43.832416946396734,40
206.0,84.0,83.94564709970243,80.00708476163561,81.263806756121,42.68184034358143,43.938562338066816,40
212.0,84.0,83.95152962231539,79.93232140545916,81.18292672362621,42.76860289868918,44.01920821685623,40
218.0,84.1,83.96920553344172,79.89818869733256,81.13309820476852,42.83610732867321,44.071016836109166,40
224.0,84.1,83.99853494027667,79.86060949821929,81.09161693924023,42.906918001036445,44.13792544205738,40
230.0,84.2,84.01076534214165,79.82116080861127,81.04118081110055,42.96958453104111,44.189604533530385,40
236.0,84.2,84.04141389375357,79.82127274605726,81.02982628728309,43.011587606470485,44.22014114769631,40
240.0,84.3,84.10639051228476,79.83066843848142,81.03817993292249,43.06821057936227,44.27572207380334,40
250.0,84.4,84.16409170921473,79.85269598982391,81.04649231659076,43.11759939262397,44.311395719390816,40
258.0,84.4,84.2412032183787,79.91433544435355,81.09357594605653,43.14762727232217,44.326867774025146,40
265.0,84.50000000000001,84.2844793224471,79.95898255828965,81.12319803861057,43.16128128383653,44.32549676415745,40
272.0,84.59999999999998,84.37403452397244,80.00718533535489,81.1703255270143,43.20370899695814,44.36684918861755,40
280.0,84.59999999999998,84.4524233267776,80.07335992318328,81.22208253132601,43.230340795451596,44.37906340359433,40
290.0,84.7,84.49286460735685,80.09785318515436,81.2335354337603,43.259329173596555,44.39501142220249,40
300.0,84.7,84.54901314056535,80.15141282940299,81.25197440883784,43.29703873172751,44.397600311162364,40
307.0,84.7,84.54025599978776,80.15125430402345,81.21047535503455,43.329780644753214,44.38900169576431,40
315.0,84.7,84.4906761042928,80.15108445416581,81.1456230507517,43.34505305354111,44.33959165012699,40
325.0,84.59999999999998,84.42531672604504,80.13122332265739,81.05470032397214,43.3706164020729,44.29409340338765,40
335.0,84.50000000000001,84.2983056576901,80.08334520310854,80.94067542992593,43.35763022776416,44.21496045458156,40
345.0,84.4,84.17226114952125,79.9907585249397,80.80064810713034,43.371613042390905,44.181502624581555,40
355.0,84.2,83.97226114952126,79.88343464862277,80.641788878203,43.33047227131826,44.08882650089849,40
365.0,84.1,83.80036604908264,79.74360815399281,80.47295760094138,43.327408448141256,44.05675789508983,40
375.0,83.9,83.62780447042641,79.61050347868998,80.33808960402779,43.289714866398626,44.017300991736434,40
387.0,83.7,83.41985849023312,79.46027835304928,80.1937517876183,43.22610670261483,43.95958013718385,40
400.0,83.6,83.26313657594055,79.34102823420152,80.10380815544015,43.1593284205004,43.92210834173903,40
412.0,83.49999999999999,83.1518843573373,79.23106788732719,80.04902620860032,43.10285814873697,43.92081647001011,40
425.0,83.40000000000002,83.08263721844007,79.14059014114167,80.01369003825587,43.068947180184196,43.9420470772984,40
437.0,83.3,83.04051703242935,79.05357339743962,80.02190468843581,43.01861234399354,43.98694363498973,40
450.0,83.3,83.02115217461434,78.96785654757288,80.04560982577415,42.97554234884019,44.053295627041464,40
462.0,83.3,83.02115217461434,78.88475550522277,80.07983411262978,42.94131806198456,44.13639666939157,40
475.0,83.3,83.03449277526936,78.76996695139997,80.10619587808586,42.9282968971835,44.26452582386939,40
487.0,83.3,83.03015232473129,78.6631614969364,80.14270131296995,42.88745101176134,44.36699082779489,40
500.0,83.3,83.06781870791663,78.54964180871134,80.19010164382503,42.8777170640916,44.51817689920529,40
515.0,83.40000000000002,83.0678949622152,78.42407972263416,80.21181801414149,42.85607694807372,44.643815239581045,40
530.0,83.40000000000002,83.08416487624105,78.32846965680417,80.24060747911771,42.843557397123334,44.75569521943687,40
545.0,83.40000000000002,83.07035324776814,78.22865904636892,80.24201385661758,42.828339391150564,44.84169420139922,40
560.0,83.40000000000002,83.00538242779183,78.12543437402003,80.19341650310865,42.81196592468318,44.8799480537718,40
580.0,83.3,82.95869946157522,78.00149377347772,80.12490778066893,42.83379168090629,44.9572056880975,40
600.0,83.3,82.89927555118268,77.8767791725874,80.02838022362667,42.87089532755601,45.02249637859528,40
615.0,83.2,82.80483507689875,77.7047946383904,79.87090249826682,42.93393257863194,45.10004043850836,40
630.0,83.2,82.70199276878363,77.52325317390113,79.69888042880336,43.00311233998026,45.1787395948825,40
650.0,83.10000000000001,82.5917532412077,77.34147009585375,79.52200527558058,43.069747965627116,45.25028314535395,40
670.0,83.0,82.54170250689707,77.19647360293467,79.38557962852948,43.15612287836758,45.34522890396239,40
690.0,83.0,82.4643193745942,77.05874451212448,79.23929253124501,43.225026843349184,45.40557486246972,40
710.0,83.0,82.45426088589507,76.96499040478706,79.11268538199685,43.34157550389821,45.48927048110801,40
730.0,83.10000000000001,82.52793444251041,76.94629768424512,79.0284754783813,43.49945896412912,45.58163675826529,40
750.0,83.2,82.624085299142,76.99029979913549,78.95140158300337,43.67268371613862,45.63378550000651,40
775.0,83.40000000000002,82.84054415391552,77.10927034569686,78.94704868677849,43.89349546713703,45.73127380821866,40
800.0,83.6,83.01781400736722,77.24777673723803,78.96737710484686,44.05043690252036,45.770037270129194,40
825.0,83.8,83.16669809465652,77.33918798056705,78.98886725886264,44.177830835793884,45.82751011408948,40
850.0,83.9,83.28730652777973,77.36516985520753,79.01537933550784,44.27192719227189,45.92213667257221,40
875.0,83.9,83.32381548750779,77.28021023740212,78.96452882921314,44.35928665829465,46.04360525010567,40
900.0,83.9,83.27540428873887,77.06501745870868,78.8520025104509,44.42340177828797,46.21038683003019,40
925.0,83.8,83.20972450816463,76.76576716910044,78.70261406590289,44.507110442261734,46.443957339064184,40
950.0,83.7,83.10306986789584,76.38167222695529,78.51864464219877,44.584425225697075,46.72139764094055,40
975.0,83.6,82.94945023583288,75.97962740077476,78.31483386088443,44.63461637494845,46.969822835058125,40
1000.0,83.40000000000002,82.81183618182415,75.60673337324779,78.13343691198753,44.67839926983662,47.205102808576356,40
1030.0,83.3,82.7292162898646,75.35393537313267,78.03308527675456,44.69613101311003,47.375280916731924,40
1060.0,83.2,82.67558420375549,75.16867985666138,77.97867332877378,44.69691087498171,47.50690434709411,40
1090.0,83.2,82.62641879588621,75.01414324953718,77.91828057533408,44.70813822055213,47.612275546349025,40
1120.0,83.2,82.60599313659611,74.90034550823854,77.88262188571007,44.723371250886046,47.70564762835757,40
1150.0,83.2,82.58844292660535,74.80830572905833,77.8523791909084,44.73606373569696,47.78013719754702,40
1180.0,83.2,82.59121121699644,74.70404011168657,77.7996459950397,44.791565221956745,47.887171105309875,40
1220.0,83.2,82.59610592835558,74.61870977961925,77.75070568693347,44.84540024142211,47.97739614873633,40
1250.0,83.2,82.60347766084084,74.53627564967879,77.71399644260883,44.88948121823201,48.06720201116205,40
1280.0,83.2,82.55310665969013,74.47509117909854,77.69165263429139,44.86145402539874,48.07801548059159,40
1320.0,83.10000000000001,82.51131574045296,74.41349648999619,77.67142956566165,44.8398861747913,48.097819250456766,40
1360.0,83.10000000000001,82.50802805643865,74.37042163312583,77.66003058022577,44.84799747621288,48.13760642331282,40
1400.0,83.2,82.56500868009199,74.3588495550792,77.67216233009196,44.89284635000003,48.20615912501279,40
1450.0,83.2,82.5853883070275,74.32397252331614,77.61674235812505,44.96864594890245,48.26141578371136,40
1500.0,83.2,82.58618518398217,74.30100613089928,77.53751328304234,45.04867190093982,48.285179053082885,40
1550.0,83.3,82.64482028324788,74.315324775195,77.51960340797181,45.12521687527607,48.32949550805289,40
1600.0,83.40000000000002,82.70070362848959,74.35407145692749,77.5155560493186,45.18514757917099,48.346632171562106,40
1650.0,83.49999999999999,82.78937840206254,74.4188325567481,77.54614160688469,45.24323679517785,48.37054584531444,40
1700.0,83.6,82.88305233613485,74.49888968605144,77.60758360896298,45.27546872717187,48.38416265008341,40
1750.0,83.6,82.92107941618544,74.5131042025247,77.63215281551646,45.28892660066897,48.407975213660734,40
1800.0,83.7,82.96037730657976,74.47843170374937,77.64149683219414,45.31888047438562,48.48194560283039,40
1850.0,83.8,82.99079115807959,74.39961772578381,77.6579869998676,45.332804158211985,48.591173432295776,40
1900.0,83.8,83.00050209445865,74.30878824351414,77.64478207783031,45.35572001662834,48.69171385094451,40
1950.0,83.8,82.98849517208873,74.2210190970349,77.6271780560371,45.36131711605164,48.767476075053835,40
2000.0,83.8,82.97653193000382,74.12932769298043,77.58877981142199,45.38775211858183,48.84720423702339,40
2060.0,83.8,82.93425181427631,74.0710399570025,77.55587988539875,45.378371928877556,48.86321185727381,40
2120.0,83.8,82.89579166014877,74.0318526042554,77.52860259309521,45.36718906705356,48.86393905589337,40
2180.0,83.8,82.85702479089603,73.99820184698383,77.50931600878924,45.34770878210679,48.8588229439122,40
2240.0,83.8,82.84096027718248,74.01378317071536,77.5148981825072,45.32606209467528,48.82717710646712,40
2300.0,83.8,82.81485662006115,74.01361589709427,77.50877033541686,45.306086284644294,48.80124072296688,40
2360.0,83.8,82.82722587605674,74.05229665666297,77.5217678878923,45.30545798816445,48.77492921939377,40
2400.0,83.8,82.8659979473738,74.11828946928303,77.57104162582138,45.29495632155242,48.74770847809077,40
2500.0,83.9,82.87310987722705,74.19430501650878,77.61664461469039,45.256465262536665,48.67880486071827,40
2580.0,84.0,82.95606822127836,74.28328633253615,77.70403968617221,45.25202853510615,48.67278188874221,40
2650.0,84.1,83.02920448182351,74.38960213547215,77.80815150037284,45.22105298145067,48.63960234635137,40
2720.0,84.2,83.11455633345903,74.49475420436053,77.91649120631,45.198065127149036,48.6198021290985,40
2800.0,84.3,83.18631523273639,74.57949491245434,78.02046321002696,45.16585202270943,48.606820320282054,40
2900.0,84.4,83.27110639530521,74.65754233002234,78.12417887645758,45.14692751884763,48.61356406528287,40
3000.0,84.4,83.34703417608644,74.73325630194773,78.22448410174222,45.12255007434422,48.613777874138705,40
3070.0,84.50000000000001,83.39347622574648,74.78697927384032,78.29524140932737,45.09823481641911,48.606496951906166,40
3150.0,84.50000000000001,83.46825105187207,74.83589781240856,78.3635821221426,45.10466892972947,48.63235323946351,40
3250.0,84.50000000000001,83.46342487125976,74.83960941766428,78.37931008059486,45.0841147906649,48.62381545359548,40
3350.0,84.50000000000001,83.49798779423736,74.84740748175888,78.40506369823838,45.09292409599898,48.65058031247848,40
3450.0,84.50000000000001,83.4763337617493,74.82770910363134,78.39923095553353,45.07710280621578,48.64862465811797,40
3550.0,84.4,83.47561914165803,74.80877372148825,78.39132006404911,45.08429907760892,48.66684542016978,40
3650.0,84.4,83.45221825810115,74.76672946486586,78.37252999913328,45.07968825896788,48.685488793235294,40
3750.0,84.3,83.42152449030321,74.6869807554655,78.33847638797089,45.08304810233233,48.734543734837715,40
3870.0,84.2,83.36717288906193,74.59773869499797,78.28233697263708,45.08483591642485,48.76943419406396,40
4000.0,84.1,83.34078361955997,74.5003062653104,78.23841125026878,45.10237236929119,48.84047735424957,40
4120.0,84.0,83.29082450807267,74.38361009077335,78.16129969212447,45.1295248159482,48.90721441729933,40
4250.0,84.0,83.28196942875213,74.28705492809635,78.11412614448622,45.16784328426591,48.99491450065578,40
4370.0,83.9,83.23596660368035,74.19731467796733,78.0298394381332,45.20612716554716,49.038651925713026,40
4500.0,83.8,83.22924917050652,74.1225173665678,77.96139455851872,45.2678546119878,49.106731803938715,40
