Freq "On Axis"
22.4 37.477215189873434
23.0 39.57721518987343
23.6 41.67721518987342
24.0 43.77721518987342
25.0 45.87721518987341
25.8 47.977215189873434
26.5 50.07721518987343
27.2 52.17721518987342
28.0 54.17721518987342
29.0 56.27721518987342
30.0 58.27721518987342
30.7 60.27721518987342
31.5 62.27721518987342
32.5 64.17721518987342
33.5 66.07721518987343
34.5 67.87721518987341
35.5 69.57721518987341
36.5 71.17721518987342
37.5 72.67721518987342
38.7 74.07721518987341
40.0 75.37721518987341
41.2 76.37721518987344
42.5 77.37721518987343
43.7 78.17721518987342
45.0 78.87721518987344
46.2 79.57721518987341
47.5 80.27721518987342
48.7 80.87721518987343
50.0 81.4772151898734
51.5 82.17721518987342
53.0 82.87721518987341
54.5 83.47721518987342
56.0 84.17721518987342
58.0 84.87721518987343
60.0 85.47721518987342
61.5 85.97721518987342
63.0 86.4772151898734
65.0 86.87721518987343
67.0 87.17721518987342
69.0 87.37721518987343
71.0 87.5772151898734
73.0 87.67721518987342
75.0 87.67721518987342
77.5 87.77721518987342
80.0 87.67721518987342
82.5 87.67721518987342
85.0 87.5772151898734
87.5 87.47721518987343
90.0 87.27721518987342
92.5 87.17721518987342
95.0 86.97721518987342
97.5 86.87721518987343
100.0 86.67721518987342
103.0 86.57721518987341
106.0 86.4772151898734
109.0 86.27721518987342
112.0 86.17721518987342
115.0 86.07721518987343
118.0 85.97721518987342
122.0 85.77721518987342
125.0 85.67721518987342
128.0 85.47721518987342
132.0 85.37721518987341
136.0 85.17721518987342
140.0 85.0772151898734
145.0 84.87721518987343
150.0 84.77721518987342
155.0 84.67721518987342
160.0 84.57721518987341
165.0 84.47721518987342
170.0 84.47721518987342
175.0 84.37721518987343
180.0 84.37721518987343
185.0 84.37721518987343
190.0 84.37721518987343
195.0 84.37721518987343
200.0 84.37721518987343
206.0 84.47721518987342
212.0 84.47721518987342
218.0 84.57721518987341
224.0 84.57721518987341
230.0 84.67721518987342
236.0 84.67721518987342
240.0 84.77721518987342
250.0 84.87721518987343
258.0 84.87721518987343
265.0 84.97721518987343
272.0 85.0772151898734
280.0 85.0772151898734
290.0 85.17721518987342
300.0 85.17721518987342
307.0 85.17721518987342
315.0 85.17721518987342
325.0 85.0772151898734
335.0 84.97721518987343
345.0 84.87721518987343
355.0 84.67721518987342
365.0 84.57721518987341
375.0 84.37721518987343
387.0 84.17721518987342
400.0 84.07721518987341
412.0 83.9772151898734
425.0 83.87721518987344
437.0 83.77721518987342
450.0 83.77721518987342
462.0 83.77721518987342
475.0 83.77721518987342
487.0 83.77721518987342
500.0 83.77721518987342
515.0 83.87721518987344
530.0 83.87721518987344
545.0 83.87721518987344
560.0 83.87721518987344
580.0 83.77721518987342
600.0 83.77721518987342
615.0 83.67721518987342
630.0 83.67721518987342
650.0 83.57721518987343
670.0 83.47721518987342
690.0 83.47721518987342
710.0 83.47721518987342
730.0 83.57721518987343
750.0 83.67721518987342
775.0 83.87721518987344
800.0 84.07721518987341
825.0 84.27721518987342
850.0 84.37721518987343
875.0 84.37721518987343
900.0 84.37721518987343
925.0 84.27721518987342
950.0 84.17721518987342
975.0 84.07721518987341
1000.0 83.87721518987344
1030.0 83.77721518987342
1060.0 83.67721518987342
1090.0 83.67721518987342
1120.0 83.67721518987342
1150.0 83.67721518987342
1180.0 83.67721518987342
1220.0 83.67721518987342
1250.0 83.67721518987342
1280.0 83.67721518987342
1320.0 83.57721518987343
1360.0 83.57721518987343
1400.0 83.67721518987342
1450.0 83.67721518987342
1500.0 83.67721518987342
1550.0 83.77721518987342
1600.0 83.87721518987344
1650.0 83.9772151898734
1700.0 84.07721518987341
1750.0 84.07721518987341
1800.0 84.17721518987342
1850.0 84.27721518987342
1900.0 84.27721518987342
1950.0 84.27721518987342
2000.0 84.27721518987342
2060.0 84.27721518987342
2120.0 84.27721518987342
2180.0 84.27721518987342
2240.0 84.27721518987342
2300.0 84.27721518987342
2360.0 84.27721518987342
2400.0 84.27721518987342
2500.0 84.37721518987343
2580.0 84.47721518987342
2650.0 84.57721518987341
2720.0 84.67721518987342
2800.0 84.77721518987342
2900.0 84.87721518987343
3000.0 84.87721518987343
3070.0 84.97721518987343
3150.0 84.97721518987343
3250.0 84.97721518987343
3350.0 84.97721518987343
3450.0 84.97721518987343
3550.0 84.87721518987343
3650.0 84.87721518987343
3750.0 84.77721518987342
3870.0 84.67721518987342
4000.0 84.57721518987341
4120.0 84.47721518987342
4250.0 84.47721518987342
4370.0 84.37721518987343
4500.0 84.27721518987342
4620.0 84.27721518987342
4750.0 84.17721518987342
4870.0 84.17721518987342
5000.0 84.17721518987342
5150.0 84.17721518987342
5300.0 84.07721518987341
5450.0 84.07721518987341
5600.0 84.07721518987341
5800.0 84.07721518987341
6000.0 84.07721518987341
6150.0 83.9772151898734
6300.0 83.87721518987344
6500.0 83.87721518987344
6700.0 83.67721518987342
6900.0 83.57721518987343
7100.0 83.47721518987342
7300.0 83.37721518987343
7500.0 83.27721518987342
7750.0 83.17721518987342
8000.0 83.07721518987341
8250.0 83.07721518987341
8500.0 83.07721518987341
8750.0 83.07721518987341
9000.0 83.07721518987341
9250.0 83.17721518987342
9500.0 83.27721518987342
9750.0 83.27721518987342
10000.0 83.37721518987343
10300.0 83.47721518987342
10600.0 83.47721518987342
10900.0 83.47721518987342
11200.0 83.57721518987343
11500.0 83.57721518987343
11800.0 83.67721518987342
12200.0 83.77721518987342
12500.0 83.9772151898734
12800.0 84.17721518987342
13200.0 84.37721518987343
13600.0 84.57721518987341
14000.0 84.77721518987342
14500.0 84.87721518987343
15000.0 84.77721518987342
15500.0 84.47721518987342
16000.0 84.07721518987341
16500.0 83.37721518987343
17000.0 82.5772151898734
17500.0 81.57721518987341
18000.0 80.57721518987341
18500.0 79.57721518987341
19000.0 78.57721518987343
19500.0 77.67721518987342
