Freq "On Axis"
22.4 36.999999999999986
23.0 39.10000000000001
23.6 41.2
24.0 43.3
25.0 45.39999999999999
25.8 47.499999999999986
26.5 49.60000000000001
27.2 51.7
28.0 53.7
29.0 55.8
30.0 57.8
30.7 59.8
31.5 61.8
32.5 63.7
33.5 65.6
34.5 67.4
35.5 69.09999999999998
36.5 70.7
37.5 72.2
38.7 73.6
40.0 74.9
41.2 75.9
42.5 76.89999999999999
43.7 77.7
45.0 78.4
46.2 79.09999999999998
47.5 79.8
48.7 80.40000000000002
50.0 81.0
51.5 81.7
53.0 82.4
54.5 82.99999999999999
56.0 83.7
58.0 84.39999999999999
60.0 85.0
61.5 85.49999999999999
63.0 86.0
65.0 86.4
67.0 86.7
69.0 86.89999999999999
71.0 87.1
73.0 87.2
75.0 87.2
77.5 87.3
80.0 87.2
82.5 87.2
85.0 87.1
87.5 87.0
90.0 86.8
92.5 86.7
95.0 86.50000000000001
97.5 86.4
100.0 86.2
103.0 86.1
106.0 86.0
109.0 85.8
112.0 85.7
115.0 85.6
118.0 85.49999999999999
122.0 85.3
125.0 85.2
128.0 85.0
132.0 84.9
136.0 84.7
140.0 84.6
145.0 84.39999999999999
150.0 84.3
155.0 84.2
160.0 84.09999999999998
165.0 84.00000000000001
170.0 84.00000000000001
175.0 83.9
180.0 83.9
185.0 83.9
190.0 83.9
195.0 83.9
200.0 83.9
206.0 84.00000000000001
212.0 84.00000000000001
218.0 84.09999999999998
224.0 84.09999999999998
230.0 84.2
236.0 84.2
240.0 84.3
250.0 84.39999999999999
258.0 84.39999999999999
265.0 84.5
272.0 84.6
280.0 84.6
290.0 84.7
300.0 84.7
307.0 84.7
315.0 84.7
325.0 84.6
335.0 84.5
345.0 84.39999999999999
355.0 84.2
365.0 84.09999999999998
375.0 83.9
387.0 83.7
400.0 83.6
412.0 83.5
425.0 83.4
437.0 83.3
450.0 83.3
462.0 83.3
475.0 83.3
487.0 83.3
500.0 83.3
515.0 83.4
530.0 83.4
545.0 83.4
560.0 83.4
580.0 83.3
600.0 83.3
615.0 83.2
630.0 83.2
650.0 83.1
670.0 82.99999999999999
690.0 82.99999999999999
710.0 82.99999999999999
730.0 83.1
750.0 83.2
775.0 83.4
800.0 83.6
825.0 83.8
850.0 83.9
875.0 83.9
900.0 83.9
925.0 83.8
950.0 83.7
975.0 83.6
1000.0 83.4
1030.0 83.3
1060.0 83.2
1090.0 83.2
1120.0 83.2
1150.0 83.2
1180.0 83.2
1220.0 83.2
1250.0 83.2
1280.0 83.2
1320.0 83.1
1360.0 83.1
1400.0 83.2
1450.0 83.2
1500.0 83.2
1550.0 83.3
1600.0 83.4
1650.0 83.5
1700.0 83.6
1750.0 83.6
1800.0 83.7
1850.0 83.8
1900.0 83.8
1950.0 83.8
2000.0 83.8
2060.0 83.8
2120.0 83.8
2180.0 83.8
2240.0 83.8
2300.0 83.8
2360.0 83.8
2400.0 83.8
2500.0 83.9
2580.0 84.00000000000001
2650.0 84.09999999999998
2720.0 84.2
2800.0 84.3
2900.0 84.39999999999999
3000.0 84.39999999999999
3070.0 84.5
3150.0 84.5
3250.0 84.5
3350.0 84.5
3450.0 84.5
3550.0 84.39999999999999
3650.0 84.39999999999999
3750.0 84.3
3870.0 84.2
4000.0 84.09999999999998
4120.0 84.00000000000001
4250.0 84.00000000000001
4370.0 83.9
4500.0 83.8
4620.0 83.8
4750.0 83.7
4870.0 83.7
5000.0 83.7
5150.0 83.7
5300.0 83.6
5450.0 83.6
5600.0 83.6
5800.0 83.6
6000.0 83.6
6150.0 83.5
6300.0 83.4
6500.0 83.4
6700.0 83.2
6900.0 83.1
7100.0 82.99999999999999
7300.0 82.90000000000002
7500.0 82.8
7750.0 82.7
8000.0 82.60000000000001
8250.0 82.60000000000001
8500.0 82.60000000000001
8750.0 82.60000000000001
9000.0 82.60000000000001
9250.0 82.7
9500.0 82.8
9750.0 82.8
10000.0 82.90000000000002
10300.0 82.99999999999999
10600.0 82.99999999999999
10900.0 82.99999999999999
11200.0 83.1
11500.0 83.1
11800.0 83.2
12200.0 83.3
12500.0 83.5
12800.0 83.7
13200.0 83.9
13600.0 84.09999999999998
14000.0 84.3
14500.0 84.39999999999999
15000.0 84.3
15500.0 84.00000000000001
16000.0 83.6
16500.0 82.90000000000002
17000.0 82.1
17500.0 81.1
18000.0 80.10000000000001
18500.0 79.09999999999998
19000.0 78.1
19500.0 77.2
