Freq "Sound Power"
22.4 37.290259699041044
23.0 39.38356412243978
23.6 41.485261255451874
24.0 43.54476986056092
25.0 45.61531703991518
25.8 47.67920812584312
26.5 49.7133636602877
27.2 51.76454981345732
28.0 53.78755402252169
29.0 55.817112565994975
30.0 57.79706688188723
30.7 59.78433739719871
31.5 61.735991915788006
32.5 63.650532783885836
33.5 65.50931250882802
34.5 67.28711893675232
35.5 69.00886930424285
36.5 70.64129457099808
37.5 72.13759341498265
38.7 73.5017424253606
40.0 74.7241414957317
41.2 75.80831047081877
42.5 76.74358351585151
43.7 77.56438577872599
45.0 78.29385440111197
46.2 78.95792485969939
47.5 79.59233748628262
48.7 80.20156573099348
50.0 80.83217773181033
51.5 81.46295288489807
53.0 82.11408768715292
54.5 82.77633429092687
56.0 83.43324033592776
58.0 84.068506104039
60.0 84.63453188527292
61.5 85.17175705236838
63.0 85.64248742924
65.0 86.02853463530373
67.0 86.35688737815809
69.0 86.59095880858742
71.0 86.76979749090091
73.0 86.87596293502008
75.0 86.952312155343
77.5 86.9730108975485
80.0 86.93251355609077
82.5 86.8538476551124
85.0 86.7584532616511
87.5 86.60999624384763
90.0 86.4389078645279
92.5 86.24770757025871
95.0 86.06048457710803
97.5 85.85220890728684
100.0 85.62639099065194
103.0 85.42672945072071
106.0 85.20617676018523
109.0 84.98698899263637
112.0 84.76997513581841
115.0 84.53108642016163
118.0 84.27123638497393
122.0 83.99691294932954
125.0 83.67876413687551
128.0 83.34894491779669
132.0 83.01641100341867
136.0 82.66450375834195
140.0 82.30741564123791
145.0 82.00018878824186
150.0 81.69897738946032
155.0 81.4353193482796
160.0 81.2008645078006
165.0 81.02442851665222
170.0 80.89441444611676
175.0 80.798410085036
180.0 80.73157109327764
185.0 80.67071306549069
190.0 80.63403916093526
195.0 80.59145206392512
200.0 80.54085093835845
206.0 80.48429995150903
212.0 80.40953659533258
218.0 80.37540388720598
224.0 80.33782468809271
230.0 80.29837599848469
236.0 80.29848793593068
240.0 80.30788362835484
250.0 80.32991117969733
258.0 80.39155063422697
265.0 80.43619774816307
272.0 80.48440052522831
280.0 80.5505751130567
290.0 80.57506837502778
300.0 80.6286280192764
307.0 80.62846949389687
315.0 80.62829964403923
325.0 80.60843851253081
335.0 80.56056039298196
345.0 80.46797371481311
355.0 80.36064983849619
365.0 80.22082334386623
375.0 80.0877186685634
387.0 79.9374935429227
400.0 79.81824342407494
412.0 79.7082830772006
425.0 79.61780533101509
437.0 79.53078858731304
450.0 79.4450717374463
462.0 79.36197069509619
475.0 79.24718214127338
487.0 79.14037668680982
500.0 79.02685699858476
515.0 78.90129491250758
530.0 78.8056848466776
545.0 78.70587423624234
560.0 78.60264956389345
580.0 78.47870896335114
600.0 78.35399436246082
615.0 78.18200982826382
630.0 78.00046836377454
650.0 77.81868528572717
670.0 77.6736887928081
690.0 77.5359597019979
710.0 77.44220559466048
730.0 77.42351287411854
750.0 77.4675149890089
775.0 77.58648553557028
800.0 77.72499192711145
825.0 77.81640317044047
850.0 77.84238504508095
875.0 77.75742542727554
900.0 77.5422326485821
925.0 77.24298235897386
950.0 76.85888741682871
975.0 76.45684259064818
1000.0 76.08394856312121
1030.0 75.83115056300609
1060.0 75.6458950465348
1090.0 75.4913584394106
1120.0 75.37756069811196
1150.0 75.28552091893175
1180.0 75.18125530155999
1220.0 75.09592496949267
1250.0 75.0134908395522
1280.0 74.95230636897196
1320.0 74.89071167986961
1360.0 74.84763682299925
1400.0 74.83606474495262
1450.0 74.80118771318956
1500.0 74.7782213207727
1550.0 74.79253996506841
1600.0 74.8312866468009
1650.0 74.89604774662152
1700.0 74.97610487592486
1750.0 74.99031939239812
1800.0 74.95564689362278
1850.0 74.87683291565723
1900.0 74.78600343338756
1950.0 74.69823428690832
2000.0 74.60654288285384
2060.0 74.54825514687592
2120.0 74.50906779412882
2180.0 74.47541703685725
2240.0 74.49099836058878
2300.0 74.49083108696769
2360.0 74.5295118465364
2400.0 74.59550465915645
2500.0 74.6715202063822
2580.0 74.76050152240957
2650.0 74.86681732534556
2720.0 74.97196939423395
2800.0 75.05671010232776
2900.0 75.13475751989576
3000.0 75.21047149182115
3070.0 75.26419446371374
3150.0 75.31311300228198
3250.0 75.3168246075377
3350.0 75.3246226716323
3450.0 75.30492429350475
3550.0 75.28598891136167
3650.0 75.24394465473928
3750.0 75.16419594533892
3870.0 75.07495388487139
4000.0 74.97752145518382
4120.0 74.86082528064676
4250.0 74.76427011796977
4370.0 74.67452986784075
4500.0 74.59973255644123
4620.0 74.47003029161716
4750.0 74.38118169445691
4870.0 74.25964017649085
5000.0 74.09729234196915
5150.0 73.98070218378531
5300.0 73.8634052512762
5450.0 73.77891686070384
5600.0 73.65940296456469
5800.0 73.54563018766603
6000.0 73.36270261079433
6150.0 73.11273720364636
6300.0 72.88163632530716
6500.0 72.63893969237883
6700.0 72.4213202108092
6900.0 72.19505373999145
7100.0 71.99697393315411
7300.0 71.82574688968812
7500.0 71.6983993664752
7750.0 71.66814813627924
8000.0 71.71368453473724
8250.0 71.7650942831669
8500.0 71.86885286214397
8750.0 72.07219607784516
9000.0 72.26818390848634
9250.0 72.47454625509711
9500.0 72.70322021304251
9750.0 72.92244856770046
10000.0 73.06603234598504
10300.0 73.15374818276202
10600.0 73.26795676402418
10900.0 73.48133857680273
11200.0 73.62464317813775
11500.0 73.52081307852599
11800.0 73.33616919421424
12200.0 73.21861323388362
12500.0 73.29107590775706
12800.0 73.39346887151437
13200.0 73.58030188427796
13600.0 73.72273676065552
14000.0 73.75503164223025
14500.0 73.69195436541814
15000.0 73.54046574256257
15500.0 73.28348024899687
16000.0 72.97076400632564
16500.0 72.42877895733288
17000.0 71.73709640153902
17500.0 71.05040138357971
18000.0 70.56752101794127
18500.0 70.22066676875595
19000.0 69.35645452663933
19500.0 68.59457751670153
