Freq,Floor Bounce,Ceiling Bounce,Front Wall Bounce,Side Wall Bounce,Rear Wall Bounce,Total Early Reflection
22.4,42.424233010608376,41.77648729256153,40.268749428531535,40.38526507270221,39.3722612430938,40.98639084533117
23.0,44.44890206989909,43.47884172884561,41.9381729082681,42.14468313321841,40.93942009403422,42.76729053929104
23.6,46.33715500107702,45.111629020406426,43.4832384903677,43.681979500671204,42.322221645141454,44.414951237610424
24.0,48.062301501153556,46.647911231823386,44.87725483623991,45.128535099631634,43.56944869389905,45.93918350756361
25.0,49.697994447363996,48.08772410014181,46.243046620553415,46.45091736607985,44.8079844679997,47.39080294590521
25.8,52.65561584941956,50.86497936446217,49.33590124088566,49.74089332662486,47.872301730754614,50.39533359510959
26.5,55.55059668141702,53.673072114290775,52.32030764548726,52.75052982201838,50.78748530302765,53.30752078747956
27.2,57.80989184542317,55.93761572447865,54.66944261858349,55.064152951472195,53.07509999796547,55.59512815098135
28.0,59.77307211429077,57.94010324941921,56.65432126205714,57.00687427938975,55.00072308842802,57.562568042296434
29.0,61.402684490313206,59.61094549451927,58.394641479288126,58.683712231366385,56.69639182845263,59.23493731645682
30.0,62.805989901984574,61.07815302270477,59.88875208834675,60.13058076141404,58.16335581118214,60.68204538844641
30.7,64.90598990198457,63.27815302270476,62.223014535910366,62.41494463397483,60.488415204802536,62.9016912129115
31.5,67.53438286389083,65.95004570405804,65.07181160559308,65.24373044478152,63.40091351048095,65.64706245971207
32.5,69.60100491435492,68.08305028833519,67.35228379172511,67.47382941747327,65.67477211011696,67.82077330031102
33.5,71.33438286389082,69.84424742436198,69.22124296588392,69.3598442556847,67.57901045895589,69.63401737153502
34.5,72.80100491435492,71.31656598261334,70.83311527727228,70.8860382455839,69.177835185728,71.1563289993548
35.5,74.20100491435493,72.78305028833519,72.37174425837271,72.4306950564337,70.7899574761433,72.65056653730056
36.5,76.00100491435492,74.51656598261336,74.30046169183053,74.24726960318621,72.7531351409517,74.4861451114381
37.5,77.50100491435492,76.08934311031882,75.98061269062578,75.85975592095217,74.47772547457264,76.08748564121667
38.7,78.8300902808195,77.42863741460279,77.42204031553413,77.25581714127627,75.94780057944533,77.47304873320121
40.0,80.0300902808195,78.56257402281543,78.70986001041595,78.47631945668174,77.25352676881133,78.69651665021671
41.2,81.13009028081949,79.70211017519696,79.93535660753751,79.61753813247519,78.51233319147838,79.86036840522728
42.5,82.1300902808195,80.73625389153436,81.10890339265016,80.64218071040641,79.78521844330969,80.94808693667916
43.7,83.05965284607139,81.63625389153437,82.16248291249825,81.59645996711242,80.88025164344566,81.92828021044558
45.0,83.95965284607138,82.51037784746269,83.13413214805912,82.4748189673548,81.90434194929325,82.85440471551628
46.2,84.55965284607136,83.15038984110164,83.89038700229068,83.09757063108457,82.6952445047016,83.53063901510494
47.5,84.95965284607138,83.55038984110166,84.34868296182034,83.46486814527348,83.21693435655861,83.95777114765994
48.7,85.2896971223554,83.87602928047265,84.80512472039145,83.79419216451454,83.70029710313396,84.34094237169701
50.0,85.62722746511345,84.25038984110166,85.26319269216916,84.16245563246903,84.19735131731251,84.74528485718422
51.5,85.88969712235541,84.47602928047263,85.57700426999936,84.40170571402355,84.48329713858173,85.01294410106908
53.0,86.12022755672714,84.67602928047265,85.83134944291146,84.62598336454518,84.72987344215635,85.24529588804663
54.5,86.32022755672715,84.87602928047265,86.08830346699064,84.84715463662457,84.97091465699812,85.46935614181574
56.0,86.5512485274647,85.10211017519696,86.38476863847785,85.13929707457777,85.19042094446485,85.7232802637278
58.0,86.8512485274647,85.32863741460278,86.69851187811255,85.50002004661197,85.39815288091692,86.00837207894088
60.0,87.11477922575486,85.51656598261334,86.93924376770624,85.77053268224323,85.59322282283107,86.2430975746878
61.5,87.31477922575486,85.71656598261335,87.13667705770136,86.02074422797295,85.76998530913914,86.44756117418025
63.0,87.51477922575488,85.91656598261333,87.34964696773339,86.229252697553,85.90421606262603,86.64097576971194
65.0,87.64655983287983,86.04424742436197,87.54964696773338,86.422351598857,86.03863571189252,86.7998463161824
67.0,87.84655983287983,86.27239217282825,87.7051505559856,86.73006533360521,86.16156207609383,87.00124310374791
69.0,88.01088543703216,86.46324628825371,87.9041929001941,87.02938610555974,86.25794364043635,87.19283081468954
71.0,88.17573766741674,86.62602725354118,88.03215567479633,87.26963190630529,86.33683156143915,87.34959303005988
73.0,88.27573766741675,86.85561739484204,88.17407558221326,87.51998873395387,86.42664671858135,87.50973250676164
75.0,88.40854831329882,87.04950947601121,88.27407558221326,87.74019103152156,86.47666508914654,87.6504161873662
77.5,88.47418521597461,87.1495094760112,88.34541157149316,87.87026784618291,86.50942626940633,87.73160640967662
80.0,88.50700754839896,87.1803227318736,88.38784518491646,87.93804974705971,86.51083566284555,87.7688151597007
82.5,88.57418521597461,87.2803227318736,88.44541157149315,88.02807170804003,86.51530831294754,87.83497592652532
85.0,88.6741852159746,87.38032273187359,88.53149899349147,88.13564292305104,86.52678872649881,87.92040611662496
87.5,88.7403395726795,87.41162902040644,88.54541157149316,88.1738990573998,86.50700493598667,87.95013175388223
90.0,88.80700754839897,87.48032273187358,88.64541157149317,88.2506614720147,86.50699359757304,88.01746846958198
92.5,88.8403395726795,87.51162902040643,88.71754170341961,88.24982633804386,86.45232936761884,88.03994962088136
95.0,88.8403395726795,87.48032273187358,88.73215567479633,88.20837901867371,86.35648111901826,88.01596861367484
97.5,88.9403395726795,87.54950947601121,88.78948437072042,88.23525057918663,86.33523753948083,88.06879077704819
100.0,88.9403395726795,87.61624802623874,88.8747258575968,88.24518527037146,86.32342421832162,88.10141139476573
103.0,89.0403395726795,87.68568950467518,88.9747258575968,88.30792702318405,86.3447309319387,88.17787454182768
106.0,89.07418521597462,87.78568950467518,89.04672063516253,88.30792702318405,86.33250802573528,88.21986601519643
109.0,89.14186855957333,87.8856895046752,89.233129346079,88.33240921347755,86.32144226941963,88.30363077089937
112.0,89.17648729256152,87.99258477654654,89.31980621262974,88.32610522589665,86.27401996868052,88.34595744997297
115.0,89.17648729256152,87.99258477654654,89.36449080642102,88.27860772882578,86.18818272824157,88.33723575903053
118.0,89.04492572938837,87.99258477654654,89.3789479065865,88.18319241392548,86.04167454611331,88.27279803919667
122.0,88.98032273187358,87.99258477654654,89.3789479065865,88.09787690985404,85.91642329338195,88.22590138695047
125.0,88.9495094760112,87.96324628825373,89.36606533676915,88.0381625171779,85.80792964743654,88.18540228126044
128.0,88.8495094760112,87.96324628825373,89.35156521675503,87.9763925977678,85.69319140012574,88.1327523579384
132.0,88.78568950467518,87.90100491435491,89.35156521675503,87.89209333179822,85.55747541782787,88.07418338901537
136.0,88.7224028703145,87.80100491435492,89.33667705770137,87.85135971361673,85.41779915243035,88.01278586783377
140.0,88.65561739484205,87.77239217282825,89.30774893782058,87.77274168523213,85.28319250504043,87.95392944856643
145.0,88.59258477654652,87.57239217282826,89.29270954909181,87.71888255405258,85.11725326927011,87.86892651056296
150.0,88.56324628825372,87.51094549451928,89.29270954909181,87.64651142170125,84.95795376696216,87.8198769907054
155.0,88.56324628825372,87.41094549451928,89.27796201055985,87.60964927216628,84.80507247213454,87.77449526959786
160.0,88.56324628825372,87.2830502883352,89.29270954909181,87.58466394193393,84.69348697846868,87.7394311090462
165.0,88.60100491435492,87.22240131302742,89.35122688792758,87.5778369989712,84.59084752096595,87.74322607219285
170.0,88.57239217282826,87.12240131302742,89.3789479065865,87.56130736063936,84.42573601969893,87.70779374480912
175.0,88.57239217282826,87.03536639715666,89.3930295797999,87.54466980362184,84.26462296998146,87.67871313326184
180.0,88.57239217282826,86.93536639715667,89.42305425136429,87.51155433724865,84.08529990187662,87.64809354790133
185.0,88.51094549451928,86.80888035286581,89.39466750471267,87.43569970473543,83.8943660943985,87.5716307939315
190.0,88.3830502883352,86.68284020577919,89.36512768473523,87.3299520441678,83.64444332512001,87.46823501815813
195.0,88.2830502883352,86.52403900162264,89.28026272518314,87.21451781843267,83.37390651532299,87.34627273090707
200.0,88.22240131302742,86.42403900162265,89.25224865834119,87.14128612675468,83.14689544676273,87.27383510857638
206.0,88.15561584941955,86.26579670961699,89.2250292255367,87.07277410507585,82.94068437773201,87.19373717779739
212.0,88.09521510840796,86.14068331011511,89.1522486583412,86.98640085982967,82.68472704335339,87.09948271285357
218.0,87.99521510840795,86.01600045814914,89.18222769211611,86.92152969547976,82.47104986247473,87.03646490451673
224.0,87.96848230187729,85.95880482617797,89.19730335979706,86.9090533339401,82.29580991754361,87.01127878725865
230.0,87.9421980614869,85.90217382280214,89.2250292255367,86.88884279179663,82.10289698113786,86.98837590079741
236.0,87.88284020577919,85.85502980685321,89.2250292255367,86.85768052459794,81.93456806189975,86.94942145795417
240.0,87.85724106319495,85.75502980685322,89.24030440849275,86.81659030631998,81.73811990357994,86.91262356967204
250.0,87.75724106319495,85.64442384163384,89.24030440849275,86.75320590885877,81.5587925259722,86.84785350281135
258.0,87.5986822608075,85.46772516696565,89.20055491609638,86.67358258479632,81.36844495275442,86.74173711614712
265.0,87.51600045814914,85.22440595653119,89.16070326691654,86.56704646696946,81.12237259133524,86.6366494676372
272.0,87.31600045814915,84.89799765839798,89.07330854940902,86.43080801356898,80.85292103725672,86.46810411525152
280.0,87.15880482617798,84.50650709828977,88.91817783255406,86.25128980165722,80.55421891777573,86.26761100150513
290.0,87.0111850643744,84.036642769375,88.83347709009811,86.04486967859702,80.29908411539746,86.08443691159313
300.0,86.7879966790521,83.50098406297593,88.72104548949254,85.85365307170136,80.00818964583344,85.86867894648303
307.0,86.6320749616977,82.90744819066715,88.56680819521519,85.62592630414552,79.68939144644091,85.64208064240788
315.0,86.4095248012925,82.1550715993226,88.41057125269013,85.38817602638093,79.4044741893297,85.386295710873
325.0,86.25440262702581,81.47024558198922,88.29760937236868,85.17448332629607,79.17291811465323,85.18507369872397
335.0,86.13248035809409,80.83875960883421,88.22901923694538,85.01938570919269,78.98305611734587,85.03417932112585
345.0,86.0244059565312,80.32639401316699,88.18386327193464,84.92679397656624,78.83993521774731,84.92452914360531
355.0,85.90332729537043,79.93986634499694,88.15624966733026,84.8327676690706,78.75204110937669,84.83258098546553
365.0,85.78262912872304,79.75011651026865,88.14103056306202,84.77480752314874,78.67787410292638,84.76792851101187
375.0,85.70979860191045,79.69329442537797,88.14103056306202,84.72308684451535,78.58981887130967,84.7313847087883
387.0,85.60979860191044,79.94459380439058,88.18726432939765,84.7417555298302,78.5270420750385,84.74390567307238
400.0,85.53834807492994,80.09856779870516,88.18726432939765,84.72410689946045,78.42522745752878,84.72863005977707
412.0,85.48720768907489,80.14030112476946,88.18726432939765,84.69230111182969,78.2930227294454,84.70677953661408
425.0,85.45572422108742,80.1968759202472,88.2030309393664,84.66537882525813,78.12379162053918,84.69734993161039
437.0,85.45572422108742,79.9968759202472,88.15952035813736,84.59016180212483,77.89465029914241,84.63905111285062
450.0,85.55572422108742,79.59895061267918,88.15952035813736,84.54158440598096,77.70107063363287,84.61974590540972
462.0,85.57516373276671,79.0909513214415,88.20085742310349,84.47711367298847,77.45040636319503,84.59060004631922
475.0,85.72473531732726,78.42596838411352,88.23297227816903,84.44050158888199,77.21234210132017,84.59277118771584
487.0,85.8443137215919,77.67099805920186,88.29075051005256,84.37724264786272,76.94163894511028,84.59591116536703
500.0,85.94431372159191,76.6668411023282,88.39455911071953,84.36410219860669,76.71547572638917,84.62551866603552
515.0,85.96425721266804,75.61245997934103,88.49455911071952,84.33413016204938,76.41678726074717,84.63419146527916
530.0,85.88407636529674,74.32169365176217,88.55728653312487,84.22154375978792,76.0518392359369,84.58378243085652
545.0,85.6346925269982,73.17052778491869,88.57789545009723,84.07827732439337,75.62134694389474,84.47078497281625
560.0,85.22575954576973,72.86710011481797,88.56376453994277,83.8518582665756,75.14111733824824,84.30172200822254
580.0,84.77705593698292,73.09423666705956,88.4245899035632,83.53554193775625,74.62868728129847,84.05276910849567
600.0,84.24894149412142,74.18934311031883,88.2710933705243,83.24341830120682,74.11919489906767,83.80461054391343
615.0,83.70114780816431,75.70275849593556,88.13494258396719,82.92012155873876,73.61998198269877,83.5848165800926
630.0,83.34696262442864,77.21037784746268,88.05165054301165,82.72468565084765,73.26287233478106,83.48577754419134
650.0,83.0673571554695,78.70989184542314,88.05507581138912,82.65837289704568,73.05902235219449,83.5048562935199
670.0,82.86196280994481,79.9832840082423,88.11454643451428,82.69427928498972,72.96974022957096,83.60403342751904
690.0,82.63623994491572,80.97884172884561,88.13095150765103,82.74180177495548,72.93304923020408,83.6799098102107
710.0,82.52697238113683,81.61757547086752,88.11493818034052,82.87164446672381,72.94296104951162,83.74877555259253
730.0,82.37229588788865,82.05835264612749,88.06494727873516,82.94655375332833,72.93865964145421,83.76770648473129
750.0,82.2944485596379,82.44010324941921,87.98188722982648,83.15591021826951,73.02665719111326,83.80292929983969
775.0,82.41765816277133,82.86257402281542,87.98720865598426,83.42297612219112,73.18288295955298,83.93627355082144
800.0,82.99654032159033,83.5163575151209,88.17876165857929,83.84933883061136,73.49862251068069,84.30255311153397
825.0,83.38278297819959,83.83207799752734,88.22813508841932,84.07359776897138,73.62205563584094,84.48108343729042
850.0,83.5327570213321,83.84926379679045,87.9791096730267,84.02975355970774,73.45105901917078,84.38120778407539
875.0,83.23567816557374,83.41600045814914,87.39027309394048,83.52838990505427,72.77079131666629,83.88390911411987
900.0,82.78279172473349,83.04926379679046,86.7876772694445,82.9486533678354,71.97570523905499,83.35181215361942
925.0,82.9718528700908,83.29174316336874,86.77389964640003,82.81248020330631,71.5290998927235,83.39532681615324
950.0,83.303915235535,83.7251920968664,86.93654332073073,82.7136362818781,70.99421961958004,83.590989869983
975.0,83.21094549451928,83.82519209686642,86.80049063840815,82.24578273838675,70.15844309854903,83.45377204366547
1000.0,82.96257402281542,83.58304023228108,86.52450210859583,81.7105697234319,69.31113406864795,83.14719530764025
1030.0,83.10041559849626,83.63207799752733,86.59218685800543,81.53420463157447,68.98728276912017,83.18704183028943
1060.0,83.5250108901177,83.75724106319495,86.89704799538022,81.57372227811054,68.94427337131536,83.4386460836243
1090.0,83.8066466594994,83.60888035286581,87.03278034620625,81.4185492470491,68.87162128647407,83.50686760540455
1120.0,83.90383986169262,83.33536639715665,87.08962053037996,81.18742352217315,68.74301326052036,83.47057004396301
1150.0,84.29654123378933,83.26230319306903,87.44966843445512,81.1976965034222,68.9288837387903,83.7155531232056
1180.0,84.76689871959084,83.10275849593556,87.96479709682983,81.23677852505533,69.22467078707484,84.05237427254225
1220.0,84.99639859784261,82.77065454591823,88.23356531160006,81.12752240331318,69.2680589772038,84.18016425160874
1250.0,84.69174482438933,81.88533898905256,87.95613425903794,80.57589153579626,68.77840075368997,83.78494032637794
1280.0,84.02933815525674,80.67016069483637,87.32613315156424,79.82597365448227,67.89745014002196,83.06246575663204
1320.0,83.67077824127907,79.88799798464913,87.0958015098345,79.55129882683643,67.370222222009,82.73377560833889
1360.0,83.79140513100917,79.75224454382779,87.29228417379004,79.95280683555178,67.46322261045835,82.89784056639068
1400.0,83.9104423029692,79.8202049180175,87.5058127111616,80.44543400696605,67.75573447835983,83.10424077271372
1450.0,83.7753233795461,80.07433161165942,87.47926457595621,80.97434715696697,68.12296293142639,83.14522436550205
1500.0,83.41693642622694,80.28279601216956,87.2314227358152,81.4649796696564,68.4405535801633,83.01932484517913
1550.0,82.63365427618966,80.11408454109073,86.49498842924595,81.5083444022179,68.37099880264009,82.45815334886645
1600.0,81.90598990198457,79.74587021359544,85.71728454976166,81.30707329284645,68.08207477247244,81.84109004713459
1650.0,81.84724882363824,79.97122756533757,85.53873650060527,81.6061566179053,68.3273129934095,81.82925830993769
1700.0,82.04983401884053,80.33962761541117,85.62348703516336,82.02491367434409,68.66070766215466,82.04254008285243
1750.0,82.0444864830016,80.39799765839797,85.46548594971686,82.05729748461735,68.7133521663505,81.98521447468524
1800.0,81.71341700110645,80.04619446640588,85.04591204330167,81.636394417755,68.33648297825526,81.59329296772377
1850.0,81.8591568780087,80.05572422108743,85.0728264507252,81.5234509352804,68.29741932199421,81.61412276897559
1900.0,83.08934311031881,81.0499711818397,86.23062968248463,82.36592350008779,69.28942480832647,82.70331849234667
1950.0,83.30905718861176,81.01807725767797,86.3435042023006,82.16089442534768,69.21501503619014,82.76163815200039
2000.0,82.87815302270475,80.33785452654989,85.77666540637836,81.28257891366327,68.47135797591628,82.15710166375912
2060.0,82.7753200765175,80.06023735367232,85.57901934741058,80.7770068051541,68.11159484669953,81.92152843289132
2120.0,83.09771508743418,80.14060234289026,85.81239585659937,80.60781574782224,68.04638693398987,82.09532424888525
2180.0,83.44431372159191,80.21250710854368,86.08889834602932,80.55569923821096,68.04988517975998,82.31677298708489
2240.0,83.67065366583442,80.1688912721202,86.3889092572545,80.483871343622,67.96342498283795,82.50544287633589
2300.0,83.8566900088333,79.98335399052195,86.63300750663412,80.43217508338125,67.77956800842436,82.64670725470454
2360.0,84.08010802194177,79.77024558198922,86.98182429175763,80.53808089556934,67.60740169543541,82.87246408132593
2400.0,84.23199981873356,79.61581782819103,87.35779867384616,80.68175278323233,67.46015066738592,83.1103372870227
2500.0,84.23342781295341,79.28730283328622,87.41653742455942,80.70639069823503,67.12893741176244,83.1149430206823
2580.0,83.80436486479404,78.67209773784812,87.10466679046708,80.43518296796846,66.55364949231593,82.75198737920839
2650.0,83.07297470670721,77.88520056559182,86.46124614993852,80.00420321684248,65.69767046000838,82.09987935141935
2720.0,82.37626867913079,77.15373436315866,85.84203052009327,79.6372235502378,64.91594711423865,81.48437415901671
2800.0,81.96254023872824,76.75469641479816,85.55446662385769,79.58557071691567,64.48498736706593,81.18921115079876
2900.0,82.01308200795886,76.89879475229212,85.70121048838665,80.01309611993027,64.56764438048769,81.35282269838176
3000.0,82.36783217124106,77.53403581232607,86.29266647391928,80.83809127050642,65.02672135697121,81.92846895611372
3070.0,82.2999248755424,77.82818940548708,86.48107635379172,81.26034418148511,65.1107008962904,82.10653043065736
3150.0,80.93503745707977,76.92746865604975,85.4863890777618,80.30634199516132,63.95104141753346,81.05038135851723
3250.0,78.82344689537803,75.32989766813508,83.77105768696538,78.5443139636538,62.03839717249245,79.26132945288673
3350.0,77.84180521278599,75.02240131302742,83.34280608363287,77.98949201783287,61.40876580758653,78.725821116186
