Freq "Front Wall Bounce"
22.4 40.268749428531535
23.0 41.9381729082681
23.6 43.4832384903677
24.0 44.87725483623991
25.0 46.243046620553415
25.8 49.33590124088566
26.5 52.32030764548726
27.2 54.66944261858349
28.0 56.65432126205714
29.0 58.394641479288126
30.0 59.88875208834675
30.7 62.223014535910366
31.5 65.07181160559308
32.5 67.35228379172511
33.5 69.22124296588392
34.5 70.83311527727228
35.5 72.37174425837271
36.5 74.30046169183053
37.5 75.98061269062578
38.7 77.42204031553413
40.0 78.70986001041595
41.2 79.93535660753751
42.5 81.10890339265016
43.7 82.16248291249825
45.0 83.13413214805912
46.2 83.89038700229068
47.5 84.34868296182034
48.7 84.80512472039145
50.0 85.26319269216916
51.5 85.57700426999936
53.0 85.83134944291146
54.5 86.08830346699064
56.0 86.38476863847785
58.0 86.69851187811255
60.0 86.93924376770624
61.5 87.13667705770136
63.0 87.34964696773339
65.0 87.54964696773338
67.0 87.7051505559856
69.0 87.9041929001941
71.0 88.03215567479633
73.0 88.17407558221326
75.0 88.27407558221326
77.5 88.34541157149316
80.0 88.38784518491646
82.5 88.44541157149315
85.0 88.53149899349147
87.5 88.54541157149316
90.0 88.64541157149317
92.5 88.71754170341961
95.0 88.73215567479633
97.5 88.78948437072042
100.0 88.8747258575968
103.0 88.9747258575968
106.0 89.04672063516253
109.0 89.233129346079
112.0 89.31980621262974
115.0 89.36449080642102
118.0 89.3789479065865
122.0 89.3789479065865
125.0 89.36606533676915
128.0 89.35156521675503
132.0 89.35156521675503
136.0 89.33667705770137
140.0 89.30774893782058
145.0 89.29270954909181
150.0 89.29270954909181
155.0 89.27796201055985
160.0 89.29270954909181
165.0 89.35122688792758
170.0 89.3789479065865
175.0 89.3930295797999
180.0 89.42305425136429
185.0 89.39466750471267
190.0 89.36512768473523
195.0 89.28026272518314
200.0 89.25224865834119
206.0 89.2250292255367
212.0 89.1522486583412
218.0 89.18222769211611
224.0 89.19730335979706
230.0 89.2250292255367
236.0 89.2250292255367
240.0 89.24030440849275
250.0 89.24030440849275
258.0 89.20055491609638
265.0 89.16070326691654
272.0 89.07330854940902
280.0 88.91817783255406
290.0 88.83347709009811
300.0 88.72104548949254
307.0 88.56680819521519
315.0 88.41057125269013
325.0 88.29760937236868
335.0 88.22901923694538
345.0 88.18386327193464
355.0 88.15624966733026
365.0 88.14103056306202
375.0 88.14103056306202
387.0 88.18726432939765
400.0 88.18726432939765
412.0 88.18726432939765
425.0 88.2030309393664
437.0 88.15952035813736
450.0 88.15952035813736
462.0 88.20085742310349
475.0 88.23297227816903
487.0 88.29075051005256
500.0 88.39455911071953
515.0 88.49455911071952
530.0 88.55728653312487
545.0 88.57789545009723
560.0 88.56376453994277
580.0 88.4245899035632
600.0 88.2710933705243
615.0 88.13494258396719
630.0 88.05165054301165
650.0 88.05507581138912
670.0 88.11454643451428
690.0 88.13095150765103
710.0 88.11493818034052
730.0 88.06494727873516
750.0 87.98188722982648
775.0 87.98720865598426
800.0 88.17876165857929
825.0 88.22813508841932
850.0 87.9791096730267
875.0 87.39027309394048
900.0 86.7876772694445
925.0 86.77389964640003
950.0 86.93654332073073
975.0 86.80049063840815
1000.0 86.52450210859583
1030.0 86.59218685800543
1060.0 86.89704799538022
1090.0 87.03278034620625
1120.0 87.08962053037996
1150.0 87.44966843445512
1180.0 87.96479709682983
1220.0 88.23356531160006
1250.0 87.95613425903794
1280.0 87.32613315156424
1320.0 87.0958015098345
1360.0 87.29228417379004
1400.0 87.5058127111616
1450.0 87.47926457595621
1500.0 87.2314227358152
1550.0 86.49498842924595
1600.0 85.71728454976166
1650.0 85.53873650060527
1700.0 85.62348703516336
1750.0 85.46548594971686
1800.0 85.04591204330167
1850.0 85.0728264507252
1900.0 86.23062968248463
1950.0 86.3435042023006
2000.0 85.77666540637836
2060.0 85.57901934741058
2120.0 85.81239585659937
2180.0 86.08889834602932
2240.0 86.3889092572545
2300.0 86.63300750663412
2360.0 86.98182429175763
2400.0 87.35779867384616
2500.0 87.41653742455942
2580.0 87.10466679046708
2650.0 86.46124614993852
2720.0 85.84203052009327
2800.0 85.55446662385769
2900.0 85.70121048838665
3000.0 86.29266647391928
3070.0 86.48107635379172
3150.0 85.4863890777618
3250.0 83.77105768696538
3350.0 83.34280608363287
3450.0 85.14453845188513
3550.0 86.82035538041102
3650.0 86.980105698308
3750.0 86.87273624278477
3870.0 87.25965916028342
4000.0 87.72700639313662
4120.0 88.30155973502926
4250.0 88.95547292169054
4370.0 89.3856018414083
4500.0 89.60682175153717
4620.0 89.52461501617746
4750.0 89.10788090043135
4870.0 88.38323656856896
5000.0 87.13749933840522
5150.0 85.01774364580685
5300.0 81.90093730898828
5450.0 81.69724302143923
5600.0 84.75686337558592
5800.0 87.51595437304458
6000.0 89.0846217305003
6150.0 89.2980243779303
6300.0 88.84627491624495
6500.0 88.59753750578504
6700.0 88.11774219495804
6900.0 86.85867163525849
7100.0 84.97963620287642
7300.0 84.71780588515325
7500.0 86.13053478548345
7750.0 87.50221848365966
8000.0 88.81617419368219
8250.0 89.25434592642459
8500.0 88.4270195381897
8750.0 86.7336088964833
9000.0 83.54326202858368
9250.0 82.63761166582982
9500.0 85.46381104991606
9750.0 87.02718823130229
10000.0 86.72966655231282
10300.0 84.00852916453023
10600.0 82.1301038291145
10900.0 84.73995918328656
11200.0 87.93572940118749
11500.0 89.56808437675504
11800.0 88.33599065953297
12200.0 82.9264418619786
12500.0 76.19618943275435
12800.0 84.81936350565206
13200.0 87.21587747538715
13600.0 85.07633746770829
14000.0 82.01151940361912
14500.0 83.36988952410351
15000.0 86.27987552519778
15500.0 86.6937467956403
16000.0 81.89751331121111
16500.0 80.37501645693273
17000.0 84.34290568063874
17500.0 85.00833948620391
18000.0 82.9502099601208
18500.0 82.06130228547163
19000.0 81.34870867765703
19500.0 78.40040664192873
