Freq "Rear Wall Bounce"
22.4 38.39884352157479
23.0 39.966002372515206
23.6 41.34880392362247
24.0 42.596030972380035
25.0 43.83456674648072
25.8 46.8988840092356
26.5 49.81406758150867
27.2 52.10168227644648
28.0 54.027305366909005
29.0 55.72297410693365
30.0 57.18993808966313
30.7 59.51499748328352
31.5 62.427495788961934
32.5 64.70135438859798
33.5 66.6055927374369
34.5 68.204417464209
35.5 69.8165397546243
36.5 71.7797174194327
37.5 73.50430775305364
38.7 74.97438285792633
40.0 76.28010904729233
41.2 77.53891546995938
42.5 78.81180072179068
43.7 79.90683392192666
45.0 80.93092422777426
46.2 81.7218267831826
47.5 82.24351663503961
48.7 82.72687938161496
50.0 83.22393359579351
51.5 83.50987941706273
53.0 83.75645572063735
54.5 83.99749693547912
56.0 84.21700322294585
58.0 84.42473515939794
60.0 84.61980510131207
61.5 84.79656758762015
63.0 84.93079834110704
65.0 85.06521799037353
67.0 85.18814435457485
69.0 85.28452591891735
71.0 85.36341383992014
73.0 85.45322899706235
75.0 85.50324736762754
77.5 85.53600854788733
80.0 85.53741794132655
82.5 85.54189059142855
85.0 85.55337100497981
87.5 85.53358721446769
90.0 85.53357587605404
92.5 85.47891164609983
95.0 85.38306339749926
97.5 85.36181981796183
100.0 85.3500064968026
103.0 85.3713132104197
106.0 85.35909030421628
109.0 85.34802454790064
112.0 85.30060224716152
115.0 85.21476500672257
118.0 85.06825682459431
122.0 84.94300557186295
125.0 84.83451192591754
128.0 84.71977367860674
132.0 84.58405769630888
136.0 84.44438143091135
140.0 84.30977478352143
145.0 84.14383554775112
150.0 83.98453604544315
155.0 83.83165475061554
160.0 83.72006925694969
165.0 83.61742979944695
170.0 83.45231829817993
175.0 83.29120524846246
180.0 83.11188218035763
185.0 82.92094837287951
190.0 82.67102560360101
195.0 82.40048879380399
200.0 82.17347772524373
206.0 81.96726665621301
212.0 81.71130932183439
218.0 81.49763214095573
224.0 81.32239219602461
230.0 81.12947925961886
236.0 80.96115034038077
240.0 80.76470218206096
250.0 80.5853748044532
258.0 80.39502723123542
265.0 80.14895486981624
272.0 79.87950331573772
280.0 79.58080119625673
290.0 79.32566639387846
300.0 79.03477192431443
307.0 78.71597372492191
315.0 78.4310564678107
325.0 78.19950039313424
335.0 78.00963839582687
345.0 77.86651749622833
355.0 77.77862338785769
365.0 77.70445638140738
375.0 77.61640114979068
387.0 77.5536243535195
400.0 77.45180973600979
412.0 77.3196050079264
425.0 77.15037389902018
437.0 76.92123257762341
450.0 76.72765291211387
462.0 76.47698864167604
475.0 76.23892437980118
487.0 75.96822122359129
500.0 75.74205800487017
515.0 75.44336953922817
530.0 75.07842151441791
545.0 74.64792922237574
560.0 74.16769961672925
580.0 73.65526955977946
600.0 73.14577717754867
615.0 72.64656426117979
630.0 72.28945461326207
650.0 72.08560463067549
670.0 71.99632250805196
690.0 71.95963150868508
710.0 71.96954332799264
730.0 71.96524191993521
750.0 72.05323946959426
775.0 72.20946523803399
800.0 72.52520478916169
825.0 72.64863791432194
850.0 72.47764129765177
875.0 71.7973735951473
900.0 71.00228751753599
925.0 70.55568217120451
950.0 70.02080189806104
975.0 69.18502537703004
1000.0 68.33771634712893
1030.0 68.01386504760117
1060.0 67.97085564979638
1090.0 67.89820356495507
1120.0 67.76959553900136
1150.0 67.95546601727128
1180.0 68.25125306555584
1220.0 68.2946412556848
1250.0 67.80498303217097
1280.0 66.92403241850296
1320.0 66.39680450049
1360.0 66.48980488893933
1400.0 66.78231675684083
1450.0 67.14954520990739
1500.0 67.4671358586443
1550.0 67.39758108112107
1600.0 67.10865705095344
1650.0 67.35389527189051
1700.0 67.68728994063565
1750.0 67.73993444483152
1800.0 67.36306525673626
1850.0 67.32400160047521
1900.0 68.31600708680747
1950.0 68.24159731467114
2000.0 67.49794025439728
2060.0 67.13817712518053
2120.0 67.07296921247087
2180.0 67.07646745824097
2240.0 66.99000726131895
2300.0 66.80615028690538
2360.0 66.63398397391641
2400.0 66.4867329458669
2500.0 66.15551969024342
2580.0 65.58023177079693
2650.0 64.7242527384894
2720.0 63.942529392719635
2800.0 63.51156964554694
2900.0 63.59422665896871
3000.0 64.05330363545222
3070.0 64.13728317477141
3150.0 62.97762369601442
3250.0 61.06497945097344
3350.0 60.43534808606755
3450.0 62.00469000784811
3550.0 63.44185734147602
3650.0 63.43184488601453
3750.0 63.11884351879367
3870.0 63.268038616318805
4000.0 63.5286067325428
4120.0 63.925817111359365
4250.0 64.3997472380833
4370.0 64.6045803261827
4500.0 64.69069031427775
4620.0 64.51623607162493
4750.0 63.99581328567068
4870.0 63.17808320153067
5000.0 61.81485027851123
5150.0 59.4440516331491
5300.0 56.04310806245236
5450.0 55.59292459095802
5600.0 58.42147418485392
5800.0 61.02390446787233
6000.0 62.43067081606203
6150.0 62.55509607239809
6300.0 62.08405400749375
6500.0 61.94490265156635
6700.0 61.60760315820609
6900.0 60.47224433334351
7100.0 58.69940480689179
7300.0 58.53670636080129
7500.0 60.0852840064657
7750.0 61.61031605832618
8000.0 63.0183147180628
8250.0 63.65995126377122
8500.0 63.06442557085366
8750.0 61.61346915692444
9000.0 58.62165701617643
9250.0 57.90241447729984
9500.0 60.909940821480845
9750.0 62.565030435425214
10000.0 62.16697145695859
10300.0 59.21254792197523
10600.0 56.96389584232746
10900.0 59.175565368402076
11200.0 61.905827719186405
11500.0 63.025033361090394
11800.0 61.14013685585054
12200.0 55.09664940732257
12500.0 47.707372166666644
12800.0 55.52685319055054
13200.0 57.08920220822732
13600.0 54.055833725717875
14000.0 50.17057610402607
14500.0 50.72951400041673
15000.0 52.79003951396258
15500.0 52.50302521119782
16000.0 47.11569459486181
16500.0 45.226906715068864
17000.0 48.927204996074394
17500.0 49.481878946437874
18000.0 47.659760569533105
18500.0 47.30498329592602
19000.0 47.36121157058612
19500.0 45.31091832270623
