Freq "Side Wall Bounce"
22.4 39.4118473511832
23.0 41.17126541169942
23.6 42.70856177915219
24.0 44.15511737811262
25.0 45.47749964456084
25.8 48.767475605105844
26.5 51.777112100499394
27.2 54.09073522995318
28.0 56.033456557870736
29.0 57.7102945098474
30.0 59.157163039895025
30.7 61.44152691245584
31.5 64.2703127232625
32.5 66.50041169595426
33.5 68.38642653416571
34.5 69.9126205240649
35.5 71.4572773349147
36.5 73.2738518816672
37.5 74.88633819943317
38.7 76.28239941975725
40.0 77.50290173516275
41.2 78.64412041095619
42.5 79.6687629888874
43.7 80.62304224559342
45.0 81.50140124583581
46.2 82.12415290956557
47.5 82.49145042375449
48.7 82.82077444299554
50.0 83.18903791095003
51.5 83.42828799250454
53.0 83.65256564302616
54.5 83.87373691510557
56.0 84.16587935305877
58.0 84.52660232509297
60.0 84.79711496072424
61.5 85.04732650645396
63.0 85.255834976034
65.0 85.44893387733802
67.0 85.75664761208621
69.0 86.05596838404072
71.0 86.2962141847863
73.0 86.54657101243487
75.0 86.76677331000256
77.5 86.89685012466391
80.0 86.96463202554071
82.5 87.05465398652103
85.0 87.16222520153204
87.5 87.2004813358808
90.0 87.2772437504957
92.5 87.27640861652488
95.0 87.23496129715471
97.5 87.26183285766764
100.0 87.27176754885248
103.0 87.33450930166505
106.0 87.33450930166505
109.0 87.35899149195855
112.0 87.35268750437767
115.0 87.30519000730679
118.0 87.2097746924065
122.0 87.12445918833504
125.0 87.06474479565888
128.0 87.0029748762488
132.0 86.91867561027922
136.0 86.87794199209775
140.0 86.79932396371314
145.0 86.74546483253359
150.0 86.67309370018225
155.0 86.63623155064728
160.0 86.61124622041493
165.0 86.6044192774522
170.0 86.58788963912035
175.0 86.57125208210284
180.0 86.53813661572967
185.0 86.46228198321641
190.0 86.35653432264878
195.0 86.24110009691367
200.0 86.16786840523568
206.0 86.09935638355684
212.0 86.01298313831067
218.0 85.94811197396076
224.0 85.9356356124211
230.0 85.91542507027764
236.0 85.88426280307894
240.0 85.84317258480098
250.0 85.7797881873398
258.0 85.70016486327732
265.0 85.59362874545046
272.0 85.45739029204998
280.0 85.27787208013822
290.0 85.07145195707803
300.0 84.88023535018237
307.0 84.65250858262652
315.0 84.41475830486193
325.0 84.20106560477707
335.0 84.0459679876737
345.0 83.95337625504725
355.0 83.8593499475516
365.0 83.80138980162972
375.0 83.74966912299635
387.0 83.7683378083112
400.0 83.75068917794145
412.0 83.7188833903107
425.0 83.69196110373913
437.0 83.61674408060583
450.0 83.56816668446199
462.0 83.50369595146947
475.0 83.46708386736299
487.0 83.40382492634372
500.0 83.39068447708769
515.0 83.36071244053038
530.0 83.24812603826892
545.0 83.10485960287437
560.0 82.87844054505659
580.0 82.56212421623725
600.0 82.27000057968782
615.0 81.94670383721974
630.0 81.75126792932865
650.0 81.6849551755267
670.0 81.72086156347072
690.0 81.76838405343648
710.0 81.89822674520481
730.0 81.97313603180933
750.0 82.18249249675053
775.0 82.4495584006721
800.0 82.87592110909235
825.0 83.10018004745238
850.0 83.05633583818874
875.0 82.55497218353527
900.0 81.9752356463164
925.0 81.83906248178731
950.0 81.7402185603591
975.0 81.27236501686775
1000.0 80.7371520019129
1030.0 80.56078691005547
1060.0 80.60030455659154
1090.0 80.4451315255301
1120.0 80.21400580065416
1150.0 80.22427878190318
1180.0 80.26336080353633
1220.0 80.15410468179418
1250.0 79.60247381427725
1280.0 78.85255593296326
1320.0 78.57788110531743
1360.0 78.97938911403277
1400.0 79.47201628544705
1450.0 80.00092943544799
1500.0 80.4915619481374
1550.0 80.53492668069892
1600.0 80.33365557132744
1650.0 80.6327388963863
1700.0 81.0514959528251
1750.0 81.08387976309835
1800.0 80.66297669623599
1850.0 80.55003321376138
1900.0 81.39250577856879
1950.0 81.18747670382868
2000.0 80.30916119214427
2060.0 79.80358908363512
2120.0 79.63439802630323
2180.0 79.58228151669196
2240.0 79.51045362210299
2300.0 79.45875736186225
2360.0 79.56466317405034
2400.0 79.70833506171333
2500.0 79.73297297671603
2580.0 79.46176524644945
2650.0 79.03078549532349
2720.0 78.66380582871882
2800.0 78.61215299539667
2900.0 79.03967839841128
3000.0 79.86467354898743
3070.0 80.28692645996612
3150.0 79.33292427364232
3250.0 77.57089624213482
3350.0 77.01607429631387
3450.0 78.73429288247233
3550.0 80.27604094691569
3650.0 80.38718405157314
3750.0 80.20963173920785
3870.0 80.56432846045844
4000.0 81.00765700716856
4120.0 81.60052335292036
4250.0 82.26060429423222
4370.0 82.73103482282387
4500.0 83.07971758287552
4620.0 83.30114099542017
4750.0 83.25911411524316
4870.0 82.9110857281925
5000.0 81.9763611321595
5150.0 80.04180596559515
5300.0 77.13559273036326
5450.0 77.06041091382725
5600.0 80.19556349834927
5800.0 82.90258768517315
6000.0 84.44433960024601
6150.0 84.62123346477615
6300.0 84.17992762377456
6500.0 84.04071823337686
6700.0 83.76701191909034
6900.0 82.6565995931365
7100.0 80.95181735084437
7300.0 80.8366921713763
7500.0 82.44059579624712
7750.0 84.00148633491335
8000.0 85.48483956943357
8250.0 86.1012249133744
8500.0 85.51327057286979
8750.0 84.04067697080892
9000.0 81.02854031897763
9250.0 80.29435758578055
9500.0 83.25031653352121
9750.0 84.88831087575414
10000.0 84.53573323104715
10300.0 81.65892599347316
10600.0 79.54743558576833
10900.0 81.88894082088936
11200.0 84.7641917946747
11500.0 86.02608814328984
11800.0 84.35171271262442
12200.0 78.46840859545598
12500.0 71.27594269111346
12800.0 79.34983359350734
13200.0 81.13279716956508
13600.0 78.4316706282001
14000.0 74.90107342042805
14500.0 75.8927153427346
15000.0 78.41242162421973
15500.0 78.51777082026813
16000.0 73.42702418781839
16500.0 71.65937155892932
17000.0 75.37277638731403
17500.0 75.83653881609388
18000.0 73.63933971988217
18500.0 72.70080651306921
19000.0 71.95430902419402
19500.0 69.056758703453
