Freq,On Axis,Listening Window,Sound Power,Early Reflections,Early Reflections DI,Sound Power DI,DI offset
22.4,8.300000000000011,10.709147053314496,7.050691282714354,9.23769825827273,41.471448795041766,43.65845577060014,40
23.0,9.5,11.81613020486617,8.019760257716058,10.160563490400108,41.65556671446606,43.79636994715011,40
23.6,10.400000000000006,12.76703811383237,8.835559900574935,10.929998528144154,41.83703958568822,43.931478213257435,40
24.0,11.300000000000011,13.572992475102296,9.514800181132642,11.576358514030915,41.99663396107138,44.058192293969654,40
25.0,12.099999999999994,14.394567178368561,10.165936360681002,12.185869340064443,42.20869783830412,44.22863081768756,40
25.8,13.900000000000034,16.444714714961293,11.977473950308507,14.034133743377765,42.41058097158353,44.467240764652786,40
26.5,15.5,18.33911927857625,13.62138408795255,15.734159919910951,42.6049593586653,44.7177351906237,40
27.2,16.69999999999999,19.85916726203604,14.869305238684177,17.062041461861895,42.79712580017414,44.98986202335186,40
28.0,17.599999999999994,21.14243068647272,15.883048925386703,18.13969437761469,43.00273630885803,45.25938176108602,40
29.0,18.400000000000006,22.268024229350317,16.74163330030717,19.066270454752242,43.201753774598075,45.526390929043146,40
30.0,19.0,23.28206368535129,17.472262696266455,19.88037652751865,43.40168715783264,45.809800989084835,40
30.7,20.30000000000001,24.888036091181874,18.89495067362853,21.349674743714388,43.538361347467486,45.993085417553345,40
31.5,21.899999999999977,26.727893312255418,20.701096255111594,23.136229616510576,43.59166369574484,46.026797057143824,40
32.5,23.0,28.037406145068644,22.00249508494454,24.416295702072915,43.62111044299573,46.0349110601241,40
33.5,23.900000000000034,29.060391025093082,22.97845590173202,25.389819320486794,43.67057170460629,46.08193512336106,40
34.5,24.5,29.841619025793705,23.76618544794951,26.146170794410466,43.69544823138324,46.075433577844194,40
35.5,25.19999999999999,30.757950927399577,24.70401143167129,27.037982774645485,43.71996815275409,46.05393949572829,40
36.5,27.099999999999994,32.3972963552977,26.53758709660474,28.76061241970808,43.636683935589616,45.85970925869296,40
37.5,28.599999999999994,33.62633433949381,27.994840361405522,30.109480325031512,43.5168540144623,45.63149397808829,40
38.7,29.80000000000001,34.5489116924368,29.179893672696466,31.161079897331575,43.38783179510523,45.36901801974034,40
40.0,30.900000000000006,35.34944650326591,30.21374509084771,32.08246275379372,43.26698374947219,45.1357014124182,40
41.2,32.80000000000001,36.88618105957187,32.06846535048277,33.78854178606727,43.0976392735046,44.8177157090891,40
42.5,35.30000000000001,38.76924913051562,34.39150491983594,35.92718559058093,42.842063539934685,44.37774421067968,40
43.7,37.19999999999999,40.21836443260929,36.19154388015497,37.58737993711259,42.630984495496705,44.026820552454325,40
45.0,38.80000000000001,41.35323465805729,37.710185043050615,38.960620008135976,42.39261464992131,43.643049615006674,40
46.2,40.599999999999994,42.76618182616107,39.4797905191393,40.595511791141575,42.1706700350195,43.28639130702177,40
47.5,42.80000000000001,44.45133623610016,41.565897005823444,42.53417310789095,41.91716312820921,42.88543923027672,40
48.7,44.5,45.83077968630852,43.2884708982543,44.147922096706765,41.68285758960175,42.542308788054214,40
50.0,46.099999999999994,47.08732279101693,44.786964693192886,45.56962747676215,41.51769531425478,42.300358097824045,40
51.5,47.900000000000006,48.689010557453685,46.666222263918854,47.364443201295586,41.3245673561581,42.02278829353483,40
53.0,49.599999999999994,50.2029164912158,48.43006157637652,49.053015775575744,41.14990071564006,41.772854914839286,40
54.5,51.19999999999999,51.53797801468252,49.93260236680072,50.51407699546206,41.02390101922046,41.6053756478818,40
56.0,53.0,53.29336385978348,51.84377568543749,52.37969490877782,40.91366895100566,41.44958817434599,40
58.0,55.19999999999999,55.335958447416886,54.04312691076635,54.552216513997564,40.78374193341932,41.29283153665054,40
60.0,56.900000000000006,57.01854082174009,55.82058803828892,56.30158966068461,40.716951161055476,41.19795278345117,40
61.5,58.5,58.549197330210376,57.43677719505173,57.901747442582746,40.64744988762763,41.112420135158644,40
63.0,60.0,59.99083467549667,58.90680370621176,59.37176559249238,40.61906908300429,41.08403096928491,40
65.0,61.2,61.21040422941786,60.19332535507583,60.643646060429404,40.56675816898846,41.01707887434203,40
67.0,62.599999999999994,62.63899440933707,61.653561192295484,62.097571803970936,40.54142260536614,40.98543321704159,40
69.0,64.0,63.97779130900827,63.0781672081346,63.5056301147884,40.472161194219865,40.899624100873666,40
71.0,65.29999999999998,65.24040608534229,64.40109536105169,64.8155585910486,40.42484749429369,40.8393107242906,40
73.0,66.6,66.6030002749102,65.81811799691954,66.21227485545951,40.39072541945069,40.78488227799066,40
75.0,67.79999999999998,67.83340299023988,67.09480156141288,67.47436797369863,40.35903501654124,40.738601428826996,40
77.5,68.9,68.89766097800901,68.18303944863422,68.54927158581141,40.3483893921976,40.714621529374796,40
80.0,69.8,69.82957002060704,69.1605592689913,69.51199752871234,40.317572491894694,40.66901075161573,40
82.5,70.8,70.84021825401149,70.20267116110996,70.54500747468397,40.29521077932752,40.63754709290153,40
85.0,71.8,71.89410140482778,71.34078468293714,71.65439340800162,40.239707996826155,40.55331672189064,40
87.5,72.79999999999998,72.82675981624485,72.29129596825828,72.58210734476813,40.24465247147671,40.53546384798656,40
90.0,73.5,73.61531356459264,73.09504367781166,73.38073380738385,40.23457975720879,40.52026988678098,40
92.5,74.19999999999999,74.29233015867607,73.78082807463991,74.05753631513501,40.234793843541055,40.51150208403615,40
95.0,74.7,74.83665939792249,74.31517997867253,74.59018952985822,40.24646986806427,40.52147941924996,40
97.5,75.4,75.46997382606371,74.94702415871376,75.22280676574212,40.24716706032159,40.52294966734995,40
100.0,76.0,76.12549360620403,75.60159196021196,75.87798364964698,40.24750995655705,40.52390164599207,40
103.0,76.6,76.70330777523783,76.16378115420477,76.45247174946549,40.250836025772344,40.53952662103306,40
106.0,77.2,77.29179946408247,76.67741357427983,76.97856494824201,40.31323451584046,40.61438588980265,40
109.0,77.9,77.9694641321423,77.3013888410409,77.64345725488037,40.32600687726193,40.6680752911014,40
112.0,78.5,78.56972778517516,77.82213619769111,78.19110144697441,40.378626338200746,40.74759158748405,40
115.0,79.0,78.99204995956384,78.19821244921235,78.59520501216227,40.396844947401576,40.793837510351494,40
118.0,79.4,79.38077472128379,78.4848890515415,78.93361215481664,40.44716256646714,40.895885669742285,40
122.0,79.7,79.69231224504878,78.7449418682287,79.2134081552793,40.478904089769486,40.94737037682009,40
125.0,80.0,79.97022558355184,78.96281083859644,79.46371981980013,40.506505763751704,41.0074147449554,40
128.0,80.1,80.10280793444538,79.06956158964849,79.58695825505951,40.515849679385866,41.03324634479689,40
132.0,80.29999999999998,80.27022558355185,79.16534989037632,79.7177436743238,40.55248190922805,41.10487569317553,40
136.0,80.4,80.40280793444538,79.24011061150972,79.8259180234601,40.57688991098527,41.16269732293566,40
140.0,80.5,80.4361340930007,79.255436121033,79.85634257043102,40.57979152256968,41.1806979719677,40
145.0,80.5,80.49129829693562,79.25664899768321,79.88194930460403,40.60934899233159,41.23464929925241,40
150.0,80.5,80.49104775809431,79.21005371254708,79.87050983643132,40.62053792166299,41.28099404554723,40
155.0,80.5,80.49104775809431,79.17060331032803,79.85106922487935,40.63997853321496,41.32044444776628,40
160.0,80.5,80.42471255399875,79.07666678319501,79.77894683512808,40.64576571887066,41.348045770803736,40
165.0,80.5,80.3910477580943,78.99029552061181,79.72653080330323,40.66451695479107,41.40075223748249,40
170.0,80.4,80.32419779300915,78.88399346909132,79.63668190301767,40.687515889991474,41.440204323917825,40
175.0,80.4,80.30229639130465,78.80008354145849,79.57322564921643,40.729070742088226,41.50221284984616,40
180.0,80.4,80.24701360926962,78.7131427450137,79.5122851004513,40.73472850881832,41.53387086425592,40
185.0,80.4,80.24701360926962,78.63708421455358,79.4740630745894,40.77295053468022,41.60992939471603,40
190.0,80.4,80.23588035141759,78.58449138786158,79.42960753017526,40.80627282124233,41.651388963556016,40
195.0,80.4,80.23588035141759,78.5343826402506,79.41399121993152,40.821889131486074,41.701497711166994,40
200.0,80.4,80.24727259632452,78.51918338040633,79.41317521918337,40.83409737714115,41.72808921591819,40
206.0,80.5,80.32546438085286,78.53385857549398,79.45491561512881,40.87054876572405,41.791605805358884,40
212.0,80.5,80.33688394538859,78.52615299666535,79.4570238236132,40.879860121775394,41.81073094872325,40
218.0,80.6,80.42546438085287,78.54576277683486,79.50820699485749,40.917257385995384,41.87970160401801,40
224.0,80.6,80.45963940099224,78.58136053253801,79.55820784675107,40.90143155424117,41.87827886845423,40
230.0,80.7,80.57071199553494,78.62511100732189,79.61516851189819,40.955543483636745,41.945600988213045,40
236.0,80.8,80.61626968427585,78.64456082772769,79.6378247154977,40.97844496877815,41.97170885654816,40
240.0,80.9,80.69529580624884,78.65239466848047,79.66487631702992,41.030419489218914,42.04290113776837,40
250.0,80.9,80.7065334562127,78.64681444352001,79.66876389488695,41.037769561325746,42.05971901269268,40
258.0,80.9,80.69628576518426,78.57743204912435,79.60715449933534,41.08913126584892,42.1188537160599,40
265.0,80.8,80.61951502143822,78.46381560185952,79.50030215700193,41.11921286443629,42.155699419578696,40
272.0,80.8,80.53121622113235,78.30658412757053,79.37101243203364,41.160203789098716,42.22463209356182,40
280.0,80.7,80.44288597896967,78.15125228990763,79.24684302674291,41.19604295222676,42.29163368906204,40
290.0,80.6,80.35479518723713,77.99899634277205,79.11950400039049,41.23529118684664,42.355798844465085,40
300.0,80.5,80.24511750495459,77.82074959814122,78.97519155557812,41.26992594937647,42.42436790681337,40
307.0,80.4,80.20081126272632,77.64780678887028,78.8503510296587,41.35046023306762,42.553004473856035,40
315.0,80.4,80.13652127588894,77.49453456717384,78.76507068326885,41.37145059262009,42.641986708715095,40
325.0,80.4,80.12428281691649,77.37116614086163,78.70196017794282,41.42232263897367,42.75311667605486,40
335.0,80.4,80.12428281691649,77.2337734160857,78.65034546157864,41.47393735533785,42.890509400830794,40
345.0,80.4,80.12254016892322,77.11289138288721,78.6132519564339,41.509288212489324,43.00964878603601,40
355.0,80.4,80.14511750495458,77.02672460902036,78.60939979811118,41.5357177068434,43.11839289593422,40
365.0,80.4,80.17648560564149,76.95173160746243,78.61960458067551,41.556881024965975,43.224753998179054,40
375.0,80.5,80.23167426452235,76.84695402817636,78.61533700817469,41.61633725634766,43.384720236346,40
387.0,80.4,80.13066946580504,76.6630952194102,78.53013778104,41.600531684765045,43.46757424639485,40
400.0,80.4,80.13041540473448,76.53741029963548,78.49783377326202,41.63258163147246,43.593005105098996,40
412.0,80.4,80.09705099293973,76.39592476476503,78.43242917293637,41.66462182000336,43.7011262281747,40
425.0,80.20000000000002,79.93066946580505,76.14965336868063,78.25328369212372,41.67738577368134,43.78101609712442,40
437.0,80.20000000000002,79.86431744890895,76.01492147095678,78.19241839412197,41.67189905478698,43.84939597795217,40
450.0,80.1,79.787449185341,75.89784666552345,78.11563431094054,41.67181487440047,43.88960251981756,40
462.0,80.0,79.73066946580505,75.80777579362619,78.03705335375531,41.69361611204974,43.92289367217886,40
475.0,80.0,79.72165151290764,75.76880338899775,78.01889856902436,41.70275294388328,43.95284812390989,40
487.0,80.1,79.77715086463549,75.80957513757551,78.06444654118552,41.71270432344997,43.96757572705998,40
500.0,80.1,79.8655607847175,75.88188606038176,78.1257990518032,41.7397617329143,43.98367472433574,40
515.0,80.20000000000002,79.9559745682038,75.94956365014224,78.1784803501665,41.777494218037305,44.00641091806156,40
530.0,80.20000000000002,79.95783240140788,75.95154316167194,78.15327180156368,41.80456059984421,44.00628923973595,40
545.0,80.20000000000002,79.99447071464655,75.94231519088831,78.12016308918899,41.87430762545756,44.052155523758245,40
560.0,80.20000000000002,79.96226154985288,75.90269948938672,78.04043782214556,41.92182372770732,44.05956206046616,40
580.0,80.20000000000002,79.91985402039268,75.76158760003665,77.89991127075658,42.0199427496361,44.15826642035603,40
600.0,80.20000000000002,79.89549002721662,75.64522892254249,77.8068204998616,42.08866952735502,44.25026110467414,40
615.0,80.20000000000002,79.88555170827348,75.54851054184996,77.7251824441812,42.16036926409228,44.33704116642352,40
630.0,80.4,79.98553292110098,75.50761478906682,77.73375665923851,42.251776261862474,44.47791813203416,40
650.0,80.4,80.00675155014187,75.41240237780929,77.68853751253593,42.31821403760594,44.594349172332585,40
670.0,80.4,79.95078729132241,75.2272856841897,77.58420690385928,42.36658038746313,44.72350160713272,40
690.0,80.4,79.91862526552363,75.04946101552522,77.49666923527647,42.42195603024716,44.869164249998406,40
710.0,80.29999999999998,79.81835849172091,74.81361929905553,77.34489102451592,42.473467467205,45.00473919266538,40
730.0,80.1,79.7154495428465,74.63053828914144,77.22916025361559,42.48628928923091,45.08491125370506,40
750.0,80.0,79.64759243375735,74.47369560238283,77.14609838929236,42.50149404446499,45.17389683137452,40
775.0,79.9,79.60037483508447,74.35009417911081,77.07939691694116,42.5209779181433,45.250280655973654,40
800.0,79.8,79.56669026683508,74.23192028708236,77.01985782847636,42.54683243835872,45.33476997975272,40
825.0,79.7,79.49812643740881,74.07758363832241,76.91467612803956,42.583450309369255,45.420542799086405,40
850.0,79.8,79.52136367101926,73.97309961673446,76.87238197990526,42.648981691114,45.5482640542848,40
875.0,79.9,79.64221233439923,73.95882540247487,76.91854370329182,42.723668631107415,45.68338693192436,40
900.0,80.20000000000002,79.8888805202473,74.02898802753978,77.05686683268199,42.83201368756531,45.859892492707516,40
925.0,80.4,80.04542828283856,74.01832657630803,77.13135489381875,42.914073389019805,46.02710170653053,40
950.0,80.6,80.15956094824736,73.92166822917476,77.11889733785495,43.040663610392414,46.237892719072605,40
975.0,80.6,80.15129483306953,73.69777161517831,76.97825546332027,43.17303936974926,46.45352321789122,40
1000.0,80.5,79.97935100856098,73.30600096523423,76.67970840905042,43.29964259951056,46.67335004332675,40
1030.0,80.29999999999998,79.7412304717418,72.84301961050545,76.33566116942959,43.405569302312216,46.89821086123635,40
1060.0,80.20000000000002,79.58098531970593,72.42245507527393,76.04424201533713,43.5367433043688,47.158530244432,40
1090.0,80.20000000000002,79.58915669777588,72.18803307354679,75.94236507288159,43.64679162489429,47.401123624229086,40
1120.0,80.29999999999998,79.64274550816273,72.04203869361302,75.90444333390653,43.738302174256205,47.60070681454971,40
1150.0,80.4,79.7384281243594,71.95287402841305,75.9347283856189,43.803699738740505,47.78555409594635,40
1180.0,80.6,79.8173780931878,71.83063435023436,75.94235450929426,43.87502358389354,47.986743742953436,40
1220.0,80.6,79.75930065402447,71.6052184891654,75.82770497753539,43.93159567648908,48.154082164859076,40
1250.0,80.5,79.62564827441417,71.33062526952928,75.64717531940744,43.97847295500674,48.2950230048849,40
1280.0,80.4,79.47002778033358,71.05351357393154,75.43311461313439,44.03691316719919,48.41651420640204,40
1320.0,80.4,79.41781338239966,70.84689475239568,75.3008925434535,44.11692083894616,48.57091863000397,40
1360.0,80.4,79.39867749150146,70.700204743654,75.19877622003905,44.19990127146241,48.69847274784746,40
1400.0,80.29999999999998,79.29867749150145,70.50554960094043,75.01036444461259,44.28831304688886,48.793127890561024,40
1450.0,80.20000000000002,79.17282382050936,70.26804099455356,74.75753274933321,44.415291071176156,48.904782825955806,40
1500.0,80.20000000000002,79.11713254256381,70.09469388328628,74.54647297576653,44.570659566797275,49.022438659277526,40
1550.0,80.29999999999998,79.17491637144116,70.05133580046478,74.45363365003844,44.721282721402716,49.12358057097637,40
1600.0,80.29999999999998,79.16333247908003,69.96690832255739,74.33176369064536,44.831568788434666,49.19642415652264,40
1650.0,80.4,79.23891394844162,69.95501572539595,74.33661474429131,44.90229920415031,49.28389822304567,40
1700.0,80.29999999999998,79.1528112280981,69.78489078080032,74.18305921500739,44.96975201309071,49.36792044729778,40
1750.0,80.20000000000002,79.10979981599266,69.64989619086137,74.09538825197441,45.014411564018246,49.45990362513129,40
1800.0,80.20000000000002,79.13919277641826,69.64593582244468,74.1057379399152,45.033454836503054,49.49325695397357,40
1850.0,80.20000000000002,79.14914360593428,69.65358765421695,74.11824052390416,45.03090308203012,49.495555951717336,40
1900.0,80.0,79.11640872940839,69.68531759830192,74.11279236510856,45.00361636429983,49.43109113110647,40
1950.0,79.8,78.96697201556871,69.61443521845356,74.00346770982395,44.96350430574476,49.35253679711515,40
2000.0,79.6,78.83537278859083,69.54741256513738,73.90362862238747,44.93174416620336,49.28796022345345,40
2060.0,79.6,78.817915662698,69.60198795279342,73.92582066328539,44.892094999412606,49.21592770990458,40
2120.0,79.7,78.92413716377712,69.76041120450581,74.06451273860623,44.85962442517089,49.163725959271304,40
2180.0,79.8,79.10001432484171,70.00140931549791,74.27498444645173,44.825029878389984,49.0986050093438,40
2240.0,80.0,79.24642739298866,70.20883928923502,74.45040635760299,44.79602103538568,49.03758810375365,40
2300.0,80.0,79.2471042762704,70.3065783380945,74.49851642358801,44.74858785268239,48.94052593817591,40
2360.0,80.0,79.15266667048758,70.37181780231707,74.49356530942435,44.65910136106322,48.78084886817051,40
2400.0,80.1,79.12853284891811,70.49256957469062,74.56301437666028,44.565518472257835,48.63596327422749,40
2500.0,80.1,79.05125084467244,70.5805093594348,74.57677051906497,44.47448032560747,48.47074148523764,40
2580.0,80.20000000000002,79.00015357928446,70.68583959476278,74.6484350385154,44.351718540769056,48.314313984521675,40
2650.0,80.29999999999998,78.95919601798391,70.83433984359715,74.75289787979328,44.20629813819063,48.124856174386764,40
2720.0,80.1,78.59617493132905,70.61273658091235,74.51139137283464,44.08478355849441,47.98343835041669,40
2800.0,79.6,78.05730109656945,70.19017807452452,74.11060873209637,43.94669236447308,47.86712302204492,40
2900.0,79.4,77.77811370171227,69.92929993399966,73.90620030868627,43.871913393026006,47.84881376771261,40
3000.0,79.19999999999999,77.56918126898029,69.71173143244576,73.79469555300614,43.77448571597415,47.85744983653453,40
3070.0,78.7,77.10469321839916,69.2022547919386,73.38738120622764,43.71731201217152,47.90243842646056,40
3150.0,78.1,76.6072221459766,68.62147764849531,72.91112122614052,43.696100919836084,47.98574449748129,40
3250.0,78.0,76.53417430866148,68.41541611143197,72.82966600478333,43.70450830387814,48.11875819722951,40
3350.0,78.1,76.7296833736965,68.41657453240958,72.94861527894214,43.78106809475436,48.31310884128692,40
3450.0,78.0,76.76805469400352,68.26017689425305,72.88163654474725,43.88641814925627,48.507877799750474,40
3550.0,78.0,76.77916376216622,68.08262648063703,72.7568678887824,44.022295873383825,48.69653728152919,40
3650.0,78.4,77.103283019762,68.1807771682881,72.89097518658505,44.21230783317695,48.9225058514739,40
3750.0,79.0,77.72647876394811,68.58013959824726,73.28084255844837,44.44563620549974,49.14633916570085,40
3870.0,79.6,78.20898546385547,68.8797771645912,73.57554286777835,44.63344259607712,49.329208299264266,40
4000.0,79.9,78.45708369175097,69.0379632217937,73.69511627485936,44.76196741689161,49.419120469957264,40
4120.0,80.0,78.50806980585092,69.07846691347423,73.67245119401441,44.83561861183651,49.42960289237669,40
4250.0,80.1,78.4462125953169,69.08468549674738,73.58723161118199,44.8589809841349,49.36152709856951,40
